Data from test_V78500241_337.txt Node
Date: Fri Mar 25 14:36:04 CST 2022
User: usil
Spectrometer: V785-0024
Trigger mode: 0
Integration Time (sec): 4.000000E-1
Scans to average: 1
Nonlinearity correction enabled: false
Boxcar width: 0
Storing dark spectrum: false
XAxis mode: Wavelengths
Number of Pixels in Spectrum: 1024
>>>>>Begin Spectral Data<<<<<
801.071	26944
801.214	26956
801.356	26476
801.499	26499
801.641	26434
801.783	26328
801.926	26355
802.068	26256
802.211	26282
802.353	26157
802.496	25871
802.638	25955
802.78	25986
802.923	25868
803.065	25814
803.208	25738
803.35	25795
803.492	25890
803.635	26050
803.777	25814
803.919	25917
804.061	26206
804.204	26043
804.346	25780
804.488	25814
804.63	25803
804.773	25677
804.915	25978
805.057	25966
805.199	25803
805.341	25928
805.483	25849
805.626	25883
805.768	25784
805.91	25940
806.052	25852
806.194	25997
806.336	26134
806.478	25963
806.62	25818
806.762	25803
806.904	26039
807.046	26423
807.188	26115
807.33	26301
807.472	26408
807.614	26187
807.756	26202
807.898	26111
808.04	26039
808.182	26103
808.324	25982
808.465	26024
808.607	26328
808.749	26495
808.891	26495
809.033	26648
809.174	26438
809.316	26393
809.458	26309
809.6	26393
809.741	26412
809.883	26469
810.025	26568
810.166	26526
810.308	26629
810.45	26495
810.591	26556
810.733	26438
810.875	26176
811.016	26096
811.158	26100
811.299	26240
811.441	26381
811.582	26301
811.724	26233
811.865	26252
812.007	26339
812.148	26294
812.29	26271
812.431	26377
812.573	26541
812.714	26488
812.855	26674
812.997	26678
813.138	26979
813.279	26823
813.421	26720
813.562	26686
813.703	26568
813.845	26533
813.986	26058
814.127	25978
814.268	25864
814.41	25712
814.551	25852
814.692	25753
814.833	25734
814.974	25677
815.115	25738
815.256	25525
815.397	25586
815.539	25609
815.68	25510
815.821	25441
815.962	25578
816.103	25457
816.244	25434
816.385	25251
816.526	25244
816.666	25168
816.807	25004
816.948	24886
817.089	25004
817.23	24928
817.371	24970
817.512	24943
817.653	24897
817.793	24856
817.934	25034
818.075	24871
818.216	24894
818.356	24897
818.497	24859
818.638	24612
818.778	24654
818.919	24608
819.06	24661
819.2	24692
819.341	24730
819.481	24722
819.622	25000
819.762	25129
819.903	25061
820.043	24951
820.184	24939
820.324	24833
820.465	24973
820.605	25053
820.746	24859
820.886	24741
821.026	24878
821.167	24825
821.307	24776
821.447	24814
821.588	24639
821.728	24521
821.868	24258
822.008	24277
822.149	24254
822.289	24098
822.429	24038
822.569	23851
822.709	23984
822.849	23809
822.99	23699
823.13	23733
823.27	23615
823.41	23592
823.55	23482
823.69	23493
823.83	23642
823.97	23421
824.11	23239
824.25	23231
824.389	23307
824.529	23379
824.669	23193
824.809	23440
824.949	23258
825.089	23322
825.228	23318
825.368	23003
825.508	23121
825.648	23113
825.787	23086
825.927	23140
826.067	23105
826.206	23083
826.346	23185
826.485	23025
826.625	23067
826.765	23220
826.904	23067
827.044	22824
827.183	22801
827.323	22717
827.462	22717
827.601	22706
827.741	22683
827.88	22740
828.02	22615
828.159	22706
828.298	22793
828.437	22850
828.577	22500
828.716	22755
828.855	22675
828.994	22394
829.134	22443
829.273	22538
829.412	22424
829.551	22329
829.69	22318
829.829	22455
829.968	22478
830.107	22481
830.246	22481
830.385	22318
830.524	22314
830.663	22185
830.802	22021
830.941	22040
831.08	21918
831.219	22211
831.357	22032
831.496	22303
831.635	21956
831.774	21857
831.913	21888
832.051	21732
832.19	21747
832.329	21736
832.467	21625
832.606	21599
832.744	21523
832.883	21599
833.022	21576
833.16	21682
833.299	21561
833.437	21523
833.576	21679
833.714	21648
833.852	21663
833.991	21755
834.129	21831
834.267	21785
834.406	21656
834.544	21743
834.682	21591
834.821	21663
834.959	21774
835.097	21557
835.235	21660
835.373	21743
835.511	21648
835.65	21587
835.788	21431
835.926	21340
836.064	21226
836.202	21321
836.34	21511
836.478	21538
836.615	21408
836.753	21561
836.891	21561
837.029	21553
837.167	21511
837.305	21348
837.443	21317
837.58	21401
837.718	21477
837.856	21405
837.993	21233
838.131	21264
838.269	21233
838.406	21268
838.544	21207
838.681	21005
838.819	20998
838.956	20785
839.094	20686
839.231	20670
839.369	20876
839.506	21100
839.643	21184
839.781	20857
839.918	20750
840.055	20701
840.193	20746
840.33	20674
840.467	20659
840.604	20754
840.742	20906
840.879	20609
841.016	20640
841.153	20507
841.29	20773
841.427	20667
841.564	20686
841.701	20655
841.838	20712
841.975	20522
842.112	20556
842.249	20530
842.385	20404
842.522	20613
842.659	20549
842.796	20492
842.933	20404
843.069	20275
843.206	20328
843.343	20514
843.479	20450
843.616	20526
843.752	20168
843.889	20248
844.025	20259
844.162	20092
844.298	20294
844.435	20263
844.571	20119
844.708	20229
844.844	20195
844.98	20317
845.117	20244
845.253	20024
845.389	20054
845.525	20069
845.661	19982
845.798	20020
845.934	19997
846.07	19947
846.206	20035
846.342	20096
846.478	19982
846.614	19776
846.75	19757
846.886	19772
847.022	19544
847.158	19704
847.294	19674
847.429	19594
847.565	19616
847.701	19928
847.837	19327
847.972	19316
848.108	19422
848.244	19381
848.379	19236
848.515	19228
848.65	19247
848.786	19293
848.921	19327
849.057	19225
849.192	19259
849.328	19175
849.463	19225
849.598	19209
849.734	19053
849.869	19053
850.004	18951
850.14	18916
850.275	18882
850.41	18871
850.545	18875
850.68	18871
850.815	18859
850.95	18916
851.085	19057
851.22	19038
851.355	18932
851.49	18833
851.625	18791
851.76	18829
851.895	18817
852.03	18833
852.165	18890
852.299	18932
852.434	19027
852.569	18951
852.703	18973
852.838	18993
852.973	18996
853.107	19065
853.242	18806
853.376	18871
853.511	18681
853.645	18741
853.78	18840
853.914	18760
854.048	18730
854.183	18700
854.317	18760
854.451	18863
854.585	18692
854.72	18593
854.854	18730
854.988	18760
855.122	18654
855.256	18540
855.39	18608
855.524	18711
855.658	18779
855.792	18745
855.926	18757
856.06	18764
856.194	18821
856.327	18711
856.461	18612
856.595	18673
856.729	18559
856.862	18932
856.996	18757
857.13	18814
857.263	18916
857.397	18749
857.53	18722
857.664	18734
857.797	18623
857.931	18821
858.064	18585
858.197	18791
858.331	18730
858.464	18623
858.597	18521
858.731	18688
858.864	18696
858.997	18669
859.13	18741
859.263	18760
859.396	18684
859.529	18692
859.662	18749
859.795	18627
859.928	18654
860.061	18837
860.194	18837
860.327	18665
860.46	18574
860.592	18856
860.725	18856
860.858	18741
860.99	18661
861.123	18521
861.256	18585
861.388	18684
861.521	19388
861.653	18506
861.786	18471
861.918	18604
862.05	18620
862.183	18681
862.315	18715
862.447	18734
862.58	18593
862.712	18395
862.844	18433
862.976	18574
863.108	18422
863.24	18719
863.372	18403
863.504	18361
863.636	18338
863.768	18418
863.9	18464
864.032	18186
864.164	18342
864.296	18308
864.428	18467
864.559	18467
864.691	18376
864.823	18327
864.954	18380
865.086	18338
865.217	18338
865.349	18235
865.48	18289
865.612	18338
865.743	18509
865.875	18327
866.006	18178
866.137	18262
866.269	18311
866.4	18228
866.531	18323
866.662	18140
866.793	18308
866.924	18304
867.055	18388
867.186	18380
867.317	18224
867.448	18292
867.579	18213
867.71	18205
867.841	18095
867.972	18258
868.103	18220
868.233	18186
868.364	18300
868.495	18372
868.625	18498
868.756	18490
868.886	18426
869.017	18486
869.147	18540
869.278	18582
869.408	18593
869.539	18502
869.669	18471
869.799	18456
869.929	18627
870.06	18597
870.19	18897
870.32	18677
870.45	18795
870.58	18856
870.71	19012
870.84	18935
870.97	18878
871.1	18783
871.23	19065
871.36	18981
871.489	18966
871.619	19008
871.749	19042
871.879	19152
872.008	19209
872.138	19042
872.267	19168
872.397	18993
872.526	18924
872.656	18947
872.785	18932
872.915	19126
873.044	19072
873.173	19000
873.303	19145
873.432	19065
873.561	19114
873.69	19126
873.819	19072
873.948	19168
874.077	19171
874.206	19148
874.335	19194
874.464	19202
874.593	19331
874.722	19263
874.851	19415
874.979	19460
875.108	19438
875.237	19289
875.365	19324
875.494	19346
875.623	19487
875.751	19460
875.88	19506
876.008	19491
876.136	19529
876.265	19738
876.393	19852
876.521	19788
876.65	19887
876.778	19894
876.906	19769
877.034	19811
877.162	19677
877.29	19807
877.418	19753
877.546	19723
877.674	19738
877.802	19753
877.93	19742
878.058	19723
878.185	19620
878.313	19841
878.441	19780
878.568	19666
878.696	19776
878.824	19822
878.951	19818
879.079	19898
879.206	20092
879.333	19959
879.461	19864
879.588	19841
879.715	20054
879.842	20050
879.97	19974
880.097	19613
880.224	19548
880.351	19708
880.478	19700
880.605	19609
880.732	19693
880.859	19833
880.986	19529
881.112	19552
881.239	19453
881.366	19388
881.493	19278
881.619	19137
881.746	19289
881.872	19175
881.999	19179
882.125	18973
882.252	19168
882.378	19179
882.505	19510
882.631	19038
882.757	19019
882.883	18981
883.01	18954
883.136	19057
883.262	18825
883.388	18738
883.514	18829
883.64	19084
883.766	19027
883.892	18776
884.018	18886
884.143	18985
884.269	18958
884.395	18601
884.52	18601
884.646	18684
884.772	18616
884.897	18582
885.023	18612
885.148	18829
885.274	18806
885.399	18749
885.524	18623
885.65	18684
885.775	18661
885.9	18490
886.025	18620
886.15	18726
886.275	18547
886.4	18555
886.525	18551
886.65	18376
886.775	18502
886.9	18840
887.025	18817
887.149	18631
887.274	18414
887.399	18388
887.523	18490
887.648	18323
887.773	18266
887.897	18456
888.021	18391
888.146	18319
888.27	18601
888.395	18544
888.519	18407
888.643	18532
888.767	18380
888.891	18235
889.015	18270
889.139	18266
889.263	18285
889.387	18220
889.511	18296
889.635	18289
889.759	18186
889.883	18205
890.006	18182
890.13	18270
890.254	18106
890.377	18239
890.501	18041
890.624	17923
890.748	18129
890.871	17866
890.995	17805
891.118	17638
891.241	17866
891.364	17874
891.488	17977
891.611	17897
891.734	17836
891.857	17999
891.98	17836
892.103	17893
892.226	18022
892.349	17722
892.471	17596
892.594	17893
892.717	17847
892.839	17771
892.962	17843
893.085	17870
893.207	17809
893.33	17703
893.452	17646
893.575	17832
893.697	17699
893.819	17893
893.941	17980
894.064	17961
894.186	17699
894.308	17729
894.43	17889
894.552	17999
894.674	17855
894.796	17779
894.918	17840
895.04	17843
895.161	17786
895.283	17767
895.405	17695
895.526	17855
895.648	17752
895.769	17767
895.891	17908
896.012	17992
896.134	17836
896.255	17847
896.376	17771
896.498	17889
896.619	17893
896.74	17870
896.861	18053
896.982	18163
897.103	18220
897.224	18190
897.345	18155
897.466	18072
897.587	18178
897.708	18209
897.828	18095
897.949	18190
898.07	17927
898.19	18155
898.311	18110
898.431	18057
898.552	18117
898.672	18174
898.792	18140
898.913	18083
899.033	17927
899.153	17942
899.273	17710
899.393	17843
899.513	17950
899.633	17840
899.753	17859
899.873	17745
899.993	17927
900.113	17855
900.232	17714
900.352	17790
900.472	17672
900.591	17627
900.711	17695
900.83	17737
900.95	17752
901.069	17718
901.189	17630
901.308	17353
901.427	17265
901.546	17387
901.665	17482
901.784	17254
901.904	17223
902.023	17166
902.141	16904
902.26	16839
902.379	16923
902.498	16843
902.617	16866
902.735	16889
902.854	16812
902.973	16672
903.091	16504
903.21	16546
903.328	16470
903.446	16322
903.565	16299
903.683	16394
903.801	16299
903.919	16284
904.038	16234
904.156	16093
904.274	16200
904.392	16105
904.51	16166
904.627	16124
904.745	16150
904.863	16112
904.981	15804
905.098	15694
905.216	15781
905.334	15781
905.451	15717
905.569	15770
905.686	15747
905.803	15755
905.921	15644
906.038	15633
906.155	15637
906.272	15549
906.389	15561
906.506	15348
906.623	15428
906.74	15336
906.857	15207
906.974	15275
907.091	15378
907.208	15306
907.324	15211
907.441	15329
907.557	15097
907.674	15062
907.79	14971
907.907	14998
908.023	15032
908.139	14986
908.256	14944
908.372	14849
908.488	14807
908.604	14762
908.72	14693
908.836	14807
908.952	14678
909.068	14804
909.184	14781
909.3	14705
909.415	14746
909.531	14701
909.647	14511
909.762	14431
909.878	14526
909.993	14461
910.108	14374
910.224	14343
910.339	14400
910.454	14431
910.57	14240
910.685	14225
910.8	14499
910.915	14355
911.03	14244
911.145	14111
911.259	14081
911.374	14157
911.489	14046
911.604	13906
911.718	13776
911.833	13868
911.947	13746
912.062	13677
912.176	13814
912.291	13799
912.405	13731
912.519	14001
912.633	13974
912.748	13928
912.862	13795
912.976	13681
913.09	13495
913.204	13578
913.318	13689
913.431	13681
913.545	13677
913.659	13776
913.772	13620
913.886	13495
914	13441
914.113	13491
914.226	13636
914.34	13578
914.453	13422
914.566	13575
914.68	13495
914.793	13324
914.906	13194
915.019	13202
915.132	13107
915.245	13171
915.358	13110
915.47	13133
915.583	13149
915.696	13194
915.809	13278
915.921	13308
916.034	13031
916.146	12985
916.259	13050
916.371	13099
916.483	13141
916.595	13061
916.708	13031
916.82	13050
916.932	12943
917.044	13057
917.156	12867
917.268	12863
917.38	12943
917.491	12882
917.603	12783
917.715	12943
917.826	12966
917.938	12760
918.049	12662
918.161	12806
918.272	13004
918.384	12852
918.495	12901
918.606	12703
918.717	12623
918.828	12715
918.939	12669
919.05	12593
919.161	12650
919.272	12433
919.383	12513
919.494	12711
919.604	12882
919.715	12711
919.826	12547
919.936	12574
920.047	12711
920.157	12722
920.267	12916
920.378	12627
920.488	12654
920.598	12848
920.708	12909
920.818	12741
920.928	12802
921.038	12916
921.148	12890
921.258	12551
921.368	12517
921.477	12342
921.587	12395
921.697	12289
921.806	12426
921.916	12296
922.025	12194
922.134	12102
922.244	12011
922.353	12049
922.462	11935
922.571	11824
922.68	11786
922.789	11752
922.898	11718
923.007	11676
923.116	11794
923.224	11726
923.333	11661
923.442	11577
923.55	11619
923.659	11680
923.767	11638
923.876	11573
923.984	11600
924.092	11471
924.201	11547
924.309	11528
924.417	11463
924.525	11410
924.633	11410
924.741	12194
924.849	11326
924.956	11406
925.064	11318
925.172	11269
925.279	11311
925.387	11250
925.494	11280
925.602	11452
925.709	11330
925.816	11162
925.924	11250
926.031	11261
926.138	11193
926.245	11246
926.352	11124
926.459	11201
926.566	11326
926.673	11159
926.779	11064
926.886	11041
926.993	10934
927.099	10904
927.206	10835
927.312	10801
927.419	10831
927.525	10767
927.631	10892
927.737	10896
927.843	10782
927.95	10599
928.056	10702
928.162	10763
928.267	10767
928.373	11265
928.479	10820
928.585	10500
928.69	10729
928.796	10664
928.901	10565
929.007	10409
929.112	10577
929.218	10588
929.323	10508
929.428	10481
929.533	10554
929.638	10451
929.743	10405
929.848	10493
929.953	10436
930.058	10295
930.163	10200
930.267	10219
930.372	10306
930.477	10135
930.581	10363
930.685	10223
930.79	10090
930.894	10116
930.998	10105
931.103	10219
931.207	9838
931.311	9804
931.415	9736
931.519	9526
931.623	9496
