Data from test_V78500241_3441.txt Node
Date: Fri Mar 25 14:57:40 CST 2022
User: usil
Spectrometer: V785-0024
Trigger mode: 0
Integration Time (sec): 4.000000E-1
Scans to average: 1
Nonlinearity correction enabled: false
Boxcar width: 0
Storing dark spectrum: false
XAxis mode: Wavelengths
Number of Pixels in Spectrum: 1024
>>>>>Begin Spectral Data<<<<<
801.071	21888
801.214	21808
801.356	21667
801.499	21553
801.641	21313
801.783	21298
801.926	21359
802.068	21241
802.211	21245
802.353	21036
802.496	20849
802.638	20819
802.78	20636
802.923	20632
803.065	20499
803.208	20598
803.35	20575
803.492	20613
803.635	20868
803.777	20545
803.919	20769
804.061	20998
804.204	20651
804.346	20514
804.488	20469
804.63	20545
804.773	20419
804.915	20560
805.057	20609
805.199	20480
805.341	20454
805.483	20522
805.626	20659
805.768	20431
805.91	20526
806.052	20533
806.194	20530
806.336	20686
806.478	20492
806.62	20400
806.762	20693
806.904	20731
807.046	20880
807.188	20891
807.33	20800
807.472	20796
807.614	20792
807.756	20701
807.898	20708
808.04	20575
808.182	20568
808.324	20518
808.465	20648
808.607	20777
808.749	20887
808.891	20933
809.033	20941
809.174	20952
809.316	20899
809.458	20796
809.6	20796
809.741	20914
809.883	20971
810.025	20982
810.166	20971
810.308	21020
810.45	20967
810.591	20838
810.733	20727
810.875	20735
811.016	20518
811.158	20644
811.299	20724
811.441	20754
811.582	20804
811.724	20640
811.865	20533
812.007	20571
812.148	20632
812.29	20625
812.431	20750
812.573	20921
812.714	20979
812.855	21009
812.997	21165
813.138	21424
813.279	21302
813.421	21154
813.562	21051
813.703	20910
813.845	20762
813.986	20552
814.127	20320
814.268	20176
814.41	20396
814.551	20199
814.692	20161
814.833	20176
814.974	20107
815.115	20233
815.256	20103
815.397	19982
815.539	19974
815.68	19818
815.821	19894
815.962	19925
816.103	19826
816.244	19776
816.385	19476
816.526	19525
816.666	19438
816.807	19263
816.948	19464
817.089	19278
817.23	19324
817.371	19346
817.512	19365
817.653	19266
817.793	19285
817.934	19320
818.075	19263
818.216	19285
818.356	19259
818.497	19110
818.638	18913
818.778	19027
818.919	18954
819.06	19012
819.2	19183
819.341	19187
819.481	19263
819.622	19354
819.762	19616
819.903	19453
820.043	19449
820.184	19400
820.324	19282
820.465	19373
820.605	19236
820.746	19266
820.886	19107
821.026	19217
821.167	19202
821.307	19289
821.447	19179
821.588	19110
821.728	18909
821.868	18848
822.008	18684
822.149	18711
822.289	18677
822.429	18452
822.569	18361
822.709	18376
822.849	18197
822.99	18152
823.13	18174
823.27	18102
823.41	18121
823.55	17889
823.69	18045
823.83	17999
823.97	17942
824.11	17813
824.25	17741
824.389	17775
824.529	17802
824.669	17775
824.809	17893
824.949	17958
825.089	17859
825.228	17760
825.368	17634
825.508	17596
825.648	17543
825.787	17596
825.927	17623
826.067	17505
826.206	17463
826.346	17554
826.485	17566
826.625	17512
826.765	17520
826.904	17497
827.044	17292
827.183	17296
827.323	17227
827.462	17345
827.601	17254
827.741	17258
827.88	17250
828.02	17052
828.159	17208
828.298	17299
828.437	17265
828.577	17143
828.716	17242
828.855	17216
828.994	16999
829.134	16900
829.273	16923
829.412	16984
829.551	16828
829.69	16934
829.829	17056
829.968	17102
830.107	17006
830.246	17113
830.385	16953
830.524	16881
830.663	16778
830.802	16717
830.941	16622
831.08	16577
831.219	16717
831.357	16664
831.496	16786
831.635	16615
831.774	16554
831.913	16489
832.051	16379
832.19	16367
832.329	16440
832.467	16257
832.606	16246
832.744	16348
832.883	16337
833.022	16325
833.16	16284
833.299	16424
833.437	16367
833.576	16367
833.714	16382
833.852	16386
833.991	16443
834.129	16546
834.267	16314
834.406	16318
834.544	16417
834.682	16348
834.821	16367
834.959	16561
835.097	16382
835.235	16497
835.373	16310
835.511	16341
835.65	16272
835.788	16162
835.926	16078
836.064	16181
836.202	16101
836.34	16341
836.478	16459
836.615	16322
836.753	16261
836.891	16432
837.029	16284
837.167	16192
837.305	16185
837.443	16162
837.58	16017
837.718	16188
837.856	16158
837.993	16059
838.131	16131
838.269	16105
838.406	16120
838.544	16044
838.681	15915
838.819	15812
838.956	15736
839.094	15717
839.231	15652
839.369	15907
839.506	16071
839.643	15915
839.781	15713
839.918	15698
840.055	15679
840.193	15701
840.33	15690
840.467	15713
840.604	15747
840.742	15895
840.879	15477
841.016	15698
841.153	15481
841.29	15838
841.427	15789
841.564	15789
841.701	15759
841.838	15743
841.975	15641
842.112	15732
842.249	15519
842.385	15473
842.522	15595
842.659	15496
842.796	15584
842.933	15496
843.069	15534
843.206	15439
843.343	15580
843.479	15519
843.616	15587
843.752	15298
843.889	15222
844.025	15530
844.162	15264
844.298	15405
844.435	15211
844.571	15275
844.708	15374
844.844	15450
844.98	15393
845.117	15397
845.253	15226
845.389	15226
845.525	15165
845.661	15287
845.798	15138
845.934	15199
846.07	14956
846.206	15131
846.342	15173
846.478	15089
846.614	14921
846.75	14861
846.886	14868
847.022	14887
847.158	14823
847.294	14948
847.429	14979
847.565	14834
847.701	15150
847.837	14651
847.972	14625
848.108	14724
848.244	14735
848.379	14651
848.515	14503
848.65	14419
848.786	14590
848.921	14476
849.057	14636
849.192	14708
849.328	14537
849.463	14476
849.598	14469
849.734	14438
849.869	14450
850.004	14256
850.14	14370
850.275	14328
850.41	14191
850.545	14351
850.68	14199
850.815	14248
850.95	14256
851.085	14560
851.22	14381
851.355	14377
851.49	14210
851.625	14282
851.76	14294
851.895	14107
852.03	14237
852.165	14229
852.299	14267
852.434	14400
852.569	14389
852.703	14301
852.838	14275
852.973	14351
853.107	14389
853.242	14282
853.376	14153
853.511	14005
853.645	14180
853.78	14267
853.914	14161
854.048	14172
854.183	14126
854.317	14130
854.451	14286
854.585	14142
854.72	14069
854.854	14202
854.988	14084
855.122	14126
855.256	14065
855.39	14149
855.524	14309
855.658	14218
855.792	14084
855.926	14199
856.06	14199
856.194	14294
856.327	14199
856.461	14027
856.595	14142
856.729	14149
856.862	14126
856.996	14214
857.13	14168
857.263	14225
857.397	14191
857.53	14225
857.664	14252
857.797	14244
857.931	14263
858.064	14149
858.197	14183
858.331	14221
858.464	14164
858.597	14054
858.731	14111
858.864	14202
858.997	14107
859.13	14214
859.263	14168
859.396	14237
859.529	14103
859.662	14088
859.795	14062
859.928	14172
860.061	14237
860.194	14248
860.327	14168
860.46	14157
860.592	14214
860.725	14336
860.858	14294
860.99	14111
861.123	14084
861.256	14111
861.388	14168
861.521	14891
861.653	14043
861.786	13898
861.918	14069
862.05	14180
862.183	14081
862.315	14157
862.447	14092
862.58	14115
862.712	13917
862.844	13871
862.976	13959
863.108	13959
863.24	14332
863.372	13833
863.504	14024
863.636	13841
863.768	14020
863.9	13868
864.032	13868
864.164	13947
864.296	13955
864.428	14100
864.559	14046
864.691	14016
864.823	14012
864.954	13955
865.086	13906
865.217	13868
865.349	13913
865.48	13951
865.612	13856
865.743	14065
865.875	13944
866.006	13906
866.137	13959
866.269	13833
866.4	13822
866.531	13852
866.662	13795
866.793	13921
866.924	13917
867.055	13871
867.186	13921
867.317	13822
867.448	13826
867.579	13963
867.71	13902
867.841	13864
867.972	13909
868.103	13951
868.233	13932
868.364	13841
868.495	14046
868.625	14183
868.756	14191
868.886	14084
869.017	14119
869.147	14256
869.278	14278
869.408	14161
869.539	14134
869.669	14229
869.799	14252
869.929	14377
870.06	14240
870.19	14564
870.32	14389
870.45	14587
870.58	14594
870.71	14625
870.84	14594
870.97	14610
871.1	14613
871.23	14686
871.36	14682
871.489	14590
871.619	14701
871.749	14788
871.879	14807
872.008	14914
872.138	14800
872.267	14735
872.397	14632
872.526	14564
872.656	14602
872.785	14720
872.915	14830
873.044	14880
873.173	14815
873.303	14845
873.432	14929
873.561	14910
873.69	14819
873.819	14887
873.948	14895
874.077	14773
874.206	14819
874.335	14880
874.464	14998
874.593	15119
874.722	15062
874.851	15173
874.979	15176
875.108	15131
875.237	15154
875.365	15062
875.494	15104
875.623	15165
875.751	15173
875.88	15268
876.008	15329
876.136	15313
876.265	15614
876.393	15705
876.521	15671
876.65	15603
876.778	15603
876.906	15606
877.034	15545
877.162	15564
877.29	15515
877.418	15542
877.546	15519
877.674	15511
877.802	15580
877.93	15648
878.058	15530
878.185	15447
878.313	15519
878.441	15584
878.568	15416
878.696	15481
878.824	15591
878.951	15644
879.079	15819
879.206	15873
879.333	15679
879.461	15515
879.588	15724
879.715	15789
879.842	15789
879.97	15682
880.097	15443
880.224	15302
880.351	15443
880.478	15401
880.605	15386
880.732	15485
880.859	15618
880.986	15507
881.112	15378
881.239	15351
881.366	15169
881.493	14979
881.619	15097
881.746	15100
881.872	14967
881.999	15005
882.125	15135
882.252	15081
882.378	15100
882.505	15184
882.631	15028
882.757	14876
882.883	14979
883.01	14861
883.136	14819
883.262	14743
883.388	14743
883.514	14838
883.64	14971
883.766	14792
883.892	14708
884.018	14712
884.143	14906
884.269	15009
884.395	14564
884.52	14495
884.646	14549
884.772	14503
884.897	14454
885.023	14629
885.148	14705
885.274	14762
885.399	14708
885.524	14613
885.65	14625
885.775	14617
885.9	14636
886.025	14598
886.15	14598
886.275	14571
886.4	14419
886.525	14541
886.65	14503
886.775	14549
886.9	14613
887.025	14788
887.149	14629
887.274	14473
887.399	14480
887.523	14450
887.648	14320
887.773	14343
887.897	14488
888.021	14450
888.146	14313
888.27	14499
888.395	14571
888.519	14457
888.643	14511
888.767	14533
888.891	14415
889.015	14328
889.139	14267
889.263	14271
889.387	14473
889.511	14560
889.635	14396
889.759	14309
889.883	14191
890.006	14377
890.13	14389
890.254	14176
890.377	14225
890.501	14024
890.624	14031
890.748	14157
890.871	14054
890.995	13974
891.118	13879
891.241	13982
891.364	14016
891.488	14039
891.611	13890
891.734	14020
891.857	13982
891.98	14024
892.103	14138
892.226	14073
892.349	14001
892.471	13830
892.594	13932
892.717	14058
892.839	13997
892.962	13967
893.085	14024
893.207	14046
893.33	13970
893.452	13997
893.575	13989
893.697	14005
893.819	14115
893.941	14180
894.064	14168
894.186	13974
894.308	13944
894.43	14195
894.552	14214
894.674	14058
894.796	13955
894.918	14046
895.04	13993
895.161	14130
895.283	14123
895.405	14016
895.526	14043
895.648	14142
895.769	14100
895.891	14252
896.012	14157
896.134	14172
896.255	14168
896.376	14039
896.498	14164
896.619	14172
896.74	14286
896.861	14267
896.982	14575
897.103	14610
897.224	14461
897.345	14385
897.466	14393
897.587	14400
897.708	14556
897.828	14465
897.949	14396
898.07	14259
898.19	14419
898.311	14499
898.431	14480
898.552	14568
898.672	14598
898.792	14621
898.913	14552
899.033	14393
899.153	14446
899.273	14256
899.393	14415
899.513	14431
899.633	14366
899.753	14419
899.873	14358
899.993	14446
900.113	14370
900.232	14412
900.352	14366
900.472	14229
900.591	13993
900.711	14320
900.83	14130
900.95	14320
901.069	14313
901.189	14225
901.308	13993
901.427	13833
901.546	13917
901.665	13890
901.784	13997
901.904	13765
902.023	13662
902.141	13491
902.26	13358
902.379	13548
902.498	13434
902.617	13377
902.735	13491
902.854	13453
902.973	13407
903.091	13228
903.21	13164
903.328	13179
903.446	13107
903.565	13034
903.683	13080
903.801	12935
903.919	12981
904.038	12977
904.156	12863
904.274	12958
904.392	12909
904.51	12833
904.627	12840
904.745	12856
904.863	12814
904.981	12639
905.098	12441
905.216	12570
905.334	12566
905.451	12517
905.569	12570
905.686	12578
905.803	12639
905.921	12388
906.038	12475
906.155	12448
906.272	12277
906.389	12338
906.506	12182
906.623	12140
906.74	12102
906.857	11950
906.974	12114
907.091	12251
907.208	12296
907.324	12155
907.441	12091
907.557	11980
907.674	11939
907.79	11843
907.907	11882
908.023	11851
908.139	11920
908.256	11885
908.372	11855
908.488	11760
908.604	11684
908.72	11615
908.836	11676
908.952	11589
909.068	11642
909.184	11889
909.3	11604
909.415	11714
909.531	11703
909.647	11459
909.762	11425
909.878	11387
909.993	11395
910.108	11467
910.224	11425
910.339	11474
910.454	11364
910.57	11307
910.685	11239
910.8	11524
910.915	11493
911.03	11337
911.145	11162
911.259	11105
911.374	11159
911.489	11045
911.604	10953
911.718	10824
911.833	10877
911.947	10801
912.062	10679
912.176	10885
912.291	10854
912.405	10904
912.519	11098
912.633	11132
912.748	10934
912.862	10900
912.976	10793
913.09	10649
913.204	10755
913.318	10778
913.431	10881
913.545	10889
913.659	10850
913.772	10755
913.886	10755
914	10649
914.113	10755
914.226	10820
914.34	10740
914.453	10558
914.566	10767
914.68	10580
914.793	10538
914.906	10455
915.019	10413
915.132	10299
915.245	10341
915.358	10360
915.47	10474
915.583	10440
915.696	10417
915.809	10577
915.921	10538
916.034	10394
916.146	10356
916.259	10291
916.371	10497
916.483	10451
916.595	10333
916.708	10318
916.82	10352
916.932	10314
917.044	10314
917.156	10257
917.268	10249
917.38	10230
917.491	10314
917.603	10284
917.715	10363
917.826	10394
917.938	10249
918.049	10162
918.161	10280
918.272	10516
918.384	10386
918.495	10276
918.606	10192
918.717	10059
918.828	10112
918.939	10230
919.05	10116
919.161	10169
919.272	9937
919.383	10006
919.494	10249
919.604	10299
919.715	10128
919.826	10101
919.936	10150
920.047	10265
920.157	10162
920.267	10379
920.378	10230
920.488	10139
920.598	10382
920.708	10481
920.818	10322
920.928	10341
921.038	10500
921.148	10497
921.258	10318
921.368	10086
921.477	9949
921.587	10055
921.697	9918
921.806	10044
921.916	9975
922.025	9774
922.134	9751
922.244	9618
922.353	9789
922.462	9606
922.571	9576
922.68	9374
922.789	9420
922.898	9454
923.007	9336
923.116	9443
923.224	9382
923.333	9382
923.442	9241
923.55	9332
923.659	9351
923.767	9408
923.876	9249
923.984	9431
924.092	9199
924.201	9272
924.309	9253
924.417	9294
924.525	9207
924.633	9207
924.741	10150
924.849	9085
924.956	9184
925.064	9081
925.172	8967
925.279	9028
925.387	9138
925.494	9112
925.602	9184
925.709	9135
925.816	8975
925.924	9055
926.031	9119
926.138	9077
926.245	9207
926.352	9043
926.459	9108
926.566	9230
926.673	9005
926.779	8986
926.886	8906
926.993	8887
927.099	8804
927.206	8720
927.312	8727
927.419	8766
927.525	8811
927.631	8914
927.737	8724
927.843	8689
927.95	8590
928.056	8644
928.162	8750
928.267	8766
928.373	9370
928.479	8766
928.585	8514
928.69	8651
928.796	8670
928.901	8610
929.007	8499
929.112	8617
929.218	8518
929.323	8552
929.428	8514
929.533	8625
929.638	8484
929.743	8450
929.848	8564
929.953	8541
930.058	8419
930.163	8279
930.267	8298
930.372	8465
930.477	8275
930.581	8450
930.685	8347
930.79	8248
930.894	8286
930.998	8252
931.103	8385
931.207	7997
931.311	8008
931.415	7852
931.519	7742
931.623	7670
