Data from test_V78500241_1061.txt Node
Date: Fri Mar 25 14:41:06 CST 2022
User: usil
Spectrometer: V785-0024
Trigger mode: 0
Integration Time (sec): 4.000000E-1
Scans to average: 1
Nonlinearity correction enabled: false
Boxcar width: 0
Storing dark spectrum: false
XAxis mode: Wavelengths
Number of Pixels in Spectrum: 1024
>>>>>Begin Spectral Data<<<<<
801.071	22786
801.214	22782
801.356	22485
801.499	22322
801.641	22291
801.783	22215
801.926	22169
802.068	22188
802.211	21941
802.353	21907
802.496	21816
802.638	21736
802.78	21671
802.923	21603
803.065	21515
803.208	21424
803.35	21485
803.492	21477
803.635	21633
803.777	21412
803.919	21599
804.061	21873
804.204	21481
804.346	21435
804.488	21310
804.63	21511
804.773	21439
804.915	21534
805.057	21618
805.199	21401
805.341	21515
805.483	21549
805.626	21454
805.768	21481
805.91	21462
806.052	21534
806.194	21378
806.336	21610
806.478	21557
806.62	21485
806.762	21549
806.904	21694
807.046	21804
807.188	21918
807.33	21892
807.472	21922
807.614	21812
807.756	21968
807.898	21846
808.04	21762
808.182	21823
808.324	21743
808.465	22036
808.607	22265
808.749	22424
808.891	22523
809.033	22573
809.174	22546
809.316	22371
809.458	22147
809.6	22219
809.741	22299
809.883	22173
810.025	22192
810.166	22120
810.308	22101
810.45	22040
810.591	22010
810.733	21869
810.875	21762
811.016	21759
811.158	21606
811.299	21800
811.441	21835
811.582	21682
811.724	21778
811.865	21618
812.007	21705
812.148	21663
812.29	21759
812.431	21774
812.573	22078
812.714	21953
812.855	22074
812.997	22204
813.138	22500
813.279	22299
813.421	22139
813.562	22131
813.703	21850
813.845	21831
813.986	21538
814.127	21287
814.268	21233
814.41	21279
814.551	21112
814.692	21264
814.833	21150
814.974	21077
815.115	21176
815.256	20960
815.397	21066
815.539	21077
815.68	20967
815.821	20902
815.962	20963
816.103	21020
816.244	20941
816.385	20727
816.526	20629
816.666	20526
816.807	20343
816.948	20366
817.089	20393
817.23	20294
817.371	20480
817.512	20408
817.653	20412
817.793	20362
817.934	20400
818.075	20381
818.216	20358
818.356	20282
818.497	20081
818.638	20202
818.778	19986
818.919	20084
819.06	19993
819.2	20043
819.341	20267
819.481	20244
819.622	20309
819.762	20530
819.903	20480
820.043	20465
820.184	20351
820.324	20328
820.465	20317
820.605	20320
820.746	20374
820.886	20225
821.026	20233
821.167	20393
821.307	20351
821.447	20324
821.588	20081
821.728	20027
821.868	19864
822.008	19731
822.149	19769
822.289	19548
822.429	19491
822.569	19544
822.709	19282
822.849	19217
822.99	19164
823.13	19274
823.27	19270
823.41	19000
823.55	18932
823.69	19038
823.83	19034
823.97	18981
824.11	18852
824.25	18844
824.389	18829
824.529	18852
824.669	18886
824.809	18943
824.949	18901
825.089	18935
825.228	18837
825.368	18711
825.508	18612
825.648	18707
825.787	18589
825.927	18700
826.067	18532
826.206	18551
826.346	18623
826.485	18547
826.625	18604
826.765	18745
826.904	18631
827.044	18471
827.183	18300
827.323	18323
827.462	18342
827.601	18300
827.741	18194
827.88	18273
828.02	18117
828.159	18247
828.298	18319
828.437	18262
828.577	18323
828.716	18395
828.855	18243
828.994	17950
829.134	18125
829.273	18057
829.412	18003
829.551	18003
829.69	18041
829.829	17950
829.968	18068
830.107	18045
830.246	17980
830.385	17908
830.524	17988
830.663	17923
830.802	17783
830.941	17604
831.08	17714
831.219	17741
831.357	17665
831.496	17847
831.635	17623
831.774	17630
831.913	17547
832.051	17353
832.19	17452
832.329	17410
832.467	17326
832.606	17315
832.744	17330
832.883	17292
833.022	17398
833.16	17368
833.299	17387
833.437	17395
833.576	17501
833.714	17463
833.852	17436
833.991	17330
834.129	17505
834.267	17570
834.406	17509
834.544	17535
834.682	17440
834.821	17414
834.959	17611
835.097	17341
835.235	17459
835.373	17417
835.511	17326
835.65	17292
835.788	17345
835.926	17193
836.064	17223
836.202	17204
836.34	17433
836.478	17417
836.615	17265
836.753	17250
836.891	17349
837.029	17421
837.167	17200
837.305	17250
837.443	17143
837.58	17090
837.718	17227
837.856	17075
837.993	17048
838.131	17208
838.269	16991
838.406	17075
838.544	17037
838.681	16885
838.819	16824
838.956	16759
839.094	16744
839.231	16748
839.369	16877
839.506	17155
839.643	16885
839.781	16702
839.918	16702
840.055	16759
840.193	16675
840.33	16588
840.467	16694
840.604	16683
840.742	16805
840.879	16683
841.016	16615
841.153	16569
841.29	16668
841.427	16702
841.564	16733
841.701	16721
841.838	16592
841.975	16512
842.112	16607
842.249	16493
842.385	16508
842.522	16645
842.659	16512
842.796	16421
842.933	16405
843.069	16440
843.206	16405
843.343	16512
843.479	16432
843.616	16478
843.752	16230
843.889	16204
844.025	16341
844.162	16257
844.298	16280
844.435	16173
844.571	16211
844.708	16356
844.844	16375
844.98	16459
845.117	16428
845.253	16284
845.389	16196
845.525	16428
845.661	16462
845.798	16538
845.934	16729
846.07	16763
846.206	16839
846.342	16744
846.478	16523
846.614	16196
846.75	16105
846.886	15903
847.022	15941
847.158	15835
847.294	15899
847.429	15865
847.565	15759
847.701	15922
847.837	15553
847.972	15572
848.108	15568
848.244	15587
848.379	15530
848.515	15420
848.65	15302
848.786	15374
848.921	15431
849.057	15534
849.192	15519
849.328	15462
849.463	15473
849.598	15367
849.734	15313
849.869	15272
850.004	15173
850.14	15184
850.275	15195
850.41	15051
850.545	15032
850.68	15192
850.815	15176
850.95	15154
851.085	15291
851.22	15325
851.355	15154
851.49	15150
851.625	15104
851.76	15135
851.895	14986
852.03	15009
852.165	15131
852.299	15176
852.434	15222
852.569	15119
852.703	15272
852.838	15340
852.973	15291
853.107	15230
853.242	15062
853.376	14967
853.511	14944
853.645	14971
853.78	15150
853.914	15070
854.048	15077
854.183	15032
854.317	15154
854.451	15207
854.585	14998
854.72	15017
854.854	15108
854.988	14937
855.122	14971
855.256	14918
855.39	14960
855.524	15093
855.658	15081
855.792	15043
855.926	15047
856.06	15043
856.194	15154
856.327	15108
856.461	15020
856.595	14967
856.729	15009
856.862	15119
856.996	15108
857.13	15104
857.263	15127
857.397	15146
857.53	15001
857.664	15070
857.797	15097
857.931	15062
858.064	15146
858.197	15138
858.331	15013
858.464	15017
858.597	14910
858.731	15013
858.864	14891
858.997	14906
859.13	14986
859.263	15047
859.396	15058
859.529	14941
859.662	15013
859.795	15017
859.928	14960
860.061	15165
860.194	15150
860.327	15070
860.46	15001
860.592	15142
860.725	15131
860.858	15154
860.99	15077
861.123	14952
861.256	14826
861.388	14967
861.521	15580
861.653	14914
861.786	14880
861.918	14800
862.05	14944
862.183	14960
862.315	15024
862.447	14998
862.58	14876
862.712	14769
862.844	14754
862.976	14880
863.108	14880
863.24	15283
863.372	14735
863.504	14765
863.636	14796
863.768	14838
863.9	14880
864.032	14727
864.164	14788
864.296	14754
864.428	14952
864.559	14918
864.691	14838
864.823	14883
864.954	14800
865.086	14864
865.217	14712
865.349	14712
865.48	14811
865.612	14739
865.743	14880
865.875	14735
866.006	14720
866.137	14845
866.269	14880
866.4	14781
866.531	14712
866.662	14701
866.793	14651
866.924	14693
867.055	14689
867.186	14648
867.317	14693
867.448	14583
867.579	14686
867.71	14655
867.841	14701
867.972	14724
868.103	14762
868.233	14781
868.364	14716
868.495	14891
868.625	15028
868.756	15039
868.886	14933
869.017	14979
869.147	15127
869.278	15154
869.408	15104
869.539	14918
869.669	15081
869.799	15032
869.929	15127
870.06	15131
870.19	15287
870.32	15275
870.45	15340
870.58	15450
870.71	15576
870.84	15561
870.97	15302
871.1	15393
871.23	15481
871.36	15515
871.489	15515
871.619	15625
871.749	15572
871.879	15682
872.008	15690
872.138	15644
872.267	15557
872.397	15462
872.526	15367
872.656	15507
872.785	15500
872.915	15641
873.044	15637
873.173	15629
873.303	15622
873.432	15603
873.561	15743
873.69	15660
873.819	15675
873.948	15587
874.077	15618
874.206	15709
874.335	15739
874.464	15797
874.593	15911
874.722	15835
874.851	16032
874.979	15930
875.108	15991
875.237	15789
875.365	15865
875.494	15895
875.623	16086
875.751	15934
875.88	15865
876.008	16101
876.136	16249
876.265	16306
876.393	16443
876.521	16546
876.65	16402
876.778	16462
876.906	16348
877.034	16276
877.162	16363
877.29	16337
877.418	16402
877.546	16398
877.674	16360
877.802	16421
877.93	16451
878.058	16306
878.185	16303
878.313	16375
878.441	16436
878.568	16310
878.696	16348
878.824	16516
878.951	16527
879.079	16698
879.206	16889
879.333	16744
879.461	16675
879.588	16850
879.715	16889
879.842	16980
879.97	16717
880.097	16459
880.224	16379
880.351	16375
880.478	16421
880.605	16166
880.732	16276
880.859	16481
880.986	16360
881.112	16303
881.239	16082
881.366	15987
881.493	16032
881.619	15949
881.746	15926
881.872	15937
881.999	15892
882.125	15987
882.252	16105
882.378	16044
882.505	16101
882.631	15949
882.757	15747
882.883	15804
883.01	15770
883.136	15850
883.262	15618
883.388	15625
883.514	15800
883.64	15781
883.766	15728
883.892	15538
884.018	15648
884.143	15789
884.269	15835
884.395	15561
884.52	15511
884.646	15435
884.772	15420
884.897	15348
885.023	15450
885.148	15568
885.274	15561
885.399	15572
885.524	15504
885.65	15431
885.775	15564
885.9	15401
886.025	15660
886.15	15496
886.275	15443
886.4	15332
886.525	15530
886.65	15393
886.775	15359
886.9	15561
887.025	15629
887.149	15504
887.274	15237
887.399	15260
887.523	15104
887.648	15176
887.773	15173
887.897	15382
888.021	15382
888.146	15279
888.27	15374
888.395	15374
888.519	15252
888.643	15226
888.767	15302
888.891	15214
889.015	15135
889.139	15161
889.263	15013
889.387	15203
889.511	15230
889.635	15161
889.759	15104
889.883	15070
890.006	15077
890.13	15161
890.254	15001
890.377	15062
890.501	14849
890.624	14906
890.748	15020
890.871	14758
890.995	14811
891.118	14693
891.241	14674
891.364	14701
891.488	14971
891.611	14705
891.734	14811
891.857	14804
891.98	14769
892.103	14842
892.226	14823
892.349	14689
892.471	14670
892.594	14727
892.717	14750
892.839	14743
892.962	14640
893.085	14823
893.207	14758
893.33	14625
893.452	14670
893.575	14906
893.697	14606
893.819	14899
893.941	14910
894.064	14872
894.186	14769
894.308	14625
894.43	14788
894.552	14941
894.674	14887
894.796	14708
894.918	14773
895.04	14739
895.161	14807
895.283	14876
895.405	14636
895.526	14762
895.648	14887
895.769	14758
895.891	14914
896.012	14883
896.134	14933
896.255	14952
896.376	14785
896.498	14830
896.619	14887
896.74	14895
896.861	14826
896.982	15313
897.103	15359
897.224	15131
897.345	15154
897.466	15036
897.587	15138
897.708	15252
897.828	15264
897.949	15116
898.07	15005
898.19	15043
898.311	15241
898.431	15135
898.552	15275
898.672	15355
898.792	15306
898.913	15249
899.033	15207
899.153	15028
899.273	15009
899.393	15180
899.513	15104
899.633	15112
899.753	15093
899.873	14990
899.993	15131
900.113	15119
900.232	15127
900.352	15097
900.472	14895
900.591	14918
900.711	14971
900.83	14800
900.95	15020
901.069	14990
901.189	14918
901.308	14507
901.427	14530
901.546	14446
901.665	14613
901.784	14625
901.904	14503
902.023	14438
902.141	14278
902.26	14210
902.379	14336
902.498	14206
902.617	14096
902.735	14267
902.854	14202
902.973	14027
903.091	13841
903.21	13856
903.328	13989
903.446	13814
903.565	13830
903.683	13696
903.801	13689
903.919	13559
904.038	13693
904.156	13540
904.274	13616
904.392	13506
904.51	13575
904.627	13464
904.745	13582
904.863	13601
904.981	13388
905.098	13202
905.216	13232
905.334	13183
905.451	13190
905.569	13164
905.686	13206
905.803	13126
905.921	13091
906.038	13080
906.155	13019
906.272	12890
906.389	12947
906.506	12844
906.623	12745
906.74	12840
906.857	12707
906.974	12620
907.091	12916
907.208	12878
907.324	12795
907.441	12700
907.557	12570
907.674	12563
907.79	12483
907.907	12445
908.023	12574
908.139	12414
908.256	12528
908.372	12414
908.488	12426
908.604	12361
908.72	12308
908.836	12285
908.952	12315
909.068	12273
909.184	12357
909.3	12266
909.415	12281
909.531	12273
909.647	12083
909.762	12076
909.878	11961
909.993	12110
910.108	12076
910.224	11965
910.339	12110
910.454	11950
910.57	11931
910.685	11802
910.8	12038
910.915	12079
911.03	11805
911.145	11745
911.259	11722
911.374	11775
911.489	11672
911.604	11570
911.718	11535
911.833	11452
911.947	11349
912.062	11334
912.176	11467
912.291	11490
912.405	11459
912.519	11619
912.633	11684
912.748	11562
912.862	11471
912.976	11341
913.09	11181
913.204	11337
913.318	11360
913.431	11406
913.545	11436
913.659	11433
913.772	11303
913.886	11227
914	11212
914.113	11318
914.226	11398
914.34	11311
914.453	11185
914.566	11246
914.68	11166
914.793	11098
914.906	11010
915.019	10991
915.132	10831
915.245	10927
915.358	10972
915.47	10987
915.583	10968
915.696	10965
915.809	11086
915.921	11045
916.034	10877
916.146	10942
916.259	10892
916.371	10946
916.483	10980
916.595	10793
916.708	10831
916.82	10873
916.932	10706
917.044	10854
917.156	10927
917.268	10755
917.38	10763
917.491	10706
917.603	10843
917.715	10790
917.826	10828
917.938	10694
918.049	10664
918.161	10782
918.272	10911
918.384	10805
918.495	10774
918.606	10615
918.717	10584
918.828	10668
918.939	10599
919.05	10538
919.161	10611
919.272	10390
919.383	10462
919.494	10717
919.604	10790
919.715	10672
919.826	10599
919.936	10599
920.047	10630
920.157	10698
920.267	10873
920.378	10634
920.488	10675
920.598	10866
920.708	10957
920.818	10748
920.928	10797
921.038	11067
921.148	10949
921.258	10736
921.368	10497
921.477	10436
921.587	10478
921.697	10333
921.806	10577
921.916	10421
922.025	10169
922.134	10287
922.244	10071
922.353	10329
922.462	9991
922.571	10010
922.68	9865
922.789	9842
922.898	9823
923.007	9793
923.116	9937
923.224	9960
923.333	9789
923.442	9751
923.55	9663
923.659	9736
923.767	9835
923.876	9743
923.984	9770
924.092	9667
924.201	9701
924.309	9732
924.417	9713
924.525	9603
924.633	9701
924.741	10561
924.849	9553
924.956	9701
925.064	9500
925.172	9386
925.279	9435
925.387	9526
925.494	9500
925.602	9629
925.709	9500
925.816	9382
925.924	9511
926.031	9511
926.138	9526
926.245	9553
926.352	9382
926.459	9530
926.566	9610
926.673	9492
926.779	9329
926.886	9405
926.993	9207
927.099	9146
927.206	9097
927.312	9123
927.419	9249
927.525	9211
927.631	9245
927.737	9131
927.843	9039
927.95	8963
928.056	9020
928.162	9074
928.267	9081
928.373	9770
928.479	9214
928.585	9024
928.69	9043
928.796	9157
928.901	8979
929.007	8804
929.112	9074
929.218	8971
929.323	8918
929.428	8807
929.533	9047
929.638	8849
929.743	8895
929.848	8921
929.953	8864
930.058	8743
930.163	8708
930.267	8689
930.372	8788
930.477	8701
930.581	8773
930.685	8781
930.79	8575
930.894	8674
930.998	8579
931.103	8766
931.207	8393
931.311	8286
931.415	8324
931.519	8092
931.623	8062
