Data from test_V78500241_2618.txt Node
Date: Fri Mar 25 14:51:56 CST 2022
User: usil
Spectrometer: V785-0024
Trigger mode: 0
Integration Time (sec): 4.000000E-1
Scans to average: 1
Nonlinearity correction enabled: false
Boxcar width: 0
Storing dark spectrum: false
XAxis mode: Wavelengths
Number of Pixels in Spectrum: 1024
>>>>>Begin Spectral Data<<<<<
801.071	21991
801.214	21785
801.356	21705
801.499	21595
801.641	21367
801.783	21408
801.926	21389
802.068	21211
802.211	21184
802.353	21332
802.496	20921
802.638	20842
802.78	20769
802.923	20716
803.065	20686
803.208	20648
803.35	20739
803.492	20792
803.635	20640
803.777	20689
803.919	20781
804.061	20979
804.204	20823
804.346	20651
804.488	20613
804.63	20648
804.773	20564
804.915	20590
805.057	20678
805.199	20689
805.341	20648
805.483	20849
805.626	20594
805.768	20434
805.91	20598
806.052	20579
806.194	20629
806.336	20800
806.478	20450
806.62	20609
806.762	20640
806.904	20750
807.046	21005
807.188	20979
807.33	20899
807.472	20906
807.614	20823
807.756	20887
807.898	20708
808.04	20609
808.182	20518
808.324	20705
808.465	20682
808.607	20834
808.749	21096
808.891	21119
809.033	21264
809.174	21017
809.316	21036
809.458	20891
809.6	20982
809.741	21036
809.883	20941
810.025	21093
810.166	21135
810.308	21070
810.45	20937
810.591	21005
810.733	20785
810.875	20727
811.016	20632
811.158	20606
811.299	20853
811.441	20937
811.582	20815
811.724	20590
811.865	20644
812.007	20640
812.148	20762
812.29	20800
812.431	20872
812.573	21047
812.714	21150
812.855	21268
812.997	21336
813.138	21473
813.279	21359
813.421	21203
813.562	21230
813.703	20990
813.845	20914
813.986	20495
814.127	20366
814.268	20362
814.41	20377
814.551	20290
814.692	20347
814.833	20145
814.974	20286
815.115	20320
815.256	20122
815.397	20115
815.539	20073
815.68	20065
815.821	19970
815.962	20020
816.103	19967
816.244	19795
816.385	19674
816.526	19666
816.666	19639
816.807	19453
816.948	19491
817.089	19525
817.23	19533
817.371	19255
817.512	19422
817.653	19407
817.793	19400
817.934	19430
818.075	19384
818.216	19422
818.356	19381
818.497	19206
818.638	19122
818.778	19095
818.919	19088
819.06	19107
819.2	19183
819.341	19335
819.481	19331
819.622	19411
819.762	19582
819.903	19575
820.043	19472
820.184	19297
820.324	19502
820.465	19552
820.605	19335
820.746	19407
820.886	19316
821.026	19346
821.167	19331
821.307	19369
821.447	19331
821.588	19304
821.728	19152
821.868	18973
822.008	18757
822.149	18787
822.289	18787
822.429	18585
822.569	18486
822.709	18570
822.849	18277
822.99	18247
823.13	18300
823.27	18174
823.41	18144
823.55	18102
823.69	18205
823.83	18159
823.97	18110
824.11	17870
824.25	17878
824.389	17855
824.529	17969
824.669	17882
824.809	18038
824.949	17942
825.089	17988
825.228	17920
825.368	17767
825.508	17653
825.648	17611
825.787	17832
825.927	17756
826.067	17630
826.206	17577
826.346	17543
826.485	17627
826.625	17646
826.765	17794
826.904	17802
827.044	17452
827.183	17444
827.323	17277
827.462	17433
827.601	17505
827.741	17414
827.88	17391
828.02	17337
828.159	17395
828.298	17455
828.437	17444
828.577	17288
828.716	17474
828.855	17235
828.994	17212
829.134	17124
829.273	17204
829.412	17048
829.551	17155
829.69	17124
829.829	17155
829.968	17292
830.107	17223
830.246	17143
830.385	17124
830.524	17083
830.663	17048
830.802	16889
830.941	16869
831.08	16717
831.219	16816
831.357	16790
831.496	17052
831.635	16748
831.774	16668
831.913	16706
832.051	16622
832.19	16561
832.329	16561
832.467	16538
832.606	16382
832.744	16504
832.883	16405
833.022	16413
833.16	16478
833.299	16485
833.437	16550
833.576	16538
833.714	16527
833.852	16527
833.991	16500
834.129	16653
834.267	16489
834.406	16451
834.544	16569
834.682	16527
834.821	16565
834.959	16691
835.097	16390
835.235	16687
835.373	16596
835.511	16485
835.65	16390
835.788	16436
835.926	16375
836.064	16337
836.202	16268
836.34	16478
836.478	16599
836.615	16375
836.753	16462
836.891	16440
837.029	16462
837.167	16390
837.305	16352
837.443	16295
837.58	16299
837.718	16348
837.856	16287
837.993	16318
838.131	16284
838.269	16265
838.406	16242
838.544	16211
838.681	16017
838.819	16040
838.956	15903
839.094	15755
839.231	15892
839.369	16017
839.506	16215
839.643	16074
839.781	15873
839.918	15827
840.055	15930
840.193	15842
840.33	15960
840.467	15895
840.604	15838
840.742	16166
840.879	15739
841.016	15717
841.153	15686
841.29	16013
841.427	15987
841.564	15835
841.701	15827
841.838	15736
841.975	15728
842.112	15854
842.249	15625
842.385	15564
842.522	15861
842.659	15682
842.796	15564
842.933	15656
843.069	15599
843.206	15568
843.343	15759
843.479	15637
843.616	15675
843.752	15450
843.889	15507
844.025	15595
844.162	15443
844.298	15523
844.435	15378
844.571	15317
844.708	15496
844.844	15481
844.98	15519
845.117	15545
845.253	15454
845.389	15325
845.525	15462
845.661	15355
845.798	15283
845.934	15336
846.07	15123
846.206	15226
846.342	15325
846.478	15329
846.614	15150
846.75	15043
846.886	15009
847.022	15138
847.158	15051
847.294	14967
847.429	14998
847.565	14956
847.701	15321
847.837	14765
847.972	14697
848.108	14826
848.244	14800
848.379	14682
848.515	14590
848.65	14545
848.786	14564
848.921	14648
849.057	14724
849.192	14697
849.328	14697
849.463	14636
849.598	14621
849.734	14575
849.869	14450
850.004	14431
850.14	14366
850.275	14351
850.41	14298
850.545	14347
850.68	14313
850.815	14332
850.95	14343
851.085	14598
851.22	14568
851.355	14377
851.49	14305
851.625	14427
851.76	14412
851.895	14263
852.03	14199
852.165	14351
852.299	14396
852.434	14408
852.569	14431
852.703	14396
852.838	14419
852.973	14514
853.107	14522
853.242	14396
853.376	14252
853.511	14145
853.645	14252
853.78	14305
853.914	14233
854.048	14191
854.183	14240
854.317	14225
854.451	14492
854.585	14244
854.72	14183
854.854	14259
854.988	14153
855.122	14187
855.256	14069
855.39	14233
855.524	14328
855.658	14271
855.792	14317
855.926	14320
856.06	14355
856.194	14423
856.327	14290
856.461	14271
856.595	14275
856.729	14138
856.862	14309
856.996	14309
857.13	14377
857.263	14347
857.397	14305
857.53	14305
857.664	14229
857.797	14305
857.931	14347
858.064	14301
858.197	14362
858.331	14320
858.464	14161
858.597	14058
858.731	14305
858.864	14153
858.997	14202
859.13	14237
859.263	14275
859.396	14313
859.529	14221
859.662	14286
859.795	14263
859.928	14366
860.061	14370
860.194	14415
860.327	14339
860.46	14332
860.592	14358
860.725	14271
860.858	14358
860.99	14248
861.123	14210
861.256	14168
861.388	14362
861.521	14834
861.653	14176
861.786	13993
861.918	14180
862.05	14145
862.183	14263
862.315	14317
862.447	14282
862.58	14183
862.712	14081
862.844	14005
862.976	14081
863.108	14073
863.24	14431
863.372	14001
863.504	14027
863.636	14046
863.768	14107
863.9	14043
864.032	13944
864.164	13947
864.296	14046
864.428	14180
864.559	14065
864.691	14119
864.823	14065
864.954	14020
865.086	14088
865.217	13967
865.349	13951
865.48	13913
865.612	13974
865.743	14206
865.875	14046
866.006	13974
866.137	14016
866.269	13959
866.4	13989
866.531	13993
866.662	13902
866.793	13978
866.924	14050
867.055	14005
867.186	13921
867.317	14107
867.448	13898
867.579	13898
867.71	13951
867.841	13849
867.972	14020
868.103	14027
868.233	14043
868.364	14020
868.495	14096
868.625	14229
868.756	14442
868.886	14126
869.017	14252
869.147	14324
869.278	14396
869.408	14301
869.539	14252
869.669	14336
869.799	14206
869.929	14278
870.06	14343
870.19	14549
870.32	14549
870.45	14537
870.58	14682
870.71	14727
870.84	14731
870.97	14678
871.1	14625
871.23	14838
871.36	14834
871.489	14697
871.619	14838
871.749	14849
871.879	14918
872.008	15024
872.138	14918
872.267	14811
872.397	14701
872.526	14636
872.656	14739
872.785	14804
872.915	14872
873.044	15020
873.173	14952
873.303	14910
873.432	14982
873.561	15047
873.69	14998
873.819	14880
873.948	14994
874.077	14963
874.206	14849
874.335	14845
874.464	15211
874.593	15165
874.722	15150
874.851	15211
874.979	15245
875.108	15325
875.237	15279
875.365	15203
875.494	15108
875.623	15313
875.751	15272
875.88	15272
876.008	15416
876.136	15428
876.265	15618
876.393	15736
876.521	15671
876.65	15808
876.778	15682
876.906	15587
877.034	15553
877.162	15671
877.29	15545
877.418	15580
877.546	15690
877.674	15656
877.802	15637
877.93	15576
878.058	15549
878.185	15496
878.313	15576
878.441	15694
878.568	15431
878.696	15652
878.824	15599
878.951	15637
879.079	15903
879.206	15979
879.333	15865
879.461	15797
879.588	15743
879.715	15873
879.842	15922
879.97	15625
880.097	15561
880.224	15393
880.351	15500
880.478	15549
880.605	15412
880.732	15492
880.859	15682
880.986	15534
881.112	15428
881.239	15458
881.366	15252
881.493	15203
881.619	15199
881.746	15188
881.872	15180
881.999	15173
882.125	15199
882.252	15211
882.378	15089
882.505	15332
882.631	15127
882.757	15020
882.883	15062
883.01	15001
883.136	14906
883.262	14819
883.388	14792
883.514	14914
883.64	14963
883.766	14937
883.892	14800
884.018	14750
884.143	14948
884.269	14998
884.395	14788
884.52	14716
884.646	14727
884.772	14644
884.897	14552
885.023	14587
885.148	14861
885.274	14853
885.399	14705
885.524	14613
885.65	14826
885.775	14777
885.9	14693
886.025	14811
886.15	14682
886.275	14640
886.4	14530
886.525	14590
886.65	14651
886.775	14701
886.9	14785
887.025	14982
887.149	14769
887.274	14583
887.399	14457
887.523	14461
887.648	14328
887.773	14457
887.897	14568
888.021	14575
888.146	14446
888.27	14663
888.395	14610
888.519	14579
888.643	14507
888.767	14606
888.891	14400
889.015	14396
889.139	14412
889.263	14370
889.387	14503
889.511	14560
889.635	14526
889.759	14389
889.883	14389
890.006	14492
890.13	14434
890.254	14263
890.377	14275
890.501	14088
890.624	14180
890.748	14263
890.871	14081
890.995	14077
891.118	13963
891.241	14138
891.364	14073
891.488	14172
891.611	14058
891.734	14062
891.857	14115
891.98	14130
892.103	14138
892.226	14157
892.349	14039
892.471	13932
892.594	13982
892.717	14050
892.839	13970
892.962	14084
893.085	14176
893.207	14119
893.33	13883
893.452	13921
893.575	14054
893.697	13947
893.819	14161
893.941	14271
894.064	14343
894.186	14001
894.308	14043
894.43	14210
894.552	14275
894.674	14214
894.796	14005
894.918	14176
895.04	14081
895.161	14244
895.283	14168
895.405	14271
895.526	14195
895.648	14195
895.769	14164
895.891	14278
896.012	14267
896.134	14324
896.255	14244
896.376	14168
896.498	14199
896.619	14183
896.74	14282
896.861	14336
896.982	14560
897.103	14804
897.224	14568
897.345	14454
897.466	14469
897.587	14495
897.708	14606
897.828	14522
897.949	14495
898.07	14408
898.19	14476
898.311	14648
898.431	14549
898.552	14594
898.672	14629
898.792	14598
898.913	14670
899.033	14545
899.153	14457
899.273	14400
899.393	14408
899.513	14457
899.633	14358
899.753	14423
899.873	14412
899.993	14423
900.113	14400
900.232	14461
900.352	14381
900.472	14374
900.591	14210
900.711	14278
900.83	14221
900.95	14366
901.069	14476
901.189	14225
901.308	14027
901.427	13932
901.546	13928
901.665	14020
901.784	13967
901.904	13788
902.023	13746
902.141	13651
902.26	13518
902.379	13632
902.498	13449
902.617	13544
902.735	13525
902.854	13525
902.973	13518
903.091	13251
903.21	13202
903.328	13259
903.446	13133
903.565	13061
903.683	13118
903.801	12970
903.919	13160
904.038	13103
904.156	12894
904.274	12935
904.392	12867
904.51	12958
904.627	12977
904.745	13050
904.863	12977
904.981	12707
905.098	12582
905.216	12639
905.334	12658
905.451	12593
905.569	12498
905.686	12528
905.803	12612
905.921	12475
906.038	12460
906.155	12483
906.272	12323
906.389	12342
906.506	12178
906.623	12300
906.74	12235
906.857	12034
906.974	12129
907.091	12258
907.208	12228
907.324	12327
907.441	12140
907.557	11912
907.674	12030
907.79	11920
907.907	11954
908.023	11996
908.139	11878
908.256	11935
908.372	11824
908.488	11863
908.604	11745
908.72	11646
908.836	11767
908.952	11733
909.068	11722
909.184	11878
909.3	11726
909.415	11756
909.531	11733
909.647	11486
909.762	11452
909.878	11509
909.993	11554
910.108	11440
910.224	11410
910.339	11478
910.454	11379
910.57	11349
910.685	11197
910.8	11581
910.915	11539
911.03	11383
911.145	11269
911.259	11311
911.374	11189
911.489	11064
911.604	11014
911.718	10866
911.833	10965
911.947	10831
912.062	10824
912.176	10987
912.291	10991
912.405	11018
912.519	11162
912.633	11174
912.748	10991
912.862	10927
912.976	10809
913.09	10771
913.204	10797
913.318	10831
913.431	10911
913.545	10953
913.659	10938
913.772	10854
913.886	10649
914	10645
914.113	10725
914.226	10839
914.34	10763
914.453	10558
914.566	10778
914.68	10740
914.793	10645
914.906	10455
915.019	10402
915.132	10367
915.245	10371
915.358	10523
915.47	10481
915.583	10474
915.696	10504
915.809	10546
915.921	10672
916.034	10436
916.146	10398
916.259	10352
916.371	10500
916.483	10462
916.595	10424
916.708	10428
916.82	10443
916.932	10417
917.044	10333
917.156	10367
917.268	10166
917.38	10276
917.491	10257
917.603	10402
917.715	10375
917.826	10382
917.938	10242
918.049	10211
918.161	10284
918.272	10398
918.384	10440
918.495	10318
918.606	10204
918.717	10139
918.828	10234
918.939	10246
919.05	10135
919.161	10124
919.272	10040
919.383	10013
919.494	10158
919.604	10367
919.715	10185
919.826	10143
919.936	10169
920.047	10238
920.157	10204
920.267	10390
920.378	10230
920.488	10215
920.598	10371
920.708	10565
920.818	10394
920.928	10386
921.038	10523
921.148	10466
921.258	10215
921.368	10105
921.477	10063
921.587	9987
921.697	9922
921.806	10032
921.916	9926
922.025	9743
922.134	9778
922.244	9644
922.353	9785
922.462	9622
922.571	9641
922.68	9405
922.789	9408
922.898	9462
923.007	9382
923.116	9458
923.224	9454
923.333	9416
923.442	9249
923.55	9348
923.659	9363
923.767	9450
923.876	9294
923.984	9310
924.092	9211
924.201	9279
924.309	9317
924.417	9302
924.525	9256
924.633	9279
924.741	10051
924.849	9093
924.956	9195
925.064	8990
925.172	8986
925.279	9081
925.387	9104
925.494	9077
925.602	9321
925.709	9207
925.816	9024
925.924	9062
926.031	9214
926.138	9089
926.245	9241
926.352	9028
926.459	9161
926.566	9184
926.673	9093
926.779	8960
926.886	8952
926.993	8868
927.099	8800
927.206	8823
927.312	8800
927.419	8864
927.525	8834
927.631	8921
927.737	8705
927.843	8754
927.95	8568
928.056	8769
928.162	8689
928.267	8762
928.373	9393
928.479	8804
928.585	8522
928.69	8621
928.796	8750
928.901	8651
929.007	8541
929.112	8610
929.218	8552
929.323	8522
929.428	8533
929.533	8625
929.638	8537
929.743	8560
929.848	8530
929.953	8514
930.058	8438
930.163	8233
930.267	8393
930.372	8419
930.477	8286
930.581	8507
930.685	8355
930.79	8271
930.894	8271
930.998	8256
931.103	8358
931.207	7997
931.311	7993
931.415	7944
931.519	7734
931.623	7746
