Data from test_V78500241_267.txt Node
Date: Fri Mar 25 14:35:34 CST 2022
User: usil
Spectrometer: V785-0024
Trigger mode: 0
Integration Time (sec): 4.000000E-1
Scans to average: 1
Nonlinearity correction enabled: false
Boxcar width: 0
Storing dark spectrum: false
XAxis mode: Wavelengths
Number of Pixels in Spectrum: 1024
>>>>>Begin Spectral Data<<<<<
801.071	27393
801.214	27367
801.356	27036
801.499	27005
801.641	26883
801.783	26731
801.926	26750
802.068	26655
802.211	26613
802.353	26648
802.496	26503
802.638	26457
802.78	26328
802.923	26320
803.065	26187
803.208	26267
803.35	26362
803.492	26347
803.635	26476
803.777	26301
803.919	26324
804.061	26629
804.204	26461
804.346	26301
804.488	26301
804.63	26244
804.773	26298
804.915	26271
805.057	26404
805.199	26347
805.341	26362
805.483	26495
805.626	26415
805.768	26396
805.91	26381
806.052	26301
806.194	26332
806.336	26507
806.478	26431
806.62	26298
806.762	26484
806.904	26575
807.046	26785
807.188	26686
807.33	26701
807.472	26727
807.614	26689
807.756	26811
807.898	26674
808.04	26442
808.182	26560
808.324	26663
808.465	26640
808.607	26762
808.749	26948
808.891	27062
809.033	27154
809.174	27024
809.316	27051
809.458	26982
809.6	26880
809.741	26891
809.883	27001
810.025	27146
810.166	27096
810.308	27001
810.45	27039
810.591	27024
810.733	26864
810.875	26731
811.016	26743
811.158	26636
811.299	26807
811.441	26899
811.582	26762
811.724	26815
811.865	26655
812.007	26716
812.148	26739
812.29	26823
812.431	26956
812.573	27085
812.714	27085
812.855	27169
812.997	27329
813.138	27431
813.279	27294
813.421	27176
813.562	27188
813.703	26948
813.845	27001
813.986	26663
814.127	26366
814.268	26199
814.41	26355
814.551	26248
814.692	26419
814.833	26317
814.974	26271
815.115	26176
815.256	26103
815.397	26191
815.539	26054
815.68	25989
815.821	26005
815.962	26142
816.103	25913
816.244	25791
816.385	25704
816.526	25723
816.666	25586
816.807	25594
816.948	25544
817.089	25590
817.23	25464
817.371	25426
817.512	25434
817.653	25282
817.793	25217
817.934	25324
818.075	25434
818.216	25377
818.356	25392
818.497	25274
818.638	25156
818.778	25053
818.919	24981
819.06	25228
819.2	25221
819.341	25304
819.481	25221
819.622	25457
819.762	25567
819.903	25422
820.043	25491
820.184	25419
820.324	25468
820.465	25499
820.605	25556
820.746	25457
820.886	25164
821.026	25327
821.167	25312
821.307	25518
821.447	25217
821.588	25179
821.728	25038
821.868	24776
822.008	24684
822.149	24650
822.289	24692
822.429	24509
822.569	24414
822.709	24429
822.849	24334
822.99	24330
823.13	24277
823.27	24095
823.41	23980
823.55	23901
823.69	24091
823.83	24068
823.97	24049
824.11	23786
824.25	23661
824.389	23832
824.529	23889
824.669	23824
824.809	23805
824.949	23764
825.089	23737
825.228	23840
825.368	23528
825.508	23570
825.648	23592
825.787	23558
825.927	23707
826.067	23570
826.206	23452
826.346	23691
826.485	23627
826.625	23543
826.765	23623
826.904	23596
827.044	23212
827.183	23162
827.323	23136
827.462	23345
827.601	23151
827.741	23166
827.88	23200
828.02	23056
828.159	23235
828.298	23151
828.437	23242
828.577	23109
828.716	23303
828.855	23151
828.994	22881
829.134	22965
829.273	22976
829.412	23048
829.551	22850
829.69	22953
829.829	23003
829.968	23014
830.107	22927
830.246	22942
830.385	22733
830.524	22801
830.663	22683
830.802	22645
830.941	22622
831.08	22382
831.219	22626
831.357	22481
831.496	22645
831.635	22322
831.774	22402
831.913	22329
832.051	22181
832.19	22139
832.329	22253
832.467	22097
832.606	21975
832.744	22116
832.883	22017
833.022	21994
833.16	22101
833.299	22021
833.437	22112
833.576	22128
833.714	22082
833.852	22211
833.991	22025
834.129	22211
834.267	22299
834.406	22169
834.544	22116
834.682	22093
834.821	22162
834.959	22173
835.097	22074
835.235	22135
835.373	22128
835.511	22025
835.65	22032
835.788	21991
835.926	21899
836.064	21770
836.202	21800
836.34	21873
836.478	21975
836.615	21972
836.753	21960
836.891	22078
837.029	21968
837.167	21892
837.305	21930
837.443	21835
837.58	21736
837.718	21873
837.856	21747
837.993	21857
838.131	21747
838.269	21694
838.406	21572
838.544	21606
838.681	21428
838.819	21355
838.956	21272
839.094	21169
839.231	21370
839.369	21405
839.506	21720
839.643	21534
839.781	21173
839.918	20982
840.055	21233
840.193	21058
840.33	21020
840.467	21131
840.604	21096
840.742	21317
840.879	21039
841.016	20975
841.153	21028
841.29	21313
841.427	21093
841.564	21226
841.701	21100
841.838	21074
841.975	21089
842.112	20979
842.249	20902
842.385	20758
842.522	20876
842.659	20883
842.796	20781
842.933	20796
843.069	20918
843.206	20853
843.343	20823
843.479	20857
843.616	20796
843.752	20617
843.889	20686
844.025	20788
844.162	20571
844.298	20758
844.435	20621
844.571	20522
844.708	20648
844.844	20746
844.98	20750
845.117	20579
845.253	20606
845.389	20450
845.525	20484
845.661	20571
845.798	20522
845.934	20480
846.07	20507
846.206	20678
846.342	20602
846.478	20552
846.614	20313
846.75	20122
846.886	20050
847.022	20111
847.158	19978
847.294	20058
847.429	20081
847.565	20035
847.701	20290
847.837	19757
847.972	19704
848.108	19818
848.244	19864
848.379	19639
848.515	19674
848.65	19719
848.786	19662
848.921	19601
849.057	19833
849.192	19670
849.328	19677
849.463	19609
849.598	19392
849.734	19460
849.869	19468
850.004	19354
850.14	19266
850.275	19331
850.41	19126
850.545	19236
850.68	19343
850.815	19396
850.95	19324
851.085	19609
851.22	19441
851.355	19388
851.49	19324
851.625	19282
851.76	19350
851.895	19206
852.03	19194
852.165	19266
852.299	19422
852.434	19434
852.569	19316
852.703	19377
852.838	19354
852.973	19339
853.107	19422
853.242	19266
853.376	19088
853.511	18951
853.645	19141
853.78	19293
853.914	19282
854.048	19053
854.183	19126
854.317	19141
854.451	19270
854.585	19145
854.72	19061
854.854	19198
854.988	19126
855.122	19126
855.256	19042
855.39	19175
855.524	19232
855.658	19126
855.792	19255
855.926	19122
856.06	19335
856.194	19217
856.327	19183
856.461	19088
856.595	19137
856.729	19046
856.862	19278
856.996	19168
857.13	19217
857.263	19308
857.397	19217
857.53	19114
857.664	19126
857.797	19137
857.931	19251
858.064	19213
858.197	19183
858.331	18996
858.464	19061
858.597	19148
858.731	19027
858.864	19065
858.997	19031
859.13	19171
859.263	19160
859.396	19164
859.529	19148
859.662	19012
859.795	18973
859.928	19031
860.061	19232
860.194	19141
860.327	19251
860.46	19065
860.592	19160
860.725	19057
860.858	19080
860.99	19069
861.123	18935
861.256	18928
861.388	19027
861.521	19578
861.653	19019
861.786	18897
861.918	18939
862.05	18973
862.183	19053
862.315	19053
862.447	19103
862.58	19042
862.712	18928
862.844	18821
862.976	18916
863.108	18844
863.24	19137
863.372	18681
863.504	18715
863.636	18840
863.768	18795
863.9	18734
864.032	18696
864.164	18642
864.296	18779
864.428	18787
864.559	18806
864.691	18738
864.823	18707
864.954	18791
865.086	18875
865.217	18722
865.349	18745
865.48	18798
865.612	18700
865.743	18738
865.875	18757
866.006	18760
866.137	18681
866.269	18703
866.4	18760
866.531	18738
866.662	18593
866.793	18623
866.924	18673
867.055	18646
867.186	18563
867.317	18585
867.448	18585
867.579	18544
867.71	18574
867.841	18555
867.972	18711
868.103	18639
868.233	18711
868.364	18673
868.495	18749
868.625	18802
868.756	18939
868.886	18768
869.017	18760
869.147	18939
869.278	18920
869.408	18935
869.539	18932
869.669	18897
869.799	18890
869.929	18935
870.06	19004
870.19	19152
870.32	19164
870.45	19232
870.58	19236
870.71	19377
870.84	19396
870.97	19308
871.1	19221
871.23	19358
871.36	19365
871.489	19350
871.619	19335
871.749	19358
871.879	19521
872.008	19502
872.138	19369
872.267	19441
872.397	19350
872.526	19270
872.656	19308
872.785	19259
872.915	19483
873.044	19514
873.173	19445
873.303	19483
873.432	19403
873.561	19525
873.69	19472
873.819	19476
873.948	19586
874.077	19438
874.206	19480
874.335	19472
874.464	19613
874.593	19750
874.722	19639
874.851	19753
874.979	19822
875.108	19879
875.237	19784
875.365	19689
875.494	19765
875.623	19791
875.751	19651
875.88	19795
876.008	19875
876.136	20046
876.265	20103
876.393	20339
876.521	20282
876.65	20237
876.778	20065
876.906	20012
877.034	20062
877.162	20157
877.29	20145
877.418	20092
877.546	20168
877.674	20142
877.802	20157
877.93	20172
878.058	20001
878.185	20024
878.313	20237
878.441	20103
878.568	19986
878.696	20134
878.824	20130
878.951	20332
879.079	20393
879.206	20476
879.333	20317
879.461	20305
879.588	20351
879.715	20438
879.842	20602
879.97	20305
880.097	20149
880.224	19997
880.351	20039
880.478	20058
880.605	20084
880.732	20031
880.859	20259
880.986	20008
881.112	20088
881.239	19860
881.366	19875
881.493	19594
881.619	19578
881.746	19571
881.872	19639
881.999	19597
882.125	19586
882.252	19616
882.378	19597
882.505	19742
882.631	19575
882.757	19346
882.883	19525
883.01	19282
883.136	19362
883.262	19198
883.388	19274
883.514	19320
883.64	19346
883.766	19225
883.892	19145
884.018	19255
884.143	19411
884.269	19476
884.395	19076
884.52	19080
884.646	18958
884.772	19019
884.897	18970
885.023	18970
885.148	19072
885.274	19088
885.399	19042
885.524	19042
885.65	18977
885.775	19023
885.9	18935
886.025	19129
886.15	19099
886.275	18981
886.4	18928
886.525	18909
886.65	18829
886.775	18935
886.9	19156
887.025	19354
887.149	18848
887.274	18840
887.399	18856
887.523	18772
887.648	18673
887.773	18608
887.897	18852
888.021	18787
888.146	18719
888.27	18886
888.395	18802
888.519	18802
888.643	18779
888.767	18776
888.891	18696
889.015	18498
889.139	18597
889.263	18464
889.387	18673
889.511	18806
889.635	18650
889.759	18559
889.883	18521
890.006	18445
890.13	18612
890.254	18323
890.377	18494
890.501	18315
890.624	18220
890.748	18346
890.871	18213
890.995	18098
891.118	18083
891.241	18224
891.364	18251
891.488	18308
891.611	18152
891.734	18235
891.857	18251
891.98	18216
892.103	18273
892.226	18239
892.349	18148
892.471	17942
892.594	18019
892.717	18079
892.839	18076
892.962	18072
893.085	18239
893.207	18079
893.33	18007
893.452	17973
893.575	18155
893.697	18106
893.819	18338
893.941	18304
894.064	18190
894.186	17988
894.308	18053
894.43	18182
894.552	18239
894.674	18174
894.796	18060
894.918	18030
895.04	18106
895.161	18152
895.283	18171
895.405	18083
895.526	18106
895.648	18140
895.769	18148
895.891	18243
896.012	18270
896.134	18247
896.255	18216
896.376	18178
896.498	18235
896.619	18216
896.74	18224
896.861	18376
896.982	18623
897.103	18661
897.224	18498
897.345	18414
897.466	18338
897.587	18372
897.708	18494
897.828	18456
897.949	18426
898.07	18247
898.19	18289
898.311	18460
898.431	18460
898.552	18346
898.672	18513
898.792	18418
898.913	18441
899.033	18251
899.153	18091
899.273	18194
899.393	18095
899.513	18194
899.633	18163
899.753	18289
899.873	18125
899.993	18251
900.113	18079
900.232	18174
900.352	18060
900.472	17984
900.591	17901
900.711	18022
900.83	18049
900.95	18144
901.069	18114
901.189	17847
901.308	17657
901.427	17684
901.546	17687
901.665	17646
901.784	17680
901.904	17455
902.023	17376
902.141	17193
902.26	17086
902.379	17239
902.498	17098
902.617	17105
902.735	17071
902.854	17124
902.973	17037
903.091	16881
903.21	16873
903.328	16713
903.446	16744
903.565	16664
903.683	16668
903.801	16512
903.919	16668
904.038	16588
904.156	16318
904.274	16470
904.392	16394
904.51	16436
904.627	16390
904.745	16417
904.863	16459
904.981	16154
905.098	16116
905.216	16131
905.334	16071
905.451	15998
905.569	16029
905.686	16158
905.803	16010
905.921	15823
906.038	15941
906.155	15953
906.272	15690
906.389	15747
906.506	15568
906.623	15549
906.74	15553
906.857	15443
906.974	15420
907.091	15599
907.208	15800
907.324	15675
907.441	15504
907.557	15294
907.674	15252
907.79	15214
907.907	15302
908.023	15275
908.139	15336
908.256	15264
908.372	15138
908.488	15116
908.604	15058
908.72	15043
908.836	14990
908.952	14887
909.068	14883
909.184	14944
909.3	14925
909.415	15070
909.531	15051
909.647	14682
909.762	14636
909.878	14686
909.993	14739
910.108	14754
910.224	14773
910.339	14754
910.454	14606
910.57	14545
910.685	14385
910.8	14651
910.915	14667
911.03	14594
911.145	14370
911.259	14358
911.374	14362
911.489	14252
911.604	14187
911.718	13982
911.833	14100
911.947	14024
912.062	13875
912.176	14012
912.291	14031
912.405	14092
912.519	14271
912.633	14355
912.748	14153
912.862	14012
912.976	13978
913.09	13696
913.204	13959
913.318	13928
913.431	14020
913.545	13951
913.659	14058
913.772	13928
913.886	13814
914	13776
914.113	13856
914.226	13967
914.34	13772
914.453	13670
914.566	13830
914.68	13662
914.793	13685
914.906	13396
915.019	13346
915.132	13373
915.245	13415
915.358	13460
915.47	13434
915.583	13460
915.696	13502
915.809	13563
915.921	13620
916.034	13430
916.146	13392
916.259	13365
916.371	13377
916.483	13304
916.595	13346
916.708	13263
916.82	13320
916.932	13316
917.044	13324
917.156	13171
917.268	13149
917.38	13198
917.491	13171
917.603	13107
917.715	13179
917.826	13202
917.938	13179
918.049	13031
918.161	13053
918.272	13149
918.384	13194
918.495	13110
918.606	12962
918.717	12989
918.828	12962
918.939	12886
919.05	12753
919.161	12897
919.272	12745
919.383	12795
919.494	12958
919.604	13084
919.715	12966
919.826	12810
919.936	12768
920.047	12935
920.157	12863
920.267	13095
920.378	12985
920.488	12825
920.598	13069
920.708	13156
920.818	13015
920.928	13061
921.038	13190
921.148	13122
921.258	12878
921.368	12768
921.477	12608
921.587	12551
921.697	12498
921.806	12620
921.916	12525
922.025	12403
922.134	12311
922.244	12239
922.353	12388
922.462	12239
922.571	12171
922.68	11977
922.789	11893
922.898	11942
923.007	11870
923.116	12102
923.224	11980
923.333	11912
923.442	11798
923.55	11756
923.659	11798
923.767	11870
923.876	11771
923.984	11916
924.092	11752
924.201	11756
924.309	11794
924.417	11691
924.525	11729
924.633	11577
924.741	12601
924.849	11509
924.956	11615
925.064	11520
925.172	11372
925.279	11459
925.387	11532
925.494	11471
925.602	11638
925.709	11512
925.816	11410
925.924	11406
926.031	11486
926.138	11474
926.245	11467
926.352	11353
926.459	11516
926.566	11486
926.673	11425
926.779	11261
926.886	11159
926.993	11166
927.099	11170
927.206	11056
927.312	11025
927.419	11151
927.525	11151
927.631	11083
927.737	10934
927.843	10946
927.95	10854
928.056	10942
928.162	10934
928.267	10999
928.373	11497
928.479	11006
928.585	10786
928.69	10835
928.796	10930
928.901	10839
929.007	10679
929.112	10763
929.218	10759
929.323	10721
929.428	10706
929.533	10801
929.638	10630
929.743	10691
929.848	10717
929.953	10660
930.058	10599
930.163	10394
930.267	10382
930.372	10569
930.477	10398
930.581	10637
930.685	10550
930.79	10265
930.894	10413
930.998	10287
931.103	10455
931.207	10101
931.311	9975
931.415	9857
931.519	9743
931.623	9660
