Data from test_V78500241_1410.txt Node
Date: Fri Mar 25 14:43:32 CST 2022
User: usil
Spectrometer: V785-0024
Trigger mode: 0
Integration Time (sec): 4.000000E-1
Scans to average: 1
Nonlinearity correction enabled: false
Boxcar width: 0
Storing dark spectrum: false
XAxis mode: Wavelengths
Number of Pixels in Spectrum: 1024
>>>>>Begin Spectral Data<<<<<
801.071	22470
801.214	22242
801.356	22112
801.499	21964
801.641	21823
801.783	21804
801.926	21926
802.068	21637
802.211	21629
802.353	21515
802.496	21222
802.638	21127
802.78	21268
802.923	21211
803.065	20990
803.208	21047
803.35	21142
803.492	21176
803.635	21154
803.777	21062
803.919	21291
804.061	21481
804.204	21161
804.346	21032
804.488	21036
804.63	21058
804.773	20956
804.915	21051
805.057	21298
805.199	21093
805.341	21173
805.483	21142
805.626	21161
805.768	20910
805.91	21116
806.052	21070
806.194	21028
806.336	21100
806.478	20994
806.62	21024
806.762	21051
806.904	21203
807.046	21500
807.188	21439
807.33	21424
807.472	21538
807.614	21275
807.756	21435
807.898	21370
808.04	21241
808.182	21252
808.324	21256
808.465	21462
808.607	21603
808.749	21732
808.891	21869
809.033	21827
809.174	21762
809.316	21804
809.458	21500
809.6	21587
809.741	21625
809.883	21507
810.025	21698
810.166	21603
810.308	21644
810.45	21564
810.591	21500
810.733	21458
810.875	21321
811.016	21180
811.158	21096
811.299	21340
811.441	21325
811.582	21340
811.724	21241
811.865	21165
812.007	21173
812.148	21332
812.29	21317
812.431	21321
812.573	21481
812.714	21660
812.855	21747
812.997	21816
813.138	21857
813.279	21934
813.421	21755
813.562	21603
813.703	21538
813.845	21401
813.986	21116
814.127	20910
814.268	20895
814.41	20800
814.551	20834
814.692	20735
814.833	20781
814.974	20739
815.115	20644
815.256	20640
815.397	20583
815.539	20670
815.68	20480
815.821	20507
815.962	20495
816.103	20564
816.244	20317
816.385	20240
816.526	20271
816.666	20176
816.807	19917
816.948	20088
817.089	20100
817.23	19894
817.371	19925
817.512	19799
817.653	19852
817.793	19947
817.934	19883
818.075	19944
818.216	19970
818.356	19830
818.497	19795
818.638	19601
818.778	19666
818.919	19586
819.06	19689
819.2	19696
819.341	19814
819.481	19757
819.622	19959
819.762	20084
819.903	20073
820.043	19989
820.184	19818
820.324	19917
820.465	19841
820.605	19856
820.746	19849
820.886	19761
821.026	19780
821.167	19765
821.307	19868
821.447	19879
821.588	19708
821.728	19559
821.868	19552
822.008	19354
822.149	19308
822.289	19221
822.429	19031
822.569	18989
822.709	18958
822.849	18757
822.99	18840
823.13	18856
823.27	18715
823.41	18601
823.55	18612
823.69	18639
823.83	18639
823.97	18578
824.11	18475
824.25	18334
824.389	18426
824.529	18433
824.669	18445
824.809	18521
824.949	18490
825.089	18467
825.228	18471
825.368	18155
825.508	18015
825.648	18220
825.787	18129
825.927	18224
826.067	18114
826.206	18129
826.346	18098
826.485	18220
826.625	18159
826.765	18178
826.904	18205
827.044	17904
827.183	17863
827.323	17893
827.462	17824
827.601	17779
827.741	17821
827.88	17893
828.02	17756
828.159	17836
828.298	17920
828.437	17817
828.577	17745
828.716	18019
828.855	17794
828.994	17581
829.134	17627
829.273	17680
829.412	17505
829.551	17493
829.69	17581
829.829	17532
829.968	17779
830.107	17535
830.246	17551
830.385	17490
830.524	17433
830.663	17345
830.802	17330
830.941	17303
831.08	17140
831.219	17250
831.357	17322
831.496	17444
831.635	17261
831.774	17159
831.913	17117
832.051	17003
832.19	17045
832.329	16965
832.467	17018
832.606	16923
832.744	16919
832.883	16873
833.022	16843
833.16	16953
833.299	16995
833.437	16965
833.576	16949
833.714	16965
833.852	17003
833.991	17014
834.129	17022
834.267	17014
834.406	16991
834.544	17037
834.682	16949
834.821	16957
834.959	17121
835.097	16961
835.235	17079
835.373	16927
835.511	16976
835.65	16869
835.788	16869
835.926	16771
836.064	16565
836.202	16672
836.34	16919
836.478	17064
836.615	16873
836.753	16816
836.891	16824
837.029	16946
837.167	16915
837.305	16793
837.443	16797
837.58	16774
837.718	16790
837.856	16824
837.993	16664
838.131	16752
838.269	16645
838.406	16634
838.544	16679
838.681	16542
838.819	16432
838.956	16344
839.094	16219
839.231	16337
839.369	16371
839.506	16645
839.643	16573
839.781	16325
839.918	16276
840.055	16367
840.193	16299
840.33	16272
840.467	16310
840.604	16344
840.742	16478
840.879	16150
841.016	16101
841.153	16147
841.29	16417
841.427	16265
841.564	16291
841.701	16265
841.838	16249
841.975	16120
842.112	16135
842.249	16074
842.385	15998
842.522	16242
842.659	16090
842.796	16082
842.933	16063
843.069	16078
843.206	16044
843.343	16246
843.479	16040
843.616	16021
843.752	15835
843.889	15857
844.025	15903
844.162	15800
844.298	16013
844.435	15930
844.571	15781
844.708	15926
844.844	16071
844.98	15994
845.117	15937
845.253	15861
845.389	15717
845.525	15911
845.661	15960
845.798	15842
845.934	16010
846.07	16025
846.206	16017
846.342	16036
846.478	15789
846.614	15618
846.75	15374
846.886	15428
847.022	15564
847.158	15466
847.294	15359
847.429	15477
847.565	15416
847.701	15694
847.837	15146
847.972	15093
848.108	15268
848.244	15230
848.379	15135
848.515	15070
848.65	15062
848.786	14929
848.921	15020
849.057	15093
849.192	15233
849.328	15074
849.463	14933
849.598	14906
849.734	15051
849.869	14887
850.004	14796
850.14	14800
850.275	14788
850.41	14674
850.545	14724
850.68	14804
850.815	14845
850.95	14792
851.085	14990
851.22	14921
851.355	14800
851.49	14811
851.625	14880
851.76	14785
851.895	14788
852.03	14746
852.165	14720
852.299	14800
852.434	14883
852.569	14811
852.703	14815
852.838	14956
852.973	14872
853.107	14880
853.242	14800
853.376	14598
853.511	14594
853.645	14598
853.78	14686
853.914	14651
854.048	14686
854.183	14670
854.317	14579
854.451	14785
854.585	14625
854.72	14606
854.854	14659
854.988	14583
855.122	14720
855.256	14473
855.39	14678
855.524	14720
855.658	14636
855.792	14648
855.926	14724
856.06	14739
856.194	14705
856.327	14632
856.461	14431
856.595	14549
856.729	14648
856.862	14781
856.996	14705
857.13	14648
857.263	14674
857.397	14811
857.53	14632
857.664	14640
857.797	14689
857.931	14796
858.064	14686
858.197	14796
858.331	14746
858.464	14514
858.597	14511
858.731	14670
858.864	14587
858.997	14564
859.13	14617
859.263	14602
859.396	14583
859.529	14674
859.662	14720
859.795	14598
859.928	14686
860.061	14743
860.194	14857
860.327	14667
860.46	14625
860.592	14765
860.725	14785
860.858	14754
860.99	14648
861.123	14537
861.256	14575
861.388	14640
861.521	15420
861.653	14442
861.786	14492
861.918	14511
862.05	14564
862.183	14617
862.315	14636
862.447	14720
862.58	14579
862.712	14488
862.844	14313
862.976	14518
863.108	14431
863.24	14842
863.372	14400
863.504	14488
863.636	14454
863.768	14396
863.9	14412
864.032	14248
864.164	14427
864.296	14476
864.428	14571
864.559	14518
864.691	14393
864.823	14522
864.954	14465
865.086	14461
865.217	14427
865.349	14218
865.48	14385
865.612	14518
865.743	14568
865.875	14404
866.006	14465
866.137	14480
866.269	14412
866.4	14450
866.531	14282
866.662	14290
866.793	14347
866.924	14431
867.055	14431
867.186	14343
867.317	14256
867.448	14381
867.579	14309
867.71	14324
867.841	14256
867.972	14366
868.103	14438
868.233	14362
868.364	14347
868.495	14461
868.625	14651
868.756	14708
868.886	14537
869.017	14629
869.147	14701
869.278	14762
869.408	14689
869.539	14716
869.669	14678
869.799	14689
869.929	14754
870.06	14739
870.19	14891
870.32	14868
870.45	14986
870.58	15058
870.71	15146
870.84	15169
870.97	15051
871.1	14990
871.23	15256
871.36	15252
871.489	15077
871.619	15127
871.749	15214
871.879	15256
872.008	15389
872.138	15161
872.267	15207
872.397	15146
872.526	15028
872.656	15074
872.785	15093
872.915	15176
873.044	15287
873.173	15359
873.303	15245
873.432	15249
873.561	15264
873.69	15310
873.819	15245
873.948	15389
874.077	15310
874.206	15218
874.335	15313
874.464	15485
874.593	15511
874.722	15504
874.851	15679
874.979	15652
875.108	15603
875.237	15576
875.365	15557
875.494	15599
875.623	15690
875.751	15576
875.88	15625
876.008	15869
876.136	15800
876.265	16048
876.393	15998
876.521	16082
876.65	16211
876.778	16029
876.906	16002
877.034	15930
877.162	15994
877.29	16021
877.418	16025
877.546	16055
877.674	16120
877.802	15960
877.93	16017
878.058	15972
878.185	15941
878.313	16048
878.441	15903
878.568	15854
878.696	15964
878.824	16051
878.951	16086
879.079	16261
879.206	16405
879.333	16310
879.461	16287
879.588	16284
879.715	16287
879.842	16394
879.97	16150
880.097	15998
880.224	16044
880.351	15930
880.478	15884
880.605	15861
880.732	15869
880.859	16128
880.986	15994
881.112	15857
881.239	15842
881.366	15622
881.493	15610
881.619	15519
881.746	15492
881.872	15584
881.999	15496
882.125	15549
882.252	15633
882.378	15633
882.505	15770
882.631	15439
882.757	15401
882.883	15504
883.01	15313
883.136	15249
883.262	15188
883.388	15203
883.514	15408
883.64	15389
883.766	15192
883.892	15199
884.018	15195
884.143	15321
884.269	15454
884.395	15188
884.52	15024
884.646	15039
884.772	15047
884.897	14914
885.023	15055
885.148	15176
885.274	15249
885.399	15184
885.524	15051
885.65	15032
885.775	15116
885.9	15085
886.025	15119
886.15	15104
886.275	15066
886.4	14960
886.525	15032
886.65	15020
886.775	14887
886.9	15157
887.025	15165
887.149	15039
887.274	14990
887.399	14868
887.523	14849
887.648	14819
887.773	14758
887.897	14952
888.021	14880
888.146	14910
888.27	14986
888.395	14902
888.519	14960
888.643	14921
888.767	14933
888.891	14800
889.015	14689
889.139	14849
889.263	14678
889.387	14857
889.511	14845
889.635	14792
889.759	14686
889.883	14644
890.006	14693
890.13	14826
890.254	14617
890.377	14716
890.501	14541
890.624	14484
890.748	14606
890.871	14358
890.995	14389
891.118	14358
891.241	14457
891.364	14347
891.488	14480
891.611	14473
891.734	14366
891.857	14480
891.98	14450
892.103	14499
892.226	14419
892.349	14404
892.471	14275
892.594	14366
892.717	14438
892.839	14400
892.962	14377
893.085	14522
893.207	14473
893.33	14351
893.452	14275
893.575	14503
893.697	14412
893.819	14571
893.941	14568
894.064	14514
894.186	14324
894.308	14377
894.43	14518
894.552	14648
894.674	14385
894.796	14282
894.918	14374
895.04	14423
895.161	14511
895.283	14412
895.405	14484
895.526	14480
895.648	14552
895.769	14560
895.891	14549
896.012	14602
896.134	14571
896.255	14522
896.376	14545
896.498	14469
896.619	14636
896.74	14537
896.861	14613
896.982	14864
897.103	15100
897.224	14861
897.345	14800
897.466	14823
897.587	14864
897.708	14937
897.828	14834
897.949	14823
898.07	14727
898.19	14804
898.311	14952
898.431	14796
898.552	14899
898.672	14944
898.792	14986
898.913	14891
899.033	14861
899.153	14750
899.273	14648
899.393	14724
899.513	14724
899.633	14708
899.753	14769
899.873	14667
899.993	14838
900.113	14857
900.232	14743
900.352	14777
900.472	14712
900.591	14598
900.711	14575
900.83	14610
900.95	14762
901.069	14727
901.189	14507
901.308	14301
901.427	14259
901.546	14294
901.665	14278
901.784	14199
901.904	14252
902.023	14005
902.141	13921
902.26	13742
902.379	13944
902.498	13818
902.617	13776
902.735	13982
902.854	13811
902.973	13784
903.091	13571
903.21	13563
903.328	13537
903.446	13441
903.565	13403
903.683	13441
903.801	13270
903.919	13331
904.038	13365
904.156	13259
904.274	13358
904.392	13183
904.51	13183
904.627	13232
904.745	13293
904.863	13228
904.981	12947
905.098	12928
905.216	12894
905.334	13000
905.451	12985
905.569	12894
905.686	12928
905.803	12951
905.921	12764
906.038	12837
906.155	12829
906.272	12646
906.389	12631
906.506	12498
906.623	12555
906.74	12563
906.857	12399
906.974	12426
907.091	12559
907.208	12593
907.324	12589
907.441	12399
907.557	12243
907.674	12228
907.79	12209
907.907	12194
908.023	12292
908.139	12292
908.256	12281
908.372	12152
908.488	12114
908.604	11965
908.72	12015
908.836	12053
908.952	12003
909.068	12072
909.184	12068
909.3	12011
909.415	12057
909.531	12114
909.647	11874
909.762	11832
909.878	11840
909.993	11882
910.108	11824
910.224	11752
910.339	11760
910.454	11737
910.57	11630
910.685	11608
910.8	11889
910.915	11802
911.03	11733
911.145	11478
911.259	11524
911.374	11554
911.489	11455
911.604	11368
911.718	11261
911.833	11197
911.947	11159
912.062	11075
912.176	11246
912.291	11208
912.405	11235
912.519	11402
912.633	11429
912.748	11326
912.862	11269
912.976	11124
913.09	11018
913.204	11018
913.318	11048
913.431	11178
913.545	11189
913.659	11265
913.772	11212
913.886	10965
914	10953
914.113	11037
914.226	11094
914.34	11090
914.453	10946
914.566	11033
914.68	10938
914.793	10896
914.906	10809
915.019	10710
915.132	10698
915.245	10626
915.358	10793
915.47	10752
915.583	10740
915.696	10824
915.809	10866
915.921	10968
916.034	10763
916.146	10660
916.259	10660
916.371	10752
916.483	10668
916.595	10634
916.708	10603
916.82	10675
916.932	10634
917.044	10622
917.156	10596
917.268	10569
917.38	10603
917.491	10470
917.603	10527
917.715	10634
917.826	10653
917.938	10535
918.049	10466
918.161	10618
918.272	10691
918.384	10634
918.495	10561
918.606	10462
918.717	10424
918.828	10443
918.939	10485
919.05	10409
919.161	10440
919.272	10249
919.383	10265
919.494	10577
919.604	10645
919.715	10440
919.826	10371
919.936	10390
920.047	10466
920.157	10424
920.267	10687
920.378	10596
920.488	10409
920.598	10577
920.708	10839
920.818	10660
920.928	10683
921.038	10809
921.148	10782
921.258	10432
921.368	10481
921.477	10291
921.587	10272
921.697	10147
921.806	10280
921.916	10223
922.025	10025
922.134	10044
922.244	9983
922.353	9998
922.462	9888
922.571	9873
922.68	9705
922.789	9667
922.898	9656
923.007	9690
923.116	9713
923.224	9641
923.333	9679
923.442	9538
923.55	9542
923.659	9553
923.767	9656
923.876	9523
923.984	9572
924.092	9500
924.201	9515
924.309	9477
924.417	9572
924.525	9504
924.633	9542
924.741	10337
924.849	9275
924.956	9462
925.064	9298
925.172	9241
925.279	9275
925.387	9317
925.494	9348
925.602	9469
925.709	9306
925.816	9226
925.924	9310
926.031	9344
926.138	9283
926.245	9382
926.352	9302
926.459	9401
926.566	9454
926.673	9294
926.779	9154
926.886	9199
926.993	9119
927.099	9043
927.206	8986
927.312	8963
927.419	9058
927.525	9070
927.631	9055
927.737	8929
927.843	8941
927.95	8800
928.056	8902
928.162	9005
928.267	8956
928.373	9599
928.479	9024
928.585	8830
928.69	8979
928.796	8960
928.901	8807
929.007	8727
929.112	8883
929.218	8792
929.323	8724
929.428	8750
929.533	8857
929.638	8648
929.743	8754
929.848	8720
929.953	8773
930.058	8640
930.163	8457
930.267	8503
930.372	8686
930.477	8552
930.581	8686
930.685	8549
930.79	8438
930.894	8473
930.998	8461
931.103	8629
931.207	8225
931.311	8172
931.415	8153
931.519	7978
931.623	7928
