Data from test_V78500241_2623.txt Node
Date: Fri Mar 25 14:51:58 CST 2022
User: usil
Spectrometer: V785-0024
Trigger mode: 0
Integration Time (sec): 4.000000E-1
Scans to average: 1
Nonlinearity correction enabled: false
Boxcar width: 0
Storing dark spectrum: false
XAxis mode: Wavelengths
Number of Pixels in Spectrum: 1024
>>>>>Begin Spectral Data<<<<<
801.071	22021
801.214	21907
801.356	21686
801.499	21504
801.641	21245
801.783	21370
801.926	21408
802.068	21405
802.211	21165
802.353	21188
802.496	20921
802.638	20906
802.78	20887
802.923	20716
803.065	20655
803.208	20762
803.35	20750
803.492	20826
803.635	20826
803.777	20693
803.919	20636
804.061	21009
804.204	20792
804.346	20655
804.488	20594
804.63	20667
804.773	20621
804.915	20705
805.057	20712
805.199	20533
805.341	20625
805.483	20731
805.626	20579
805.768	20484
805.91	20587
806.052	20492
806.194	20495
806.336	20697
806.478	20541
806.62	20552
806.762	20689
806.904	20750
807.046	21009
807.188	20819
807.33	20921
807.472	20998
807.614	20815
807.756	20906
807.898	20758
808.04	20632
808.182	20750
808.324	20708
808.465	20746
808.607	20826
808.749	20914
808.891	21081
809.033	21192
809.174	21093
809.316	21001
809.458	20941
809.6	20921
809.741	21032
809.883	20933
810.025	21173
810.166	21024
810.308	21066
810.45	21077
810.591	20967
810.733	20785
810.875	20724
811.016	20545
811.158	20674
811.299	20731
811.441	20743
811.582	20895
811.724	20754
811.865	20689
812.007	20773
812.148	20678
812.29	20670
812.431	20948
812.573	21043
812.714	21218
812.855	21135
812.997	21279
813.138	21447
813.279	21272
813.421	21142
813.562	21207
813.703	20967
813.845	20804
813.986	20598
814.127	20461
814.268	20320
814.41	20317
814.551	20275
814.692	20423
814.833	20256
814.974	20157
815.115	20252
815.256	20187
815.397	20168
815.539	20062
815.68	19974
815.821	19986
815.962	19951
816.103	19982
816.244	19734
816.385	19738
816.526	19795
816.666	19468
816.807	19400
816.948	19506
817.089	19601
817.23	19468
817.371	19510
817.512	19293
817.653	19396
817.793	19327
817.934	19472
818.075	19396
818.216	19415
818.356	19358
818.497	19335
818.638	19095
818.778	19038
818.919	19183
819.06	19053
819.2	19278
819.341	19316
819.481	19251
819.622	19438
819.762	19552
819.903	19483
820.043	19365
820.184	19434
820.324	19411
820.465	19518
820.605	19358
820.746	19419
820.886	19221
821.026	19358
821.167	19282
821.307	19480
821.447	19411
821.588	19293
821.728	19015
821.868	19012
822.008	18837
822.149	18817
822.289	18859
822.429	18509
822.569	18502
822.709	18544
822.849	18342
822.99	18323
823.13	18262
823.27	18205
823.41	18167
823.55	18087
823.69	18152
823.83	18171
823.97	17988
824.11	17878
824.25	17863
824.389	17847
824.529	17901
824.669	17866
824.809	17980
824.949	17908
825.089	17946
825.228	17954
825.368	17767
825.508	17699
825.648	17767
825.787	17649
825.927	17672
826.067	17608
826.206	17642
826.346	17665
826.485	17665
826.625	17737
826.765	17764
826.904	17585
827.044	17452
827.183	17307
827.323	17395
827.462	17372
827.601	17360
827.741	17322
827.88	17444
828.02	17372
828.159	17345
828.298	17303
828.437	17383
828.577	17383
828.716	17577
828.855	17216
828.994	17105
829.134	17132
829.273	17121
829.412	17033
829.551	17041
829.69	17113
829.829	17189
829.968	17143
830.107	17132
830.246	17193
830.385	17090
830.524	16915
830.663	16892
830.802	16843
830.941	16725
831.08	16702
831.219	16812
831.357	16725
831.496	16965
831.635	16694
831.774	16702
831.913	16615
832.051	16485
832.19	16599
832.329	16679
832.467	16440
832.606	16394
832.744	16440
832.883	16421
833.022	16276
833.16	16375
833.299	16424
833.437	16474
833.576	16447
833.714	16440
833.852	16531
833.991	16478
834.129	16618
834.267	16580
834.406	16421
834.544	16421
834.682	16485
834.821	16497
834.959	16611
835.097	16421
835.235	16500
835.373	16390
835.511	16569
835.65	16394
835.788	16447
835.926	16272
836.064	16242
836.202	16162
836.34	16367
836.478	16622
836.615	16360
836.753	16390
836.891	16474
837.029	16500
837.167	16291
837.305	16325
837.443	16268
837.58	16306
837.718	16322
837.856	16246
837.993	16200
838.131	16230
838.269	16200
838.406	16215
838.544	16200
838.681	16067
838.819	15987
838.956	15774
839.094	15793
839.231	15835
839.369	15979
839.506	16154
839.643	16010
839.781	15846
839.918	15762
840.055	15873
840.193	15800
840.33	15728
840.467	15854
840.604	15865
840.742	16196
840.879	15709
841.016	15774
841.153	15778
841.29	15956
841.427	15812
841.564	15899
841.701	15789
841.838	15774
841.975	15641
842.112	15724
842.249	15564
842.385	15534
842.522	15789
842.659	15610
842.796	15648
842.933	15766
843.069	15629
843.206	15564
843.343	15622
843.479	15679
843.616	15618
843.752	15431
843.889	15416
844.025	15603
844.162	15348
844.298	15473
844.435	15355
844.571	15393
844.708	15408
844.844	15610
844.98	15625
845.117	15530
845.253	15275
845.389	15252
845.525	15313
845.661	15310
845.798	15150
845.934	15188
846.07	15112
846.206	15233
846.342	15249
846.478	15241
846.614	15039
846.75	14986
846.886	15020
847.022	15043
847.158	14967
847.294	15055
847.429	15077
847.565	14933
847.701	15245
847.837	14705
847.972	14750
848.108	14765
848.244	14868
848.379	14632
848.515	14571
848.65	14549
848.786	14564
848.921	14651
849.057	14720
849.192	14682
849.328	14533
849.463	14594
849.598	14423
849.734	14522
849.869	14564
850.004	14419
850.14	14488
850.275	14252
850.41	14301
850.545	14313
850.68	14317
850.815	14412
850.95	14320
851.085	14541
851.22	14469
851.355	14400
851.49	14343
851.625	14324
851.76	14248
851.895	14252
852.03	14164
852.165	14320
852.299	14366
852.434	14473
852.569	14366
852.703	14438
852.838	14476
852.973	14480
853.107	14526
853.242	14370
853.376	14168
853.511	14069
853.645	14176
853.78	14381
853.914	14176
854.048	14206
854.183	14218
854.317	14225
854.451	14301
854.585	14267
854.72	14180
854.854	14256
854.988	14145
855.122	14130
855.256	14088
855.39	14214
855.524	14309
855.658	14309
855.792	14275
855.926	14252
856.06	14206
856.194	14298
856.327	14130
856.461	14077
856.595	14172
856.729	14180
856.862	14381
856.996	14313
857.13	14195
857.263	14282
857.397	14358
857.53	14263
857.664	14298
857.797	14282
857.931	14271
858.064	14298
858.197	14294
858.331	14210
858.464	14180
858.597	14119
858.731	14195
858.864	14202
858.997	14183
859.13	14191
859.263	14259
859.396	14259
859.529	14153
859.662	14180
859.795	14123
859.928	14202
860.061	14427
860.194	14431
860.327	14313
860.46	14180
860.592	14355
860.725	14256
860.858	14282
860.99	14210
861.123	14088
861.256	14214
861.388	14271
861.521	14807
861.653	14123
861.786	14088
861.918	14168
862.05	14183
862.183	14195
862.315	14214
862.447	14244
862.58	14187
862.712	14062
862.844	13940
862.976	14062
863.108	14062
863.24	14514
863.372	13932
863.504	14005
863.636	13959
863.768	13997
863.9	14046
864.032	13898
864.164	13970
864.296	14050
864.428	14183
864.559	14043
864.691	14084
864.823	14096
864.954	13997
865.086	14073
865.217	13982
865.349	13906
865.48	13978
865.612	13993
865.743	14145
865.875	14069
866.006	13902
866.137	14001
866.269	13974
866.4	14027
866.531	13967
866.662	13898
866.793	13894
866.924	13932
867.055	13932
867.186	13837
867.317	13936
867.448	13856
867.579	13906
867.71	13841
867.841	13887
867.972	13982
868.103	13909
868.233	14001
868.364	14035
868.495	13974
868.625	14180
868.756	14294
868.886	14164
869.017	14172
869.147	14343
869.278	14370
869.408	14157
869.539	14244
869.669	14267
869.799	14176
869.929	14301
870.06	14263
870.19	14564
870.32	14526
870.45	14518
870.58	14571
870.71	14644
870.84	14743
870.97	14625
871.1	14598
871.23	14861
871.36	14857
871.489	14743
871.619	14811
871.749	14724
871.879	14796
872.008	14906
872.138	14868
872.267	14773
872.397	14743
872.526	14705
872.656	14636
872.785	14693
872.915	14861
873.044	15024
873.173	14819
873.303	14925
873.432	14971
873.561	15024
873.69	14944
873.819	14849
873.948	14944
874.077	14960
874.206	14883
874.335	14880
874.464	15058
874.593	15169
874.722	15165
874.851	15131
874.979	15176
875.108	15230
875.237	15192
875.365	15119
875.494	15138
875.623	15302
875.751	15199
875.88	15321
876.008	15332
876.136	15439
876.265	15641
876.393	15766
876.521	15732
876.65	15679
876.778	15610
876.906	15504
877.034	15538
877.162	15557
877.29	15580
877.418	15557
877.546	15656
877.674	15591
877.802	15614
877.93	15572
878.058	15504
878.185	15382
878.313	15587
878.441	15599
878.568	15504
878.696	15542
878.824	15720
878.951	15644
879.079	15808
879.206	15956
879.333	15762
879.461	15671
879.588	15747
879.715	15774
879.842	15979
879.97	15671
880.097	15492
880.224	15397
880.351	15485
880.478	15538
880.605	15435
880.732	15469
880.859	15622
880.986	15435
881.112	15553
881.239	15386
881.366	15264
881.493	15123
881.619	15154
881.746	15036
881.872	15161
881.999	15127
882.125	15077
882.252	15154
882.378	15165
882.505	15245
882.631	14952
882.757	15005
882.883	15028
883.01	14956
883.136	14918
883.262	14811
883.388	14746
883.514	14944
883.64	14887
883.766	14990
883.892	14708
884.018	14765
884.143	14918
884.269	15024
884.395	14708
884.52	14674
884.646	14636
884.772	14556
884.897	14537
885.023	14625
885.148	14815
885.274	14708
885.399	14708
885.524	14697
885.65	14720
885.775	14659
885.9	14693
886.025	14777
886.15	14762
886.275	14590
886.4	14613
886.525	14610
886.65	14625
886.775	14492
886.9	14823
887.025	14845
887.149	14549
887.274	14415
887.399	14381
887.523	14431
887.648	14400
887.773	14355
887.897	14526
888.021	14602
888.146	14374
888.27	14621
888.395	14636
888.519	14514
888.643	14610
888.767	14461
888.891	14415
889.015	14400
889.139	14339
889.263	14305
889.387	14400
889.511	14549
889.635	14404
889.759	14351
889.883	14267
890.006	14370
890.13	14377
890.254	14199
890.377	14263
890.501	14256
890.624	14134
890.748	14240
890.871	14069
890.995	13970
891.118	13944
891.241	14024
891.364	14054
891.488	14111
891.611	14001
891.734	14039
891.857	14103
891.98	14058
892.103	14164
892.226	14084
892.349	14012
892.471	13936
892.594	14084
892.717	14016
892.839	13986
892.962	14043
893.085	14206
893.207	13978
893.33	13898
893.452	13963
893.575	14027
893.697	14031
893.819	14103
893.941	14252
894.064	14218
894.186	14046
894.308	14012
894.43	14100
894.552	14233
894.674	14191
894.796	14073
894.918	14130
895.04	14054
895.161	14142
895.283	14218
895.405	14008
895.526	14180
895.648	14092
895.769	14134
895.891	14271
896.012	14191
896.134	14202
896.255	14282
896.376	14214
896.498	14229
896.619	14305
896.74	14161
896.861	14305
896.982	14590
897.103	14758
897.224	14518
897.345	14480
897.466	14438
897.587	14412
897.708	14629
897.828	14575
897.949	14454
898.07	14396
898.19	14465
898.311	14617
898.431	14533
898.552	14579
898.672	14716
898.792	14621
898.913	14644
899.033	14438
899.153	14366
899.273	14298
899.393	14412
899.513	14480
899.633	14442
899.753	14427
899.873	14377
899.993	14511
900.113	14362
900.232	14530
900.352	14404
900.472	14298
900.591	14290
900.711	14336
900.83	14317
900.95	14381
901.069	14396
901.189	14183
901.308	13909
901.427	13928
901.546	13921
901.665	13989
901.784	14046
901.904	14001
902.023	13761
902.141	13616
902.26	13468
902.379	13609
902.498	13510
902.617	13487
902.735	13597
902.854	13445
902.973	13453
903.091	13228
903.21	13187
903.328	13228
903.446	13217
903.565	13072
903.683	13099
903.801	13015
903.919	13050
904.038	13107
904.156	12943
904.274	12996
904.392	12909
904.51	12848
904.627	12840
904.745	12977
904.863	13000
904.981	12730
905.098	12601
905.216	12620
905.334	12662
905.451	12612
905.569	12570
905.686	12570
905.803	12559
905.921	12486
906.038	12479
906.155	12547
906.272	12357
906.389	12410
906.506	12228
906.623	12247
906.74	12163
906.857	12049
906.974	12110
907.091	12277
907.208	12315
907.324	12235
907.441	12121
907.557	11920
907.674	11912
907.79	11855
907.907	11901
908.023	11942
908.139	11973
908.256	11939
908.372	11897
908.488	11878
908.604	11703
908.72	11699
908.836	11710
908.952	11684
909.068	11688
909.184	11843
909.3	11665
909.415	11767
909.531	11726
909.647	11478
909.762	11493
909.878	11444
909.993	11566
910.108	11429
910.224	11414
910.339	11558
910.454	11364
910.57	11235
910.685	11296
910.8	11486
910.915	11573
911.03	11349
911.145	11235
911.259	11258
911.374	11147
911.489	11079
911.604	11064
911.718	10885
911.833	10911
911.947	10896
912.062	10793
912.176	10980
912.291	10869
912.405	10968
912.519	11132
912.633	11105
912.748	11033
912.862	10923
912.976	10869
913.09	10771
913.204	10721
913.318	10828
913.431	10923
913.545	10885
913.659	10930
913.772	10850
913.886	10717
914	10645
914.113	10771
914.226	10892
914.34	10824
914.453	10607
914.566	10809
914.68	10618
914.793	10603
914.906	10466
915.019	10398
915.132	10417
915.245	10398
915.358	10523
915.47	10436
915.583	10470
915.696	10489
915.809	10599
915.921	10558
916.034	10367
916.146	10382
916.259	10447
916.371	10497
916.483	10478
916.595	10360
916.708	10417
916.82	10447
916.932	10284
917.044	10333
917.156	10344
917.268	10280
917.38	10261
917.491	10223
917.603	10341
917.715	10421
917.826	10333
917.938	10295
918.049	10238
918.161	10204
918.272	10440
918.384	10440
918.495	10272
918.606	10211
918.717	10074
918.828	10204
918.939	10227
919.05	10112
919.161	10090
919.272	9884
919.383	10006
919.494	10227
919.604	10352
919.715	10196
919.826	10135
919.936	10166
920.047	10276
920.157	10059
920.267	10386
920.378	10257
920.488	10227
920.598	10394
920.708	10447
920.818	10325
920.928	10371
921.038	10558
921.148	10470
921.258	10306
921.368	10158
921.477	10078
921.587	9899
921.697	9949
921.806	10021
921.916	9960
922.025	9774
922.134	9732
922.244	9694
922.353	9705
922.462	9606
922.571	9519
922.68	9340
922.789	9378
922.898	9481
923.007	9359
923.116	9447
923.224	9431
923.333	9382
923.442	9317
923.55	9253
923.659	9359
923.767	9378
923.876	9154
923.984	9405
924.092	9211
924.201	9317
924.309	9249
924.417	9336
924.525	9237
924.633	9294
924.741	10097
924.849	9062
924.956	9264
925.064	9123
925.172	8963
925.279	9077
925.387	9085
925.494	9062
925.602	9241
925.709	9138
925.816	9070
925.924	9135
926.031	9169
926.138	9112
926.245	9135
926.352	9036
926.459	9131
926.566	9176
926.673	9039
926.779	8994
926.886	8914
926.993	8845
927.099	8811
927.206	8716
927.312	8815
927.419	8906
927.525	8941
927.631	8804
927.737	8712
927.843	8693
927.95	8583
928.056	8678
928.162	8735
928.267	8807
928.373	9424
928.479	8853
928.585	8541
928.69	8701
928.796	8689
928.901	8655
929.007	8522
929.112	8636
929.218	8610
929.323	8583
929.428	8511
929.533	8651
929.638	8434
929.743	8465
929.848	8541
929.953	8514
930.058	8492
930.163	8282
930.267	8256
930.372	8404
930.477	8279
930.581	8454
930.685	8366
930.79	8320
930.894	8290
930.998	8275
931.103	8393
931.207	8031
931.311	8027
931.415	7856
931.519	7689
931.623	7765
