Data from test_V78500241_3317.txt Node
Date: Fri Mar 25 14:56:48 CST 2022
User: usil
Spectrometer: V785-0024
Trigger mode: 0
Integration Time (sec): 4.000000E-1
Scans to average: 1
Nonlinearity correction enabled: false
Boxcar width: 0
Storing dark spectrum: false
XAxis mode: Wavelengths
Number of Pixels in Spectrum: 1024
>>>>>Begin Spectral Data<<<<<
801.071	21903
801.214	21903
801.356	21610
801.499	21549
801.641	21386
801.783	21340
801.926	21363
802.068	21367
802.211	21192
802.353	21283
802.496	20910
802.638	20933
802.78	20716
802.923	20708
803.065	20678
803.208	20556
803.35	20701
803.492	20754
803.635	20834
803.777	20617
803.919	20830
804.061	21047
804.204	20701
804.346	20636
804.488	20514
804.63	20632
804.773	20454
804.915	20579
805.057	20651
805.199	20564
805.341	20533
805.483	20743
805.626	20632
805.768	20514
805.91	20476
806.052	20499
806.194	20423
806.336	20674
806.478	20549
806.62	20549
806.762	20735
806.904	20708
807.046	20994
807.188	20975
807.33	20952
807.472	20921
807.614	20773
807.756	20861
807.898	20720
808.04	20636
808.182	20590
808.324	20689
808.465	20705
808.607	20902
808.749	20891
808.891	21020
809.033	21043
809.174	20975
809.316	20800
809.458	20807
809.6	20933
809.741	20921
809.883	20979
810.025	21131
810.166	20963
810.308	21123
810.45	21119
810.591	20899
810.733	20697
810.875	20762
811.016	20693
811.158	20511
811.299	20750
811.441	20807
811.582	20746
811.724	20765
811.865	20606
812.007	20651
812.148	20686
812.29	20667
812.431	20868
812.573	21081
812.714	21116
812.855	21211
812.997	21313
813.138	21511
813.279	21351
813.421	21180
813.562	21146
813.703	21013
813.845	20773
813.986	20556
814.127	20336
814.268	20301
814.41	20332
814.551	20244
814.692	20343
814.833	20275
814.974	20092
815.115	20157
815.256	20073
815.397	19982
815.539	20039
815.68	19989
815.821	19993
815.962	20020
816.103	19902
816.244	19902
816.385	19696
816.526	19738
816.666	19575
816.807	19472
816.948	19537
817.089	19491
817.23	19434
817.371	19457
817.512	19491
817.653	19384
817.793	19358
817.934	19297
818.075	19438
818.216	19289
818.356	19331
818.497	19175
818.638	19057
818.778	19065
818.919	19110
819.06	19194
819.2	19133
819.341	19232
819.481	19198
819.622	19445
819.762	19582
819.903	19480
820.043	19263
820.184	19343
820.324	19312
820.465	19441
820.605	19384
820.746	19297
820.886	19076
821.026	19213
821.167	19251
821.307	19293
821.447	19278
821.588	19183
821.728	19175
821.868	19084
822.008	18867
822.149	18783
822.289	18768
822.429	18532
822.569	18479
822.709	18445
822.849	18308
822.99	18292
823.13	18190
823.27	18178
823.41	18114
823.55	17992
823.69	18133
823.83	18114
823.97	17939
824.11	17805
824.25	17870
824.389	17802
824.529	17882
824.669	17779
824.809	17992
824.949	17855
825.089	17935
825.228	17969
825.368	17680
825.508	17611
825.648	17684
825.787	17737
825.927	17710
826.067	17642
826.206	17547
826.346	17615
826.485	17630
826.625	17539
826.765	17646
826.904	17619
827.044	17421
827.183	17376
827.323	17246
827.462	17364
827.601	17284
827.741	17395
827.88	17299
828.02	17212
828.159	17246
828.298	17250
828.437	17391
828.577	17212
828.716	17364
828.855	17239
828.994	17132
829.134	17022
829.273	17071
829.412	17033
829.551	16995
829.69	16961
829.829	17098
829.968	17189
830.107	17113
830.246	17124
830.385	17048
830.524	17018
830.663	16908
830.802	16733
830.941	16710
831.08	16611
831.219	16733
831.357	16675
831.496	16930
831.635	16687
831.774	16755
831.913	16683
832.051	16531
832.19	16584
832.329	16489
832.467	16443
832.606	16379
832.744	16325
832.883	16204
833.022	16284
833.16	16375
833.299	16394
833.437	16409
833.576	16443
833.714	16459
833.852	16500
833.991	16527
834.129	16550
834.267	16500
834.406	16470
834.544	16474
834.682	16550
834.821	16421
834.959	16481
835.097	16405
835.235	16497
835.373	16459
835.511	16500
835.65	16337
835.788	16363
835.926	16196
836.064	16131
836.202	16192
836.34	16337
836.478	16466
836.615	16261
836.753	16299
836.891	16424
837.029	16462
837.167	16322
837.305	16348
837.443	16344
837.58	16135
837.718	16280
837.856	16268
837.993	16249
838.131	16257
838.269	16196
838.406	16204
838.544	16090
838.681	15937
838.819	15892
838.956	15797
839.094	15724
839.231	15876
839.369	15930
839.506	16143
839.643	15964
839.781	15842
839.918	15774
840.055	15778
840.193	15861
840.33	15751
840.467	15705
840.604	15812
840.742	16105
840.879	15587
841.016	15751
841.153	15747
841.29	15941
841.427	15846
841.564	15736
841.701	15895
841.838	15812
841.975	15747
842.112	15660
842.249	15591
842.385	15584
842.522	15701
842.659	15507
842.796	15561
842.933	15572
843.069	15542
843.206	15416
843.343	15584
843.479	15526
843.616	15549
843.752	15348
843.889	15321
844.025	15500
844.162	15363
844.298	15481
844.435	15367
844.571	15260
844.708	15454
844.844	15416
844.98	15526
845.117	15443
845.253	15245
845.389	15214
845.525	15332
845.661	15294
845.798	15207
845.934	15157
846.07	15165
846.206	15233
846.342	15283
846.478	15169
846.614	14906
846.75	14895
846.886	14876
847.022	15051
847.158	14899
847.294	15036
847.429	14979
847.565	14925
847.701	15241
847.837	14682
847.972	14651
848.108	14777
848.244	14811
848.379	14469
848.515	14549
848.65	14564
848.786	14499
848.921	14484
849.057	14644
849.192	14701
849.328	14552
849.463	14541
849.598	14499
849.734	14419
849.869	14370
850.004	14400
850.14	14362
850.275	14233
850.41	14309
850.545	14286
850.68	14271
850.815	14339
850.95	14286
851.085	14419
851.22	14393
851.355	14305
851.49	14294
851.625	14309
851.76	14229
851.895	14187
852.03	14145
852.165	14256
852.299	14328
852.434	14313
852.569	14305
852.703	14275
852.838	14351
852.973	14465
853.107	14514
853.242	14229
853.376	14142
853.511	14050
853.645	14161
853.78	14317
853.914	14210
854.048	14157
854.183	14008
854.317	14164
854.451	14320
854.585	14084
854.72	14142
854.854	14191
854.988	14126
855.122	14065
855.256	13944
855.39	14237
855.524	14309
855.658	14267
855.792	14210
855.926	14176
856.06	14149
856.194	14286
856.327	14214
856.461	14046
856.595	14130
856.729	14107
856.862	14221
856.996	14172
857.13	14183
857.263	14301
857.397	14305
857.53	14145
857.664	14301
857.797	14256
857.931	14240
858.064	14199
858.197	14202
858.331	14145
858.464	14103
858.597	14073
858.731	14046
858.864	14183
858.997	14183
859.13	14206
859.263	14164
859.396	14267
859.529	14142
859.662	14259
859.795	14157
859.928	14214
860.061	14301
860.194	14355
860.327	14206
860.46	14119
860.592	14256
860.725	14278
860.858	14237
860.99	14142
861.123	14126
861.256	14138
861.388	14062
861.521	14941
861.653	14008
861.786	13917
861.918	14096
862.05	14069
862.183	14153
862.315	14161
862.447	14111
862.58	14111
862.712	13944
862.844	13898
862.976	14062
863.108	13967
863.24	14355
863.372	13989
863.504	13921
863.636	13875
863.768	14035
863.9	13906
864.032	13845
864.164	13917
864.296	13951
864.428	14035
864.559	14103
864.691	14062
864.823	13982
864.954	13959
865.086	13921
865.217	14050
865.349	13841
865.48	13898
865.612	13860
865.743	14073
865.875	13955
866.006	13913
866.137	13902
866.269	13917
866.4	13951
866.531	13932
866.662	13871
866.793	13940
866.924	13913
867.055	13928
867.186	13951
867.317	13947
867.448	13947
867.579	13811
867.71	13849
867.841	13868
867.972	13917
868.103	14008
868.233	13902
868.364	13860
868.495	14054
868.625	14115
868.756	14240
868.886	14054
869.017	14168
869.147	14298
869.278	14298
869.408	14191
869.539	14187
869.669	14202
869.799	14290
869.929	14259
870.06	14172
870.19	14507
870.32	14556
870.45	14465
870.58	14583
870.71	14587
870.84	14727
870.97	14663
871.1	14568
871.23	14754
871.36	14758
871.489	14758
871.619	14697
871.749	14785
871.879	14853
872.008	14914
872.138	14792
872.267	14773
872.397	14701
872.526	14583
872.656	14606
872.785	14651
872.915	14735
873.044	14921
873.173	14872
873.303	14811
873.432	14807
873.561	14800
873.69	14849
873.819	14781
873.948	14826
874.077	14792
874.206	14788
874.335	14857
874.464	14994
874.593	15108
874.722	15169
874.851	15146
874.979	15131
875.108	15157
875.237	15097
875.365	15009
875.494	15233
875.623	15180
875.751	15047
875.88	15119
876.008	15332
876.136	15378
876.265	15572
876.393	15717
876.521	15679
876.65	15633
876.778	15618
876.906	15564
877.034	15519
877.162	15523
877.29	15393
877.418	15481
877.546	15705
877.674	15599
877.802	15686
877.93	15526
878.058	15534
878.185	15447
878.313	15519
878.441	15538
878.568	15374
878.696	15435
878.824	15523
878.951	15618
879.079	15595
879.206	15888
879.333	15743
879.461	15580
879.588	15717
879.715	15705
879.842	15808
879.97	15637
880.097	15458
880.224	15466
880.351	15507
880.478	15405
880.605	15397
880.732	15405
880.859	15660
880.986	15401
881.112	15458
881.239	15405
881.366	15165
881.493	15077
881.619	14994
881.746	15123
881.872	15032
881.999	15112
882.125	15112
882.252	15093
882.378	15192
882.505	15226
882.631	15047
882.757	14948
882.883	14952
883.01	14914
883.136	14921
883.262	14792
883.388	14838
883.514	14971
883.64	15070
883.766	14853
883.892	14735
884.018	14811
884.143	14853
884.269	15032
884.395	14705
884.52	14651
884.646	14743
884.772	14621
884.897	14495
885.023	14621
885.148	14686
885.274	14796
885.399	14750
885.524	14648
885.65	14587
885.775	14575
885.9	14598
886.025	14720
886.15	14678
886.275	14545
886.4	14518
886.525	14533
886.65	14602
886.775	14507
886.9	14788
887.025	14910
887.149	14579
887.274	14412
887.399	14427
887.523	14419
887.648	14423
887.773	14377
887.897	14621
888.021	14514
888.146	14427
888.27	14587
888.395	14602
888.519	14606
888.643	14549
888.767	14522
888.891	14396
889.015	14328
889.139	14473
889.263	14317
889.387	14415
889.511	14499
889.635	14480
889.759	14240
889.883	14286
890.006	14332
890.13	14408
890.254	14259
890.377	14298
890.501	14142
890.624	14111
890.748	14240
890.871	14050
890.995	14031
891.118	13902
891.241	14046
891.364	14062
891.488	14100
891.611	14005
891.734	14088
891.857	14248
891.98	13967
892.103	14157
892.226	14027
892.349	14054
892.471	13944
892.594	13894
892.717	14077
892.839	13963
892.962	14031
893.085	14081
893.207	13986
893.33	13894
893.452	14031
893.575	14096
893.697	14119
893.819	14195
893.941	14240
894.064	14252
894.186	14035
894.308	14024
894.43	14126
894.552	14237
894.674	14176
894.796	13944
894.918	14054
895.04	14027
895.161	14191
895.283	14153
895.405	14134
895.526	14054
895.648	14161
895.769	14240
895.891	14282
896.012	14244
896.134	14355
896.255	14050
896.376	14149
896.498	14214
896.619	14271
896.74	14199
896.861	14248
896.982	14511
897.103	14655
897.224	14484
897.345	14427
897.466	14393
897.587	14495
897.708	14499
897.828	14537
897.949	14393
898.07	14393
898.19	14419
898.311	14590
898.431	14556
898.552	14450
898.672	14663
898.792	14625
898.913	14610
899.033	14473
899.153	14324
899.273	14164
899.393	14366
899.513	14393
899.633	14332
899.753	14438
899.873	14374
899.993	14412
900.113	14351
900.232	14476
900.352	14343
900.472	14313
900.591	14142
900.711	14355
900.83	14263
900.95	14362
901.069	14381
901.189	14233
901.308	14058
901.427	13902
901.546	13818
901.665	14027
901.784	13997
901.904	13841
902.023	13757
902.141	13529
902.26	13563
902.379	13544
902.498	13453
902.617	13491
902.735	13632
902.854	13426
902.973	13464
903.091	13240
903.21	13251
903.328	13221
903.446	13179
903.565	13088
903.683	13080
903.801	13057
903.919	13107
904.038	13031
904.156	12916
904.274	12951
904.392	12863
904.51	12951
904.627	12897
904.745	12958
904.863	12890
904.981	12673
905.098	12631
905.216	12681
905.334	12669
905.451	12570
905.569	12532
905.686	12635
905.803	12658
905.921	12376
906.038	12525
906.155	12391
906.272	12262
906.389	12338
906.506	12102
906.623	12091
906.74	12213
906.857	12011
906.974	12091
907.091	12258
907.208	12281
907.324	12220
907.441	12083
907.557	11908
907.674	11920
907.79	11935
907.907	11939
908.023	12003
908.139	11935
908.256	11866
908.372	11969
908.488	11771
908.604	11752
908.72	11665
908.836	11707
908.952	11691
909.068	11657
909.184	11798
909.3	11745
909.415	11760
909.531	11657
909.647	11611
909.762	11478
909.878	11463
909.993	11471
910.108	11406
910.224	11444
910.339	11486
910.454	11334
910.57	11258
910.685	11185
910.8	11444
910.915	11490
911.03	11292
911.145	11174
911.259	11113
911.374	11166
911.489	11109
911.604	11075
911.718	10847
911.833	10980
911.947	10858
912.062	10786
912.176	10900
912.291	10892
912.405	10942
912.519	11105
912.633	11143
912.748	11018
912.862	10965
912.976	10843
913.09	10656
913.204	10717
913.318	10782
913.431	10957
913.545	10885
913.659	10892
913.772	10820
913.886	10702
914	10679
914.113	10778
914.226	10896
914.34	10778
914.453	10649
914.566	10759
914.68	10660
914.793	10668
914.906	10493
915.019	10481
915.132	10337
915.245	10421
915.358	10390
915.47	10417
915.583	10459
915.696	10462
915.809	10538
915.921	10588
916.034	10405
916.146	10356
916.259	10367
916.371	10489
916.483	10485
916.595	10337
916.708	10280
916.82	10337
916.932	10382
917.044	10291
917.156	10276
917.268	10238
917.38	10169
917.491	10204
917.603	10287
917.715	10291
917.826	10394
917.938	10303
918.049	10147
918.161	10360
918.272	10356
918.384	10360
918.495	10348
918.606	10211
918.717	10059
918.828	10196
918.939	10227
919.05	10040
919.161	10162
919.272	9987
919.383	9960
919.494	10204
919.604	10230
919.715	10181
919.826	10032
919.936	10135
920.047	10272
920.157	10116
920.267	10394
920.378	10207
920.488	10169
920.598	10367
920.708	10516
920.818	10421
920.928	10367
921.038	10523
921.148	10470
921.258	10147
921.368	10112
921.477	10128
921.587	10006
921.697	9918
921.806	10006
921.916	9930
922.025	9770
922.134	9751
922.244	9610
922.353	9781
922.462	9618
922.571	9507
922.68	9405
922.789	9435
922.898	9435
923.007	9431
923.116	9473
923.224	9405
923.333	9443
923.442	9313
923.55	9359
923.659	9275
923.767	9313
923.876	9355
923.984	9355
924.092	9230
924.201	9264
924.309	9264
924.417	9287
924.525	9222
924.633	9256
924.741	10120
924.849	9100
924.956	9214
925.064	9028
925.172	9058
925.279	9001
925.387	9104
925.494	9051
925.602	9154
925.709	9199
925.816	8971
925.924	9180
926.031	9211
926.138	9100
926.245	9184
926.352	9013
926.459	9135
926.566	9226
926.673	9028
926.779	8944
926.886	8975
926.993	8876
927.099	8807
927.206	8750
927.312	8766
927.419	8883
927.525	8762
927.631	8853
927.737	8686
927.843	8697
927.95	8602
928.056	8693
928.162	8674
928.267	8746
928.373	9382
928.479	8800
928.585	8560
928.69	8716
928.796	8731
928.901	8617
929.007	8415
929.112	8594
929.218	8606
929.323	8560
929.428	8552
929.533	8670
929.638	8476
929.743	8450
929.848	8560
929.953	8549
930.058	8427
930.163	8263
930.267	8309
930.372	8393
930.477	8244
930.581	8469
930.685	8370
930.79	8183
930.894	8263
930.998	8176
931.103	8339
931.207	8062
931.311	7967
931.415	7902
931.519	7734
931.623	7700
