Data from test_V78500241_1758.txt Node
Date: Fri Mar 25 14:45:57 CST 2022
User: usil
Spectrometer: V785-0024
Trigger mode: 0
Integration Time (sec): 4.000000E-1
Scans to average: 1
Nonlinearity correction enabled: false
Boxcar width: 0
Storing dark spectrum: false
XAxis mode: Wavelengths
Number of Pixels in Spectrum: 1024
>>>>>Begin Spectral Data<<<<<
801.071	22204
801.214	22169
801.356	21880
801.499	21800
801.641	21572
801.783	21481
801.926	21625
802.068	21477
802.211	21351
802.353	21260
802.496	21070
802.638	21077
802.78	21032
802.923	21020
803.065	20872
803.208	20960
803.35	20933
803.492	21043
803.635	20975
803.777	20895
803.919	21024
804.061	21321
804.204	21005
804.346	20902
804.488	20788
804.63	20834
804.773	20667
804.915	20933
805.057	20948
805.199	20823
805.341	20845
805.483	21001
805.626	20864
805.768	20769
805.91	20788
806.052	20971
806.194	20788
806.336	20937
806.478	20705
806.62	20720
806.762	20914
806.904	21005
807.046	21256
807.188	21199
807.33	21127
807.472	21135
807.614	21028
807.756	20960
807.898	20910
808.04	20921
808.182	20876
808.324	21074
808.465	21009
808.607	21055
808.749	21146
808.891	21336
809.033	21431
809.174	21428
809.316	21211
809.458	21180
809.6	21123
809.741	21222
809.883	21226
810.025	21401
810.166	21439
810.308	21374
810.45	21256
810.591	21214
810.733	21260
810.875	21058
811.016	20952
811.158	20937
811.299	20979
811.441	21096
811.582	21066
811.724	21001
811.865	21055
812.007	21005
812.148	21074
812.29	20971
812.431	21207
812.573	21351
812.714	21374
812.855	21538
812.997	21534
813.138	21610
813.279	21530
813.421	21564
813.562	21405
813.703	21302
813.845	21150
813.986	20830
814.127	20773
814.268	20651
814.41	20549
814.551	20526
814.692	20587
814.833	20423
814.974	20446
815.115	20339
815.256	20294
815.397	20473
815.539	20225
815.68	20320
815.821	20157
815.962	20240
816.103	20221
816.244	20084
816.385	20024
816.526	20050
816.666	19807
816.807	19620
816.948	19772
817.089	19811
817.23	19693
817.371	19670
817.512	19704
817.653	19632
817.793	19643
817.934	19696
818.075	19708
818.216	19715
818.356	19559
818.497	19472
818.638	19327
818.778	19312
818.919	19540
819.06	19343
819.2	19377
819.341	19537
819.481	19552
819.622	19670
819.762	19833
819.903	19750
820.043	19670
820.184	19632
820.324	19563
820.465	19712
820.605	19677
820.746	19613
820.886	19563
821.026	19586
821.167	19567
821.307	19616
821.447	19540
821.588	19556
821.728	19384
821.868	19209
822.008	19057
822.149	18958
822.289	19034
822.429	18730
822.569	18738
822.709	18677
822.849	18707
822.99	18559
823.13	18456
823.27	18479
823.41	18308
823.55	18296
823.69	18486
823.83	18498
823.97	18319
824.11	18213
824.25	18174
824.389	18098
824.529	18258
824.669	18136
824.809	18239
824.949	18053
825.089	18110
825.228	18136
825.368	17874
825.508	17939
825.648	18015
825.787	17878
825.927	17927
826.067	17920
826.206	17847
826.346	17916
826.485	17996
826.625	17851
826.765	17973
826.904	17897
827.044	17714
827.183	17668
827.323	17425
827.462	17710
827.601	17532
827.741	17528
827.88	17589
828.02	17532
828.159	17573
828.298	17566
828.437	17764
828.577	17566
828.716	17813
828.855	17543
828.994	17376
829.134	17231
829.273	17444
829.412	17284
829.551	17356
829.69	17242
829.829	17265
829.968	17532
830.107	17387
830.246	17387
830.385	17273
830.524	17356
830.663	17086
830.802	16972
830.941	17048
831.08	17010
831.219	17204
831.357	17006
831.496	17155
831.635	16900
831.774	16831
831.913	16854
832.051	16733
832.19	16634
832.329	16831
832.467	16748
832.606	16668
832.744	16599
832.883	16725
833.022	16603
833.16	16683
833.299	16679
833.437	16611
833.576	16759
833.714	16778
833.852	16634
833.991	16702
834.129	16805
834.267	16729
834.406	16653
834.544	16767
834.682	16790
834.821	16691
834.959	16820
835.097	16653
835.235	16835
835.373	16767
835.511	16607
835.65	16527
835.788	16660
835.926	16394
836.064	16375
836.202	16565
836.34	16641
836.478	16717
836.615	16523
836.753	16664
836.891	16698
837.029	16588
837.167	16592
837.305	16607
837.443	16550
837.58	16485
837.718	16459
837.856	16413
837.993	16367
838.131	16485
838.269	16348
838.406	16508
838.544	16333
838.681	16196
838.819	16173
838.956	15998
839.094	16002
839.231	16090
839.369	16219
839.506	16367
839.643	16287
839.781	16071
839.918	15972
840.055	16048
840.193	16059
840.33	16048
840.467	15972
840.604	16025
840.742	16215
840.879	15800
841.016	15994
841.153	15937
841.29	16128
841.427	15994
841.564	16116
841.701	16101
841.838	16029
841.975	15926
842.112	15884
842.249	15876
842.385	15743
842.522	15991
842.659	15804
842.796	15800
842.933	15755
843.069	15766
843.206	15865
843.343	15956
843.479	15800
843.616	15888
843.752	15587
843.889	15576
844.025	15739
844.162	15663
844.298	15751
844.435	15584
844.571	15477
844.708	15682
844.844	15759
844.98	15804
845.117	15701
845.253	15496
845.389	15405
845.525	15523
845.661	15523
845.798	15428
845.934	15477
846.07	15317
846.206	15534
846.342	15557
846.478	15355
846.614	15203
846.75	15142
846.886	15074
847.022	15298
847.158	15146
847.294	15218
847.429	15207
847.565	15097
847.701	15325
847.837	15070
847.972	14876
848.108	15051
848.244	14937
848.379	14864
848.515	14769
848.65	14678
848.786	14712
848.921	14788
849.057	14773
849.192	14899
849.328	14857
849.463	14765
849.598	14701
849.734	14644
849.869	14610
850.004	14594
850.14	14583
850.275	14503
850.41	14381
850.545	14530
850.68	14594
850.815	14537
850.95	14442
851.085	14648
851.22	14590
851.355	14560
851.49	14537
851.625	14495
851.76	14575
851.895	14408
852.03	14427
852.165	14503
852.299	14499
852.434	14598
852.569	14522
852.703	14423
852.838	14598
852.973	14689
853.107	14686
853.242	14476
853.376	14412
853.511	14286
853.645	14332
853.78	14552
853.914	14389
854.048	14358
854.183	14305
854.317	14400
854.451	14560
854.585	14362
854.72	14389
854.854	14450
854.988	14366
855.122	14374
855.256	14271
855.39	14381
855.524	14434
855.658	14427
855.792	14461
855.926	14442
856.06	14423
856.194	14446
856.327	14320
856.461	14317
856.595	14317
856.729	14381
856.862	14484
856.996	14412
857.13	14377
857.263	14469
857.397	14473
857.53	14427
857.664	14518
857.797	14495
857.931	14560
858.064	14476
858.197	14522
858.331	14351
858.464	14313
858.597	14294
858.731	14446
858.864	14484
858.997	14457
859.13	14381
859.263	14408
859.396	14476
859.529	14355
859.662	14393
859.795	14317
859.928	14396
860.061	14594
860.194	14587
860.327	14419
860.46	14423
860.592	14541
860.725	14488
860.858	14545
860.99	14454
861.123	14351
861.256	14423
861.388	14396
861.521	15131
861.653	14221
861.786	14271
861.918	14210
862.05	14256
862.183	14389
862.315	14400
862.447	14488
862.58	14343
862.712	14138
862.844	14062
862.976	14187
863.108	14256
863.24	14594
863.372	14027
863.504	14168
863.636	14134
863.768	14233
863.9	14027
864.032	14054
864.164	14161
864.296	14199
864.428	14275
864.559	14309
864.691	14256
864.823	14309
864.954	14259
865.086	14172
865.217	14210
865.349	14012
865.48	14218
865.612	14180
865.743	14214
865.875	14161
866.006	14187
866.137	14206
866.269	14138
866.4	14202
866.531	14263
866.662	14149
866.793	14084
866.924	14088
867.055	14111
867.186	14054
867.317	14187
867.448	14054
867.579	14115
867.71	14096
867.841	14020
867.972	14267
868.103	14164
868.233	14210
868.364	14176
868.495	14275
868.625	14347
868.756	14423
868.886	14298
869.017	14305
869.147	14549
869.278	14568
869.408	14473
869.539	14415
869.669	14461
869.799	14469
869.929	14514
870.06	14457
870.19	14746
870.32	14651
870.45	14743
870.58	14819
870.71	14933
870.84	14853
870.97	14765
871.1	14807
871.23	15058
871.36	14982
871.489	14872
871.619	15009
871.749	14998
871.879	14872
872.008	14971
872.138	14960
872.267	14952
872.397	14929
872.526	14895
872.656	14796
872.785	14925
872.915	14994
873.044	15241
873.173	15074
873.303	15051
873.432	15123
873.561	15184
873.69	15020
873.819	15043
873.948	15165
874.077	15058
874.206	15039
874.335	15036
874.464	15176
874.593	15291
874.722	15355
874.851	15416
874.979	15431
875.108	15412
875.237	15317
875.365	15188
875.494	15340
875.623	15443
875.751	15340
875.88	15462
876.008	15568
876.136	15568
876.265	15812
876.393	15854
876.521	15838
876.65	15827
876.778	15808
876.906	15766
877.034	15739
877.162	15717
877.29	15724
877.418	15804
877.546	15747
877.674	15774
877.802	15812
877.93	15804
878.058	15778
878.185	15675
878.313	15679
878.441	15789
878.568	15652
878.696	15743
878.824	15781
878.951	15831
879.079	15937
879.206	16177
879.333	16044
879.461	15907
879.588	15865
879.715	16002
879.842	16090
879.97	15865
880.097	15599
880.224	15504
880.351	15652
880.478	15591
880.605	15587
880.732	15720
880.859	15895
880.986	15644
881.112	15743
881.239	15454
881.366	15488
881.493	15302
881.619	15317
881.746	15302
881.872	15336
881.999	15245
882.125	15340
882.252	15378
882.378	15279
882.505	15454
882.631	15249
882.757	15150
882.883	15058
883.01	15070
883.136	15093
883.262	14994
883.388	15058
883.514	15066
883.64	15142
883.766	15097
883.892	14963
884.018	15017
884.143	15093
884.269	15199
884.395	14937
884.52	14724
884.646	14773
884.772	14712
884.897	14762
885.023	14800
885.148	14887
885.274	14876
885.399	14963
885.524	14735
885.65	14769
885.775	14845
885.9	14739
886.025	14979
886.15	14830
886.275	14731
886.4	14644
886.525	14876
886.65	14743
886.775	14716
886.9	14937
887.025	14994
887.149	14788
887.274	14655
887.399	14648
887.523	14587
887.648	14556
887.773	14526
887.897	14769
888.021	14629
888.146	14545
888.27	14731
888.395	14697
888.519	14746
888.643	14750
888.767	14705
888.891	14556
889.015	14480
889.139	14541
889.263	14537
889.387	14640
889.511	14667
889.635	14587
889.759	14564
889.883	14465
890.006	14461
890.13	14640
890.254	14541
890.377	14366
890.501	14358
890.624	14252
890.748	14362
890.871	14259
890.995	14069
891.118	14126
891.241	14176
891.364	14206
891.488	14328
891.611	14145
891.734	14199
891.857	14301
891.98	14221
892.103	14218
892.226	14305
892.349	14195
892.471	14035
892.594	14183
892.717	14115
892.839	14168
892.962	14168
893.085	14233
893.207	14267
893.33	14046
893.452	14130
893.575	14275
893.697	14119
893.819	14313
893.941	14343
894.064	14294
894.186	14142
894.308	14103
894.43	14313
894.552	14499
894.674	14419
894.796	14180
894.918	14206
895.04	14256
895.161	14434
895.283	14393
895.405	14267
895.526	14248
895.648	14324
895.769	14332
895.891	14381
896.012	14393
896.134	14412
896.255	14324
896.376	14259
896.498	14313
896.619	14396
896.74	14343
896.861	14408
896.982	14670
897.103	14735
897.224	14648
897.345	14602
897.466	14587
897.587	14583
897.708	14792
897.828	14587
897.949	14629
898.07	14492
898.19	14678
898.311	14731
898.431	14629
898.552	14651
898.672	14788
898.792	14781
898.913	14765
899.033	14731
899.153	14606
899.273	14389
899.393	14522
899.513	14450
899.633	14610
899.753	14560
899.873	14484
899.993	14579
900.113	14522
900.232	14560
900.352	14552
900.472	14518
900.591	14343
900.711	14499
900.83	14381
900.95	14488
901.069	14526
901.189	14362
901.308	14191
901.427	14043
901.546	14062
901.665	14107
901.784	14035
901.904	14001
902.023	13917
902.141	13685
902.26	13738
902.379	13761
902.498	13632
902.617	13567
902.735	13666
902.854	13670
902.973	13624
903.091	13472
903.21	13362
903.328	13422
903.446	13369
903.565	13308
903.683	13251
903.801	13206
903.919	13175
904.038	13240
904.156	13118
904.274	13103
904.392	13088
904.51	13027
904.627	13027
904.745	13069
904.863	13225
904.981	12909
905.098	12734
905.216	12684
905.334	12745
905.451	12745
905.569	12711
905.686	12795
905.803	12707
905.921	12422
906.038	12608
906.155	12467
906.272	12437
906.389	12525
906.506	12327
906.623	12350
906.74	12338
906.857	12163
906.974	12285
907.091	12445
907.208	12441
907.324	12357
907.441	12315
907.557	12125
907.674	12079
907.79	12034
907.907	12095
908.023	12167
908.139	12102
908.256	11977
908.372	12011
908.488	11946
908.604	11889
908.72	11821
908.836	11832
908.952	11855
909.068	11813
909.184	11942
909.3	11847
909.415	11851
909.531	11836
909.647	11676
909.762	11596
909.878	11535
909.993	11638
910.108	11551
910.224	11505
910.339	11615
910.454	11486
910.57	11520
910.685	11334
910.8	11676
910.915	11649
911.03	11505
911.145	11341
911.259	11284
911.374	11296
911.489	11246
911.604	11197
911.718	11109
911.833	11071
911.947	10972
912.062	10938
912.176	11010
912.291	11102
912.405	11018
912.519	11235
912.633	11292
912.748	11060
912.862	11060
912.976	11010
913.09	10843
913.204	10881
913.318	10930
913.431	11052
913.545	11029
913.659	11060
913.772	10961
913.886	10820
914	10797
914.113	10919
914.226	10980
914.34	10915
914.453	10790
914.566	10942
914.68	10721
914.793	10828
914.906	10656
915.019	10470
915.132	10519
915.245	10504
915.358	10622
915.47	10561
915.583	10577
915.696	10683
915.809	10664
915.921	10725
916.034	10546
916.146	10512
916.259	10516
916.371	10664
916.483	10565
916.595	10462
916.708	10417
916.82	10516
916.932	10489
917.044	10424
917.156	10508
917.268	10310
917.38	10314
917.491	10314
917.603	10367
917.715	10497
917.826	10451
917.938	10398
918.049	10188
918.161	10398
918.272	10500
918.384	10519
918.495	10436
918.606	10257
918.717	10253
918.828	10303
918.939	10280
919.05	10318
919.161	10261
919.272	10078
919.383	10143
919.494	10295
919.604	10527
919.715	10299
919.826	10169
919.936	10238
920.047	10402
920.157	10230
920.267	10470
920.378	10325
920.488	10356
920.598	10398
920.708	10637
920.818	10546
920.928	10459
921.038	10725
921.148	10531
921.258	10291
921.368	10322
921.477	10177
921.587	10093
921.697	10051
921.806	10196
921.916	10017
922.025	9827
922.134	9819
922.244	9728
922.353	9842
922.462	9755
922.571	9644
922.68	9511
922.789	9610
922.898	9507
923.007	9530
923.116	9599
923.224	9542
923.333	9488
923.442	9473
923.55	9382
923.659	9416
923.767	9545
923.876	9424
923.984	9439
924.092	9363
924.201	9340
924.309	9359
924.417	9401
924.525	9336
924.633	9332
924.741	10303
924.849	9150
924.956	9272
925.064	9195
925.172	9070
925.279	9123
925.387	9195
925.494	9218
925.602	9325
925.709	9211
925.816	9085
925.924	9161
926.031	9253
926.138	9188
926.245	9241
926.352	9100
926.459	9230
926.566	9222
926.673	9161
926.779	9020
926.886	9047
926.993	8891
927.099	8982
927.206	8861
927.312	8853
927.419	8967
927.525	8918
927.631	8937
927.737	8857
927.843	8815
927.95	8644
928.056	8777
928.162	8788
928.267	8834
928.373	9428
928.479	8895
928.585	8659
928.69	8834
928.796	8746
928.901	8781
929.007	8568
929.112	8701
929.218	8693
929.323	8663
929.428	8640
929.533	8773
929.638	8564
929.743	8541
929.848	8648
929.953	8636
930.058	8484
930.163	8358
930.267	8400
930.372	8492
930.477	8317
930.581	8632
930.685	8461
930.79	8279
930.894	8374
930.998	8286
931.103	8461
931.207	8164
931.311	8039
931.415	7955
931.519	7879
931.623	7860
