Data from test_V78500241_1620.txt Node
Date: Fri Mar 25 14:44:59 CST 2022
User: usil
Spectrometer: V785-0024
Trigger mode: 0
Integration Time (sec): 4.000000E-1
Scans to average: 1
Nonlinearity correction enabled: false
Boxcar width: 0
Storing dark spectrum: false
XAxis mode: Wavelengths
Number of Pixels in Spectrum: 1024
>>>>>Begin Spectral Data<<<<<
801.071	22382
801.214	22310
801.356	22002
801.499	21915
801.641	21732
801.783	21682
801.926	21774
802.068	21656
802.211	21644
802.353	21477
802.496	21302
802.638	21211
802.78	21108
802.923	21165
803.065	21055
803.208	21085
803.35	20963
803.492	21108
803.635	21188
803.777	21119
803.919	21096
804.061	21424
804.204	21264
804.346	20979
804.488	20895
804.63	21047
804.773	20925
804.915	20994
805.057	21096
805.199	20963
805.341	21116
805.483	21058
805.626	21135
805.768	20971
805.91	20952
806.052	21024
806.194	20921
806.336	21135
806.478	20994
806.62	20887
806.762	21020
806.904	21047
807.046	21325
807.188	21264
807.33	21405
807.472	21283
807.614	21275
807.756	21321
807.898	21138
808.04	21096
808.182	21207
808.324	21032
808.465	21188
808.607	21405
808.749	21466
808.891	21561
809.033	21625
809.174	21504
809.316	21298
809.458	21355
809.6	21367
809.741	21458
809.883	21568
810.025	21652
810.166	21549
810.308	21443
810.45	21504
810.591	21488
810.733	21355
810.875	21169
811.016	21195
811.158	21089
811.299	21268
811.441	21431
811.582	21332
811.724	21176
811.865	21214
812.007	21230
812.148	21161
812.29	21264
812.431	21363
812.573	21454
812.714	21485
812.855	21736
812.997	21762
813.138	21899
813.279	21751
813.421	21705
813.562	21591
813.703	21306
813.845	21313
813.986	21020
814.127	20792
814.268	20834
814.41	20777
814.551	20655
814.692	20621
814.833	20594
814.974	20644
815.115	20701
815.256	20518
815.397	20438
815.539	20522
815.68	20454
815.821	20393
815.962	20476
816.103	20309
816.244	20263
816.385	20225
816.526	20153
816.666	20069
816.807	19879
816.948	19959
817.089	20084
817.23	19841
817.371	19807
817.512	19856
817.653	19845
817.793	19871
817.934	19928
818.075	19864
818.216	19791
818.356	19803
818.497	19658
818.638	19674
818.778	19518
818.919	19518
819.06	19495
819.2	19605
819.341	19666
819.481	19746
819.622	19700
819.762	20001
819.903	20008
820.043	19833
820.184	19860
820.324	19811
820.465	20008
820.605	19731
820.746	19776
820.886	19613
821.026	19833
821.167	19761
821.307	19784
821.447	19833
821.588	19578
821.728	19540
821.868	19495
822.008	19202
822.149	19183
822.289	19110
822.429	19080
822.569	18894
822.709	18913
822.849	18703
822.99	18684
823.13	18696
823.27	18623
823.41	18464
823.55	18509
823.69	18498
823.83	18627
823.97	18536
824.11	18296
824.25	18323
824.389	18289
824.529	18403
824.669	18262
824.809	18433
824.949	18418
825.089	18289
825.228	18311
825.368	18114
825.508	18102
825.648	18194
825.787	18114
825.927	18098
826.067	18022
826.206	18015
826.346	18064
826.485	18072
826.625	18072
826.765	18117
826.904	18095
827.044	17840
827.183	17786
827.323	17665
827.462	17767
827.601	17737
827.741	17707
827.88	17741
828.02	17642
828.159	17714
828.298	17771
828.437	17859
828.577	17748
828.716	17843
828.855	17691
828.994	17402
829.134	17543
829.273	17429
829.412	17429
829.551	17349
829.69	17402
829.829	17471
829.968	17589
830.107	17585
830.246	17467
830.385	17398
830.524	17471
830.663	17318
830.802	17193
830.941	17060
831.08	17052
831.219	17235
831.357	17193
831.496	17337
831.635	17075
831.774	16908
831.913	16968
832.051	16881
832.19	16915
832.329	16938
832.467	16816
832.606	16752
832.744	16793
832.883	16778
833.022	16664
833.16	16801
833.299	16873
833.437	16820
833.576	16820
833.714	16862
833.852	16904
833.991	16911
834.129	16854
834.267	16904
834.406	16820
834.544	16866
834.682	16805
834.821	16744
834.959	16919
835.097	16820
835.235	16892
835.373	16862
835.511	16953
835.65	16752
835.788	16698
835.926	16569
836.064	16531
836.202	16531
836.34	16793
836.478	16858
836.615	16748
836.753	16694
836.891	16748
837.029	16793
837.167	16698
837.305	16706
837.443	16675
837.58	16611
837.718	16660
837.856	16611
837.993	16592
838.131	16656
838.269	16512
838.406	16550
838.544	16344
838.681	16303
838.819	16394
838.956	16124
839.094	16078
839.231	16162
839.369	16382
839.506	16535
839.643	16318
839.781	16109
839.918	16063
840.055	16276
840.193	16067
840.33	16097
840.467	16131
840.604	16124
840.742	16356
840.879	16051
841.016	15911
841.153	16147
841.29	16272
841.427	16124
841.564	16207
841.701	16169
841.838	16185
841.975	16063
842.112	16067
842.249	15888
842.385	15770
842.522	16067
842.659	15998
842.796	15865
842.933	15998
843.069	15934
843.206	15797
843.343	16002
843.479	15903
843.616	15968
843.752	15644
843.889	15732
844.025	15850
844.162	15690
844.298	15774
844.435	15717
844.571	15591
844.708	15667
844.844	15831
844.98	15831
845.117	15876
845.253	15618
845.389	15542
845.525	15751
845.661	15656
845.798	15564
845.934	15660
846.07	15530
846.206	15652
846.342	15637
846.478	15614
846.614	15363
846.75	15173
846.886	15279
847.022	15237
847.158	15405
847.294	15291
847.429	15363
847.565	15249
847.701	15507
847.837	15020
847.972	14933
848.108	15085
848.244	15097
848.379	14910
848.515	14887
848.65	14765
848.786	14724
848.921	14963
849.057	14986
849.192	14941
849.328	14819
849.463	14899
849.598	14792
849.734	14826
849.869	14735
850.004	14594
850.14	14682
850.275	14720
850.41	14518
850.545	14571
850.68	14549
850.815	14625
850.95	14629
851.085	14785
851.22	14708
851.355	14629
851.49	14636
851.625	14469
851.76	14648
851.895	14526
852.03	14499
852.165	14549
852.299	14594
852.434	14606
852.569	14701
852.703	14716
852.838	14697
852.973	14762
853.107	14735
853.242	14511
853.376	14450
853.511	14385
853.645	14400
853.78	14587
853.914	14461
854.048	14583
854.183	14434
854.317	14537
854.451	14625
854.585	14514
854.72	14499
854.854	14545
854.988	14408
855.122	14431
855.256	14271
855.39	14473
855.524	14606
855.658	14549
855.792	14469
855.926	14499
856.06	14488
856.194	14587
856.327	14457
856.461	14442
856.595	14415
856.729	14583
856.862	14549
856.996	14533
857.13	14556
857.263	14598
857.397	14636
857.53	14518
857.664	14583
857.797	14556
857.931	14602
858.064	14629
858.197	14507
858.331	14492
858.464	14389
858.597	14320
858.731	14454
858.864	14473
858.997	14396
859.13	14545
859.263	14514
859.396	14583
859.529	14511
859.662	14492
859.795	14385
859.928	14556
860.061	14629
860.194	14587
860.327	14499
860.46	14541
860.592	14533
860.725	14629
860.858	14670
860.99	14537
861.123	14484
861.256	14423
861.388	14484
861.521	15264
861.653	14370
861.786	14339
861.918	14412
862.05	14423
862.183	14476
862.315	14381
862.447	14446
862.58	14457
862.712	14301
862.844	14168
862.976	14381
863.108	14393
863.24	14705
863.372	14240
863.504	14256
863.636	14225
863.768	14256
863.9	14309
864.032	14244
864.164	14218
864.296	14309
864.428	14332
864.559	14332
864.691	14305
864.823	14370
864.954	14328
865.086	14282
865.217	14214
865.349	14168
865.48	14309
865.612	14195
865.743	14385
865.875	14248
866.006	14176
866.137	14267
866.269	14328
866.4	14229
866.531	14149
866.662	14244
866.793	14275
866.924	14130
867.055	14240
867.186	14202
867.317	14282
867.448	14202
867.579	14267
867.71	14161
867.841	14134
867.972	14187
868.103	14195
868.233	14301
868.364	14244
868.495	14244
868.625	14423
868.756	14511
868.886	14438
869.017	14499
869.147	14613
869.278	14689
869.408	14461
869.539	14522
869.669	14613
869.799	14526
869.929	14621
870.06	14621
870.19	14800
870.32	14796
870.45	14785
870.58	14868
870.71	14960
870.84	14971
870.97	14925
871.1	14914
871.23	15077
871.36	15089
871.489	14918
871.619	15047
871.749	15055
871.879	15047
872.008	15142
872.138	15112
872.267	15055
872.397	14925
872.526	15001
872.656	14868
872.785	15051
872.915	15142
873.044	15161
873.173	15119
873.303	15119
873.432	15100
873.561	15116
873.69	15165
873.819	15184
873.948	15135
874.077	15199
874.206	15131
874.335	15119
874.464	15268
874.593	15416
874.722	15321
874.851	15481
874.979	15363
875.108	15408
875.237	15397
875.365	15329
875.494	15340
875.623	15485
875.751	15386
875.88	15545
876.008	15492
876.136	15675
876.265	15861
876.393	15968
876.521	15907
876.65	15865
876.778	15937
876.906	15732
877.034	15838
877.162	15892
877.29	15789
877.418	15857
877.546	15865
877.674	15831
877.802	15850
877.93	15808
878.058	15854
878.185	15766
878.313	15911
878.441	15888
878.568	15728
878.696	15800
878.824	15880
878.951	15911
879.079	16120
879.206	16207
879.333	16086
879.461	15922
879.588	16036
879.715	16124
879.842	16226
879.97	15857
880.097	15759
880.224	15648
880.351	15698
880.478	15690
880.605	15739
880.732	15739
880.859	15903
880.986	15785
881.112	15838
881.239	15606
881.366	15492
881.493	15443
881.619	15348
881.746	15439
881.872	15370
881.999	15310
882.125	15298
882.252	15412
882.378	15405
882.505	15526
882.631	15310
882.757	15157
882.883	15275
883.01	15279
883.136	15218
883.262	15161
883.388	15070
883.514	15245
883.64	15199
883.766	15173
883.892	15055
884.018	15013
884.143	15138
884.269	15260
884.395	14982
884.52	14925
884.646	14902
884.772	14880
884.897	14762
885.023	14918
885.148	14998
885.274	15138
885.399	15017
885.524	14876
885.65	14990
885.775	14948
885.9	14853
886.025	15036
886.15	14906
886.275	14811
886.4	14720
886.525	14899
886.65	14872
886.775	14929
886.9	14975
887.025	15104
887.149	14849
887.274	14788
887.399	14720
887.523	14777
887.648	14549
887.773	14621
887.897	14811
888.021	14765
888.146	14765
888.27	14781
888.395	14830
888.519	14750
888.643	14625
888.767	14754
888.891	14636
889.015	14617
889.139	14724
889.263	14640
889.387	14674
889.511	14811
889.635	14667
889.759	14549
889.883	14522
890.006	14571
890.13	14674
890.254	14434
890.377	14530
890.501	14385
890.624	14301
890.748	14495
890.871	14313
890.995	14187
891.118	14107
891.241	14256
891.364	14256
891.488	14370
891.611	14336
891.734	14237
891.857	14358
891.98	14301
892.103	14465
892.226	14339
892.349	14301
892.471	14130
892.594	14172
892.717	14267
892.839	14229
892.962	14225
893.085	14294
893.207	14263
893.33	14145
893.452	14191
893.575	14374
893.697	14202
893.819	14377
893.941	14427
894.064	14415
894.186	14202
894.308	14218
894.43	14454
894.552	14358
894.674	14404
894.796	14244
894.918	14336
895.04	14389
895.161	14404
895.283	14332
895.405	14263
895.526	14431
895.648	14332
895.769	14412
895.891	14522
896.012	14530
896.134	14590
896.255	14366
896.376	14374
896.498	14351
896.619	14438
896.74	14488
896.861	14488
896.982	14689
897.103	14902
897.224	14712
897.345	14697
897.466	14590
897.587	14739
897.708	14861
897.828	14686
897.949	14746
898.07	14594
898.19	14731
898.311	14891
898.431	14720
898.552	14826
898.672	14906
898.792	14899
898.913	14857
899.033	14735
899.153	14571
899.273	14495
899.393	14602
899.513	14648
899.633	14625
899.753	14629
899.873	14644
899.993	14727
900.113	14663
900.232	14659
900.352	14670
900.472	14590
900.591	14469
900.711	14522
900.83	14434
900.95	14670
901.069	14564
901.189	14370
901.308	14256
901.427	14126
901.546	14138
901.665	14229
901.784	14142
901.904	13978
902.023	14020
902.141	13811
902.26	13807
902.379	13765
902.498	13723
902.617	13670
902.735	13757
902.854	13753
902.973	13696
903.091	13438
903.21	13514
903.328	13502
903.446	13388
903.565	13384
903.683	13377
903.801	13270
903.919	13221
904.038	13190
904.156	13156
904.274	13202
904.392	13118
904.51	13126
904.627	13187
904.745	13202
904.863	13122
904.981	12909
905.098	12833
905.216	12882
905.334	12882
905.451	12787
905.569	12719
905.686	12825
905.803	12745
905.921	12612
906.038	12764
906.155	12669
906.272	12540
906.389	12593
906.506	12414
906.623	12376
906.74	12330
906.857	12300
906.974	12167
907.091	12414
907.208	12547
907.324	12441
907.441	12338
907.557	12186
907.674	12102
907.79	12136
907.907	12095
908.023	12117
908.139	12129
908.256	12064
908.372	12030
908.488	12053
908.604	11954
908.72	11851
908.836	11916
908.952	11855
909.068	11836
909.184	12057
909.3	11847
909.415	11950
909.531	11908
909.647	11691
909.762	11634
909.878	11619
909.993	11722
910.108	11615
910.224	11596
910.339	11665
910.454	11573
910.57	11482
910.685	11429
910.8	11756
910.915	11691
911.03	11566
911.145	11372
911.259	11372
911.374	11398
911.489	11292
911.604	11292
911.718	11162
911.833	11117
911.947	11102
912.062	10923
912.176	11045
912.291	11136
912.405	11124
912.519	11307
912.633	11326
912.748	11132
912.862	11124
912.976	10991
913.09	10877
913.204	10961
913.318	11067
913.431	11155
913.545	11071
913.659	11132
913.772	10987
913.886	10839
914	10835
914.113	10927
914.226	10957
914.34	10938
914.453	10782
914.566	10873
914.68	10763
914.793	10816
914.906	10588
915.019	10565
915.132	10466
915.245	10577
915.358	10580
915.47	10611
915.583	10626
915.696	10641
915.809	10771
915.921	10744
916.034	10558
916.146	10573
916.259	10542
916.371	10691
916.483	10565
916.595	10565
916.708	10561
916.82	10550
916.932	10519
917.044	10554
917.156	10508
917.268	10424
917.38	10455
917.491	10413
917.603	10455
917.715	10535
917.826	10558
917.938	10409
918.049	10310
918.161	10451
918.272	10512
918.384	10558
918.495	10436
918.606	10318
918.717	10181
918.828	10303
918.939	10409
919.05	10215
919.161	10318
919.272	10078
919.383	10284
919.494	10375
919.604	10538
919.715	10375
919.826	10280
919.936	10299
920.047	10394
920.157	10462
920.267	10504
920.378	10360
920.488	10257
920.598	10584
920.708	10721
920.818	10523
920.928	10519
921.038	10717
921.148	10668
921.258	10356
921.368	10352
921.477	10124
921.587	10169
921.697	10097
921.806	10276
921.916	10086
922.025	9937
922.134	9903
922.244	9789
922.353	9911
922.462	9835
922.571	9682
922.68	9641
922.789	9591
922.898	9530
923.007	9462
923.116	9656
923.224	9534
923.333	9603
923.442	9477
923.55	9439
923.659	9523
923.767	9500
923.876	9370
923.984	9545
924.092	9386
924.201	9351
924.309	9500
924.417	9435
924.525	9428
924.633	9424
924.741	10169
924.849	9226
924.956	9450
925.064	9237
925.172	9116
925.279	9230
925.387	9207
925.494	9249
925.602	9412
925.709	9329
925.816	9176
925.924	9283
926.031	9397
926.138	9294
926.245	9207
926.352	9138
926.459	9260
926.566	9313
926.673	9188
926.779	9062
926.886	9112
926.993	8914
927.099	8933
927.206	8910
927.312	8914
927.419	9074
927.525	8876
927.631	8944
927.737	8899
927.843	8842
927.95	8705
928.056	8853
928.162	8891
928.267	8891
928.373	9389
928.479	8963
928.585	8655
928.69	8845
928.796	8861
928.901	8769
929.007	8674
929.112	8769
929.218	8701
929.323	8701
929.428	8610
929.533	8880
929.638	8560
929.743	8549
929.848	8701
929.953	8659
930.058	8579
930.163	8385
930.267	8492
930.372	8530
930.477	8423
930.581	8655
930.685	8541
930.79	8332
930.894	8389
930.998	8286
931.103	8556
931.207	8199
931.311	8107
931.415	8008
931.519	7826
931.623	7921
