Data from test_V78500241_1291.txt Node
Date: Fri Mar 25 14:42:42 CST 2022
User: usil
Spectrometer: V785-0024
Trigger mode: 0
Integration Time (sec): 4.000000E-1
Scans to average: 1
Nonlinearity correction enabled: false
Boxcar width: 0
Storing dark spectrum: false
XAxis mode: Wavelengths
Number of Pixels in Spectrum: 1024
>>>>>Begin Spectral Data<<<<<
801.071	22382
801.214	22322
801.356	22128
801.499	22013
801.641	21755
801.783	21755
801.926	21770
802.068	21747
802.211	21682
802.353	21599
802.496	21382
802.638	21428
802.78	21226
802.923	21096
803.065	21047
803.208	20998
803.35	21142
803.492	21226
803.635	21233
803.777	21096
803.919	21169
804.061	21454
804.204	21207
804.346	21058
804.488	21043
804.63	20986
804.773	20937
804.915	21001
805.057	21112
805.199	21024
805.341	21017
805.483	21211
805.626	21062
805.768	21062
805.91	20975
806.052	20986
806.194	20906
806.336	21214
806.478	20941
806.62	21047
806.762	21104
806.904	21154
807.046	21530
807.188	21370
807.33	21325
807.472	21500
807.614	21260
807.756	21382
807.898	21363
808.04	21165
808.182	21256
808.324	21165
808.465	21188
808.607	21405
808.749	21633
808.891	21766
809.033	21728
809.174	21755
809.316	21469
809.458	21469
809.6	21538
809.741	21485
809.883	21504
810.025	21622
810.166	21652
810.308	21530
810.45	21526
810.591	21477
810.733	21306
810.875	21291
811.016	21142
811.158	20979
811.299	21367
811.441	21443
811.582	21332
811.724	21291
811.865	21093
812.007	21199
812.148	21127
812.29	21157
812.431	21340
812.573	21435
812.714	21576
812.855	21660
812.997	21819
813.138	21960
813.279	21751
813.421	21686
813.562	21698
813.703	21519
813.845	21317
813.986	21127
814.127	20861
814.268	20811
814.41	20800
814.551	20857
814.692	20773
814.833	20727
814.974	20689
815.115	20640
815.256	20556
815.397	20571
815.539	20606
815.68	20442
815.821	20374
815.962	20450
816.103	20545
816.244	20267
816.385	20248
816.526	20282
816.666	20065
816.807	20027
816.948	20008
817.089	20031
817.23	20008
817.371	19970
817.512	19856
817.653	19925
817.793	19890
817.934	19826
818.075	19909
818.216	19959
818.356	19788
818.497	19742
818.638	19601
818.778	19552
818.919	19586
819.06	19643
819.2	19811
819.341	19791
819.481	19772
819.622	19974
819.762	20206
819.903	20054
820.043	19944
820.184	19826
820.324	19925
820.465	19913
820.605	19776
820.746	19856
820.886	19704
821.026	19906
821.167	19864
821.307	19875
821.447	19814
821.588	19799
821.728	19548
821.868	19373
822.008	19164
822.149	19293
822.289	19156
822.429	18970
822.569	19023
822.709	19019
822.849	18764
822.99	18730
823.13	18779
823.27	18726
823.41	18597
823.55	18479
823.69	18532
823.83	18707
823.97	18551
824.11	18342
824.25	18338
824.389	18418
824.529	18407
824.669	18296
824.809	18414
824.949	18532
825.089	18452
825.228	18338
825.368	18247
825.508	18133
825.648	18133
825.787	18174
825.927	18194
826.067	18072
826.206	18106
826.346	18152
826.485	18186
826.625	18144
826.765	18311
826.904	18224
827.044	18038
827.183	17847
827.323	17866
827.462	17840
827.601	17893
827.741	17790
827.88	17840
828.02	17790
828.159	17824
828.298	17851
828.437	17958
828.577	17802
828.716	17935
828.855	17703
828.994	17596
829.134	17608
829.273	17642
829.412	17600
829.551	17619
829.69	17668
829.829	17630
829.968	17661
830.107	17649
830.246	17615
830.385	17600
830.524	17459
830.663	17383
830.802	17364
830.941	17159
831.08	17239
831.219	17265
831.357	17280
831.496	17532
831.635	17235
831.774	17132
831.913	17060
832.051	16995
832.19	17060
832.329	17124
832.467	16923
832.606	16793
832.744	16984
832.883	16843
833.022	16877
833.16	16980
833.299	17003
833.437	17025
833.576	17037
833.714	16991
833.852	16961
833.991	16995
834.129	17060
834.267	17083
834.406	16915
834.544	17079
834.682	17045
834.821	16957
834.959	17064
835.097	16889
835.235	17086
835.373	16949
835.511	16942
835.65	16797
835.788	16805
835.926	16797
836.064	16637
836.202	16736
836.34	16961
836.478	16889
836.615	16904
836.753	16942
836.891	16908
837.029	16900
837.167	16866
837.305	16733
837.443	16752
837.58	16763
837.718	16816
837.856	16752
837.993	16683
838.131	16774
838.269	16599
838.406	16725
838.544	16649
838.681	16508
838.819	16516
838.956	16306
839.094	16314
839.231	16318
839.369	16466
839.506	16668
839.643	16569
839.781	16287
839.918	16284
840.055	16314
840.193	16234
840.33	16223
840.467	16291
840.604	16329
840.742	16504
840.879	16192
841.016	16173
841.153	16147
841.29	16398
841.427	16265
841.564	16360
841.701	16268
841.838	16177
841.975	16215
842.112	16192
842.249	16166
842.385	16040
842.522	16215
842.659	16116
842.796	16158
842.933	15975
843.069	16055
843.206	16029
843.343	16147
843.479	16093
843.616	16044
843.752	15888
843.889	15789
844.025	16021
844.162	15838
844.298	15953
844.435	15850
844.571	15785
844.708	15968
844.844	15972
844.98	16059
845.117	15922
845.253	15816
845.389	15762
845.525	15827
845.661	15892
845.798	15759
845.934	15819
846.07	15846
846.206	15899
846.342	15941
846.478	15743
846.614	15610
846.75	15420
846.886	15462
847.022	15492
847.158	15386
847.294	15466
847.429	15466
847.565	15363
847.701	15667
847.837	15154
847.972	15150
848.108	15233
848.244	15287
848.379	15036
848.515	14975
848.65	14979
848.786	14971
848.921	14975
849.057	15104
849.192	15135
849.328	15066
849.463	15108
849.598	14868
849.734	14937
849.869	14963
850.004	14861
850.14	14815
850.275	14739
850.41	14705
850.545	14777
850.68	14777
850.815	14864
850.95	14773
851.085	14941
851.22	14895
851.355	14853
851.49	14739
851.625	14735
851.76	14796
851.895	14621
852.03	14636
852.165	14739
852.299	14762
852.434	14819
852.569	14876
852.703	14735
852.838	14864
852.973	14971
853.107	14963
853.242	14731
853.376	14613
853.511	14526
853.645	14648
853.78	14830
853.914	14701
854.048	14663
854.183	14571
854.317	14670
854.451	14712
854.585	14598
854.72	14667
854.854	14629
854.988	14571
855.122	14629
855.256	14526
855.39	14568
855.524	14636
855.658	14750
855.792	14541
855.926	14659
856.06	14636
856.194	14811
856.327	14667
856.461	14674
856.595	14583
856.729	14648
856.862	14769
856.996	14640
857.13	14598
857.263	14731
857.397	14754
857.53	14648
857.664	14682
857.797	14705
857.931	14731
858.064	14712
858.197	14811
858.331	14621
858.464	14545
858.597	14537
858.731	14594
858.864	14716
858.997	14613
859.13	14682
859.263	14788
859.396	14815
859.529	14579
859.662	14648
859.795	14556
859.928	14621
860.061	14769
860.194	14815
860.327	14602
860.46	14663
860.592	14727
860.725	14849
860.858	14617
860.99	14590
861.123	14587
861.256	14583
861.388	14716
861.521	15355
861.653	14507
861.786	14431
861.918	14503
862.05	14556
862.183	14613
862.315	14594
862.447	14640
862.58	14610
862.712	14408
862.844	14385
862.976	14503
863.108	14431
863.24	14902
863.372	14305
863.504	14389
863.636	14419
863.768	14434
863.9	14537
864.032	14377
864.164	14393
864.296	14454
864.428	14495
864.559	14522
864.691	14533
864.823	14362
864.954	14602
865.086	14431
865.217	14389
865.349	14336
865.48	14438
865.612	14461
865.743	14530
865.875	14454
866.006	14385
866.137	14328
866.269	14423
866.4	14385
866.531	14377
866.662	14275
866.793	14290
866.924	14438
867.055	14446
867.186	14400
867.317	14343
867.448	14240
867.579	14400
867.71	14252
867.841	14518
867.972	14381
868.103	14309
868.233	14393
868.364	14434
868.495	14404
868.625	14541
868.756	14750
868.886	14549
869.017	14602
869.147	14823
869.278	14663
869.408	14621
869.539	14644
869.669	14686
869.799	14659
869.929	14788
870.06	14777
870.19	15005
870.32	14864
870.45	15039
870.58	15127
870.71	15154
870.84	15081
870.97	15009
871.1	15028
871.23	15249
871.36	15218
871.489	15104
871.619	15222
871.749	15218
871.879	15306
872.008	15332
872.138	15279
872.267	15325
872.397	15104
872.526	15119
872.656	14967
872.785	15062
872.915	15287
873.044	15252
873.173	15313
873.303	15382
873.432	15313
873.561	15374
873.69	15317
873.819	15374
873.948	15272
874.077	15329
874.206	15264
874.335	15233
874.464	15477
874.593	15656
874.722	15545
874.851	15576
874.979	15568
875.108	15698
875.237	15553
875.365	15545
875.494	15606
875.623	15690
875.751	15488
875.88	15660
876.008	15842
876.136	15743
876.265	16059
876.393	16150
876.521	16078
876.65	16059
876.778	16086
876.906	15918
877.034	15922
877.162	15998
877.29	15991
877.418	15956
877.546	16021
877.674	16093
877.802	16063
877.93	16032
878.058	15998
878.185	15911
878.313	16002
878.441	15968
878.568	15800
878.696	15869
878.824	16135
878.951	16230
879.079	16234
879.206	16363
879.333	16337
879.461	16112
879.588	16204
879.715	16386
879.842	16440
879.97	16158
880.097	15895
880.224	15876
880.351	15991
880.478	15873
880.605	15895
880.732	15895
880.859	16147
880.986	15850
881.112	15922
881.239	15778
881.366	15656
881.493	15564
881.619	15526
881.746	15458
881.872	15523
881.999	15572
882.125	15644
882.252	15606
882.378	15606
882.505	15713
882.631	15553
882.757	15348
882.883	15450
883.01	15424
883.136	15275
883.262	15256
883.388	15222
883.514	15348
883.64	15332
883.766	15393
883.892	15154
884.018	15157
884.143	15340
884.269	15439
884.395	15138
884.52	15104
884.646	15009
884.772	15089
884.897	15043
885.023	15108
885.148	15230
885.274	15211
885.399	15138
885.524	15062
885.65	15104
885.775	15001
885.9	15013
886.025	15112
886.15	15135
886.275	15001
886.4	15055
886.525	15001
886.65	15047
886.775	15013
886.9	15108
887.025	15329
887.149	15081
887.274	14952
887.399	14785
887.523	14910
887.648	14758
887.773	14823
887.897	14937
888.021	14868
888.146	14925
888.27	14941
888.395	15009
888.519	14834
888.643	14929
888.767	14887
888.891	14838
889.015	14598
889.139	14826
889.263	14697
889.387	14823
889.511	14861
889.635	14849
889.759	14678
889.883	14667
890.006	14735
890.13	14929
890.254	14568
890.377	14541
890.501	14571
890.624	14473
890.748	14693
890.871	14457
890.995	14358
891.118	14351
891.241	14305
891.364	14400
891.488	14590
891.611	14438
891.734	14351
891.857	14400
891.98	14389
892.103	14514
892.226	14434
892.349	14408
892.471	14275
892.594	14419
892.717	14492
892.839	14366
892.962	14454
893.085	14514
893.207	14419
893.33	14339
893.452	14324
893.575	14495
893.697	14320
893.819	14575
893.941	14636
894.064	14499
894.186	14473
894.308	14446
894.43	14636
894.552	14621
894.674	14499
894.796	14366
894.918	14423
895.04	14442
895.161	14537
895.283	14594
895.405	14400
895.526	14446
895.648	14446
895.769	14571
895.891	14571
896.012	14678
896.134	14621
896.255	14629
896.376	14552
896.498	14602
896.619	14564
896.74	14473
896.861	14625
896.982	14960
897.103	15138
897.224	14868
897.345	14785
897.466	14781
897.587	14853
897.708	14906
897.828	14845
897.949	14826
898.07	14670
898.19	14868
898.311	14891
898.431	14861
898.552	14960
898.672	14944
898.792	14861
898.913	14857
899.033	14910
899.153	14804
899.273	14670
899.393	14796
899.513	14769
899.633	14811
899.753	14864
899.873	14804
899.993	14762
900.113	14739
900.232	14872
900.352	14823
900.472	14720
900.591	14659
900.711	14705
900.83	14625
900.95	14689
901.069	14788
901.189	14579
901.308	14370
901.427	14328
901.546	14221
901.665	14328
901.784	14248
901.904	14130
902.023	14005
902.141	13883
902.26	13868
902.379	13887
902.498	13811
902.617	13693
902.735	13852
902.854	13833
902.973	13795
903.091	13655
903.21	13662
903.328	13487
903.446	13506
903.565	13358
903.683	13521
903.801	13411
903.919	13407
904.038	13453
904.156	13365
904.274	13320
904.392	13179
904.51	13206
904.627	13228
904.745	13251
904.863	13293
904.981	13038
905.098	12916
905.216	12886
905.334	12962
905.451	12996
905.569	12993
905.686	12958
905.803	12928
905.921	12734
906.038	12814
906.155	12779
906.272	12696
906.389	12601
906.506	12528
906.623	12547
906.74	12559
906.857	12490
906.974	12407
907.091	12574
907.208	12654
907.324	12578
907.441	12448
907.557	12289
907.674	12266
907.79	12194
907.907	12323
908.023	12308
908.139	12273
908.256	12228
908.372	12186
908.488	12148
908.604	12038
908.72	11939
908.836	12068
908.952	12015
909.068	11999
909.184	12057
909.3	11996
909.415	12110
909.531	12053
909.647	11760
909.762	11798
909.878	11764
909.993	11790
910.108	11748
910.224	11737
910.339	11760
910.454	11695
910.57	11596
910.685	11539
910.8	11878
910.915	11756
911.03	11615
911.145	11474
911.259	11520
911.374	11520
911.489	11391
911.604	11353
911.718	11223
911.833	11250
911.947	11166
912.062	11052
912.176	11174
912.291	11235
912.405	11128
912.519	11379
912.633	11459
912.748	11315
912.862	11273
912.976	11124
913.09	11006
913.204	11045
913.318	11067
913.431	11212
913.545	11117
913.659	11178
913.772	11109
913.886	10980
914	10923
914.113	10987
914.226	11102
914.34	11022
914.453	10828
914.566	11003
914.68	10904
914.793	10949
914.906	10782
915.019	10637
915.132	10683
915.245	10725
915.358	10721
915.47	10767
915.583	10710
915.696	10793
915.809	10831
915.921	10908
916.034	10653
916.146	10599
916.259	10637
916.371	10809
916.483	10740
916.595	10573
916.708	10656
916.82	10675
916.932	10694
917.044	10618
917.156	10618
917.268	10497
917.38	10516
917.491	10561
917.603	10558
917.715	10664
917.826	10645
917.938	10519
918.049	10371
918.161	10512
918.272	10653
918.384	10649
918.495	10622
918.606	10451
918.717	10375
918.828	10382
918.939	10447
919.05	10303
919.161	10375
919.272	10147
919.383	10291
919.494	10417
919.604	10618
919.715	10440
919.826	10360
919.936	10409
920.047	10478
920.157	10462
920.267	10558
920.378	10379
920.488	10447
920.598	10679
920.708	10752
920.818	10558
920.928	10622
921.038	10869
921.148	10729
921.258	10485
921.368	10325
921.477	10268
921.587	10284
921.697	10116
921.806	10276
921.916	10124
922.025	10055
922.134	9915
922.244	9934
922.353	10040
922.462	9888
922.571	9819
922.68	9770
922.789	9686
922.898	9660
923.007	9648
923.116	9709
923.224	9660
923.333	9701
923.442	9576
923.55	9515
923.659	9625
923.767	9728
923.876	9500
923.984	9686
924.092	9481
924.201	9526
924.309	9553
924.417	9542
924.525	9458
924.633	9500
924.741	10230
924.849	9298
924.956	9397
925.064	9313
925.172	9294
925.279	9241
925.387	9317
925.494	9283
925.602	9447
925.709	9378
925.816	9306
925.924	9283
926.031	9336
926.138	9306
926.245	9401
926.352	9245
926.459	9370
926.566	9420
926.673	9218
926.779	9135
926.886	9192
926.993	8956
927.099	9028
927.206	9005
927.312	8929
927.419	9085
927.525	9062
927.631	9024
927.737	8910
927.843	8990
927.95	8727
928.056	8918
928.162	8906
928.267	8986
928.373	9561
928.479	9093
928.585	8667
928.69	8895
928.796	8967
928.901	8830
929.007	8697
929.112	8830
929.218	8861
929.323	8731
929.428	8689
929.533	8868
929.638	8625
929.743	8697
929.848	8739
929.953	8766
930.058	8644
930.163	8488
930.267	8545
930.372	8636
930.477	8446
930.581	8758
930.685	8476
930.79	8469
930.894	8404
930.998	8377
931.103	8575
931.207	8275
931.311	8138
931.415	8161
931.519	7906
931.623	7940
