Data from test_V78500241_2237.txt Node
Date: Fri Mar 25 14:49:17 CST 2022
User: usil
Spectrometer: V785-0024
Trigger mode: 0
Integration Time (sec): 4.000000E-1
Scans to average: 1
Nonlinearity correction enabled: false
Boxcar width: 0
Storing dark spectrum: false
XAxis mode: Wavelengths
Number of Pixels in Spectrum: 1024
>>>>>Begin Spectral Data<<<<<
801.071	22166
801.214	22021
801.356	21816
801.499	21713
801.641	21599
801.783	21462
801.926	21435
802.068	21526
802.211	21382
802.353	21313
802.496	21032
802.638	21096
802.78	21028
802.923	20887
803.065	20849
803.208	20838
803.35	20857
803.492	21020
803.635	20975
803.777	20750
803.919	20982
804.061	21131
804.204	20937
804.346	20743
804.488	20807
804.63	20921
804.773	20716
804.915	20876
805.057	20902
805.199	20769
805.341	20807
805.483	20895
805.626	20845
805.768	20705
805.91	20678
806.052	20944
806.194	20716
806.336	20921
806.478	20731
806.62	20731
806.762	20933
806.904	20956
807.046	21062
807.188	21199
807.33	21169
807.472	21241
807.614	21047
807.756	21047
807.898	20956
808.04	20758
808.182	20872
808.324	20891
808.465	20914
808.607	21028
808.749	21192
808.891	21344
809.033	21344
809.174	21188
809.316	21203
809.458	21192
809.6	21207
809.741	21268
809.883	21264
810.025	21355
810.166	21302
810.308	21268
810.45	21283
810.591	21157
810.733	20979
810.875	21077
811.016	20754
811.158	20823
811.299	21001
811.441	21013
811.582	21009
811.724	21024
811.865	20834
812.007	20948
812.148	20921
812.29	21024
812.431	21188
812.573	21135
812.714	21302
812.855	21515
812.997	21553
813.138	21663
813.279	21515
813.421	21408
813.562	21367
813.703	21275
813.845	21070
813.986	20796
814.127	20602
814.268	20454
814.41	20537
814.551	20450
814.692	20533
814.833	20419
814.974	20370
815.115	20332
815.256	20259
815.397	20298
815.539	20309
815.68	20176
815.821	20138
815.962	20267
816.103	20084
816.244	19978
816.385	20100
816.526	19864
816.666	19772
816.807	19712
816.948	19746
817.089	19780
817.23	19704
817.371	19635
817.512	19586
817.653	19647
817.793	19506
817.934	19662
818.075	19620
818.216	19658
818.356	19651
818.497	19411
818.638	19255
818.778	19377
818.919	19400
819.06	19247
819.2	19472
819.341	19453
819.481	19445
819.622	19715
819.762	19708
819.903	19791
820.043	19681
820.184	19643
820.324	19590
820.465	19655
820.605	19480
820.746	19552
820.886	19457
821.026	19655
821.167	19548
821.307	19662
821.447	19457
821.588	19407
821.728	19270
821.868	19198
822.008	19027
822.149	19000
822.289	18954
822.429	18703
822.569	18734
822.709	18734
822.849	18540
822.99	18544
823.13	18429
823.27	18464
823.41	18262
823.55	18228
823.69	18304
823.83	18410
823.97	18315
824.11	18083
824.25	18007
824.389	18034
824.529	18140
824.669	17992
824.809	18216
824.949	18072
825.089	18125
825.228	18102
825.368	17904
825.508	17821
825.648	17843
825.787	17901
825.927	17870
826.067	17836
826.206	17665
826.346	17840
826.485	17874
826.625	17882
826.765	17950
826.904	17923
827.044	17570
827.183	17566
827.323	17455
827.462	17661
827.601	17478
827.741	17459
827.88	17558
828.02	17463
828.159	17459
828.298	17490
828.437	17653
828.577	17570
828.716	17729
828.855	17520
828.994	17356
829.134	17292
829.273	17376
829.412	17254
829.551	17239
829.69	17273
829.829	17379
829.968	17345
830.107	17318
830.246	17258
830.385	17265
830.524	17140
830.663	17041
830.802	17010
830.941	16869
831.08	16828
831.219	16980
831.357	16919
831.496	16961
831.635	16850
831.774	16858
831.913	16755
832.051	16683
832.19	16668
832.329	16634
832.467	16588
832.606	16519
832.744	16584
832.883	16481
833.022	16542
833.16	16535
833.299	16466
833.437	16569
833.576	16580
833.714	16637
833.852	16634
833.991	16653
834.129	16755
834.267	16668
834.406	16622
834.544	16630
834.682	16618
834.821	16649
834.959	16816
835.097	16641
835.235	16694
835.373	16596
835.511	16687
835.65	16489
835.788	16569
835.926	16432
836.064	16295
836.202	16344
836.34	16615
836.478	16546
836.615	16500
836.753	16622
836.891	16653
837.029	16558
837.167	16459
837.305	16394
837.443	16436
837.58	16280
837.718	16447
837.856	16390
837.993	16268
838.131	16382
838.269	16276
838.406	16268
838.544	16226
838.681	16032
838.819	16013
838.956	15922
839.094	15770
839.231	15972
839.369	16078
839.506	16303
839.643	16261
839.781	15972
839.918	15842
840.055	15953
840.193	15892
840.33	15785
840.467	15975
840.604	15994
840.742	16226
840.879	15857
841.016	15778
841.153	15869
841.29	16036
841.427	15994
841.564	15998
841.701	16002
841.838	15812
841.975	15770
842.112	15793
842.249	15648
842.385	15675
842.522	15918
842.659	15713
842.796	15686
842.933	15698
843.069	15656
843.206	15717
843.343	15755
843.479	15751
843.616	15728
843.752	15557
843.889	15553
844.025	15553
844.162	15416
844.298	15572
844.435	15355
844.571	15420
844.708	15564
844.844	15671
844.98	15720
845.117	15637
845.253	15386
845.389	15397
845.525	15492
845.661	15397
845.798	15245
845.934	15313
846.07	15329
846.206	15344
846.342	15389
846.478	15279
846.614	15112
846.75	15062
846.886	15005
847.022	15161
847.158	15119
847.294	15188
847.429	15142
847.565	15024
847.701	15287
847.837	14849
847.972	14750
848.108	14880
848.244	14857
848.379	14670
848.515	14583
848.65	14617
848.786	14670
848.921	14701
849.057	14807
849.192	14769
849.328	14720
849.463	14701
849.598	14651
849.734	14587
849.869	14606
850.004	14377
850.14	14438
850.275	14317
850.41	14385
850.545	14317
850.68	14377
850.815	14389
850.95	14347
851.085	14613
851.22	14514
851.355	14412
851.49	14427
851.625	14320
851.76	14328
851.895	14328
852.03	14339
852.165	14355
852.299	14431
852.434	14511
852.569	14450
852.703	14454
852.838	14541
852.973	14583
853.107	14530
853.242	14351
853.376	14358
853.511	14096
853.645	14248
853.78	14419
853.914	14305
854.048	14229
854.183	14366
854.317	14294
854.451	14465
854.585	14343
854.72	14240
854.854	14431
854.988	14180
855.122	14278
855.256	14115
855.39	14225
855.524	14301
855.658	14259
855.792	14320
855.926	14256
856.06	14328
856.194	14408
856.327	14256
856.461	14259
856.595	14164
856.729	14286
856.862	14415
856.996	14419
857.13	14415
857.263	14415
857.397	14454
857.53	14324
857.664	14355
857.797	14465
857.931	14419
858.064	14313
858.197	14469
858.331	14339
858.464	14183
858.597	14153
858.731	14282
858.864	14317
858.997	14202
859.13	14256
859.263	14240
859.396	14393
859.529	14237
859.662	14282
859.795	14199
859.928	14263
860.061	14404
860.194	14518
860.327	14317
860.46	14377
860.592	14412
860.725	14438
860.858	14339
860.99	14290
861.123	14252
861.256	14172
861.388	14157
861.521	14834
861.653	14134
861.786	14020
861.918	14218
862.05	14240
862.183	14294
862.315	14290
862.447	14256
862.58	14271
862.712	14031
862.844	14088
862.976	14210
863.108	14145
863.24	14507
863.372	13955
863.504	14115
863.636	14081
863.768	14119
863.9	14046
864.032	14043
864.164	14027
864.296	14065
864.428	14187
864.559	14187
864.691	14134
864.823	14191
864.954	14065
865.086	14088
865.217	14077
865.349	14008
865.48	14054
865.612	14027
865.743	14115
865.875	14100
866.006	14054
866.137	14077
866.269	14126
866.4	14016
866.531	14054
866.662	13917
866.793	14050
866.924	14065
867.055	14027
867.186	14058
867.317	14069
867.448	14001
867.579	14050
867.71	13913
867.841	13974
867.972	14001
868.103	14027
868.233	14107
868.364	14043
868.495	14172
868.625	14221
868.756	14377
868.886	14206
869.017	14294
869.147	14442
869.278	14408
869.408	14343
869.539	14374
869.669	14351
869.799	14324
869.929	14454
870.06	14374
870.19	14606
870.32	14598
870.45	14583
870.58	14815
870.71	14834
870.84	14826
870.97	14632
871.1	14663
871.23	14853
871.36	14975
871.489	14686
871.619	14834
871.749	14864
871.879	14902
872.008	15074
872.138	14925
872.267	14880
872.397	14758
872.526	14743
872.656	14773
872.785	14674
872.915	14887
873.044	14971
873.173	14933
873.303	14906
873.432	15066
873.561	15020
873.69	14948
873.819	14956
873.948	15058
874.077	15013
874.206	14895
874.335	14998
874.464	15028
874.593	15214
874.722	15127
874.851	15268
874.979	15321
875.108	15283
875.237	15313
875.365	15180
875.494	15085
875.623	15359
875.751	15268
875.88	15272
876.008	15443
876.136	15439
876.265	15785
876.393	15755
876.521	15686
876.65	15759
876.778	15713
876.906	15606
877.034	15587
877.162	15648
877.29	15549
877.418	15610
877.546	15652
877.674	15633
877.802	15610
877.93	15580
878.058	15671
878.185	15553
878.313	15526
878.441	15694
878.568	15496
878.696	15686
878.824	15599
878.951	15652
879.079	15884
879.206	16082
879.333	15781
879.461	15690
879.588	15842
879.715	15846
879.842	15956
879.97	15663
880.097	15572
880.224	15500
880.351	15542
880.478	15515
880.605	15473
880.732	15564
880.859	15781
880.986	15545
881.112	15523
881.239	15458
881.366	15302
881.493	15218
881.619	15089
881.746	15203
881.872	15192
881.999	15188
882.125	15085
882.252	15165
882.378	15203
882.505	15272
882.631	15146
882.757	15062
882.883	15070
883.01	15032
883.136	14902
883.262	14853
883.388	14815
883.514	14956
883.64	14982
883.766	14921
883.892	14792
884.018	14845
884.143	15032
884.269	15100
884.395	14693
884.52	14682
884.646	14651
884.772	14598
884.897	14522
885.023	14651
885.148	14731
885.274	14918
885.399	14826
885.524	14724
885.65	14682
885.775	14697
885.9	14602
886.025	14849
886.15	14765
886.275	14648
886.4	14606
886.525	14625
886.65	14621
886.775	14659
886.9	14857
887.025	14967
887.149	14689
887.274	14590
887.399	14454
887.523	14408
887.648	14522
887.773	14431
887.897	14556
888.021	14556
888.146	14450
888.27	14518
888.395	14629
888.519	14541
888.643	14530
888.767	14545
888.891	14511
889.015	14309
889.139	14457
889.263	14309
889.387	14438
889.511	14610
889.635	14556
889.759	14434
889.883	14377
890.006	14427
890.13	14450
890.254	14301
890.377	14370
890.501	14206
890.624	14225
890.748	14298
890.871	14126
890.995	14058
891.118	14073
891.241	14119
891.364	14069
891.488	14172
891.611	14077
891.734	14134
891.857	14218
891.98	14149
892.103	14054
892.226	14161
892.349	13982
892.471	13947
892.594	14054
892.717	14172
892.839	14096
892.962	14119
893.085	14206
893.207	14153
893.33	13894
893.452	14035
893.575	14138
893.697	14111
893.819	14210
893.941	14275
894.064	14248
894.186	14088
894.308	14012
894.43	14221
894.552	14259
894.674	14191
894.796	14054
894.918	14149
895.04	14149
895.161	14259
895.283	14119
895.405	14161
895.526	14206
895.648	14244
895.769	14286
895.891	14290
896.012	14259
896.134	14286
896.255	14278
896.376	14206
896.498	14347
896.619	14355
896.74	14248
896.861	14374
896.982	14552
897.103	14735
897.224	14507
897.345	14530
897.466	14533
897.587	14526
897.708	14697
897.828	14598
897.949	14537
898.07	14328
898.19	14530
898.311	14716
898.431	14511
898.552	14625
898.672	14712
898.792	14731
898.913	14621
899.033	14507
899.153	14419
899.273	14278
899.393	14541
899.513	14533
899.633	14446
899.753	14526
899.873	14438
899.993	14549
900.113	14514
900.232	14480
900.352	14404
900.472	14404
900.591	14290
900.711	14343
900.83	14244
900.95	14427
901.069	14434
901.189	14248
901.308	14107
901.427	14027
901.546	13944
901.665	13993
901.784	14096
901.904	13871
902.023	13788
902.141	13708
902.26	13544
902.379	13723
902.498	13647
902.617	13605
902.735	13613
902.854	13586
902.973	13491
903.091	13331
903.21	13346
903.328	13441
903.446	13228
903.565	13145
903.683	13247
903.801	13126
903.919	13095
904.038	13061
904.156	12951
904.274	12985
904.392	12943
904.51	12981
904.627	12954
904.745	13042
904.863	13065
904.981	12791
905.098	12681
905.216	12642
905.334	12681
905.451	12696
905.569	12608
905.686	12692
905.803	12646
905.921	12521
906.038	12707
906.155	12498
906.272	12429
906.389	12365
906.506	12213
906.623	12220
906.74	12277
906.857	12125
906.974	12144
907.091	12330
907.208	12502
907.324	12235
907.441	12121
907.557	11984
907.674	11942
907.79	11988
907.907	11920
908.023	12076
908.139	11920
908.256	11931
908.372	11878
908.488	11920
908.604	11813
908.72	11703
908.836	11680
908.952	11805
909.068	11748
909.184	11832
909.3	11821
909.415	11805
909.531	11821
909.647	11630
909.762	11528
909.878	11501
909.993	11558
910.108	11554
910.224	11429
910.339	11528
910.454	11410
910.57	11345
910.685	11292
910.8	11646
910.915	11478
911.03	11360
911.145	11250
911.259	11197
911.374	11201
911.489	11174
911.604	11128
911.718	10968
911.833	11105
911.947	10824
912.062	10885
912.176	10968
912.291	11010
912.405	10946
912.519	11178
912.633	11166
912.748	11083
912.862	10961
912.976	10862
913.09	10706
913.204	10801
913.318	10885
913.431	10900
913.545	10896
913.659	10976
913.772	10847
913.886	10596
914	10687
914.113	10862
914.226	10881
914.34	10801
914.453	10691
914.566	10824
914.68	10691
914.793	10584
914.906	10512
915.019	10440
915.132	10348
915.245	10436
915.358	10500
915.47	10554
915.583	10538
915.696	10485
915.809	10645
915.921	10736
916.034	10493
916.146	10379
916.259	10470
916.371	10466
916.483	10519
916.595	10405
916.708	10436
916.82	10440
916.932	10440
917.044	10409
917.156	10348
917.268	10272
917.38	10246
917.491	10249
917.603	10344
917.715	10375
917.826	10432
917.938	10333
918.049	10188
918.161	10306
918.272	10375
918.384	10485
918.495	10382
918.606	10131
918.717	10101
918.828	10207
918.939	10230
919.05	10101
919.161	10112
919.272	9941
919.383	10154
919.494	10272
919.604	10428
919.715	10234
919.826	10097
919.936	10234
920.047	10242
920.157	10249
920.267	10352
920.378	10215
920.488	10257
920.598	10455
920.708	10527
920.818	10413
920.928	10394
921.038	10504
921.148	10569
921.258	10261
921.368	10192
921.477	10078
921.587	10059
921.697	9991
921.806	10078
921.916	9937
922.025	9732
922.134	9789
922.244	9740
922.353	9888
922.462	9618
922.571	9599
922.68	9458
922.789	9500
922.898	9462
923.007	9431
923.116	9469
923.224	9443
923.333	9466
923.442	9374
923.55	9332
923.659	9359
923.767	9454
923.876	9359
923.984	9424
924.092	9310
924.201	9355
924.309	9408
924.417	9287
924.525	9374
924.633	9287
924.741	10177
924.849	9154
924.956	9287
925.064	9150
925.172	9074
925.279	9154
925.387	9192
925.494	9199
925.602	9256
925.709	9268
925.816	9104
925.924	9135
926.031	9260
926.138	9173
926.245	9173
926.352	9070
926.459	9253
926.566	9279
926.673	9123
926.779	9043
926.886	9039
926.993	8857
927.099	8811
927.206	8868
927.312	8864
927.419	8887
927.525	8864
927.631	8944
927.737	8785
927.843	8766
927.95	8716
928.056	8743
928.162	8754
928.267	8845
928.373	9386
928.479	8857
928.585	8613
928.69	8804
928.796	8853
928.901	8693
929.007	8571
929.112	8655
929.218	8689
929.323	8678
929.428	8579
929.533	8701
929.638	8579
929.743	8579
929.848	8590
929.953	8594
930.058	8480
930.163	8396
930.267	8381
930.372	8522
930.477	8381
930.581	8587
930.685	8400
930.79	8263
930.894	8313
930.998	8317
931.103	8389
931.207	8157
931.311	8001
931.415	8035
931.519	7811
931.623	7818
