Data from test_V78500241_1012.txt Node
Date: Fri Mar 25 14:40:45 CST 2022
User: usil
Spectrometer: V785-0024
Trigger mode: 0
Integration Time (sec): 4.000000E-1
Scans to average: 1
Nonlinearity correction enabled: false
Boxcar width: 0
Storing dark spectrum: false
XAxis mode: Wavelengths
Number of Pixels in Spectrum: 1024
>>>>>Begin Spectral Data<<<<<
801.071	23094
801.214	23067
801.356	22599
801.499	22641
801.641	22382
801.783	22481
801.926	22489
802.068	22261
802.211	22337
802.353	22120
802.496	22059
802.638	21873
802.78	21812
802.923	21778
803.065	21793
803.208	21625
803.35	21739
803.492	21819
803.635	21789
803.777	21808
803.919	21899
804.061	22059
804.204	21865
804.346	21778
804.488	21663
804.63	21724
804.773	21599
804.915	21808
805.057	21717
805.199	21686
805.341	21808
805.483	21766
805.626	21709
805.768	21614
805.91	21785
806.052	21701
806.194	21641
806.336	21918
806.478	21698
806.62	21739
806.762	21903
806.904	21934
807.046	22154
807.188	22090
807.33	22200
807.472	22352
807.614	22196
807.756	22318
807.898	22417
808.04	22337
808.182	22356
808.324	22527
808.465	22634
808.607	22805
808.749	23166
808.891	23284
809.033	23372
809.174	23094
809.316	22915
809.458	22774
809.6	22554
809.741	22535
809.883	22489
810.025	22615
810.166	22500
810.308	22481
810.45	22367
810.591	22192
810.733	22280
810.875	22135
811.016	21953
811.158	21934
811.299	22116
811.441	22055
811.582	22135
811.724	21987
811.865	21884
812.007	22013
812.148	21903
812.29	21956
812.431	22029
812.573	22284
812.714	22287
812.855	22459
812.997	22550
813.138	22793
813.279	22622
813.421	22493
813.562	22424
813.703	22253
813.845	22078
813.986	21842
814.127	21732
814.268	21542
814.41	21545
814.551	21534
814.692	21625
814.833	21424
814.974	21393
815.115	21428
815.256	21351
815.397	21313
815.539	21332
815.68	21241
815.821	21104
815.962	21222
816.103	21157
816.244	21066
816.385	20971
816.526	20876
816.666	20758
816.807	20621
816.948	20659
817.089	20785
817.23	20663
817.371	20609
817.512	20629
817.653	20575
817.793	20537
817.934	20667
818.075	20750
818.216	20686
818.356	20552
818.497	20377
818.638	20343
818.778	20396
818.919	20355
819.06	20305
819.2	20492
819.341	20541
819.481	20499
819.622	20587
819.762	20727
819.903	20640
820.043	20667
820.184	20636
820.324	20594
820.465	20632
820.605	20541
820.746	20697
820.886	20438
821.026	20503
821.167	20522
821.307	20613
821.447	20526
821.588	20408
821.728	20343
821.868	20130
822.008	20005
822.149	19917
822.289	19974
822.429	19632
822.569	19628
822.709	19567
822.849	19594
822.99	19502
823.13	19441
823.27	19327
823.41	19285
823.55	19190
823.69	19297
823.83	19335
823.97	19137
824.11	18989
824.25	18996
824.389	19050
824.529	19175
824.669	18966
824.809	19114
824.949	19034
825.089	19209
825.228	19038
825.368	18943
825.508	18875
825.648	18871
825.787	18897
825.927	18890
826.067	18795
826.206	18844
826.346	18817
826.485	18814
826.625	18798
826.765	18897
826.904	18798
827.044	18582
827.183	18547
827.323	18559
827.462	18582
827.601	18673
827.741	18471
827.88	18498
828.02	18395
828.159	18479
828.298	18593
828.437	18513
828.577	18418
828.716	18589
828.855	18498
828.994	18369
829.134	18197
829.273	18247
829.412	18270
829.551	18194
829.69	18213
829.829	18315
829.968	18285
830.107	18380
830.246	18296
830.385	18186
830.524	18129
830.663	18114
830.802	17973
830.941	18019
831.08	17882
831.219	17897
831.357	18057
831.496	17988
831.635	17923
831.774	17859
831.913	17756
832.051	17790
832.19	17623
832.329	17619
832.467	17585
832.606	17634
832.744	17589
832.883	17570
833.022	17589
833.16	17554
833.299	17661
833.437	17665
833.576	17592
833.714	17482
833.852	17668
833.991	17783
834.129	17684
834.267	17726
834.406	17554
834.544	17707
834.682	17630
834.821	17646
834.959	17863
835.097	17539
835.235	17760
835.373	17619
835.511	17627
835.65	17448
835.788	17421
835.926	17440
836.064	17254
836.202	17326
836.34	17448
836.478	17573
836.615	17478
836.753	17474
836.891	17566
837.029	17467
837.167	17429
837.305	17395
837.443	17379
837.58	17159
837.718	17455
837.856	17334
837.993	17307
838.131	17406
838.269	17360
838.406	17406
838.544	17166
838.681	17083
838.819	17079
838.956	16961
839.094	16847
839.231	16885
839.369	17090
839.506	17174
839.643	17132
839.781	16911
839.918	16755
840.055	16854
840.193	16782
840.33	16812
840.467	16953
840.604	16942
840.742	17124
840.879	16790
841.016	16835
841.153	16767
841.29	17025
841.427	16946
841.564	16820
841.701	16942
841.838	16790
841.975	16729
842.112	16710
842.249	16748
842.385	16577
842.522	16896
842.659	16706
842.796	16580
842.933	16622
843.069	16618
843.206	16611
843.343	16603
843.479	16649
843.616	16755
843.752	16470
843.889	16337
844.025	16607
844.162	16394
844.298	16569
844.435	16443
844.571	16344
844.708	16504
844.844	16588
844.98	16622
845.117	16675
845.253	16504
845.389	16558
845.525	16702
845.661	16892
845.798	17083
845.934	17414
846.07	17501
846.206	17520
846.342	17391
846.478	16976
846.614	16535
846.75	16181
846.886	16261
847.022	16226
847.158	16067
847.294	16105
847.429	16006
847.565	15911
847.701	16242
847.837	15781
847.972	15629
848.108	15724
848.244	15804
848.379	15679
848.515	15644
848.65	15625
848.786	15538
848.921	15507
849.057	15667
849.192	15709
849.328	15755
849.463	15633
849.598	15526
849.734	15519
849.869	15439
850.004	15367
850.14	15435
850.275	15332
850.41	15214
850.545	15306
850.68	15313
850.815	15359
850.95	15325
851.085	15443
851.22	15420
851.355	15348
851.49	15329
851.625	15302
851.76	15321
851.895	15344
852.03	15211
852.165	15367
852.299	15317
852.434	15416
852.569	15351
852.703	15405
852.838	15450
852.973	15553
853.107	15526
853.242	15408
853.376	15161
853.511	15119
853.645	15222
853.78	15443
853.914	15351
854.048	15211
854.183	15176
854.317	15260
854.451	15332
854.585	15283
854.72	15230
854.854	15272
854.988	15119
855.122	15135
855.256	15039
855.39	15203
855.524	15359
855.658	15287
855.792	15332
855.926	15173
856.06	15264
856.194	15329
856.327	15226
856.461	15135
856.595	15116
856.729	15283
856.862	15359
856.996	15233
857.13	15226
857.263	15359
857.397	15298
857.53	15272
857.664	15340
857.797	15329
857.931	15302
858.064	15207
858.197	15298
858.331	15245
858.464	15188
858.597	15112
858.731	15222
858.864	15207
858.997	15211
859.13	15226
859.263	15199
859.396	15321
859.529	15161
859.662	15207
859.795	15043
859.928	15279
860.061	15416
860.194	15420
860.327	15199
860.46	15222
860.592	15249
860.725	15443
860.858	15306
860.99	15146
861.123	15199
861.256	15203
861.388	15233
861.521	15838
861.653	15127
861.786	14979
861.918	15214
862.05	15036
862.183	15211
862.315	15169
862.447	15332
862.58	15214
862.712	15028
862.844	14906
862.976	15001
863.108	15058
863.24	15306
863.372	14902
863.504	14891
863.636	14982
863.768	15005
863.9	14975
864.032	14910
864.164	14948
864.296	14986
864.428	15100
864.559	15119
864.691	15097
864.823	14979
864.954	14986
865.086	15017
865.217	14971
865.349	14800
865.48	14929
865.612	14868
865.743	15036
865.875	14971
866.006	14826
866.137	14895
866.269	15005
866.4	14994
866.531	14895
866.662	14842
866.793	14872
866.924	14864
867.055	14948
867.186	14906
867.317	14956
867.448	14868
867.579	14933
867.71	14823
867.841	14910
867.972	15058
868.103	14967
868.233	14883
868.364	14967
868.495	14975
868.625	15214
868.756	15317
868.886	15211
869.017	15211
869.147	15367
869.278	15367
869.408	15233
869.539	15214
869.669	15245
869.799	15157
869.929	15367
870.06	15233
870.19	15420
870.32	15504
870.45	15515
870.58	15519
870.71	15660
870.84	15690
870.97	15534
871.1	15595
871.23	15759
871.36	15770
871.489	15698
871.619	15793
871.749	15743
871.879	15808
872.008	15778
872.138	15751
872.267	15751
872.397	15553
872.526	15656
872.656	15625
872.785	15652
872.915	15854
873.044	15857
873.173	15793
873.303	15785
873.432	15816
873.561	15876
873.69	15854
873.819	15873
873.948	15899
874.077	15937
874.206	15766
874.335	15793
874.464	16048
874.593	16116
874.722	16150
874.851	16166
874.979	16249
875.108	16223
875.237	16071
875.365	16017
875.494	16071
875.623	16188
875.751	16139
875.88	16219
876.008	16322
876.136	16394
876.265	16584
876.393	16721
876.521	16653
876.65	16626
876.778	16573
876.906	16588
877.034	16512
877.162	16474
877.29	16394
877.418	16599
877.546	16550
877.674	16622
877.802	16592
877.93	16523
878.058	16611
878.185	16493
878.313	16596
878.441	16763
878.568	16409
878.696	16721
878.824	16748
878.951	16786
879.079	16999
879.206	17258
879.333	17193
879.461	17216
879.588	17265
879.715	17330
879.842	17414
879.97	17064
880.097	16866
880.224	16710
880.351	16618
880.478	16523
880.605	16466
880.732	16630
880.859	16896
880.986	16653
881.112	16523
881.239	16428
881.366	16280
881.493	16162
881.619	16234
881.746	16253
881.872	16230
881.999	16086
882.125	16158
882.252	16211
882.378	16268
882.505	16409
882.631	16196
882.757	15972
882.883	16078
883.01	15979
883.136	15895
883.262	16006
883.388	15884
883.514	16067
883.64	16067
883.766	15968
883.892	15823
884.018	15838
884.143	15846
884.269	16078
884.395	15694
884.52	15781
884.646	15755
884.772	15724
884.897	15698
885.023	15759
885.148	15789
885.274	15945
885.399	15751
885.524	15603
885.65	15694
885.775	15736
885.9	15648
886.025	15838
886.15	15698
886.275	15663
886.4	15534
886.525	15572
886.65	15587
886.775	15587
886.9	15800
887.025	15941
887.149	15633
887.274	15443
887.399	15393
887.523	15466
887.648	15462
887.773	15386
887.897	15580
888.021	15435
888.146	15416
888.27	15564
888.395	15584
888.519	15481
888.643	15496
888.767	15473
888.891	15340
889.015	15325
889.139	15386
889.263	15241
889.387	15397
889.511	15431
889.635	15321
889.759	15184
889.883	15252
890.006	15317
890.13	15310
890.254	15214
890.377	15218
890.501	15104
890.624	15058
890.748	15104
890.871	14975
890.995	14845
891.118	14899
891.241	14967
891.364	14876
891.488	15108
891.611	15043
891.734	14998
891.857	14895
891.98	14971
892.103	14979
892.226	15032
892.349	14937
892.471	14823
892.594	14845
892.717	14861
892.839	14902
892.962	14967
893.085	14952
893.207	14960
893.33	14724
893.452	14933
893.575	14971
893.697	14971
893.819	15024
893.941	15058
894.064	15093
894.186	14792
894.308	14796
894.43	15043
894.552	15047
894.674	15074
894.796	14849
894.918	14967
895.04	14921
895.161	15043
895.283	14929
895.405	14937
895.526	14944
895.648	14842
895.769	14990
895.891	15020
896.012	14982
896.134	15081
896.255	15001
896.376	15108
896.498	15077
896.619	15100
896.74	15070
896.861	15089
896.982	15401
897.103	15485
897.224	15279
897.345	15317
897.466	15249
897.587	15317
897.708	15431
897.828	15363
897.949	15245
898.07	15180
898.19	15256
898.311	15492
898.431	15241
898.552	15310
898.672	15355
898.792	15526
898.913	15382
899.033	15363
899.153	15176
899.273	15154
899.393	15245
899.513	15146
899.633	15203
899.753	15214
899.873	15165
899.993	15306
900.113	15116
900.232	15264
900.352	15203
900.472	15047
900.591	15066
900.711	15108
900.83	15001
900.95	15230
901.069	15165
901.189	15009
901.308	14815
901.427	14765
901.546	14815
901.665	14746
901.784	14750
901.904	14648
902.023	14518
902.141	14393
902.26	14301
902.379	14404
902.498	14233
902.617	14248
902.735	14374
902.854	14339
902.973	14237
903.091	14039
903.21	13970
903.328	14001
903.446	13841
903.565	13894
903.683	13898
903.801	13788
903.919	13890
904.038	13852
904.156	13655
904.274	13666
904.392	13708
904.51	13616
904.627	13674
904.745	13677
904.863	13757
904.981	13556
905.098	13373
905.216	13308
905.334	13362
905.451	13304
905.569	13282
905.686	13407
905.803	13350
905.921	13133
906.038	13304
906.155	13141
906.272	13103
906.389	13110
906.506	12905
906.623	12947
906.74	12886
906.857	12726
906.974	12772
907.091	12993
907.208	13099
907.324	13008
907.441	12840
907.557	12711
907.674	12707
907.79	12597
907.907	12578
908.023	12722
908.139	12715
908.256	12566
908.372	12608
908.488	12574
908.604	12429
908.72	12426
908.836	12422
908.952	12380
909.068	12410
909.184	12498
909.3	12437
909.415	12441
909.531	12391
909.647	12224
909.762	12121
909.878	12079
909.993	12133
910.108	12163
910.224	12041
910.339	12140
910.454	12022
910.57	11999
910.685	11897
910.8	12186
910.915	12251
911.03	12011
911.145	11954
911.259	11828
911.374	11809
911.489	11760
911.604	11684
911.718	11619
911.833	11630
911.947	11421
912.062	11433
912.176	11532
912.291	11581
912.405	11474
912.519	11805
912.633	11638
912.748	11611
912.862	11501
912.976	11455
913.09	11345
913.204	11444
913.318	11459
913.431	11528
913.545	11467
913.659	11505
913.772	11414
913.886	11379
914	11326
914.113	11364
914.226	11493
914.34	11376
914.453	11307
914.566	11379
914.68	11231
914.793	11307
914.906	11109
915.019	11003
915.132	10987
915.245	11037
915.358	11102
915.47	11136
915.583	11098
915.696	11022
915.809	11204
915.921	11250
916.034	11018
916.146	11056
916.259	10953
916.371	11109
916.483	11094
916.595	10987
916.708	11006
916.82	10999
916.932	10862
917.044	10915
917.156	10923
917.268	10850
917.38	10877
917.491	10858
917.603	10919
917.715	11006
917.826	10946
917.938	10946
918.049	10687
918.161	10862
918.272	10976
918.384	10965
918.495	10850
918.606	10759
918.717	10694
918.828	10812
918.939	10816
919.05	10603
919.161	10755
919.272	10561
919.383	10649
919.494	10744
919.604	10953
919.715	10714
919.826	10683
919.936	10675
920.047	10824
920.157	10763
920.267	10949
920.378	10790
920.488	10725
920.598	10908
920.708	11083
920.818	10938
920.928	11033
921.038	11151
921.148	11109
921.258	10782
921.368	10694
921.477	10577
921.587	10550
921.697	10459
921.806	10577
921.916	10363
922.025	10291
922.134	10287
922.244	10234
922.353	10348
922.462	10124
922.571	10090
922.68	9979
922.789	9945
922.898	9926
923.007	9930
923.116	9968
923.224	9937
923.333	9972
923.442	9831
923.55	9835
923.659	9838
923.767	9934
923.876	9800
923.984	9899
924.092	9747
924.201	9770
924.309	9793
924.417	9747
924.525	9736
924.633	9800
924.741	10687
924.849	9564
924.956	9709
925.064	9603
925.172	9629
925.279	9500
925.387	9663
925.494	9622
925.602	9728
925.709	9633
925.816	9534
925.924	9614
926.031	9671
926.138	9652
926.245	9633
926.352	9435
926.459	9663
926.566	9671
926.673	9534
926.779	9397
926.886	9500
926.993	9291
927.099	9317
927.206	9310
927.312	9279
927.419	9378
927.525	9351
927.631	9310
927.737	9237
927.843	9188
927.95	9085
928.056	9138
928.162	9165
928.267	9222
928.373	9804
928.479	9199
928.585	9055
928.69	9119
928.796	9226
928.901	9085
929.007	8921
929.112	9142
929.218	9036
929.323	8979
929.428	8948
929.533	9108
929.638	8948
929.743	8933
929.848	8990
929.953	8971
930.058	8887
930.163	8659
930.267	8785
930.372	8918
930.477	8659
930.581	8963
930.685	8899
930.79	8682
930.894	8659
930.998	8693
931.103	8796
931.207	8431
931.311	8385
931.415	8282
931.519	8168
931.623	8164
