Data from test_V78500241_2207.txt Node
Date: Fri Mar 25 14:49:04 CST 2022
User: usil
Spectrometer: V785-0024
Trigger mode: 0
Integration Time (sec): 4.000000E-1
Scans to average: 1
Nonlinearity correction enabled: false
Boxcar width: 0
Storing dark spectrum: false
XAxis mode: Wavelengths
Number of Pixels in Spectrum: 1024
>>>>>Begin Spectral Data<<<<<
801.071	22135
801.214	21945
801.356	21911
801.499	21625
801.641	21549
801.783	21603
801.926	21595
802.068	21428
802.211	21370
802.353	21317
802.496	21207
802.638	21089
802.78	21062
802.923	21001
803.065	20895
803.208	20830
803.35	20906
803.492	20990
803.635	21013
803.777	20857
803.919	20975
804.061	21188
804.204	20956
804.346	20914
804.488	20788
804.63	20762
804.773	20754
804.915	20830
805.057	20830
805.199	20758
805.341	20788
805.483	20887
805.626	20929
805.768	20727
805.91	20724
806.052	20792
806.194	20663
806.336	20925
806.478	20811
806.62	20708
806.762	20895
806.904	20986
807.046	21226
807.188	21062
807.33	21203
807.472	21188
807.614	21051
807.756	21062
807.898	20883
808.04	20975
808.182	20788
808.324	20952
808.465	20921
808.607	21127
808.749	21218
808.891	21329
809.033	21264
809.174	21279
809.316	21165
809.458	21108
809.6	21138
809.741	21302
809.883	21302
810.025	21252
810.166	21351
810.308	21294
810.45	21272
810.591	21306
810.733	21077
810.875	21017
811.016	20864
811.158	20788
811.299	21051
811.441	21047
811.582	21165
811.724	20975
811.865	20872
812.007	20963
812.148	20906
812.29	20853
812.431	21104
812.573	21108
812.714	21359
812.855	21325
812.997	21526
813.138	21591
813.279	21523
813.421	21310
813.562	21466
813.703	21104
813.845	20998
813.986	20868
814.127	20762
814.268	20533
814.41	20526
814.551	20423
814.692	20514
814.833	20465
814.974	20495
815.115	20442
815.256	20377
815.397	20328
815.539	20313
815.68	20130
815.821	20282
815.962	20221
816.103	20176
816.244	20069
816.385	20016
816.526	19936
816.666	19761
816.807	19529
816.948	19822
817.089	19731
817.23	19655
817.371	19529
817.512	19670
817.653	19632
817.793	19495
817.934	19556
818.075	19525
818.216	19784
818.356	19548
818.497	19426
818.638	19247
818.778	19373
818.919	19316
819.06	19282
819.2	19483
819.341	19487
819.481	19506
819.622	19590
819.762	19696
819.903	19788
820.043	19639
820.184	19658
820.324	19582
820.465	19708
820.605	19632
820.746	19628
820.886	19457
821.026	19491
821.167	19552
821.307	19597
821.447	19540
821.588	19434
821.728	19293
821.868	19095
822.008	19027
822.149	19133
822.289	19019
822.429	18745
822.569	18681
822.709	18658
822.849	18486
822.99	18437
823.13	18582
823.27	18563
823.41	18346
823.55	18232
823.69	18327
823.83	18174
823.97	18140
824.11	18076
824.25	18053
824.389	18049
824.529	18171
824.669	18095
824.809	18060
824.949	18117
825.089	18079
825.228	18057
825.368	17870
825.508	17882
825.648	17798
825.787	17832
825.927	17904
826.067	17786
826.206	17855
826.346	17790
826.485	17885
826.625	17809
826.765	17942
826.904	17870
827.044	17642
827.183	17604
827.323	17493
827.462	17638
827.601	17387
827.741	17467
827.88	17535
828.02	17440
828.159	17478
828.298	17581
828.437	17608
828.577	17570
828.716	17729
828.855	17417
828.994	17356
829.134	17296
829.273	17337
829.412	17265
829.551	17174
829.69	17280
829.829	17273
829.968	17330
830.107	17368
830.246	17239
830.385	17299
830.524	17151
830.663	17010
830.802	17003
830.941	16786
831.08	16843
831.219	17022
831.357	16984
831.496	17124
831.635	16923
831.774	16702
831.913	16721
832.051	16702
832.19	16675
832.329	16702
832.467	16611
832.606	16470
832.744	16554
832.883	16569
833.022	16474
833.16	16531
833.299	16618
833.437	16531
833.576	16561
833.714	16546
833.852	16641
833.991	16687
834.129	16675
834.267	16672
834.406	16554
834.544	16653
834.682	16641
834.821	16592
834.959	16774
835.097	16630
835.235	16744
835.373	16649
835.511	16672
835.65	16538
835.788	16546
835.926	16481
836.064	16352
836.202	16287
836.34	16508
836.478	16622
836.615	16573
836.753	16615
836.891	16611
837.029	16577
837.167	16436
837.305	16470
837.443	16481
837.58	16409
837.718	16550
837.856	16428
837.993	16333
838.131	16474
838.269	16394
838.406	16363
838.544	16196
838.681	16078
838.819	16017
838.956	15956
839.094	15922
839.231	15975
839.369	15956
839.506	16325
839.643	16177
839.781	16036
839.918	15876
840.055	15968
840.193	15915
840.33	15903
840.467	15968
840.604	15873
840.742	16246
840.879	15835
841.016	15812
841.153	15812
841.29	16128
841.427	15994
841.564	16036
841.701	15949
841.838	15956
841.975	15800
842.112	15895
842.249	15743
842.385	15625
842.522	15854
842.659	15774
842.796	15652
842.933	15804
843.069	15713
843.206	15679
843.343	15759
843.479	15682
843.616	15682
843.752	15599
843.889	15568
844.025	15789
844.162	15332
844.298	15618
844.435	15401
844.571	15405
844.708	15701
844.844	15648
844.98	15698
845.117	15603
845.253	15431
845.389	15313
845.525	15416
845.661	15386
845.798	15340
845.934	15428
846.07	15344
846.206	15378
846.342	15447
846.478	15306
846.614	15055
846.75	15005
846.886	14963
847.022	15207
847.158	15093
847.294	15009
847.429	15116
847.565	15043
847.701	15260
847.837	14811
847.972	14849
848.108	14895
848.244	14792
848.379	14727
848.515	14678
848.65	14682
848.786	14674
848.921	14701
849.057	14842
849.192	14815
849.328	14686
849.463	14762
849.598	14590
849.734	14602
849.869	14522
850.004	14480
850.14	14461
850.275	14385
850.41	14419
850.545	14404
850.68	14377
850.815	14377
850.95	14465
851.085	14568
851.22	14568
851.355	14469
851.49	14473
851.625	14495
851.76	14442
851.895	14469
852.03	14252
852.165	14347
852.299	14454
852.434	14518
852.569	14484
852.703	14495
852.838	14537
852.973	14602
853.107	14617
853.242	14290
853.376	14298
853.511	14214
853.645	14240
853.78	14385
853.914	14248
854.048	14267
854.183	14317
854.317	14225
854.451	14427
854.585	14366
854.72	14256
854.854	14427
854.988	14210
855.122	14259
855.256	14145
855.39	14286
855.524	14396
855.658	14355
855.792	14415
855.926	14427
856.06	14271
856.194	14476
856.327	14347
856.461	14240
856.595	14282
856.729	14263
856.862	14438
856.996	14282
857.13	14450
857.263	14419
857.397	14480
857.53	14358
857.664	14381
857.797	14408
857.931	14415
858.064	14339
858.197	14431
858.331	14339
858.464	14229
858.597	14210
858.731	14240
858.864	14290
858.997	14286
859.13	14301
859.263	14415
859.396	14427
859.529	14317
859.662	14244
859.795	14267
859.928	14317
860.061	14457
860.194	14469
860.327	14343
860.46	14355
860.592	14492
860.725	14415
860.858	14400
860.99	14248
861.123	14233
861.256	14218
861.388	14336
861.521	14819
861.653	14164
861.786	14172
861.918	14214
862.05	14309
862.183	14267
862.315	14377
862.447	14298
862.58	14256
862.712	14001
862.844	14054
862.976	14123
863.108	14016
863.24	14518
863.372	14062
863.504	14111
863.636	14073
863.768	14134
863.9	14115
864.032	14103
864.164	13974
864.296	14119
864.428	14115
864.559	14157
864.691	14351
864.823	14164
864.954	14084
865.086	14183
865.217	14081
865.349	14016
865.48	14058
865.612	14107
865.743	14210
865.875	14100
866.006	13986
866.137	14065
866.269	14164
866.4	14058
866.531	13986
866.662	13963
866.793	13978
866.924	13989
867.055	14039
867.186	14005
867.317	14016
867.448	14012
867.579	14065
867.71	14027
867.841	13982
867.972	14134
868.103	13959
868.233	14142
868.364	14115
868.495	14088
868.625	14263
868.756	14488
868.886	14305
869.017	14374
869.147	14381
869.278	14461
869.408	14339
869.539	14309
869.669	14404
869.799	14385
869.929	14431
870.06	14488
870.19	14663
870.32	14667
870.45	14651
870.58	14682
870.71	14838
870.84	14773
870.97	14769
871.1	14659
871.23	14861
871.36	14857
871.489	14849
871.619	14872
871.749	14952
871.879	14937
872.008	15005
872.138	14967
872.267	14842
872.397	14750
872.526	14621
872.656	14663
872.785	14819
872.915	15013
873.044	15047
873.173	15036
873.303	15013
873.432	14990
873.561	15062
873.69	14941
873.819	14975
873.948	15024
874.077	15005
874.206	14941
874.335	14944
874.464	15127
874.593	15211
874.722	15249
874.851	15374
874.979	15298
875.108	15340
875.237	15237
875.365	15211
875.494	15226
875.623	15252
875.751	15256
875.88	15283
876.008	15450
876.136	15507
876.265	15709
876.393	15800
876.521	15812
876.65	15713
876.778	15698
876.906	15675
877.034	15530
877.162	15671
877.29	15629
877.418	15759
877.546	15717
877.674	15690
877.802	15759
877.93	15759
878.058	15644
878.185	15622
878.313	15690
878.441	15701
878.568	15557
878.696	15637
878.824	15679
878.951	15694
879.079	15907
879.206	15994
879.333	15892
879.461	15736
879.588	15865
879.715	15911
879.842	15922
879.97	15762
880.097	15500
880.224	15469
880.351	15488
880.478	15622
880.605	15572
880.732	15435
880.859	15759
880.986	15618
881.112	15564
881.239	15332
881.366	15336
881.493	15222
881.619	15127
881.746	15135
881.872	15142
881.999	15173
882.125	15188
882.252	15218
882.378	15313
882.505	15363
882.631	15058
882.757	15074
882.883	15074
883.01	14971
883.136	14979
883.262	14895
883.388	14891
883.514	15077
883.64	15116
883.766	14960
883.892	14804
884.018	14826
884.143	14963
884.269	15077
884.395	14777
884.52	14697
884.646	14773
884.772	14598
884.897	14590
885.023	14743
885.148	14788
885.274	14921
885.399	14785
885.524	14667
885.65	14792
885.775	14781
885.9	14686
886.025	14823
886.15	14686
886.275	14682
886.4	14739
886.525	14659
886.65	14686
886.775	14716
886.9	14872
887.025	14895
887.149	14754
887.274	14488
887.399	14541
887.523	14473
887.648	14480
887.773	14465
887.897	14590
888.021	14590
888.146	14488
888.27	14682
888.395	14655
888.519	14575
888.643	14617
888.767	14590
888.891	14446
889.015	14362
889.139	14507
889.263	14381
889.387	14571
889.511	14625
889.635	14602
889.759	14393
889.883	14396
890.006	14442
890.13	14545
890.254	14282
890.377	14362
890.501	14206
890.624	14172
890.748	14305
890.871	14130
890.995	14058
891.118	13951
891.241	14138
891.364	14183
891.488	14240
891.611	14073
891.734	14164
891.857	14218
891.98	14199
892.103	14229
892.226	14142
892.349	14115
892.471	13978
892.594	14092
892.717	14134
892.839	14115
892.962	14134
893.085	14168
893.207	14126
893.33	14058
893.452	14012
893.575	14111
893.697	14046
893.819	14263
893.941	14370
894.064	14176
894.186	14073
894.308	14035
894.43	14172
894.552	14351
894.674	14256
894.796	14050
894.918	14164
895.04	14145
895.161	14298
895.283	14301
895.405	14180
895.526	14214
895.648	14324
895.769	14313
895.891	14339
896.012	14339
896.134	14328
896.255	14263
896.376	14267
896.498	14259
896.619	14339
896.74	14267
896.861	14427
896.982	14640
897.103	14762
897.224	14701
897.345	14499
897.466	14446
897.587	14454
897.708	14674
897.828	14610
897.949	14457
898.07	14358
898.19	14476
898.311	14689
898.431	14610
898.552	14686
898.672	14724
898.792	14663
898.913	14777
899.033	14560
899.153	14511
899.273	14484
899.393	14415
899.513	14545
899.633	14442
899.753	14522
899.873	14366
899.993	14537
900.113	14495
900.232	14556
900.352	14598
900.472	14355
900.591	14301
900.711	14377
900.83	14248
900.95	14457
901.069	14507
901.189	14275
901.308	14233
901.427	14016
901.546	14050
901.665	14062
901.784	14058
901.904	13986
902.023	13788
902.141	13578
902.26	13704
902.379	13681
902.498	13582
902.617	13559
902.735	13624
902.854	13658
902.973	13548
903.091	13331
903.21	13278
903.328	13244
903.446	13350
903.565	13183
903.683	13187
903.801	13038
903.919	13141
904.038	13126
904.156	13069
904.274	13088
904.392	12939
904.51	12935
904.627	13065
904.745	13004
904.863	13019
904.981	12772
905.098	12593
905.216	12677
905.334	12677
905.451	12726
905.569	12627
905.686	12692
905.803	12658
905.921	12467
906.038	12578
906.155	12540
906.272	12319
906.389	12369
906.506	12262
906.623	12209
906.74	12224
906.857	12144
906.974	12182
907.091	12296
907.208	12395
907.324	12239
907.441	12239
907.557	12007
907.674	11977
907.79	12022
907.907	11961
908.023	12068
908.139	11988
908.256	11923
908.372	11950
908.488	11882
908.604	11866
908.72	11733
908.836	11805
908.952	11718
909.068	11775
909.184	11832
909.3	11794
909.415	11771
909.531	11794
909.647	11535
909.762	11509
909.878	11551
909.993	11497
910.108	11455
910.224	11490
910.339	11501
910.454	11497
910.57	11417
910.685	11337
910.8	11642
910.915	11554
911.03	11421
911.145	11223
911.259	11250
911.374	11204
911.489	11181
911.604	11113
911.718	11071
911.833	11022
911.947	10835
912.062	10858
912.176	10919
912.291	11052
912.405	10968
912.519	11212
912.633	11071
912.748	11025
912.862	11079
912.976	10850
913.09	10767
913.204	10877
913.318	10946
913.431	10984
913.545	10961
913.659	10934
913.772	10869
913.886	10698
914	10706
914.113	10816
914.226	10847
914.34	10771
914.453	10714
914.566	10790
914.68	10717
914.793	10702
914.906	10523
915.019	10447
915.132	10409
915.245	10485
915.358	10527
915.47	10584
915.583	10573
915.696	10497
915.809	10611
915.921	10664
916.034	10436
916.146	10451
916.259	10363
916.371	10561
916.483	10481
916.595	10303
916.708	10459
916.82	10504
916.932	10432
917.044	10424
917.156	10398
917.268	10318
917.38	10356
917.491	10325
917.603	10341
917.715	10428
917.826	10466
917.938	10352
918.049	10227
918.161	10337
918.272	10489
918.384	10500
918.495	10402
918.606	10261
918.717	10223
918.828	10215
918.939	10200
919.05	10086
919.161	10227
919.272	10013
919.383	10097
919.494	10200
919.604	10417
919.715	10265
919.826	10177
919.936	10173
920.047	10303
920.157	10303
920.267	10371
920.378	10314
920.488	10204
920.598	10367
920.708	10550
920.818	10474
920.928	10413
921.038	10618
921.148	10546
921.258	10242
921.368	10253
921.477	10025
921.587	10078
921.697	10029
921.806	10135
921.916	9953
922.025	9850
922.134	9781
922.244	9762
922.353	9774
922.462	9717
922.571	9637
922.68	9561
922.789	9443
922.898	9485
923.007	9424
923.116	9473
923.224	9450
923.333	9469
923.442	9389
923.55	9348
923.659	9363
923.767	9408
923.876	9222
923.984	9488
924.092	9306
924.201	9325
924.309	9382
924.417	9351
924.525	9291
924.633	9329
924.741	10303
924.849	9089
924.956	9332
925.064	9089
925.172	9085
925.279	9142
925.387	9127
925.494	9161
925.602	9317
925.709	9230
925.816	9100
925.924	9119
926.031	9245
926.138	9173
926.245	9184
926.352	9051
926.459	9253
926.566	9218
926.673	9081
926.779	9047
926.886	9062
926.993	8838
927.099	8826
927.206	8796
927.312	8807
927.419	8853
927.525	8929
927.631	8902
927.737	8731
927.843	8796
927.95	8564
928.056	8674
928.162	8727
928.267	8876
928.373	9416
928.479	8815
928.585	8644
928.69	8735
928.796	8716
928.901	8674
929.007	8514
929.112	8640
929.218	8602
929.323	8552
929.428	8537
929.533	8697
929.638	8552
929.743	8571
929.848	8636
929.953	8507
930.058	8438
930.163	8305
930.267	8328
930.372	8404
930.477	8267
930.581	8518
930.685	8446
930.79	8324
930.894	8393
930.998	8320
931.103	8473
931.207	8103
931.311	7947
931.415	7913
931.519	7776
931.623	7792
