Data from test_V78500241_1434.txt Node
Date: Fri Mar 25 14:43:42 CST 2022
User: usil
Spectrometer: V785-0024
Trigger mode: 0
Integration Time (sec): 4.000000E-1
Scans to average: 1
Nonlinearity correction enabled: false
Boxcar width: 0
Storing dark spectrum: false
XAxis mode: Wavelengths
Number of Pixels in Spectrum: 1024
>>>>>Begin Spectral Data<<<<<
801.071	22554
801.214	22329
801.356	22055
801.499	21926
801.641	21778
801.783	21736
801.926	21755
802.068	21739
802.211	21652
802.353	21564
802.496	21351
802.638	21195
802.78	21199
802.923	21127
803.065	21119
803.208	21157
803.35	21074
803.492	21207
803.635	21256
803.777	21138
803.919	21218
804.061	21408
804.204	21298
804.346	20971
804.488	20982
804.63	21062
804.773	20963
804.915	21142
805.057	21127
805.199	20994
805.341	21096
805.483	21161
805.626	21077
805.768	20929
805.91	21032
806.052	21070
806.194	20941
806.336	21116
806.478	21154
806.62	21036
806.762	21085
806.904	21169
807.046	21454
807.188	21534
807.33	21294
807.472	21500
807.614	21351
807.756	21393
807.898	21348
808.04	21157
808.182	21180
808.324	21214
808.465	21355
808.607	21530
808.749	21549
808.891	21808
809.033	21785
809.174	21675
809.316	21530
809.458	21610
809.6	21538
809.741	21629
809.883	21447
810.025	21709
810.166	21625
810.308	21720
810.45	21587
810.591	21450
810.733	21439
810.875	21237
811.016	21154
811.158	21195
811.299	21367
811.441	21317
811.582	21332
811.724	21359
811.865	21237
812.007	21199
812.148	21214
812.29	21230
812.431	21287
812.573	21519
812.714	21492
812.855	21759
812.997	21728
813.138	21827
813.279	21892
813.421	21797
813.562	21713
813.703	21462
813.845	21302
813.986	21070
814.127	20979
814.268	20750
814.41	20735
814.551	20819
814.692	20804
814.833	20670
814.974	20754
815.115	20663
815.256	20629
815.397	20655
815.539	20640
815.68	20450
815.821	20427
815.962	20568
816.103	20423
816.244	20412
816.385	20142
816.526	20332
816.666	20168
816.807	19852
816.948	19947
817.089	20035
817.23	19970
817.371	19803
817.512	19883
817.653	19883
817.793	19879
817.934	19875
818.075	19913
818.216	19845
818.356	19928
818.497	19677
818.638	19510
818.778	19620
818.919	19632
819.06	19601
819.2	19833
819.341	19860
819.481	19822
819.622	19875
819.762	20149
819.903	20050
820.043	19963
820.184	19913
820.324	20035
820.465	20005
820.605	19887
820.746	19753
820.886	19830
821.026	19845
821.167	19814
821.307	19936
821.447	19894
821.588	19632
821.728	19575
821.868	19346
822.008	19316
822.149	19434
822.289	19202
822.429	18970
822.569	18996
822.709	19069
822.849	18886
822.99	18783
823.13	18791
823.27	18665
823.41	18623
823.55	18582
823.69	18540
823.83	18639
823.97	18448
824.11	18464
824.25	18315
824.389	18467
824.529	18452
824.669	18365
824.809	18536
824.949	18426
825.089	18388
825.228	18399
825.368	18239
825.508	18178
825.648	18114
825.787	18251
825.927	18205
826.067	18174
826.206	18060
826.346	18228
826.485	18129
826.625	18125
826.765	18140
826.904	18155
827.044	17965
827.183	17977
827.323	17775
827.462	17916
827.601	17805
827.741	17764
827.88	17836
828.02	17661
828.159	17722
828.298	17908
828.437	17836
828.577	17695
828.716	17988
828.855	17779
828.994	17554
829.134	17585
829.273	17699
829.412	17573
829.551	17493
829.69	17512
829.829	17729
829.968	17729
830.107	17672
830.246	17547
830.385	17581
830.524	17490
830.663	17349
830.802	17246
830.941	17208
831.08	17083
831.219	17231
831.357	17315
831.496	17345
831.635	17124
831.774	17098
831.913	17090
832.051	16991
832.19	16942
832.329	17037
832.467	17022
832.606	16812
832.744	16908
832.883	17006
833.022	16824
833.16	16942
833.299	16949
833.437	17010
833.576	16961
833.714	16923
833.852	16889
833.991	16968
834.129	17086
834.267	17037
834.406	16889
834.544	17098
834.682	16927
834.821	16946
834.959	17189
835.097	16911
835.235	17128
835.373	17018
835.511	16980
835.65	16835
835.788	16820
835.926	16615
836.064	16672
836.202	16634
836.34	16850
836.478	16915
836.615	16801
836.753	16839
836.891	16934
837.029	16839
837.167	16816
837.305	16774
837.443	16835
837.58	16805
837.718	16771
837.856	16634
837.993	16660
838.131	16736
838.269	16611
838.406	16698
838.544	16527
838.681	16341
838.819	16382
838.956	16223
839.094	16299
839.231	16207
839.369	16413
839.506	16675
839.643	16546
839.781	16200
839.918	16226
840.055	16291
840.193	16265
840.33	16234
840.467	16177
840.604	16188
840.742	16523
840.879	16109
841.016	16223
841.153	16082
841.29	16348
841.427	16261
841.564	16219
841.701	16242
841.838	16162
841.975	16147
842.112	16211
842.249	16017
842.385	15930
842.522	16116
842.659	15998
842.796	15994
842.933	15975
843.069	15949
843.206	16021
843.343	16143
843.479	16112
843.616	16040
843.752	15781
843.889	15812
844.025	15983
844.162	15819
844.298	15975
844.435	15800
844.571	15732
844.708	15865
844.844	15975
844.98	15991
845.117	15880
845.253	15816
845.389	15759
845.525	15781
845.661	15854
845.798	15770
845.934	15903
846.07	15922
846.206	15994
846.342	15998
846.478	15785
846.614	15496
846.75	15397
846.886	15363
847.022	15454
847.158	15367
847.294	15382
847.429	15458
847.565	15454
847.701	15606
847.837	15138
847.972	15180
848.108	15100
848.244	15192
848.379	14979
848.515	14910
848.65	14948
848.786	14906
848.921	15024
849.057	15055
849.192	15119
849.328	14921
849.463	14960
849.598	14925
849.734	14849
849.869	14864
850.004	14708
850.14	14849
850.275	14674
850.41	14636
850.545	14648
850.68	14674
850.815	14667
850.95	14720
851.085	14883
851.22	14804
851.355	14762
851.49	14739
851.625	14708
851.76	14682
851.895	14655
852.03	14621
852.165	14804
852.299	14902
852.434	14819
852.569	14739
852.703	14750
852.838	14823
852.973	14864
853.107	14872
853.242	14731
853.376	14670
853.511	14537
853.645	14651
853.78	14705
853.914	14621
854.048	14537
854.183	14537
854.317	14655
854.451	14769
854.585	14541
854.72	14686
854.854	14686
854.988	14457
855.122	14571
855.256	14415
855.39	14575
855.524	14739
855.658	14689
855.792	14610
855.926	14613
856.06	14674
856.194	14708
856.327	14625
856.461	14438
856.595	14552
856.729	14651
856.862	14777
856.996	14701
857.13	14731
857.263	14655
857.397	14708
857.53	14598
857.664	14682
857.797	14720
857.931	14807
858.064	14651
858.197	14735
858.331	14697
858.464	14686
858.597	14495
858.731	14568
858.864	14625
858.997	14636
859.13	14568
859.263	14606
859.396	14689
859.529	14697
859.662	14621
859.795	14495
859.928	14594
860.061	14762
860.194	14815
860.327	14648
860.46	14541
860.592	14697
860.725	14769
860.858	14693
860.99	14659
861.123	14522
861.256	14518
861.388	14606
861.521	15389
861.653	14495
861.786	14328
861.918	14545
862.05	14488
862.183	14488
862.315	14590
862.447	14678
862.58	14484
862.712	14275
862.844	14252
862.976	14377
863.108	14358
863.24	14914
863.372	14358
863.504	14351
863.636	14393
863.768	14457
863.9	14332
864.032	14385
864.164	14385
864.296	14404
864.428	14385
864.559	14393
864.691	14522
864.823	14400
864.954	14434
865.086	14320
865.217	14450
865.349	14317
865.48	14320
865.612	14434
865.743	14450
865.875	14396
866.006	14278
866.137	14370
866.269	14385
866.4	14275
866.531	14301
866.662	14400
866.793	14275
866.924	14309
867.055	14298
867.186	14263
867.317	14400
867.448	14237
867.579	14351
867.71	14286
867.841	14206
867.972	14370
868.103	14301
868.233	14248
868.364	14355
868.495	14389
868.625	14522
868.756	14697
868.886	14465
869.017	14575
869.147	14758
869.278	14731
869.408	14602
869.539	14640
869.669	14644
869.799	14705
869.929	14743
870.06	14724
870.19	14941
870.32	14815
870.45	14971
870.58	14906
870.71	15154
870.84	15070
870.97	15081
871.1	15047
871.23	15203
871.36	15283
871.489	15097
871.619	15184
871.749	15157
871.879	15291
872.008	15207
872.138	15192
872.267	15252
872.397	15047
872.526	15070
872.656	15070
872.785	15024
872.915	15237
873.044	15336
873.173	15294
873.303	15325
873.432	15283
873.561	15279
873.69	15287
873.819	15226
873.948	15355
874.077	15348
874.206	15241
874.335	15275
874.464	15481
874.593	15557
874.722	15485
874.851	15667
874.979	15549
875.108	15561
875.237	15538
875.365	15408
875.494	15652
875.623	15641
875.751	15534
875.88	15557
876.008	15816
876.136	15671
876.265	16017
876.393	16192
876.521	16051
876.65	16002
876.778	15968
876.906	15918
877.034	16063
877.162	16002
877.29	15907
877.418	16093
877.546	15979
877.674	16017
877.802	16055
877.93	16131
878.058	15975
878.185	15922
878.313	16082
878.441	16048
878.568	15884
878.696	16059
878.824	16044
878.951	16192
879.079	16223
879.206	16386
879.333	16249
879.461	16082
879.588	16280
879.715	16276
879.842	16409
879.97	16185
880.097	15960
880.224	15884
880.351	15911
880.478	15854
880.605	15835
880.732	15911
880.859	16074
880.986	15903
881.112	15972
881.239	15899
881.366	15679
881.493	15587
881.619	15500
881.746	15568
881.872	15443
881.999	15572
882.125	15538
882.252	15599
882.378	15526
882.505	15618
882.631	15584
882.757	15462
882.883	15439
883.01	15405
883.136	15412
883.262	15222
883.388	15226
883.514	15389
883.64	15428
883.766	15291
883.892	15176
884.018	15138
884.143	15325
884.269	15367
884.395	15066
884.52	15066
884.646	15081
884.772	15001
884.897	14944
885.023	15081
885.148	15146
885.274	15249
885.399	15230
885.524	14944
885.65	15009
885.775	15089
885.9	15104
886.025	15214
886.15	14986
886.275	15074
886.4	14899
886.525	15032
886.65	15039
886.775	14971
886.9	15188
887.025	15199
887.149	15051
887.274	14811
887.399	14815
887.523	14849
887.648	14823
887.773	14804
887.897	14933
888.021	14895
888.146	14796
888.27	14998
888.395	15024
888.519	14899
888.643	14891
888.767	14944
888.891	14876
889.015	14743
889.139	14765
889.263	14644
889.387	14899
889.511	14933
889.635	14792
889.759	14674
889.883	14727
890.006	14716
890.13	14906
890.254	14720
890.377	14659
890.501	14545
890.624	14492
890.748	14503
890.871	14427
890.995	14351
891.118	14339
891.241	14476
891.364	14446
891.488	14541
891.611	14415
891.734	14450
891.857	14427
891.98	14370
892.103	14434
892.226	14351
892.349	14374
892.471	14294
892.594	14358
892.717	14423
892.839	14347
892.962	14419
893.085	14370
893.207	14415
893.33	14328
893.452	14313
893.575	14419
893.697	14358
893.819	14545
893.941	14735
894.064	14503
894.186	14415
894.308	14374
894.43	14514
894.552	14613
894.674	14503
894.796	14317
894.918	14473
895.04	14476
895.161	14518
895.283	14469
895.405	14400
895.526	14450
895.648	14495
895.769	14518
895.891	14587
896.012	14720
896.134	14697
896.255	14503
896.376	14541
896.498	14488
896.619	14632
896.74	14587
896.861	14610
896.982	14929
897.103	15123
897.224	14819
897.345	14845
897.466	14785
897.587	14830
897.708	14948
897.828	14811
897.949	14823
898.07	14651
898.19	14815
898.311	15024
898.431	14872
898.552	14834
898.672	14925
898.792	14971
898.913	14979
899.033	14899
899.153	14727
899.273	14663
899.393	14670
899.513	14758
899.633	14796
899.753	14883
899.873	14682
899.993	14811
900.113	14724
900.232	14792
900.352	14701
900.472	14682
900.591	14560
900.711	14617
900.83	14598
900.95	14754
901.069	14750
901.189	14590
901.308	14282
901.427	14225
901.546	14225
901.665	14332
901.784	14317
901.904	14126
902.023	14046
902.141	13925
902.26	13883
902.379	14008
902.498	13944
902.617	13795
902.735	13830
902.854	13856
902.973	13791
903.091	13594
903.21	13613
903.328	13586
903.446	13533
903.565	13396
903.683	13468
903.801	13297
903.919	13392
904.038	13434
904.156	13209
904.274	13308
904.392	13190
904.51	13175
904.627	13179
904.745	13301
904.863	13312
904.981	13088
905.098	12928
905.216	12856
905.334	12962
905.451	12947
905.569	12901
905.686	12935
905.803	13015
905.921	12821
906.038	12890
906.155	12700
906.272	12646
906.389	12715
906.506	12521
906.623	12486
906.74	12483
906.857	12418
906.974	12414
907.091	12555
907.208	12696
907.324	12540
907.441	12547
907.557	12254
907.674	12273
907.79	12190
907.907	12281
908.023	12296
908.139	12235
908.256	12155
908.372	12232
908.488	12205
908.604	12049
908.72	11942
908.836	11988
908.952	11973
909.068	12060
909.184	12022
909.3	12034
909.415	12057
909.531	11980
909.647	11798
909.762	11813
909.878	11665
909.993	11779
910.108	11756
910.224	11729
910.339	11847
910.454	11703
910.57	11570
910.685	11596
910.8	11851
910.915	11767
911.03	11699
911.145	11554
911.259	11474
911.374	11528
911.489	11372
911.604	11349
911.718	11216
911.833	11227
911.947	11166
912.062	11113
912.176	11208
912.291	11178
912.405	11239
912.519	11406
912.633	11398
912.748	11307
912.862	11269
912.976	11132
913.09	10976
913.204	11079
913.318	11094
913.431	11189
913.545	11212
913.659	11280
913.772	11090
913.886	10934
914	10934
914.113	11109
914.226	11109
914.34	11018
914.453	10942
914.566	11022
914.68	10896
914.793	10946
914.906	10740
915.019	10706
915.132	10691
915.245	10733
915.358	10733
915.47	10736
915.583	10778
915.696	10805
915.809	10889
915.921	10843
916.034	10698
916.146	10694
916.259	10714
916.371	10782
916.483	10687
916.595	10603
916.708	10672
916.82	10660
916.932	10588
917.044	10641
917.156	10588
917.268	10508
917.38	10519
917.491	10432
917.603	10615
917.715	10596
917.826	10641
917.938	10596
918.049	10428
918.161	10607
918.272	10664
918.384	10687
918.495	10542
918.606	10447
918.717	10322
918.828	10443
918.939	10421
919.05	10299
919.161	10344
919.272	10188
919.383	10242
919.494	10497
919.604	10664
919.715	10481
919.826	10348
919.936	10390
920.047	10466
920.157	10497
920.267	10546
920.378	10443
920.488	10466
920.598	10615
920.708	10828
920.818	10710
920.928	10710
921.038	10858
921.148	10759
921.258	10459
921.368	10367
921.477	10329
921.587	10253
921.697	10173
921.806	10337
921.916	10143
922.025	10021
922.134	9941
922.244	9895
922.353	10021
922.462	9774
922.571	9732
922.68	9629
922.789	9682
922.898	9698
923.007	9648
923.116	9679
923.224	9576
923.333	9713
923.442	9507
923.55	9530
923.659	9507
923.767	9644
923.876	9504
923.984	9633
924.092	9485
924.201	9519
924.309	9492
924.417	9599
924.525	9507
924.633	9526
924.741	10474
924.849	9359
924.956	9481
925.064	9249
925.172	9207
925.279	9211
925.387	9355
925.494	9340
925.602	9431
925.709	9382
925.816	9310
925.924	9340
926.031	9355
926.138	9340
926.245	9370
926.352	9249
926.459	9378
926.566	9321
926.673	9283
926.779	9218
926.886	9161
926.993	9074
927.099	9001
927.206	8975
927.312	8998
927.419	9066
927.525	9070
927.631	9047
927.737	8910
927.843	8864
927.95	8800
928.056	8876
928.162	8914
928.267	9001
928.373	9576
928.479	9001
928.585	8773
928.69	8941
928.796	8948
928.901	8842
929.007	8613
929.112	8788
929.218	8788
929.323	8777
929.428	8769
929.533	8842
929.638	8693
929.743	8708
929.848	8792
929.953	8769
930.058	8689
930.163	8419
930.267	8511
930.372	8636
930.477	8434
930.581	8689
930.685	8579
930.79	8385
930.894	8461
930.998	8465
931.103	8545
931.207	8229
931.311	8142
931.415	8092
931.519	7890
931.623	7932
