Data from test_V78500241_2102.txt Node
Date: Fri Mar 25 14:48:20 CST 2022
User: usil
Spectrometer: V785-0024
Trigger mode: 0
Integration Time (sec): 4.000000E-1
Scans to average: 1
Nonlinearity correction enabled: false
Boxcar width: 0
Storing dark spectrum: false
XAxis mode: Wavelengths
Number of Pixels in Spectrum: 1024
>>>>>Begin Spectral Data<<<<<
801.071	22124
801.214	21934
801.356	21789
801.499	21713
801.641	21568
801.783	21420
801.926	21580
802.068	21389
802.211	21355
802.353	21249
802.496	21104
802.638	20937
802.78	20899
802.923	20849
803.065	20754
803.208	20853
803.35	20804
803.492	20887
803.635	21074
803.777	20697
803.919	20914
804.061	21127
804.204	20891
804.346	20807
804.488	20720
804.63	20769
804.773	20663
804.915	20735
805.057	20838
805.199	20739
805.341	20689
805.483	20765
805.626	20788
805.768	20705
805.91	20815
806.052	20659
806.194	20720
806.336	20800
806.478	20777
806.62	20651
806.762	20872
806.904	20815
807.046	21169
807.188	21077
807.33	21036
807.472	21100
807.614	20914
807.756	21001
807.898	20811
808.04	20743
808.182	20731
808.324	20857
808.465	20948
808.607	21066
808.749	21138
808.891	21150
809.033	21355
809.174	21252
809.316	21096
809.458	21203
809.6	21028
809.741	21108
809.883	21211
810.025	21245
810.166	21355
810.308	21222
810.45	21192
810.591	21169
810.733	21051
810.875	20880
811.016	20868
811.158	20872
811.299	20906
811.441	20925
811.582	21013
811.724	20952
811.865	20853
812.007	20868
812.148	20914
812.29	20895
812.431	20998
812.573	21070
812.714	21218
812.855	21329
812.997	21488
813.138	21690
813.279	21458
813.421	21416
813.562	21321
813.703	21230
813.845	21055
813.986	20758
814.127	20655
814.268	20503
814.41	20465
814.551	20347
814.692	20541
814.833	20408
814.974	20351
815.115	20454
815.256	20301
815.397	20267
815.539	20298
815.68	20199
815.821	20077
815.962	20138
816.103	19989
816.244	20005
816.385	19978
816.526	19921
816.666	19635
816.807	19548
816.948	19529
817.089	19662
817.23	19696
817.371	19506
817.512	19628
817.653	19540
817.793	19620
817.934	19449
818.075	19651
818.216	19620
818.356	19552
818.497	19487
818.638	19274
818.778	19289
818.919	19350
819.06	19297
819.2	19365
819.341	19468
819.481	19365
819.622	19548
819.762	19788
819.903	19643
820.043	19594
820.184	19518
820.324	19441
820.465	19655
820.605	19567
820.746	19468
820.886	19415
821.026	19403
821.167	19430
821.307	19620
821.447	19582
821.588	19426
821.728	19312
821.868	19057
822.008	18886
822.149	19019
822.289	18848
822.429	18692
822.569	18692
822.709	18646
822.849	18395
822.99	18407
823.13	18445
823.27	18456
823.41	18262
823.55	18216
823.69	18239
823.83	18163
823.97	18178
824.11	17984
824.25	17939
824.389	17988
824.529	18148
824.669	17984
824.809	18076
824.949	17999
825.089	17942
825.228	17965
825.368	17794
825.508	17847
825.648	17752
825.787	17885
825.927	17916
826.067	17707
826.206	17710
826.346	17855
826.485	17859
826.625	17813
826.765	17847
826.904	17775
827.044	17627
827.183	17562
827.323	17516
827.462	17520
827.601	17490
827.741	17512
827.88	17554
828.02	17410
828.159	17452
828.298	17474
828.437	17486
828.577	17395
828.716	17589
828.855	17455
828.994	17292
829.134	17299
829.273	17322
829.412	17231
829.551	17208
829.69	17254
829.829	17296
829.968	17303
830.107	17254
830.246	17189
830.385	17136
830.524	17113
830.663	17094
830.802	16972
830.941	16835
831.08	16877
831.219	16915
831.357	16957
831.496	17162
831.635	16797
831.774	16831
831.913	16755
832.051	16744
832.19	16782
832.329	16634
832.467	16649
832.606	16538
832.744	16561
832.883	16584
833.022	16577
833.16	16607
833.299	16565
833.437	16565
833.576	16611
833.714	16592
833.852	16634
833.991	16596
834.129	16793
834.267	16790
834.406	16672
834.544	16603
834.682	16634
834.821	16637
834.959	16752
835.097	16493
835.235	16717
835.373	16615
835.511	16668
835.65	16500
835.788	16630
835.926	16356
836.064	16390
836.202	16394
836.34	16630
836.478	16656
836.615	16535
836.753	16474
836.891	16683
837.029	16626
837.167	16462
837.305	16363
837.443	16466
837.58	16299
837.718	16497
837.856	16390
837.993	16344
838.131	16344
838.269	16291
838.406	16386
838.544	16272
838.681	16150
838.819	16055
838.956	15915
839.094	15922
839.231	16002
839.369	16071
839.506	16261
839.643	16192
839.781	15975
839.918	15934
840.055	16025
840.193	15953
840.33	15865
840.467	15983
840.604	15960
840.742	16230
840.879	15789
841.016	15804
841.153	15873
841.29	15918
841.427	15941
841.564	16002
841.701	15911
841.838	15915
841.975	15880
842.112	15918
842.249	15831
842.385	15656
842.522	15922
842.659	15698
842.796	15690
842.933	15644
843.069	15671
843.206	15717
843.343	15835
843.479	15838
843.616	15736
843.752	15519
843.889	15564
844.025	15580
844.162	15504
844.298	15504
844.435	15450
844.571	15488
844.708	15629
844.844	15580
844.98	15679
845.117	15606
845.253	15443
845.389	15462
845.525	15329
845.661	15466
845.798	15233
845.934	15332
846.07	15294
846.206	15348
846.342	15310
846.478	15336
846.614	15119
846.75	14994
846.886	15005
847.022	15203
847.158	14986
847.294	15047
847.429	15112
847.565	15039
847.701	15237
847.837	14868
847.972	14701
848.108	14883
848.244	14861
848.379	14864
848.515	14689
848.65	14674
848.786	14682
848.921	14651
849.057	14830
849.192	14792
849.328	14712
849.463	14705
849.598	14682
849.734	14640
849.869	14625
850.004	14492
850.14	14446
850.275	14480
850.41	14332
850.545	14374
850.68	14377
850.815	14476
850.95	14377
851.085	14571
851.22	14473
851.355	14438
851.49	14450
851.625	14446
851.76	14404
851.895	14259
852.03	14343
852.165	14374
852.299	14518
852.434	14518
852.569	14484
852.703	14476
852.838	14541
852.973	14518
853.107	14594
853.242	14415
853.376	14385
853.511	14206
853.645	14320
853.78	14450
853.914	14317
854.048	14286
854.183	14301
854.317	14446
854.451	14473
854.585	14370
854.72	14317
854.854	14183
854.988	14195
855.122	14313
855.256	14164
855.39	14221
855.524	14362
855.658	14328
855.792	14275
855.926	14374
856.06	14423
856.194	14351
856.327	14309
856.461	14183
856.595	14252
856.729	14324
856.862	14446
856.996	14404
857.13	14412
857.263	14423
857.397	14450
857.53	14362
857.664	14374
857.797	14343
857.931	14271
858.064	14309
858.197	14366
858.331	14275
858.464	14301
858.597	14210
858.731	14332
858.864	14324
858.997	14332
859.13	14324
859.263	14393
859.396	14381
859.529	14275
859.662	14347
859.795	14206
859.928	14332
860.061	14396
860.194	14518
860.327	14252
860.46	14290
860.592	14370
860.725	14499
860.858	14385
860.99	14301
861.123	14206
861.256	14244
861.388	14263
861.521	14914
861.653	14172
861.786	14142
861.918	14237
862.05	14145
862.183	14233
862.315	14347
862.447	14309
862.58	14278
862.712	14176
862.844	14050
862.976	14134
863.108	14092
863.24	14507
863.372	14065
863.504	13993
863.636	14073
863.768	14119
863.9	14100
864.032	14027
864.164	14134
864.296	14153
864.428	14130
864.559	14244
864.691	14229
864.823	14115
864.954	14157
865.086	14214
865.217	14027
865.349	14005
865.48	13989
865.612	14012
865.743	14229
865.875	14107
866.006	14027
866.137	14058
866.269	13989
866.4	14069
866.531	14012
866.662	14065
866.793	14024
866.924	14001
867.055	14107
867.186	14031
867.317	14039
867.448	14016
867.579	14016
867.71	14005
867.841	13974
867.972	14149
868.103	14016
868.233	14020
868.364	14054
868.495	14161
868.625	14290
868.756	14465
868.886	14244
869.017	14275
869.147	14377
869.278	14385
869.408	14309
869.539	14320
869.669	14438
869.799	14454
869.929	14412
870.06	14454
870.19	14575
870.32	14594
870.45	14686
870.58	14716
870.71	14811
870.84	14842
870.97	14834
871.1	14686
871.23	14830
871.36	14861
871.489	14891
871.619	14853
871.749	14944
871.879	14918
872.008	15043
872.138	14982
872.267	14952
872.397	14727
872.526	14815
872.656	14743
872.785	14796
872.915	14925
873.044	15085
873.173	14952
873.303	14933
873.432	15043
873.561	15020
873.69	14925
873.819	14910
873.948	15058
874.077	15032
874.206	14880
874.335	14979
874.464	15081
874.593	15180
874.722	15176
874.851	15321
874.979	15264
875.108	15359
875.237	15256
875.365	15245
875.494	15180
875.623	15306
875.751	15192
875.88	15397
876.008	15447
876.136	15545
876.265	15641
876.393	15880
876.521	15816
876.65	15781
876.778	15739
876.906	15671
877.034	15633
877.162	15656
877.29	15625
877.418	15637
877.546	15747
877.674	15580
877.802	15686
877.93	15728
878.058	15705
878.185	15568
878.313	15660
878.441	15690
878.568	15576
878.696	15603
878.824	15686
878.951	15816
879.079	15934
879.206	15972
879.333	15797
879.461	15732
879.588	15766
879.715	15857
879.842	16029
879.97	15698
880.097	15648
880.224	15534
880.351	15504
880.478	15545
880.605	15507
880.732	15576
880.859	15717
880.986	15584
881.112	15591
881.239	15488
881.366	15397
881.493	15188
881.619	15199
881.746	15154
881.872	15081
881.999	15195
882.125	15237
882.252	15287
882.378	15230
882.505	15393
882.631	15184
882.757	15013
882.883	15116
883.01	14975
883.136	14944
883.262	14872
883.388	14891
883.514	15081
883.64	15017
883.766	15024
883.892	14815
884.018	14979
884.143	15028
884.269	15150
884.395	14746
884.52	14777
884.646	14811
884.772	14701
884.897	14640
885.023	14746
885.148	14800
885.274	14902
885.399	14785
885.524	14739
885.65	14724
885.775	14758
885.9	14705
886.025	14868
886.15	14876
886.275	14651
886.4	14731
886.525	14655
886.65	14697
886.775	14701
886.9	14800
887.025	14921
887.149	14743
887.274	14648
887.399	14484
887.523	14549
887.648	14556
887.773	14396
887.897	14587
888.021	14659
888.146	14446
888.27	14678
888.395	14777
888.519	14583
888.643	14587
888.767	14648
888.891	14575
889.015	14366
889.139	14469
889.263	14377
889.387	14545
889.511	14590
889.635	14514
889.759	14454
889.883	14404
890.006	14476
890.13	14583
890.254	14431
890.377	14305
890.501	14221
890.624	14191
890.748	14328
890.871	14225
890.995	13986
891.118	14107
891.241	14164
891.364	14157
891.488	14237
891.611	13974
891.734	14183
891.857	14103
891.98	14119
892.103	14324
892.226	14218
892.349	14031
892.471	13913
892.594	14096
892.717	14084
892.839	14020
892.962	14149
893.085	14115
893.207	14244
893.33	14092
893.452	14039
893.575	14100
893.697	14115
893.819	14305
893.941	14305
894.064	14290
894.186	14084
894.308	14195
894.43	14176
894.552	14301
894.674	14199
894.796	14153
894.918	14153
895.04	14157
895.161	14237
895.283	14221
895.405	14191
895.526	14282
895.648	14313
895.769	14252
895.891	14259
896.012	14415
896.134	14377
896.255	14237
896.376	14275
896.498	14290
896.619	14256
896.74	14301
896.861	14278
896.982	14549
897.103	14769
897.224	14522
897.345	14598
897.466	14495
897.587	14564
897.708	14689
897.828	14594
897.949	14488
898.07	14446
898.19	14476
898.311	14674
898.431	14556
898.552	14621
898.672	14689
898.792	14632
898.913	14667
899.033	14590
899.153	14434
899.273	14415
899.393	14552
899.513	14465
899.633	14526
899.753	14514
899.873	14454
899.993	14560
900.113	14484
900.232	14598
900.352	14434
900.472	14290
900.591	14275
900.711	14434
900.83	14351
900.95	14518
901.069	14503
901.189	14347
901.308	14111
901.427	13947
901.546	13936
901.665	14050
901.784	13997
901.904	13898
902.023	13860
902.141	13636
902.26	13651
902.379	13674
902.498	13605
902.617	13533
902.735	13537
902.854	13628
902.973	13529
903.091	13304
903.21	13324
903.328	13217
903.446	13209
903.565	13179
903.683	13103
903.801	13042
903.919	13122
904.038	13065
904.156	13042
904.274	13103
904.392	13000
904.51	13042
904.627	13080
904.745	13057
904.863	13027
904.981	12821
905.098	12715
905.216	12658
905.334	12700
905.451	12722
905.569	12623
905.686	12772
905.803	12677
905.921	12433
906.038	12601
906.155	12521
906.272	12361
906.389	12448
906.506	12232
906.623	12407
906.74	12292
906.857	12213
906.974	12232
907.091	12308
907.208	12418
907.324	12273
907.441	12205
907.557	11954
907.674	12019
907.79	12019
907.907	11984
908.023	12068
908.139	12026
908.256	12068
908.372	11912
908.488	11927
908.604	11809
908.72	11802
908.836	11733
908.952	11764
909.068	11699
909.184	11863
909.3	11771
909.415	11745
909.531	11786
909.647	11642
909.762	11532
909.878	11512
909.993	11547
910.108	11585
910.224	11490
910.339	11604
910.454	11493
910.57	11383
910.685	11341
910.8	11642
910.915	11577
911.03	11455
911.145	11162
911.259	11265
911.374	11246
911.489	11178
911.604	11060
911.718	10968
911.833	10957
911.947	10881
912.062	10839
912.176	10980
912.291	10976
912.405	11037
912.519	11174
912.633	11220
912.748	11102
912.862	10980
912.976	10919
913.09	10740
913.204	10824
913.318	10839
913.431	11006
913.545	10965
913.659	10972
913.772	10858
913.886	10717
914	10771
914.113	10767
914.226	10885
914.34	10862
914.453	10653
914.566	10858
914.68	10736
914.793	10634
914.906	10478
915.019	10527
915.132	10436
915.245	10459
915.358	10516
915.47	10504
915.583	10554
915.696	10603
915.809	10672
915.921	10672
916.034	10523
916.146	10512
916.259	10379
916.371	10485
916.483	10481
916.595	10466
916.708	10436
916.82	10417
916.932	10470
917.044	10474
917.156	10504
917.268	10272
917.38	10394
917.491	10341
917.603	10322
917.715	10413
917.826	10443
917.938	10337
918.049	10234
918.161	10371
918.272	10470
918.384	10390
918.495	10394
918.606	10200
918.717	10181
918.828	10177
918.939	10211
919.05	10162
919.161	10322
919.272	10013
919.383	10051
919.494	10257
919.604	10451
919.715	10268
919.826	10162
919.936	10234
920.047	10219
920.157	10223
920.267	10398
920.378	10242
920.488	10196
920.598	10428
920.708	10626
920.818	10363
920.928	10413
921.038	10664
921.148	10512
921.258	10295
921.368	10204
921.477	10105
921.587	10067
921.697	10010
921.806	10063
921.916	10010
922.025	9812
922.134	9827
922.244	9778
922.353	9778
922.462	9720
922.571	9660
922.68	9488
922.789	9530
922.898	9469
923.007	9450
923.116	9523
923.224	9477
923.333	9431
923.442	9344
923.55	9389
923.659	9447
923.767	9431
923.876	9291
923.984	9443
924.092	9264
924.201	9302
924.309	9416
924.417	9340
924.525	9325
924.633	9310
924.741	10207
924.849	9100
924.956	9313
925.064	9116
925.172	8994
925.279	9066
925.387	9176
925.494	9154
925.602	9260
925.709	9264
925.816	9055
925.924	9112
926.031	9184
926.138	9119
926.245	9135
926.352	9047
926.459	9207
926.566	9237
926.673	9127
926.779	8948
926.886	9062
926.993	8868
927.099	8811
927.206	8891
927.312	8773
927.419	8857
927.525	8861
927.631	8899
927.737	8773
927.843	8773
927.95	8674
928.056	8773
928.162	8777
928.267	8804
928.373	9412
928.479	8773
928.585	8602
928.69	8708
928.796	8811
928.901	8693
929.007	8594
929.112	8640
929.218	8552
929.323	8522
929.428	8560
929.533	8720
929.638	8514
929.743	8552
929.848	8606
929.953	8518
930.058	8400
930.163	8305
930.267	8328
930.372	8503
930.477	8275
930.581	8541
930.685	8442
930.79	8263
930.894	8282
930.998	8332
931.103	8427
931.207	8100
931.311	8012
931.415	7894
931.519	7845
931.623	7772
