Data from test_V78500241_360.txt Node
Date: Fri Mar 25 14:36:13 CST 2022
User: usil
Spectrometer: V785-0024
Trigger mode: 0
Integration Time (sec): 4.000000E-1
Scans to average: 1
Nonlinearity correction enabled: false
Boxcar width: 0
Storing dark spectrum: false
XAxis mode: Wavelengths
Number of Pixels in Spectrum: 1024
>>>>>Begin Spectral Data<<<<<
801.071	26933
801.214	26800
801.356	26514
801.499	26374
801.641	26259
801.783	26191
801.926	26305
802.068	26267
802.211	26031
802.353	26214
802.496	25966
802.638	25978
802.78	25913
802.923	25769
803.065	25860
803.208	25704
803.35	25639
803.492	25826
803.635	25868
803.777	25788
803.919	25879
804.061	26248
804.204	25856
804.346	25734
804.488	25704
804.63	25757
804.773	25719
804.915	25864
805.057	25875
805.199	25757
805.341	25822
805.483	25746
805.626	25871
805.768	25822
805.91	25757
806.052	25864
806.194	25616
806.336	25898
806.478	25856
806.62	25761
806.762	25997
806.904	26153
807.046	26145
807.188	26119
807.33	26206
807.472	26328
807.614	26206
807.756	26145
807.898	25966
808.04	25826
808.182	25966
808.324	25982
808.465	26096
808.607	26218
808.749	26324
808.891	26336
809.033	26465
809.174	26282
809.316	26374
809.458	26336
809.6	26290
809.741	26347
809.883	26408
810.025	26499
810.166	26545
810.308	26583
810.45	26499
810.591	26336
810.733	26358
810.875	26221
811.016	26062
811.158	26024
811.299	26176
811.441	26256
811.582	26339
811.724	26218
811.865	26096
812.007	26062
812.148	26176
812.29	26092
812.431	26305
812.573	26480
812.714	26362
812.855	26640
812.997	26434
813.138	26678
813.279	26777
813.421	26712
813.562	26556
813.703	26514
813.845	26404
813.986	26008
814.127	25776
814.268	25712
814.41	25693
814.551	25689
814.692	25803
814.833	25693
814.974	25708
815.115	25609
815.256	25502
815.397	25613
815.539	25616
815.68	25422
815.821	25533
815.962	25582
816.103	25384
816.244	25362
816.385	25228
816.526	25164
816.666	25088
816.807	24760
816.948	24882
817.089	24977
817.23	24867
817.371	24738
817.512	24871
817.653	24852
817.793	24745
817.934	24741
818.075	24776
818.216	24730
818.356	24779
818.497	24741
818.638	24521
818.778	24585
818.919	24555
819.06	24563
819.2	24623
819.341	24612
819.481	24635
819.622	24852
819.762	25080
819.903	24977
820.043	24772
820.184	24958
820.324	24840
820.465	24863
820.605	24840
820.746	24738
820.886	24627
821.026	24741
821.167	24684
821.307	24810
821.447	24795
821.588	24635
821.728	24593
821.868	24353
822.008	24152
822.149	24083
822.289	24224
822.429	23878
822.569	23832
822.709	23870
822.849	23680
822.99	23512
823.13	23611
823.27	23657
823.41	23558
823.55	23349
823.69	23402
823.83	23440
823.97	23318
824.11	23151
824.25	23102
824.389	23223
824.529	23284
824.669	23204
824.809	23379
824.949	23197
825.089	23200
825.228	23178
825.368	22968
825.508	23022
825.648	22881
825.787	23060
825.927	22995
826.067	22961
826.206	22892
826.346	22965
826.485	23014
826.625	22942
826.765	23117
826.904	23071
827.044	22782
827.183	22664
827.323	22660
827.462	22607
827.601	22778
827.741	22649
827.88	22660
828.02	22656
828.159	22535
828.298	22691
828.437	22702
828.577	22573
828.716	22683
828.855	22557
828.994	22253
829.134	22459
829.273	22417
829.412	22295
829.551	22325
829.69	22382
829.829	22310
829.968	22466
830.107	22287
830.246	22238
830.385	22428
830.524	22238
830.663	22196
830.802	22074
830.941	21972
831.08	21869
831.219	22082
831.357	21987
831.496	22097
831.635	21975
831.774	21800
831.913	21739
832.051	21717
832.19	21663
832.329	21743
832.467	21701
832.606	21595
832.744	21610
832.883	21477
833.022	21515
833.16	21557
833.299	21732
833.437	21557
833.576	21618
833.714	21545
833.852	21511
833.991	21717
834.129	21675
834.267	21732
834.406	21530
834.544	21477
834.682	21408
834.821	21606
834.959	21717
835.097	21542
835.235	21633
835.373	21648
835.511	21496
835.65	21439
835.788	21408
835.926	21176
836.064	21317
836.202	21157
836.34	21447
836.478	21561
836.615	21344
836.753	21462
836.891	21462
837.029	21458
837.167	21332
837.305	21291
837.443	21306
837.58	21161
837.718	21302
837.856	21249
837.993	21233
838.131	21203
838.269	21146
838.406	21146
838.544	21146
838.681	20994
838.819	20990
838.956	20811
839.094	20796
839.231	20689
839.369	20891
839.506	21070
839.643	20910
839.781	20629
839.918	20667
840.055	20686
840.193	20727
840.33	20613
840.467	20659
840.604	20636
840.742	20880
840.879	20431
841.016	20545
841.153	20609
841.29	20712
841.427	20556
841.564	20549
841.701	20670
841.838	20541
841.975	20419
842.112	20511
842.249	20442
842.385	20324
842.522	20655
842.659	20473
842.796	20389
842.933	20301
843.069	20244
843.206	20298
843.343	20355
843.479	20351
843.616	20301
843.752	20088
843.889	20153
844.025	20221
844.162	20001
844.298	20164
844.435	20138
844.571	20092
844.708	20115
844.844	20275
844.98	20259
845.117	20142
845.253	20084
845.389	20001
845.525	20024
845.661	20096
845.798	19913
845.934	19875
846.07	19849
846.206	19856
846.342	19963
846.478	19879
846.614	19696
846.75	19620
846.886	19449
847.022	19742
847.158	19639
847.294	19605
847.429	19590
847.565	19472
847.701	19772
847.837	19308
847.972	19255
848.108	19362
848.244	19316
848.379	19225
848.515	19168
848.65	19164
848.786	19004
848.921	19225
849.057	19129
849.192	19164
849.328	19129
849.463	19072
849.598	19168
849.734	18958
849.869	18928
850.004	18829
850.14	18863
850.275	18875
850.41	18726
850.545	18779
850.68	18920
850.815	18905
850.95	18867
851.085	19046
851.22	18890
851.355	18867
851.49	18829
851.625	18783
851.76	18791
851.895	18814
852.03	18700
852.165	18806
852.299	18878
852.434	18886
852.569	18890
852.703	18806
852.838	18783
852.973	18920
853.107	19019
853.242	18745
853.376	18623
853.511	18635
853.645	18669
853.78	18665
853.914	18673
854.048	18658
854.183	18722
854.317	18623
854.451	18859
854.585	18661
854.72	18650
854.854	18711
854.988	18540
855.122	18681
855.256	18593
855.39	18711
855.524	18814
855.658	18692
855.792	18642
855.926	18700
856.06	18719
856.194	18760
856.327	18582
856.461	18620
856.595	18719
856.729	18608
856.862	18749
856.996	18639
857.13	18757
857.263	18810
857.397	18776
857.53	18673
857.664	18719
857.797	18631
857.931	18848
858.064	18795
858.197	18669
858.331	18677
858.464	18658
858.597	18566
858.731	18597
858.864	18620
858.997	18601
859.13	18601
859.263	18700
859.396	18734
859.529	18528
859.662	18467
859.795	18677
859.928	18791
860.061	18726
860.194	18696
860.327	18692
860.46	18570
860.592	18711
860.725	18760
860.858	18837
860.99	18635
861.123	18525
861.256	18585
861.388	18707
861.521	19457
861.653	18521
861.786	18426
861.918	18410
862.05	18566
862.183	18665
862.315	18665
862.447	18745
862.58	18551
862.712	18391
862.844	18384
862.976	18384
863.108	18471
863.24	18814
863.372	18273
863.504	18273
863.636	18323
863.768	18422
863.9	18441
864.032	18178
864.164	18251
864.296	18372
864.428	18399
864.559	18426
864.691	18391
864.823	18178
864.954	18369
865.086	18273
865.217	18327
865.349	18205
865.48	18300
865.612	18273
865.743	18380
865.875	18235
866.006	18194
866.137	18243
866.269	18300
866.4	18258
866.531	18182
866.662	18152
866.793	18197
866.924	18140
867.055	18254
867.186	18281
867.317	18216
867.448	17980
867.579	18091
867.71	18182
867.841	18155
867.972	18216
868.103	18194
868.233	18167
868.364	18243
868.495	18304
868.625	18456
868.756	18490
868.886	18418
869.017	18448
869.147	18582
869.278	18490
869.408	18471
869.539	18471
869.669	18536
869.799	18448
869.929	18604
870.06	18597
870.19	18673
870.32	18696
870.45	18791
870.58	18875
870.71	18897
870.84	18939
870.97	18745
871.1	18825
871.23	18985
871.36	18947
871.489	18848
871.619	18958
871.749	19034
871.879	19141
872.008	19133
872.138	19072
872.267	19084
872.397	18943
872.526	18886
872.656	18757
872.785	18791
872.915	18897
873.044	19004
873.173	19061
873.303	19141
873.432	19076
873.561	19118
873.69	19084
873.819	19095
873.948	19122
874.077	19145
874.206	18928
874.335	19110
874.464	19202
874.593	19327
874.722	19297
874.851	19285
874.979	19430
875.108	19441
875.237	19297
875.365	19259
875.494	19308
875.623	19453
875.751	19339
875.88	19282
876.008	19445
876.136	19514
876.265	19731
876.393	19871
876.521	19772
876.65	19925
876.778	19868
876.906	19746
877.034	19708
877.162	19616
877.29	19662
877.418	19719
877.546	19769
877.674	19715
877.802	19613
877.93	19795
878.058	19571
878.185	19624
878.313	19628
878.441	19738
878.568	19605
878.696	19670
878.824	19715
878.951	19715
879.079	19807
879.206	20126
879.333	19913
879.461	19818
879.588	19856
879.715	19883
879.842	20016
879.97	19883
880.097	19628
880.224	19605
880.351	19685
880.478	19502
880.605	19441
880.732	19556
880.859	19750
880.986	19677
881.112	19635
881.239	19426
881.366	19438
881.493	19232
881.619	19103
881.746	19308
881.872	19190
881.999	19160
882.125	19122
882.252	19240
882.378	19202
882.505	19369
882.631	19019
882.757	18996
882.883	18989
883.01	19042
883.136	18825
883.262	18852
883.388	18844
883.514	19072
883.64	19038
883.766	18973
883.892	18757
884.018	18837
884.143	19023
884.269	19076
884.395	18715
884.52	18559
884.646	18669
884.772	18452
884.897	18502
885.023	18593
885.148	18661
885.274	18703
885.399	18703
885.524	18661
885.65	18570
885.775	18677
885.9	18547
886.025	18745
886.15	18635
886.275	18471
886.4	18467
886.525	18574
886.65	18570
886.775	18502
886.9	18654
887.025	18810
887.149	18574
887.274	18346
887.399	18365
887.523	18357
887.648	18410
887.773	18330
887.897	18502
888.021	18369
888.146	18342
888.27	18380
888.395	18486
888.519	18327
888.643	18388
888.767	18452
888.891	18289
889.015	18235
889.139	18178
889.263	18095
889.387	18323
889.511	18441
889.635	18296
889.759	18098
889.883	18174
890.006	18197
890.13	18273
890.254	18053
890.377	18125
890.501	17916
890.624	17828
890.748	17939
890.871	17843
890.995	17718
891.118	17756
891.241	17710
891.364	17760
891.488	18007
891.611	17855
891.734	17813
891.857	17828
891.98	17786
892.103	17893
892.226	17817
892.349	17722
892.471	17596
892.594	17653
892.717	17832
892.839	17707
892.962	17737
893.085	17824
893.207	17802
893.33	17592
893.452	17802
893.575	17687
893.697	17695
893.819	17813
893.941	17836
894.064	17878
894.186	17684
894.308	17745
894.43	17866
894.552	17878
894.674	17843
894.796	17585
894.918	17828
895.04	17714
895.161	17855
895.283	17817
895.405	17821
895.526	17798
895.648	17748
895.769	17863
895.891	17840
896.012	17897
896.134	17722
896.255	17821
896.376	17668
896.498	17794
896.619	17805
896.74	17828
896.861	17954
896.982	18296
897.103	18251
897.224	18140
897.345	18060
897.466	17988
897.587	18098
897.708	18125
897.828	18053
897.949	17882
898.07	17977
898.19	17904
898.311	18079
898.431	17984
898.552	18079
898.672	18076
898.792	18053
898.913	18079
899.033	17912
899.153	17809
899.273	17775
899.393	17794
899.513	17828
899.633	17767
899.753	17836
899.873	17737
899.993	17912
900.113	17790
900.232	17790
900.352	17790
900.472	17596
900.591	17570
900.711	17653
900.83	17554
900.95	17745
901.069	17760
901.189	17516
901.308	17383
901.427	17292
901.546	17334
901.665	17364
901.784	17277
901.904	17204
902.023	17045
902.141	16904
902.26	16820
902.379	16831
902.498	16873
902.617	16752
902.735	16782
902.854	16748
902.973	16717
903.091	16561
903.21	16500
903.328	16451
903.446	16371
903.565	16299
903.683	16314
903.801	16234
903.919	16287
904.038	16116
904.156	16109
904.274	16246
904.392	16071
904.51	16013
904.627	16097
904.745	16181
904.863	16109
904.981	15804
905.098	15694
905.216	15800
905.334	15743
905.451	15698
905.569	15766
905.686	15774
905.803	15751
905.921	15507
906.038	15690
906.155	15496
906.272	15405
906.389	15469
906.506	15298
906.623	15344
906.74	15237
906.857	15135
906.974	15218
907.091	15355
907.208	15492
907.324	15249
907.441	15188
907.557	15028
907.674	15043
907.79	14929
907.907	14918
908.023	14990
908.139	15028
908.256	14868
908.372	14960
908.488	14899
908.604	14735
908.72	14636
908.836	14785
908.952	14659
909.068	14686
909.184	14765
909.3	14682
909.415	14701
909.531	14693
909.647	14442
909.762	14374
909.878	14332
909.993	14358
910.108	14336
910.224	14282
910.339	14275
910.454	14286
910.57	14267
910.685	14149
910.8	14408
910.915	14427
911.03	14210
911.145	14111
911.259	14043
911.374	14050
911.489	13894
911.604	14012
911.718	13845
911.833	13883
911.947	13681
912.062	13636
912.176	13811
912.291	13700
912.405	13761
912.519	13871
912.633	13909
912.748	13849
912.862	13742
912.976	13689
913.09	13502
913.204	13578
913.318	13575
913.431	13636
913.545	13655
913.659	13719
913.772	13613
913.886	13411
914	13415
914.113	13449
914.226	13502
914.34	13537
914.453	13403
914.566	13491
914.68	13384
914.793	13381
914.906	13206
915.019	13168
915.132	13118
915.245	13179
915.358	13145
915.47	13110
915.583	13118
915.696	13160
915.809	13324
915.921	13202
916.034	13076
916.146	13038
916.259	12996
916.371	13171
916.483	13023
916.595	12878
916.708	12966
916.82	12932
916.932	12947
917.044	12970
917.156	12905
917.268	12802
917.38	12920
917.491	12821
917.603	12817
917.715	13008
917.826	12897
917.938	12894
918.049	12741
918.161	12753
918.272	12966
918.384	12958
918.495	12806
918.606	12681
918.717	12582
918.828	12646
918.939	12658
919.05	12582
919.161	12631
919.272	12407
919.383	12452
919.494	12662
919.604	12741
919.715	12547
919.826	12623
919.936	12631
920.047	12703
920.157	12574
920.267	12757
920.378	12555
920.488	12623
920.598	12772
920.708	12867
920.818	12715
920.928	12722
921.038	12939
921.148	12875
921.258	12585
921.368	12544
921.477	12467
921.587	12304
921.697	12304
921.806	12414
921.916	12201
922.025	12182
922.134	12087
922.244	11984
922.353	12026
922.462	11874
922.571	11824
922.68	11726
922.789	11630
922.898	11748
923.007	11649
923.116	11684
923.224	11680
923.333	11710
923.442	11589
923.55	11493
923.659	11604
923.767	11532
923.876	11570
923.984	11646
924.092	11482
924.201	11406
924.309	11482
924.417	11505
924.525	11463
924.633	11459
924.741	12167
924.849	11231
924.956	11391
925.064	11265
925.172	11140
925.279	11151
925.387	11197
925.494	11124
925.602	11280
925.709	11273
925.816	11159
925.924	11136
926.031	11299
926.138	11185
926.245	11220
926.352	11128
926.459	11227
926.566	11269
926.673	11029
926.779	10984
926.886	11056
926.993	10873
927.099	10866
927.206	10828
927.312	10733
927.419	10942
927.525	10824
927.631	10691
927.737	10748
927.843	10721
927.95	10653
928.056	10641
928.162	10710
928.267	10755
928.373	11383
928.479	10771
928.585	10584
928.69	10596
928.796	10649
928.901	10603
929.007	10470
929.112	10550
929.218	10538
929.323	10409
929.428	10485
929.533	10580
929.638	10447
929.743	10356
929.848	10519
929.953	10402
930.058	10306
930.163	10124
930.267	10242
930.372	10402
930.477	10078
930.581	10291
930.685	10238
930.79	10063
930.894	10147
930.998	10082
931.103	10166
931.207	9915
931.311	9797
931.415	9713
931.519	9530
931.623	9447
