Data from test_V78500241_1516.txt Node
Date: Fri Mar 25 14:44:16 CST 2022
User: usil
Spectrometer: V785-0024
Trigger mode: 0
Integration Time (sec): 4.000000E-1
Scans to average: 1
Nonlinearity correction enabled: false
Boxcar width: 0
Storing dark spectrum: false
XAxis mode: Wavelengths
Number of Pixels in Spectrum: 1024
>>>>>Begin Spectral Data<<<<<
801.071	22398
801.214	22226
801.356	22105
801.499	22006
801.641	21774
801.783	21865
801.926	21899
802.068	21576
802.211	21603
802.353	21519
802.496	21332
802.638	21313
802.78	21264
802.923	21146
803.065	21085
803.208	20994
803.35	21096
803.492	21218
803.635	21264
803.777	21169
803.919	21161
804.061	21431
804.204	21199
804.346	21028
804.488	20963
804.63	21051
804.773	20979
804.915	21096
805.057	21135
805.199	20975
805.341	21062
805.483	21173
805.626	21070
805.768	20902
805.91	21039
806.052	20960
806.194	20925
806.336	21096
806.478	20948
806.62	20887
806.762	21123
806.904	21203
807.046	21492
807.188	21378
807.33	21348
807.472	21473
807.614	21340
807.756	21336
807.898	21287
808.04	21142
808.182	21268
808.324	21260
808.465	21222
808.607	21443
808.749	21469
808.891	21762
809.033	21835
809.174	21587
809.316	21580
809.458	21511
809.6	21481
809.741	21580
809.883	21504
810.025	21572
810.166	21709
810.308	21606
810.45	21549
810.591	21557
810.733	21272
810.875	21386
811.016	21070
811.158	21055
811.299	21310
811.441	21408
811.582	21412
811.724	21161
811.865	21195
812.007	21348
812.148	21283
812.29	21272
812.431	21405
812.573	21473
812.714	21542
812.855	21622
812.997	21759
813.138	21934
813.279	21835
813.421	21717
813.562	21720
813.703	21439
813.845	21348
813.986	21138
814.127	20960
814.268	20929
814.41	20857
814.551	20887
814.692	20864
814.833	20697
814.974	20773
815.115	20769
815.256	20663
815.397	20606
815.539	20598
815.68	20488
815.821	20362
815.962	20427
816.103	20560
816.244	20358
816.385	20263
816.526	20233
816.666	20168
816.807	20039
816.948	20077
817.089	19921
817.23	19856
817.371	19845
817.512	20020
817.653	19913
817.793	19871
817.934	19944
818.075	19951
818.216	20024
818.356	19925
818.497	19670
818.638	19594
818.778	19609
818.919	19491
819.06	19601
819.2	19674
819.341	19753
819.481	19826
819.622	19978
819.762	20115
819.903	20073
820.043	19871
820.184	19890
820.324	19887
820.465	20039
820.605	19864
820.746	19826
820.886	19746
821.026	19822
821.167	19814
821.307	19925
821.447	19814
821.588	19575
821.728	19597
821.868	19445
822.008	19232
822.149	19369
822.289	19377
822.429	18993
822.569	18985
822.709	18932
822.849	18764
822.99	18772
823.13	18696
823.27	18757
823.41	18623
823.55	18582
823.69	18532
823.83	18616
823.97	18517
824.11	18384
824.25	18327
824.389	18315
824.529	18475
824.669	18330
824.809	18441
824.949	18334
825.089	18414
825.228	18338
825.368	18220
825.508	18277
825.648	18144
825.787	18144
825.927	18194
826.067	18213
826.206	18095
826.346	18026
826.485	18174
826.625	18034
826.765	18292
826.904	18277
827.044	17824
827.183	17901
827.323	17832
827.462	17855
827.601	17805
827.741	17904
827.88	17729
828.02	17623
828.159	17767
828.298	17828
828.437	17824
828.577	17653
828.716	17946
828.855	17786
828.994	17551
829.134	17535
829.273	17585
829.412	17596
829.551	17573
829.69	17566
829.829	17638
829.968	17661
830.107	17657
830.246	17600
830.385	17535
830.524	17490
830.663	17402
830.802	17307
830.941	17193
831.08	17121
831.219	17258
831.357	17162
831.496	17406
831.635	17189
831.774	17128
831.913	17105
832.051	17037
832.19	16961
832.329	17003
832.467	16881
832.606	16847
832.744	16889
832.883	16885
833.022	16809
833.16	16889
833.299	16915
833.437	16812
833.576	16987
833.714	16942
833.852	16908
833.991	16824
834.129	17075
834.267	16904
834.406	16987
834.544	16961
834.682	16854
834.821	16854
834.959	17083
835.097	16946
835.235	16915
835.373	16892
835.511	16942
835.65	16790
835.788	16771
835.926	16645
836.064	16542
836.202	16599
836.34	16778
836.478	16938
836.615	16744
836.753	16881
836.891	16854
837.029	16786
837.167	16786
837.305	16805
837.443	16687
837.58	16653
837.718	16736
837.856	16683
837.993	16675
838.131	16618
838.269	16660
838.406	16599
838.544	16561
838.681	16519
838.819	16318
838.956	16325
839.094	16219
839.231	16295
839.369	16356
839.506	16634
839.643	16421
839.781	16333
839.918	16105
840.055	16280
840.193	16116
840.33	16150
840.467	16188
840.604	16238
840.742	16462
840.879	16078
841.016	16147
841.153	16078
841.29	16261
841.427	16200
841.564	16215
841.701	16230
841.838	16188
841.975	16131
842.112	16116
842.249	16051
842.385	15907
842.522	16097
842.659	16055
842.796	15964
842.933	15998
843.069	15861
843.206	16017
843.343	16055
843.479	16032
843.616	15934
843.752	15705
843.889	15732
844.025	15926
844.162	15781
844.298	15831
844.435	15739
844.571	15694
844.708	15797
844.844	15983
844.98	15922
845.117	15968
845.253	15759
845.389	15732
845.525	15838
845.661	15751
845.798	15603
845.934	15720
846.07	15804
846.206	15720
846.342	15876
846.478	15694
846.614	15481
846.75	15298
846.886	15348
847.022	15511
847.158	15355
847.294	15351
847.429	15370
847.565	15268
847.701	15523
847.837	15131
847.972	15055
848.108	15211
848.244	15142
848.379	14998
848.515	14853
848.65	14929
848.786	14986
848.921	14914
849.057	15032
849.192	14998
849.328	15009
849.463	14899
849.598	14925
849.734	14872
849.869	14800
850.004	14697
850.14	14735
850.275	14663
850.41	14648
850.545	14743
850.68	14640
850.815	14701
850.95	14693
851.085	14925
851.22	14743
851.355	14785
851.49	14625
851.625	14720
851.76	14716
851.895	14590
852.03	14617
852.165	14617
852.299	14735
852.434	14823
852.569	14750
852.703	14735
852.838	14804
852.973	14929
853.107	14880
853.242	14644
853.376	14499
853.511	14446
853.645	14587
853.78	14629
853.914	14575
854.048	14640
854.183	14636
854.317	14655
854.451	14731
854.585	14575
854.72	14473
854.854	14636
854.988	14476
855.122	14495
855.256	14419
855.39	14560
855.524	14518
855.658	14598
855.792	14606
855.926	14552
856.06	14720
856.194	14590
856.327	14549
856.461	14446
856.595	14461
856.729	14564
856.862	14701
856.996	14682
857.13	14617
857.263	14674
857.397	14708
857.53	14552
857.664	14629
857.797	14663
857.931	14720
858.064	14613
858.197	14659
858.331	14598
858.464	14514
858.597	14492
858.731	14495
858.864	14575
858.997	14450
859.13	14613
859.263	14644
859.396	14686
859.529	14602
859.662	14385
859.795	14427
859.928	14659
860.061	14739
860.194	14716
860.327	14484
860.46	14473
860.592	14663
860.725	14712
860.858	14712
860.99	14434
861.123	14427
861.256	14442
861.388	14488
861.521	15104
861.653	14438
861.786	14419
861.918	14339
862.05	14408
862.183	14530
862.315	14590
862.447	14530
862.58	14492
862.712	14412
862.844	14244
862.976	14434
863.108	14377
863.24	14727
863.372	14256
863.504	14358
863.636	14347
863.768	14434
863.9	14362
864.032	14157
864.164	14317
864.296	14324
864.428	14473
864.559	14419
864.691	14480
864.823	14400
864.954	14358
865.086	14339
865.217	14336
865.349	14309
865.48	14332
865.612	14370
865.743	14427
865.875	14358
866.006	14317
866.137	14263
866.269	14229
866.4	14191
866.531	14237
866.662	14256
866.793	14210
866.924	14278
867.055	14332
867.186	14267
867.317	14183
867.448	14199
867.579	14237
867.71	14206
867.841	14229
867.972	14396
868.103	14336
868.233	14408
868.364	14320
868.495	14381
868.625	14522
868.756	14598
868.886	14492
869.017	14575
869.147	14625
869.278	14674
869.408	14602
869.539	14617
869.669	14602
869.799	14541
869.929	14705
870.06	14746
870.19	14872
870.32	14788
870.45	14982
870.58	15005
870.71	14998
870.84	15146
870.97	14899
871.1	14937
871.23	15192
871.36	15222
871.489	15104
871.619	15146
871.749	15245
871.879	15226
872.008	15386
872.138	15222
872.267	15252
872.397	15028
872.526	15051
872.656	14990
872.785	14963
872.915	15199
873.044	15268
873.173	15195
873.303	15211
873.432	15237
873.561	15230
873.69	15237
873.819	15173
873.948	15298
874.077	15199
874.206	15291
874.335	15176
874.464	15325
874.593	15519
874.722	15584
874.851	15633
874.979	15595
875.108	15671
875.237	15507
875.365	15450
875.494	15561
875.623	15610
875.751	15576
875.88	15538
876.008	15705
876.136	15804
876.265	15926
876.393	16185
876.521	16120
876.65	16090
876.778	16044
876.906	15934
877.034	15892
877.162	16025
877.29	15991
877.418	16067
877.546	15934
877.674	16010
877.802	16051
877.93	15949
878.058	15918
878.185	15827
878.313	15926
878.441	16013
878.568	15804
878.696	15838
878.824	16013
878.951	16048
879.079	16192
879.206	16306
879.333	16162
879.461	16109
879.588	16185
879.715	16272
879.842	16413
879.97	16139
880.097	15907
880.224	15816
880.351	15899
880.478	15808
880.605	15804
880.732	15751
880.859	16051
880.986	15854
881.112	15778
881.239	15812
881.366	15637
881.493	15610
881.619	15450
881.746	15466
881.872	15511
881.999	15485
882.125	15466
882.252	15466
882.378	15458
882.505	15637
882.631	15488
882.757	15313
882.883	15424
883.01	15329
883.136	15310
883.262	15127
883.388	15051
883.514	15378
883.64	15260
883.766	15241
883.892	15138
884.018	15169
884.143	15344
884.269	15386
884.395	15093
884.52	15047
884.646	15009
884.772	14960
884.897	14864
885.023	15043
885.148	15051
885.274	15192
885.399	15066
885.524	15100
885.65	15032
885.775	14998
885.9	14937
886.025	15043
886.15	15097
886.275	14914
886.4	14876
886.525	15024
886.65	14899
886.775	14952
886.9	15165
887.025	15207
887.149	15013
887.274	14800
887.399	14792
887.523	14792
887.648	14743
887.773	14720
887.897	14921
888.021	14845
888.146	14785
888.27	14807
888.395	14982
888.519	14861
888.643	14796
888.767	14914
888.891	14796
889.015	14621
889.139	14697
889.263	14750
889.387	14845
889.511	14830
889.635	14773
889.759	14636
889.883	14720
890.006	14712
890.13	14720
890.254	14587
890.377	14606
890.501	14522
890.624	14446
890.748	14465
890.871	14465
890.995	14374
891.118	14328
891.241	14389
891.364	14339
891.488	14480
891.611	14366
891.734	14366
891.857	14393
891.98	14275
892.103	14450
892.226	14438
892.349	14351
892.471	14168
892.594	14351
892.717	14431
892.839	14267
892.962	14370
893.085	14377
893.207	14362
893.33	14320
893.452	14252
893.575	14313
893.697	14434
893.819	14495
893.941	14568
894.064	14602
894.186	14339
894.308	14381
894.43	14473
894.552	14537
894.674	14518
894.796	14396
894.918	14377
895.04	14351
895.161	14552
895.283	14530
895.405	14423
895.526	14476
895.648	14446
895.769	14389
895.891	14594
896.012	14541
896.134	14560
896.255	14492
896.376	14484
896.498	14518
896.619	14575
896.74	14545
896.861	14549
896.982	14933
897.103	15028
897.224	14864
897.345	14864
897.466	14773
897.587	14773
897.708	14971
897.828	14800
897.949	14720
898.07	14583
898.19	14765
898.311	14910
898.431	14807
898.552	14868
898.672	14982
898.792	14967
898.913	14982
899.033	14765
899.153	14773
899.273	14659
899.393	14705
899.513	14720
899.633	14731
899.753	14724
899.873	14781
899.993	14727
900.113	14727
900.232	14876
900.352	14762
900.472	14587
900.591	14594
900.711	14621
900.83	14511
900.95	14708
901.069	14716
901.189	14606
901.308	14259
901.427	14305
901.546	14298
901.665	14396
901.784	14275
901.904	14202
902.023	14187
902.141	13978
902.26	13875
902.379	13902
902.498	13791
902.617	13765
902.735	13936
902.854	13974
902.973	13738
903.091	13567
903.21	13502
903.328	13487
903.446	13453
903.565	13411
903.683	13373
903.801	13331
903.919	13285
904.038	13247
904.156	13285
904.274	13240
904.392	13209
904.51	13126
904.627	13137
904.745	13244
904.863	13274
904.981	12973
905.098	12840
905.216	12932
905.334	12951
905.451	12939
905.569	12806
905.686	12928
905.803	12856
905.921	12719
906.038	12798
906.155	12749
906.272	12635
906.389	12578
906.506	12544
906.623	12399
906.74	12384
906.857	12334
906.974	12403
907.091	12559
907.208	12585
907.324	12445
907.441	12391
907.557	12205
907.674	12254
907.79	12133
907.907	12232
908.023	12311
908.139	12201
908.256	12178
908.372	12163
908.488	12121
908.604	12049
908.72	11874
908.836	11916
908.952	11942
909.068	12041
909.184	12026
909.3	11980
909.415	12026
909.531	11836
909.647	11847
909.762	11733
909.878	11680
909.993	11790
910.108	11802
910.224	11722
910.339	11737
910.454	11680
910.57	11543
910.685	11520
910.8	11824
910.915	11695
911.03	11573
911.145	11455
911.259	11436
911.374	11509
911.489	11459
911.604	11334
911.718	11193
911.833	11220
911.947	11052
912.062	10987
912.176	11201
912.291	11201
912.405	11212
912.519	11391
912.633	11330
912.748	11258
912.862	11193
912.976	11075
913.09	11037
913.204	10949
913.318	11090
913.431	11159
913.545	11197
913.659	11223
913.772	11033
913.886	11010
914	10896
914.113	10965
914.226	11048
914.34	11052
914.453	10961
914.566	10976
914.68	10984
914.793	10850
914.906	10740
915.019	10637
915.132	10584
915.245	10618
915.358	10710
915.47	10694
915.583	10706
915.696	10767
915.809	10847
915.921	10889
916.034	10675
916.146	10702
916.259	10634
916.371	10725
916.483	10683
916.595	10577
916.708	10592
916.82	10603
916.932	10634
917.044	10588
917.156	10656
917.268	10474
917.38	10546
917.491	10565
917.603	10519
917.715	10516
917.826	10660
917.938	10451
918.049	10402
918.161	10550
918.272	10664
918.384	10660
918.495	10550
918.606	10333
918.717	10303
918.828	10375
918.939	10322
919.05	10265
919.161	10382
919.272	10200
919.383	10242
919.494	10455
919.604	10656
919.715	10356
919.826	10341
919.936	10360
920.047	10440
920.157	10432
920.267	10615
920.378	10356
920.488	10440
920.598	10519
920.708	10660
920.818	10565
920.928	10577
921.038	10771
921.148	10691
921.258	10516
921.368	10352
921.477	10265
921.587	10192
921.697	10234
921.806	10242
921.916	10109
922.025	10055
922.134	9922
922.244	9926
922.353	10078
922.462	9793
922.571	9766
922.68	9682
922.789	9728
922.898	9648
923.007	9545
923.116	9557
923.224	9584
923.333	9614
923.442	9542
923.55	9519
923.659	9473
923.767	9663
923.876	9523
923.984	9595
924.092	9389
924.201	9492
924.309	9526
924.417	9530
924.525	9435
924.633	9466
924.741	10348
924.849	9249
924.956	9416
925.064	9291
925.172	9218
925.279	9233
925.387	9241
925.494	9268
925.602	9370
925.709	9351
925.816	9249
925.924	9237
926.031	9408
926.138	9298
926.245	9294
926.352	9237
926.459	9287
926.566	9344
926.673	9211
926.779	9150
926.886	9116
926.993	9058
927.099	8941
927.206	8941
927.312	8967
927.419	9032
927.525	9009
927.631	9055
927.737	8971
927.843	8861
927.95	8838
928.056	8891
928.162	8853
928.267	8967
928.373	9462
928.479	9051
928.585	8769
928.69	8929
928.796	8880
928.901	8838
929.007	8720
929.112	8777
929.218	8739
929.323	8659
929.428	8716
929.533	8811
929.638	8575
929.743	8712
929.848	8716
929.953	8720
930.058	8556
930.163	8393
930.267	8412
930.372	8621
930.477	8446
930.581	8727
930.685	8518
930.79	8385
930.894	8495
930.998	8377
931.103	8511
931.207	8256
931.311	8107
931.415	8088
931.519	7902
931.623	7894
