Data from test_V78500241_99.txt Node
Date: Fri Mar 25 14:34:24 CST 2022
User: usil
Spectrometer: V785-0024
Trigger mode: 0
Integration Time (sec): 4.000000E-1
Scans to average: 1
Nonlinearity correction enabled: false
Boxcar width: 0
Storing dark spectrum: false
XAxis mode: Wavelengths
Number of Pixels in Spectrum: 1024
>>>>>Begin Spectral Data<<<<<
801.071	29094
801.214	29113
801.356	28820
801.499	28740
801.641	28687
801.783	28679
801.926	28577
802.068	28516
802.211	28398
802.353	28436
802.496	28325
802.638	28371
802.78	28150
802.923	28223
803.065	28036
803.208	28025
803.35	28097
803.492	28329
803.635	28299
803.777	28284
803.919	28352
804.061	28706
804.204	28291
804.346	28207
804.488	28284
804.63	28192
804.773	28166
804.915	28215
805.057	28386
805.199	28424
805.341	28440
805.483	28554
805.626	28508
805.768	28337
805.91	28432
806.052	28577
806.194	28344
806.336	28797
806.478	28664
806.62	28504
806.762	28850
806.904	28938
807.046	29246
807.188	29155
807.33	29421
807.472	29379
807.614	29307
807.756	29482
807.898	29528
808.04	29707
808.182	30117
808.324	30513
808.465	30932
808.607	31460
808.749	31928
808.891	32111
809.033	32237
809.174	31856
809.316	31377
809.458	31023
809.6	30460
809.741	30300
809.883	29916
810.025	29977
810.166	29756
810.308	29680
810.45	29551
810.591	29463
810.733	29102
810.875	29067
811.016	29003
811.158	28877
811.299	29117
811.441	28972
811.582	29014
811.724	28972
811.865	28930
812.007	28805
812.148	28850
812.29	28831
812.431	29037
812.573	29128
812.714	29242
812.855	29334
812.997	29505
813.138	29417
813.279	29311
813.421	29398
813.562	29254
813.703	29159
813.845	28877
813.986	28713
814.127	28531
814.268	28360
814.41	28344
814.551	28466
814.692	28417
814.833	28196
814.974	28310
815.115	28234
815.256	28200
815.397	28268
815.539	28109
815.68	28158
815.821	28173
815.962	28120
816.103	28169
816.244	27831
816.385	27785
816.526	27781
816.666	27587
816.807	27363
816.948	27458
817.089	27389
817.23	27469
817.371	27439
817.512	27412
817.653	27435
817.793	27252
817.934	27496
818.075	27519
818.216	27553
818.356	27386
818.497	27340
818.638	27096
818.778	27131
818.919	27135
819.06	27154
819.2	27226
819.341	27355
819.481	27260
819.622	27568
819.762	27622
819.903	27576
820.043	27405
820.184	27355
820.324	27363
820.465	27405
820.605	27401
820.746	27260
820.886	27176
821.026	27226
821.167	27230
821.307	27500
821.447	27157
821.588	27119
821.728	26982
821.868	26762
822.008	26727
822.149	26701
822.289	26674
822.429	26438
822.569	26389
822.709	26415
822.849	26195
822.99	26138
823.13	26043
823.27	26100
823.41	25982
823.55	25750
823.69	25875
823.83	25860
823.97	25822
824.11	25620
824.25	25662
824.389	25563
824.529	25845
824.669	25666
824.809	25647
824.949	25788
825.089	25879
825.228	25750
825.368	25537
825.508	25441
825.648	25521
825.787	25514
825.927	25499
826.067	25396
826.206	25377
826.346	25373
826.485	25651
826.625	25441
826.765	25449
826.904	25476
827.044	25194
827.183	25187
827.323	25084
827.462	25171
827.601	25171
827.741	25072
827.88	25133
828.02	25015
828.159	25118
828.298	25118
828.437	25213
828.577	25110
828.716	25061
828.855	24920
828.994	24795
829.134	24798
829.273	24806
829.412	24760
829.551	24795
829.69	24764
829.829	24882
829.968	24741
830.107	24871
830.246	24856
830.385	24722
830.524	24623
830.663	24540
830.802	24502
830.941	24376
831.08	24285
831.219	24380
831.357	24410
831.496	24585
831.635	24178
831.774	24311
831.913	24277
832.051	24190
832.19	24144
832.329	24178
832.467	24098
832.606	24030
832.744	24011
832.883	24174
833.022	24011
833.16	23996
833.299	24106
833.437	24216
833.576	24159
833.714	24045
833.852	24133
833.991	24060
834.129	24239
834.267	24239
834.406	24098
834.544	24178
834.682	24079
834.821	24194
834.959	24239
835.097	24003
835.235	24003
835.373	24102
835.511	24041
835.65	23790
835.788	23969
835.926	23741
836.064	23714
836.202	23676
836.34	23832
836.478	23843
836.615	23726
836.753	23836
836.891	23821
837.029	23802
837.167	23790
837.305	23733
837.443	23684
837.58	23623
837.718	23646
837.856	23581
837.993	23501
838.131	23722
838.269	23570
838.406	23611
838.544	23368
838.681	23250
838.819	23132
838.956	23113
839.094	22984
839.231	23041
839.369	23292
839.506	23429
839.643	23261
839.781	23014
839.918	22987
840.055	23014
840.193	22850
840.33	22801
840.467	22843
840.604	22980
840.742	23162
840.879	22763
841.016	22881
841.153	22774
841.29	22938
841.427	22896
841.564	22965
841.701	22889
841.838	22767
841.975	22744
842.112	22786
842.249	22653
842.385	22538
842.522	22782
842.659	22630
842.796	22622
842.933	22672
843.069	22478
843.206	22527
843.343	22694
843.479	22622
843.616	22493
843.752	22470
843.889	22466
844.025	22542
844.162	22360
844.298	22535
844.435	22405
844.571	22398
844.708	22538
844.844	22615
844.98	22694
845.117	22752
845.253	22767
845.389	22839
845.525	23242
845.661	24114
845.798	24958
845.934	25822
846.07	26058
846.206	25841
846.342	25472
846.478	24448
846.614	23505
846.75	22668
846.886	22527
847.022	22329
847.158	22078
847.294	22029
847.429	21884
847.565	21907
847.701	22109
847.837	21667
847.972	21401
848.108	21618
848.244	21603
848.379	21458
848.515	21359
848.65	21332
848.786	21348
848.921	21397
849.057	21466
849.192	21405
849.328	21416
849.463	21313
849.598	21199
849.734	21310
849.869	21169
850.004	21119
850.14	21169
850.275	21047
850.41	21020
850.545	20967
850.68	21100
850.815	20960
850.95	21112
851.085	21165
851.22	21005
851.355	21013
851.49	21066
851.625	20979
851.76	21024
851.895	20921
852.03	20994
852.165	21039
852.299	21055
852.434	21066
852.569	21104
852.703	21005
852.838	21062
852.973	21176
853.107	21195
853.242	21005
853.376	20842
853.511	20727
853.645	20815
853.78	21020
853.914	20899
854.048	20815
854.183	20838
854.317	20857
854.451	20998
854.585	20925
854.72	20918
854.854	20956
854.988	20796
855.122	20929
855.256	20823
855.39	20769
855.524	20804
855.658	20819
855.792	20891
855.926	20872
856.06	20906
856.194	20895
856.327	20754
856.461	20773
856.595	20804
856.729	20773
856.862	20925
856.996	20857
857.13	20849
857.263	20880
857.397	20910
857.53	20758
857.664	20788
857.797	20758
857.931	20887
858.064	20792
858.197	20826
858.331	20739
858.464	20697
858.597	20549
858.731	20754
858.864	20636
858.997	20788
859.13	20785
859.263	20674
859.396	20918
859.529	20800
859.662	20842
859.795	20727
859.928	20765
860.061	20826
860.194	20963
860.327	20689
860.46	20735
860.592	20777
860.725	20895
860.858	20811
860.99	20693
861.123	20682
861.256	20667
861.388	20697
861.521	21340
861.653	20617
861.786	20495
861.918	20640
862.05	20632
862.183	20724
862.315	20910
862.447	20849
862.58	20762
862.712	20499
862.844	20469
862.976	20507
863.108	20575
863.24	20724
863.372	20351
863.504	20336
863.636	20381
863.768	20423
863.9	20442
864.032	20309
864.164	20381
864.296	20358
864.428	20457
864.559	20396
864.691	20446
864.823	20336
864.954	20366
865.086	20366
865.217	20377
865.349	20210
865.48	20362
865.612	20320
865.743	20358
865.875	20438
866.006	20263
866.137	20343
866.269	20294
866.4	20343
866.531	20347
866.662	20278
866.793	20240
866.924	20229
867.055	20240
867.186	20282
867.317	20191
867.448	20084
867.579	20153
867.71	20210
867.841	20199
867.972	20252
868.103	20214
868.233	20229
868.364	20191
868.495	20271
868.625	20476
868.756	20499
868.886	20328
869.017	20419
869.147	20533
869.278	20590
869.408	20450
869.539	20503
869.669	20537
869.799	20431
869.929	20381
870.06	20507
870.19	20773
870.32	20727
870.45	20785
870.58	20857
870.71	20937
870.84	20982
870.97	20902
871.1	20861
871.23	21081
871.36	20963
871.489	20963
871.619	20929
871.749	21017
871.879	21089
872.008	21218
872.138	20971
872.267	20902
872.397	20990
872.526	20918
872.656	20937
872.785	20906
872.915	21013
873.044	21077
873.173	21195
873.303	21211
873.432	21233
873.561	21272
873.69	21135
873.819	21176
873.948	21150
874.077	21294
874.206	21176
874.335	21192
874.464	21332
874.593	21462
874.722	21401
874.851	21481
874.979	21435
875.108	21462
875.237	21534
875.365	21283
875.494	21519
875.623	21492
875.751	21450
875.88	21496
876.008	21622
876.136	21694
876.265	21850
876.393	21869
876.521	21899
876.65	22070
876.778	21903
876.906	21846
877.034	21892
877.162	21819
877.29	21850
877.418	21884
877.546	21895
877.674	21816
877.802	21930
877.93	21956
878.058	22010
878.185	21869
878.313	21998
878.441	22162
878.568	22025
878.696	22230
878.824	22280
878.951	22592
879.079	22793
879.206	23265
879.333	23395
879.461	23493
879.588	23897
879.715	23927
879.842	23775
879.97	23414
880.097	22965
880.224	22687
880.351	22478
880.478	22352
880.605	22120
880.732	22188
880.859	22367
880.986	22143
881.112	22219
881.239	21949
881.366	21873
881.493	21842
881.619	21751
881.746	21869
881.872	21747
881.999	21724
882.125	21671
882.252	21698
882.378	21720
882.505	21854
882.631	21656
882.757	21530
882.883	21641
883.01	21500
883.136	21526
883.262	21363
883.388	21416
883.514	21519
883.64	21462
883.766	21359
883.892	21283
884.018	21348
884.143	21264
884.269	21542
884.395	21169
884.52	21093
884.646	21214
884.772	21199
884.897	20948
885.023	21214
885.148	21207
885.274	21298
885.399	21180
885.524	21070
885.65	21207
885.775	21104
885.9	20994
886.025	21150
886.15	20963
886.275	20883
886.4	20853
886.525	20830
886.65	20765
886.775	20743
886.9	21051
887.025	21043
887.149	20838
887.274	20625
887.399	20564
887.523	20613
887.648	20507
887.773	20469
887.897	20636
888.021	20705
888.146	20473
888.27	20678
888.395	20712
888.519	20507
888.643	20423
888.767	20465
888.891	20385
889.015	20157
889.139	20370
889.263	20301
889.387	20358
889.511	20446
889.635	20389
889.759	20176
889.883	20233
890.006	20195
890.13	20267
890.254	20161
890.377	20103
890.501	19921
890.624	19967
890.748	19974
890.871	19909
890.995	19780
891.118	19791
891.241	19807
891.364	19795
891.488	19841
891.611	19719
891.734	19757
891.857	19784
891.98	19811
892.103	19841
892.226	19791
892.349	19704
892.471	19571
892.594	19670
892.717	19563
892.839	19563
892.962	19689
893.085	19677
893.207	19578
893.33	19487
893.452	19506
893.575	19601
893.697	19559
893.819	19715
893.941	19784
894.064	19658
894.186	19434
894.308	19533
894.43	19632
894.552	19723
894.674	19742
894.796	19422
894.918	19449
895.04	19529
895.161	19613
895.283	19552
895.405	19521
895.526	19514
895.648	19495
895.769	19742
895.891	19510
896.012	19605
896.134	19632
896.255	19552
896.376	19571
896.498	19601
896.619	19681
896.74	19696
896.861	19647
896.982	19970
897.103	20161
897.224	19890
897.345	19818
897.466	19700
897.587	19860
897.708	20005
897.828	19753
897.949	19685
898.07	19704
898.19	19757
898.311	19765
898.431	19734
898.552	19757
898.672	19852
898.792	19845
898.913	19750
899.033	19666
899.153	19464
899.273	19480
899.393	19533
899.513	19518
899.633	19491
899.753	19518
899.873	19384
899.993	19594
900.113	19358
900.232	19445
900.352	19392
900.472	19354
900.591	19282
900.711	19381
900.83	19171
900.95	19441
901.069	19415
901.189	19202
901.308	19042
901.427	18951
901.546	18875
901.665	18985
901.784	18905
901.904	18650
902.023	18635
902.141	18559
902.26	18365
902.379	18498
902.498	18464
902.617	18353
902.735	18399
902.854	18361
902.973	18197
903.091	18049
903.21	17942
903.328	18079
903.446	17847
903.565	17840
903.683	17813
903.801	17764
903.919	17764
904.038	17714
904.156	17684
904.274	17642
904.392	17630
904.51	17585
904.627	17642
904.745	17589
904.863	17562
904.981	17455
905.098	17242
905.216	17143
905.334	17334
905.451	17246
905.569	17231
905.686	17235
905.803	17258
905.921	17048
906.038	17223
906.155	17090
906.272	16995
906.389	17010
906.506	16892
906.623	16782
906.74	16717
906.857	16641
906.974	16668
907.091	16858
907.208	16869
907.324	16892
907.441	16717
907.557	16500
907.674	16565
907.79	16341
907.907	16394
908.023	16569
908.139	16493
908.256	16329
908.372	16390
908.488	16204
908.604	16109
908.72	16185
908.836	16177
908.952	16078
909.068	16234
909.184	16291
909.3	16002
909.415	16139
909.531	16154
909.647	15869
909.762	15812
909.878	15755
909.993	15827
910.108	15823
910.224	15892
910.339	15873
910.454	15606
910.57	15633
910.685	15591
910.8	15869
910.915	15903
911.03	15625
911.145	15382
911.259	15507
911.374	15397
911.489	15393
911.604	15237
911.718	15161
911.833	15310
911.947	15104
912.062	15093
912.176	15230
912.291	15154
912.405	15123
912.519	15317
912.633	15275
912.748	15127
912.862	15127
912.976	14990
913.09	14872
913.204	14929
913.318	14952
913.431	15036
913.545	15070
913.659	15085
913.772	14998
913.886	14842
914	14739
914.113	14937
914.226	14982
914.34	14758
914.453	14857
914.566	14800
914.68	14659
914.793	14678
914.906	14583
915.019	14503
915.132	14400
915.245	14526
915.358	14404
915.47	14469
915.583	14393
915.696	14431
915.809	14568
915.921	14590
916.034	14415
916.146	14317
916.259	14309
916.371	14450
916.483	14423
916.595	14233
916.708	14362
916.82	14267
916.932	14191
917.044	14229
917.156	14145
917.268	14054
917.38	14031
917.491	14176
917.603	14138
917.715	14172
917.826	14149
917.938	14024
918.049	13955
918.161	14050
918.272	14206
918.384	14161
918.495	14005
918.606	13940
918.717	13814
918.828	13799
918.939	13769
919.05	13734
919.161	13860
919.272	13677
919.383	13689
919.494	13803
919.604	14054
919.715	13811
919.826	13811
919.936	13693
920.047	13879
920.157	13841
920.267	13959
920.378	13803
920.488	13742
920.598	13940
920.708	14119
920.818	13894
920.928	13868
921.038	14024
921.148	13951
921.258	13765
921.368	13605
921.477	13472
921.587	13540
921.697	13324
921.806	13563
921.916	13407
922.025	13251
922.134	13198
922.244	13225
922.353	13190
922.462	13118
922.571	13012
922.68	12875
922.789	12844
922.898	12825
923.007	12745
923.116	12806
923.224	12856
923.333	12859
923.442	12734
923.55	12719
923.659	12768
923.767	12631
923.876	12627
923.984	12692
924.092	12578
924.201	12498
924.309	12525
924.417	12547
924.525	12506
924.633	12525
924.741	13457
924.849	12300
924.956	12380
925.064	12357
925.172	12311
925.279	12239
925.387	12277
925.494	12232
925.602	12342
925.709	12243
925.816	12171
925.924	12235
926.031	12372
926.138	12292
926.245	12175
926.352	12205
926.459	12281
926.566	12289
926.673	12159
926.779	12030
926.886	12106
926.993	11889
927.099	11931
927.206	11756
927.312	11885
927.419	11935
927.525	11817
927.631	11878
927.737	11707
927.843	11718
927.95	11608
928.056	11718
928.162	11665
928.267	11726
928.373	12239
928.479	11756
928.585	11501
928.69	11684
928.796	11676
928.901	11627
929.007	11372
929.112	11539
929.218	11512
929.323	11402
929.428	11490
929.533	11558
929.638	11402
929.743	11345
929.848	11334
929.953	11398
930.058	11280
930.163	11136
930.267	11162
930.372	11303
930.477	11041
930.581	11216
930.685	11117
930.79	10934
930.894	11045
930.998	10930
931.103	11052
931.207	10687
931.311	10702
931.415	10512
931.519	10348
931.623	10394
