Data from test_V78500241_258.txt Node
Date: Fri Mar 25 14:35:31 CST 2022
User: usil
Spectrometer: V785-0024
Trigger mode: 0
Integration Time (sec): 4.000000E-1
Scans to average: 1
Nonlinearity correction enabled: false
Boxcar width: 0
Storing dark spectrum: false
XAxis mode: Wavelengths
Number of Pixels in Spectrum: 1024
>>>>>Begin Spectral Data<<<<<
801.071	27622
801.214	27424
801.356	27104
801.499	27150
801.641	26982
801.783	26986
801.926	26872
802.068	26735
802.211	26670
802.353	26640
802.496	26492
802.638	26492
802.78	26552
802.923	26381
803.065	26180
803.208	26385
803.35	26453
803.492	26431
803.635	26518
803.777	26495
803.919	26541
804.061	26800
804.204	26442
804.346	26199
804.488	26469
804.63	26389
804.773	26259
804.915	26324
805.057	26507
805.199	26381
805.341	26408
805.483	26526
805.626	26328
805.768	26473
805.91	26511
806.052	26689
806.194	26431
806.336	26655
806.478	26526
806.62	26374
806.762	26499
806.904	26655
807.046	26887
807.188	26708
807.33	26815
807.472	26815
807.614	26883
807.756	26826
807.898	26686
808.04	26602
808.182	26720
808.324	26762
808.465	26674
808.607	26872
808.749	26963
808.891	27226
809.033	27313
809.174	27135
809.316	27192
809.458	27112
809.6	27058
809.741	27043
809.883	27062
810.025	27119
810.166	27154
810.308	27283
810.45	27020
810.591	27005
810.733	27024
810.875	26857
811.016	26876
811.158	26598
811.299	27017
811.441	26921
811.582	26872
811.724	26815
811.865	26830
812.007	26811
812.148	26724
812.29	26861
812.431	26998
812.573	27028
812.714	27279
812.855	27325
812.997	27359
813.138	27492
813.279	27298
813.421	27313
813.562	27214
813.703	27009
813.845	26918
813.986	26663
814.127	26629
814.268	26358
814.41	26256
814.551	26522
814.692	26522
814.833	26393
814.974	26294
815.115	26453
815.256	26294
815.397	26100
815.539	26172
815.68	26206
815.821	26096
815.962	26107
816.103	26149
816.244	25959
816.385	25833
816.526	25822
816.666	25708
816.807	25537
816.948	25575
817.089	25594
817.23	25567
817.371	25510
817.512	25384
817.653	25525
817.793	25514
817.934	25674
818.075	25601
818.216	25411
818.356	25320
818.497	25259
818.638	25187
818.778	25285
818.919	25244
819.06	25179
819.2	25297
819.341	25415
819.481	25285
819.622	25506
819.762	25689
819.903	25708
820.043	25449
820.184	25468
820.324	25674
820.465	25540
820.605	25422
820.746	25335
820.886	25350
821.026	25339
821.167	25301
821.307	25552
821.447	25350
821.588	25232
821.728	25206
821.868	24932
822.008	24863
822.149	24863
822.289	24757
822.429	24566
822.569	24448
822.709	24414
822.849	24323
822.99	24323
823.13	24232
823.27	24125
823.41	24087
823.55	23965
823.69	24022
823.83	24125
823.97	24053
824.11	23950
824.25	23893
824.389	23809
824.529	23935
824.669	23893
824.809	23961
824.949	23832
825.089	23977
825.228	23885
825.368	23745
825.508	23676
825.648	23608
825.787	23726
825.927	23691
826.067	23615
826.206	23642
826.346	23672
826.485	23642
826.625	23463
826.765	23680
826.904	23809
827.044	23421
827.183	23353
827.323	23448
827.462	23337
827.601	23284
827.741	23220
827.88	23296
828.02	23212
828.159	23197
828.298	23334
828.437	23250
828.577	23121
828.716	23417
828.855	23227
828.994	22961
829.134	22995
829.273	23140
829.412	22934
829.551	23056
829.69	23048
829.829	22995
829.968	23014
830.107	23071
830.246	22873
830.385	22858
830.524	22824
830.663	22812
830.802	22694
830.941	22523
831.08	22554
831.219	22615
831.357	22721
831.496	22637
831.635	22535
831.774	22360
831.913	22428
832.051	22306
832.19	22432
832.329	22390
832.467	22226
832.606	22257
832.744	22181
832.883	22253
833.022	22150
833.16	22162
833.299	22211
833.437	22120
833.576	22181
833.714	22284
833.852	22265
833.991	22226
834.129	22295
834.267	22295
834.406	22306
834.544	22211
834.682	22181
834.821	22032
834.959	22363
835.097	22204
835.235	22200
835.373	22211
835.511	22169
835.65	22139
835.788	21945
835.926	21903
836.064	21850
836.202	21846
836.34	22131
836.478	22139
836.615	22067
836.753	22116
836.891	22124
837.029	22139
837.167	21907
837.305	21873
837.443	21888
837.58	21960
837.718	21987
837.856	21789
837.993	21819
838.131	21728
838.269	21614
838.406	21747
838.544	21625
838.681	21462
838.819	21481
838.956	21325
839.094	21287
839.231	21332
839.369	21530
839.506	21671
839.643	21507
839.781	21241
839.918	21252
840.055	21237
840.193	21252
840.33	21188
840.467	21195
840.604	21214
840.742	21466
840.879	21131
841.016	21127
841.153	21085
841.29	21241
841.427	21165
841.564	21283
841.701	21268
841.838	21184
841.975	21127
842.112	21013
842.249	21001
842.385	20971
842.522	21214
842.659	20804
842.796	20777
842.933	20880
843.069	20956
843.206	20849
843.343	20864
843.479	20845
843.616	20956
843.752	20701
843.889	20762
844.025	20750
844.162	20727
844.298	20670
844.435	20686
844.571	20674
844.708	20689
844.844	20918
844.98	20788
845.117	20838
845.253	20686
845.389	20533
845.525	20537
845.661	20621
845.798	20503
845.934	20655
846.07	20594
846.206	20655
846.342	20686
846.478	20598
846.614	20225
846.75	20096
846.886	20149
847.022	20244
847.158	20214
847.294	20130
847.429	20024
847.565	20157
847.701	20259
847.837	19803
847.972	19928
848.108	19978
848.244	19898
848.379	19750
848.515	19685
848.65	19666
848.786	19658
848.921	19681
849.057	19788
849.192	19704
849.328	19708
849.463	19666
849.598	19578
849.734	19601
849.869	19510
850.004	19419
850.14	19434
850.275	19301
850.41	19289
850.545	19308
850.68	19411
850.815	19381
850.95	19384
851.085	19605
851.22	19445
851.355	19392
851.49	19282
851.625	19396
851.76	19415
851.895	19396
852.03	19324
852.165	19316
852.299	19373
852.434	19464
852.569	19358
852.703	19365
852.838	19567
852.973	19525
853.107	19514
853.242	19400
853.376	19194
853.511	19209
853.645	19221
853.78	19240
853.914	19278
854.048	19194
854.183	19266
854.317	19137
854.451	19400
854.585	19156
854.72	19198
854.854	19213
854.988	19145
855.122	19225
855.256	19061
855.39	19221
855.524	19270
855.658	19282
855.792	19236
855.926	19076
856.06	19244
856.194	19206
856.327	19194
856.461	19118
856.595	19133
856.729	19183
856.862	19278
856.996	19198
857.13	19358
857.263	19392
857.397	19164
857.53	19141
857.664	19175
857.797	19251
857.931	19285
858.064	19213
858.197	19285
858.331	19171
858.464	19019
858.597	19118
858.731	19145
858.864	19145
858.997	19099
859.13	19206
859.263	19148
859.396	19278
859.529	19133
859.662	19031
859.795	19331
859.928	19202
860.061	19365
860.194	19293
860.327	19209
860.46	19164
860.592	19129
860.725	19263
860.858	19255
860.99	19129
861.123	19031
861.256	19133
861.388	19179
861.521	19738
861.653	19133
861.786	19042
861.918	19038
862.05	19133
862.183	19129
862.315	19255
862.447	19282
862.58	19141
862.712	18981
862.844	19012
862.976	18943
863.108	19065
863.24	19278
863.372	18837
863.504	18916
863.636	18791
863.768	19004
863.9	18890
864.032	18764
864.164	18848
864.296	18837
864.428	18962
864.559	18924
864.691	18939
864.823	18943
864.954	18886
865.086	18913
865.217	18768
865.349	18734
865.48	18916
865.612	18787
865.743	18947
865.875	18863
866.006	18654
866.137	18825
866.269	18810
866.4	18829
866.531	18696
866.662	18642
866.793	18825
866.924	18810
867.055	18768
867.186	18745
867.317	18764
867.448	18608
867.579	18779
867.71	18604
867.841	18608
867.972	18787
868.103	18817
868.233	18825
868.364	18802
868.495	18814
868.625	18943
868.756	19080
868.886	18886
869.017	18993
869.147	19019
869.278	19114
869.408	18958
869.539	19012
869.669	19122
869.799	18977
869.929	19042
870.06	19076
870.19	19278
870.32	19141
870.45	19365
870.58	19441
870.71	19468
870.84	19419
870.97	19388
871.1	19270
871.23	19487
871.36	19480
871.489	19434
871.619	19502
871.749	19609
871.879	19499
872.008	19693
872.138	19578
872.267	19525
872.397	19434
872.526	19377
872.656	19373
872.785	19434
872.915	19567
873.044	19651
873.173	19575
873.303	19685
873.432	19609
873.561	19715
873.69	19605
873.819	19575
873.948	19685
874.077	19559
874.206	19677
874.335	19605
874.464	19731
874.593	19883
874.722	19894
874.851	19936
874.979	19909
875.108	19856
875.237	19860
875.365	19799
875.494	19826
875.623	19871
875.751	19856
875.88	19902
876.008	19932
876.136	20050
876.265	20218
876.393	20393
876.521	20320
876.65	20301
876.778	20290
876.906	20404
877.034	20157
877.162	20183
877.29	20077
877.418	20374
877.546	20259
877.674	20225
877.802	20214
877.93	20240
878.058	20161
878.185	20043
878.313	20100
878.441	20286
878.568	20149
878.696	20153
878.824	20309
878.951	20305
879.079	20442
879.206	20629
879.333	20530
879.461	20473
879.588	20347
879.715	20492
879.842	20629
879.97	20427
880.097	20138
880.224	20202
880.351	20065
880.478	20134
880.605	20107
880.732	20126
880.859	20389
880.986	20183
881.112	20119
881.239	19909
881.366	19902
881.493	19788
881.619	19769
881.746	19780
881.872	19685
881.999	19700
882.125	19845
882.252	19700
882.378	19780
882.505	19837
882.631	19670
882.757	19495
882.883	19506
883.01	19445
883.136	19384
883.262	19415
883.388	19350
883.514	19381
883.64	19594
883.766	19354
883.892	19232
884.018	19346
884.143	19285
884.269	19540
884.395	19091
884.52	19148
884.646	19232
884.772	19023
884.897	18973
885.023	19110
885.148	19206
885.274	19320
885.399	19320
885.524	19110
885.65	19118
885.775	19118
885.9	19103
886.025	19164
886.15	19152
886.275	19023
886.4	18966
886.525	19065
886.65	18935
886.775	18985
886.9	19282
887.025	19293
887.149	19076
887.274	18867
887.399	18920
887.523	18871
887.648	18817
887.773	18814
887.897	18989
888.021	18909
888.146	18909
888.27	18935
888.395	19000
888.519	18943
888.643	18909
888.767	18833
888.891	18802
889.015	18631
889.139	18696
889.263	18661
889.387	18833
889.511	18840
889.635	18821
889.759	18642
889.883	18677
890.006	18677
890.13	18726
890.254	18498
890.377	18601
890.501	18445
890.624	18437
890.748	18418
890.871	18395
890.995	18144
891.118	18304
891.241	18205
891.364	18323
891.488	18353
891.611	18304
891.734	18292
891.857	18270
891.98	18205
892.103	18266
892.226	18213
892.349	18106
892.471	18148
892.594	18136
892.717	18136
892.839	18186
892.962	18079
893.085	18201
893.207	18296
893.33	18087
893.452	18053
893.575	18296
893.697	18174
893.819	18403
893.941	18410
894.064	18251
894.186	18171
894.308	18102
894.43	18216
894.552	18292
894.674	18289
894.796	18038
894.918	18235
895.04	18152
895.161	18205
895.283	18220
895.405	18053
895.526	18194
895.648	18102
895.769	18216
895.891	18281
896.012	18247
896.134	18342
896.255	18186
896.376	18232
896.498	18380
896.619	18247
896.74	18357
896.861	18380
896.982	18612
897.103	18669
897.224	18612
897.345	18528
897.466	18433
897.587	18601
897.708	18566
897.828	18486
897.949	18467
898.07	18330
898.19	18441
898.311	18620
898.431	18467
898.552	18540
898.672	18593
898.792	18532
898.913	18445
899.033	18334
899.153	18315
899.273	18262
899.393	18273
899.513	18235
899.633	18270
899.753	18292
899.873	18281
899.993	18167
900.113	18304
900.232	18197
900.352	18114
900.472	18129
900.591	18007
900.711	18106
900.83	18091
900.95	18209
901.069	18083
901.189	17961
901.308	17802
901.427	17779
901.546	17745
901.665	17786
901.784	17737
901.904	17589
902.023	17471
902.141	17242
902.26	17254
902.379	17368
902.498	17200
902.617	17124
902.735	17307
902.854	17216
902.973	17079
903.091	16820
903.21	16946
903.328	16908
903.446	16793
903.565	16713
903.683	16748
903.801	16565
903.919	16683
904.038	16626
904.156	16447
904.274	16588
904.392	16421
904.51	16474
904.627	16497
904.745	16523
904.863	16554
904.981	16173
905.098	16082
905.216	16177
905.334	16230
905.451	16196
905.569	16082
905.686	16188
905.803	16143
905.921	15922
906.038	15998
906.155	15945
906.272	15709
906.389	15903
906.506	15701
906.623	15610
906.74	15603
906.857	15526
906.974	15629
907.091	15663
907.208	15793
907.324	15713
907.441	15580
907.557	15420
907.674	15397
907.79	15367
907.907	15367
908.023	15447
908.139	15321
908.256	15348
908.372	15188
908.488	15291
908.604	15081
908.72	15043
908.836	15146
908.952	15024
909.068	15165
909.184	15222
909.3	15039
909.415	15135
909.531	15058
909.647	14823
909.762	14716
909.878	14693
909.993	14785
910.108	14807
910.224	14708
910.339	14731
910.454	14648
910.57	14610
910.685	14480
910.8	14727
910.915	14678
911.03	14625
911.145	14377
911.259	14419
911.374	14374
911.489	14252
911.604	14256
911.718	14214
911.833	14153
911.947	14138
912.062	13951
912.176	14107
912.291	14031
912.405	14100
912.519	14244
912.633	14366
912.748	14164
912.862	14100
912.976	14024
913.09	13868
913.204	13894
913.318	14008
913.431	14065
913.545	14020
913.659	14172
913.772	13936
913.886	13830
914	13788
914.113	13902
914.226	13928
914.34	13856
914.453	13696
914.566	13932
914.68	13677
914.793	13715
914.906	13567
915.019	13472
915.132	13392
915.245	13426
915.358	13460
915.47	13441
915.583	13556
915.696	13400
915.809	13521
915.921	13643
916.034	13415
916.146	13400
916.259	13396
916.371	13445
916.483	13480
916.595	13228
916.708	13388
916.82	13335
916.932	13266
917.044	13270
917.156	13247
917.268	13126
917.38	13221
917.491	13202
917.603	13118
917.715	13175
917.826	13240
917.938	13050
918.049	13004
918.161	13114
918.272	13209
918.384	13198
918.495	13126
918.606	13008
918.717	12970
918.828	12954
918.939	12924
919.05	12783
919.161	12973
919.272	12768
919.383	12779
919.494	12962
919.604	13008
919.715	12890
919.826	12779
919.936	12833
920.047	12951
920.157	12981
920.267	13187
920.378	12863
920.488	12905
920.598	13110
920.708	13194
920.818	13069
920.928	13012
921.038	13156
921.148	13152
921.258	12894
921.368	12734
921.477	12654
921.587	12635
921.697	12513
921.806	12681
921.916	12566
922.025	12391
922.134	12289
922.244	12338
922.353	12407
922.462	12171
922.571	12117
922.68	11980
922.789	12030
922.898	12022
923.007	11901
923.116	11973
923.224	11920
923.333	11904
923.442	11878
923.55	11828
923.659	11863
923.767	11988
923.876	11828
923.984	11809
924.092	11668
924.201	11748
924.309	11786
924.417	11847
924.525	11752
924.633	11726
924.741	12642
924.849	11558
924.956	11714
925.064	11520
925.172	11452
925.279	11551
925.387	11611
925.494	11509
925.602	11657
925.709	11604
925.816	11455
925.924	11493
926.031	11452
926.138	11444
926.245	11501
926.352	11395
926.459	11562
926.566	11562
926.673	11341
926.779	11368
926.886	11318
926.993	11201
927.099	11151
927.206	11147
927.312	11079
927.419	11204
927.525	11162
927.631	11181
927.737	11075
927.843	11018
927.95	10881
928.056	10999
928.162	11018
928.267	10999
928.373	11539
928.479	11128
928.585	10797
928.69	10896
928.796	10904
928.901	10877
929.007	10733
929.112	10866
929.218	10778
929.323	10809
929.428	10767
929.533	10824
929.638	10733
929.743	10706
929.848	10729
929.953	10702
930.058	10645
930.163	10546
930.267	10371
930.372	10542
930.477	10409
930.581	10622
930.685	10531
930.79	10352
930.894	10371
930.998	10360
931.103	10459
931.207	10101
931.311	10040
931.415	9964
931.519	9808
931.623	9743
