Data from test_V78500241_187.txt Node
Date: Fri Mar 25 14:35:01 CST 2022
User: usil
Spectrometer: V785-0024
Trigger mode: 0
Integration Time (sec): 4.000000E-1
Scans to average: 1
Nonlinearity correction enabled: false
Boxcar width: 0
Storing dark spectrum: false
XAxis mode: Wavelengths
Number of Pixels in Spectrum: 1024
>>>>>Begin Spectral Data<<<<<
801.071	28371
801.214	28257
801.356	28006
801.499	27892
801.641	27800
801.783	27690
801.926	27774
802.068	27739
802.211	27515
802.353	27553
802.496	27424
802.638	27420
802.78	27256
802.923	27313
803.065	27249
803.208	27291
803.35	27222
803.492	27492
803.635	27405
803.777	27382
803.919	27568
804.061	27850
804.204	27595
804.346	27397
804.488	27332
804.63	27466
804.773	27386
804.915	27416
805.057	27435
805.199	27401
805.341	27450
805.483	27477
805.626	27469
805.768	27348
805.91	27507
806.052	27439
806.194	27355
806.336	27751
806.478	27561
806.62	27534
806.762	27660
806.904	27800
807.046	27941
807.188	27899
807.33	28082
807.472	28215
807.614	28074
807.756	28131
807.898	28044
808.04	28067
808.182	28253
808.324	28390
808.465	28565
808.607	28953
808.749	29071
808.891	29391
809.033	29482
809.174	29178
809.316	29094
809.458	28809
809.6	28649
809.741	28588
809.883	28512
810.025	28565
810.166	28382
810.308	28318
810.45	28310
810.591	28287
810.733	28207
810.875	27941
811.016	27850
811.158	27823
811.299	27854
811.441	27953
811.582	27956
811.724	27812
811.865	27949
812.007	27895
812.148	27808
812.29	27994
812.431	28124
812.573	28143
812.714	28135
812.855	28215
812.997	28390
813.138	28569
813.279	28512
813.421	28196
813.562	28265
813.703	27930
813.845	28055
813.986	27663
814.127	27580
814.268	27511
814.41	27287
814.551	27420
814.692	27370
814.833	27408
814.974	27431
815.115	27386
815.256	27325
815.397	27180
815.539	27157
815.68	27070
815.821	27039
815.962	26982
816.103	26948
816.244	27005
816.385	26735
816.526	26845
816.666	26549
816.807	26613
816.948	26609
817.089	26606
817.23	26419
817.371	26450
817.512	26450
817.653	26492
817.793	26453
817.934	26469
818.075	26518
818.216	26473
818.356	26434
818.497	26453
818.638	26183
818.778	26286
818.919	26317
819.06	26142
819.2	26438
819.341	26396
819.481	26408
819.622	26492
819.762	26594
819.903	26693
820.043	26465
820.184	26347
820.324	26499
820.465	26415
820.605	26427
820.746	26514
820.886	26252
821.026	26412
821.167	26301
821.307	26450
821.447	26294
821.588	26202
821.728	26062
821.868	25955
822.008	25868
822.149	25643
822.289	25811
822.429	25613
822.569	25403
822.709	25419
822.849	25190
822.99	25225
823.13	25137
823.27	25255
823.41	24973
823.55	24924
823.69	25065
823.83	25008
823.97	24943
824.11	24909
824.25	24787
824.389	24894
824.529	24757
824.669	24745
824.809	24966
824.949	24932
825.089	24875
825.228	24844
825.368	24707
825.508	24798
825.648	24700
825.787	24620
825.927	24669
826.067	24525
826.206	24585
826.346	24585
826.485	24677
826.625	24616
826.765	24654
826.904	24582
827.044	24429
827.183	24384
827.323	24289
827.462	24308
827.601	24273
827.741	24254
827.88	24304
828.02	24194
828.159	24087
828.298	24296
828.437	24258
828.577	24304
828.716	24330
828.855	24209
828.994	23999
829.134	23916
829.273	24102
829.412	23897
829.551	23992
829.69	23859
829.829	24030
829.968	24076
830.107	23954
830.246	23897
830.385	23821
830.524	23901
830.663	23790
830.802	23646
830.941	23463
831.08	23433
831.219	23592
831.357	23520
831.496	23661
831.635	23414
831.774	23539
831.913	23402
832.051	23353
832.19	23246
832.329	23235
832.467	23318
832.606	23067
832.744	23223
832.883	23261
833.022	23185
833.16	23265
833.299	23265
833.437	23231
833.576	23216
833.714	23220
833.852	23269
833.991	23204
834.129	23345
834.267	23326
834.406	23155
834.544	23185
834.682	23334
834.821	23124
834.959	23376
835.097	22984
835.235	23212
835.373	23086
835.511	23048
835.65	23014
835.788	23064
835.926	22892
836.064	22831
836.202	22782
836.34	22980
836.478	23151
836.615	22953
836.753	23079
836.891	22999
837.029	22854
837.167	22885
837.305	22786
837.443	22889
837.58	22869
837.718	22923
837.856	22843
837.993	22687
838.131	22843
838.269	22778
838.406	22691
838.544	22649
838.681	22489
838.819	22508
838.956	22238
839.094	22272
839.231	22265
839.369	22535
839.506	22653
839.643	22409
839.781	22196
839.918	22101
840.055	22306
840.193	22211
840.33	22135
840.467	22215
840.604	22272
840.742	22303
840.879	21903
841.016	22128
841.153	22025
841.29	22246
841.427	22086
841.564	22090
841.701	22128
841.838	22010
841.975	21915
842.112	22010
842.249	21774
842.385	21850
842.522	21937
842.659	21857
842.796	21869
842.933	21785
843.069	21876
843.206	21781
843.343	21922
843.479	21945
843.616	21926
843.752	21701
843.889	21530
844.025	21759
844.162	21553
844.298	21720
844.435	21568
844.571	21595
844.708	21572
844.844	21720
844.98	21759
845.117	21816
845.253	21656
845.389	21682
845.525	21956
845.661	22177
845.798	22398
845.934	22869
846.07	22968
846.206	22869
846.342	22713
846.478	22371
846.614	21774
846.75	21382
846.886	21260
847.022	21294
847.158	21199
847.294	21150
847.429	21055
847.565	20986
847.701	21207
847.837	20842
847.972	20697
848.108	20826
848.244	20754
848.379	20667
848.515	20571
848.65	20579
848.786	20549
848.921	20575
849.057	20689
849.192	20522
849.328	20613
849.463	20499
849.598	20473
849.734	20385
849.869	20431
850.004	20328
850.14	20415
850.275	20298
850.41	20259
850.545	20233
850.68	20202
850.815	20355
850.95	20248
851.085	20408
851.22	20343
851.355	20317
851.49	20259
851.625	20256
851.76	20183
851.895	20176
852.03	20107
852.165	20374
852.299	20278
852.434	20351
852.569	20320
852.703	20301
852.838	20393
852.973	20381
853.107	20385
853.242	20149
853.376	20130
853.511	20024
853.645	20039
853.78	20180
853.914	20206
854.048	20107
854.183	20122
854.317	20107
854.451	20286
854.585	20046
854.72	20142
854.854	20191
854.988	20039
855.122	20142
855.256	19875
855.39	20020
855.524	20138
855.658	20073
855.792	20145
855.926	20073
856.06	20172
856.194	20240
856.327	20100
856.461	20012
856.595	20088
856.729	19932
856.862	20122
856.996	19997
857.13	20187
857.263	20103
857.397	20176
857.53	20119
857.664	20073
857.797	20191
857.931	20145
858.064	20134
858.197	20054
858.331	19940
858.464	19925
858.597	19898
858.731	19989
858.864	20039
858.997	19974
859.13	20020
859.263	19989
859.396	20096
859.529	20035
859.662	19947
859.795	19955
859.928	20020
860.061	20191
860.194	20096
860.327	20046
860.46	20024
860.592	20164
860.725	20107
860.858	20092
860.99	19993
861.123	19890
861.256	19830
861.388	19947
861.521	20598
861.653	19868
861.786	19826
861.918	19826
862.05	19974
862.183	19883
862.315	20020
862.447	20027
862.58	20024
862.712	19693
862.844	19715
862.976	19875
863.108	19746
863.24	20142
863.372	19518
863.504	19571
863.636	19658
863.768	19757
863.9	19670
864.032	19723
864.164	19696
864.296	19704
864.428	19784
864.559	19658
864.691	19765
864.823	19609
864.954	19632
865.086	19613
865.217	19643
865.349	19548
865.48	19620
865.612	19643
865.743	19689
865.875	19559
866.006	19590
866.137	19544
866.269	19518
866.4	19601
866.531	19502
866.662	19586
866.793	19422
866.924	19563
867.055	19628
867.186	19567
867.317	19453
867.448	19434
867.579	19514
867.71	19468
867.841	19449
867.972	19590
868.103	19575
868.233	19537
868.364	19544
868.495	19578
868.625	19609
868.756	19803
868.886	19712
869.017	19871
869.147	19887
869.278	19772
869.408	19776
869.539	19738
869.669	19864
869.799	19887
869.929	19837
870.06	19864
870.19	20043
870.32	19940
870.45	20145
870.58	20210
870.71	20240
870.84	20214
870.97	20077
871.1	20267
871.23	20248
871.36	20355
871.489	20195
871.619	20267
871.749	20347
871.879	20484
872.008	20328
872.138	20366
872.267	20476
872.397	20221
872.526	20164
872.656	20187
872.785	20138
872.915	20408
873.044	20473
873.173	20404
873.303	20431
873.432	20495
873.561	20556
873.69	20450
873.819	20514
873.948	20492
874.077	20423
874.206	20355
874.335	20332
874.464	20583
874.593	20670
874.722	20560
874.851	20705
874.979	20697
875.108	20640
875.237	20674
875.365	20617
875.494	20617
875.623	20651
875.751	20617
875.88	20697
876.008	20804
876.136	20921
876.265	21089
876.393	21195
876.521	21093
876.65	21135
876.778	21157
876.906	21146
877.034	20975
877.162	21123
877.29	21051
877.418	21135
877.546	21028
877.674	21074
877.802	21313
877.93	21135
878.058	21005
878.185	21096
878.313	21127
878.441	21264
878.568	21142
878.696	21100
878.824	21291
878.951	21416
879.079	21629
879.206	21842
879.333	21770
879.461	21766
879.588	21987
879.715	22074
879.842	22029
879.97	21842
880.097	21416
880.224	21313
880.351	21199
880.478	21207
880.605	21188
880.732	21066
880.859	21408
880.986	21104
881.112	21211
881.239	20952
881.366	20887
881.493	20781
881.619	20674
881.746	20743
881.872	20674
881.999	20598
882.125	20632
882.252	20792
882.378	20735
882.505	20826
882.631	20674
882.757	20514
882.883	20625
883.01	20480
883.136	20469
883.262	20355
883.388	20328
883.514	20419
883.64	20351
883.766	20336
883.892	20172
884.018	20419
884.143	20511
884.269	20438
884.395	20248
884.52	20065
884.646	20103
884.772	20024
884.897	20081
885.023	20062
885.148	20210
885.274	20339
885.399	20218
885.524	20138
885.65	20088
885.775	20077
885.9	19993
886.025	20153
886.15	20221
886.275	19986
886.4	19883
886.525	20035
886.65	19947
886.775	20027
886.9	20081
887.025	20138
887.149	19928
887.274	19928
887.399	19731
887.523	19731
887.648	19666
887.773	19738
887.897	19868
888.021	19856
888.146	19658
888.27	19837
888.395	19833
888.519	19753
888.643	19765
888.767	19757
888.891	19605
889.015	19632
889.139	19518
889.263	19495
889.387	19670
889.511	19761
889.635	19586
889.759	19441
889.883	19548
890.006	19548
890.13	19533
890.254	19339
890.377	19453
890.501	19327
890.624	19133
890.748	19244
890.871	19225
890.995	18947
891.118	19027
891.241	19137
891.364	19061
891.488	19133
891.611	19031
891.734	19171
891.857	19129
891.98	19160
892.103	19099
892.226	18962
892.349	19053
892.471	18810
892.594	18932
892.717	19069
892.839	18901
892.962	18916
893.085	19034
893.207	19034
893.33	18863
893.452	18791
893.575	19053
893.697	19008
893.819	19160
893.941	19179
894.064	19088
894.186	18939
894.308	18897
894.43	19012
894.552	19152
894.674	19023
894.796	18886
894.918	18947
895.04	18825
895.161	19015
895.283	18966
895.405	18909
895.526	18833
895.648	18989
895.769	18962
895.891	18958
896.012	19145
896.134	19027
896.255	19084
896.376	18932
896.498	18958
896.619	18935
896.74	18951
896.861	19103
896.982	19396
897.103	19540
897.224	19282
897.345	19236
897.466	19114
897.587	19335
897.708	19274
897.828	19240
897.949	19137
898.07	19023
898.19	19129
898.311	19255
898.431	19156
898.552	19145
898.672	19247
898.792	19304
898.913	19187
899.033	19008
899.153	19000
899.273	18909
899.393	18932
899.513	18943
899.633	18901
899.753	18932
899.873	18962
899.993	19027
900.113	18943
900.232	18894
900.352	18814
900.472	18840
900.591	18677
900.711	18722
900.83	18700
900.95	18840
901.069	18878
901.189	18734
901.308	18403
901.427	18384
901.546	18346
901.665	18262
901.784	18388
901.904	18247
902.023	18110
902.141	18102
902.26	17939
902.379	17927
902.498	17840
902.617	17904
902.735	17927
902.854	17805
902.973	17695
903.091	17497
903.21	17501
903.328	17505
903.446	17570
903.565	17372
903.683	17421
903.801	17269
903.919	17387
904.038	17250
904.156	17193
904.274	17117
904.392	17037
904.51	17022
904.627	17083
904.745	17128
904.863	17197
904.981	16946
905.098	16752
905.216	16748
905.334	16778
905.451	16809
905.569	16656
905.686	16782
905.803	16805
905.921	16626
906.038	16584
906.155	16580
906.272	16428
906.389	16417
906.506	16398
906.623	16386
906.74	16329
906.857	16185
906.974	16192
907.091	16318
907.208	16344
907.324	16257
907.441	16226
907.557	15998
907.674	15930
907.79	15960
907.907	15975
908.023	15960
908.139	16010
908.256	15888
908.372	15937
908.488	15903
908.604	15694
908.72	15545
908.836	15675
908.952	15633
909.068	15755
909.184	15827
909.3	15549
909.415	15770
909.531	15580
909.647	15401
909.762	15450
909.878	15428
909.993	15382
910.108	15287
910.224	15317
910.339	15336
910.454	15291
910.57	15154
910.685	15089
910.8	15428
910.915	15294
911.03	15180
911.145	15138
911.259	15085
911.374	14994
911.489	14796
911.604	14891
911.718	14792
911.833	14769
911.947	14625
912.062	14549
912.176	14640
912.291	14686
912.405	14648
912.519	14895
912.633	14941
912.748	14716
912.862	14716
912.976	14590
913.09	14518
913.204	14484
913.318	14549
913.431	14648
913.545	14507
913.659	14526
913.772	14480
913.886	14454
914	14381
914.113	14423
914.226	14511
914.34	14404
914.453	14259
914.566	14396
914.68	14248
914.793	14214
914.906	13982
915.019	13917
915.132	13890
915.245	13982
915.358	13974
915.47	14062
915.583	14119
915.696	14168
915.809	14088
915.921	14138
916.034	13944
916.146	13940
916.259	13936
916.371	14039
916.483	14020
916.595	13890
916.708	13921
916.82	13860
916.932	13776
917.044	13833
917.156	13803
917.268	13696
917.38	13655
917.491	13628
917.603	13636
917.715	13616
917.826	13746
917.938	13616
918.049	13540
918.161	13647
918.272	13776
918.384	13788
918.495	13586
918.606	13403
918.717	13415
918.828	13514
918.939	13483
919.05	13415
919.161	13430
919.272	13198
919.383	13339
919.494	13434
919.604	13693
919.715	13510
919.826	13381
919.936	13426
920.047	13480
920.157	13453
920.267	13674
920.378	13453
920.488	13327
920.598	13651
920.708	13567
920.818	13472
920.928	13529
921.038	13696
921.148	13655
921.258	13430
921.368	13346
921.477	13198
921.587	13088
921.697	13084
921.806	13091
921.916	12954
922.025	12787
922.134	12837
922.244	12791
922.353	12913
922.462	12620
922.571	12688
922.68	12574
922.789	12528
922.898	12502
923.007	12410
923.116	12502
923.224	12369
923.333	12441
923.442	12304
923.55	12216
923.659	12327
923.767	12296
923.876	12281
923.984	12410
924.092	12266
924.201	12205
924.309	12140
924.417	12224
924.525	12159
924.633	12155
924.741	13057
924.849	11935
924.956	12182
925.064	11988
925.172	11904
925.279	11920
925.387	11840
925.494	11969
925.602	12053
925.709	11912
925.816	11840
925.924	11939
926.031	11980
926.138	11821
926.245	12030
926.352	11885
926.459	12049
926.566	11939
926.673	11863
926.779	11638
926.886	11695
926.993	11596
927.099	11554
927.206	11524
927.312	11482
927.419	11570
927.525	11501
927.631	11528
927.737	11368
927.843	11383
927.95	11341
928.056	11364
928.162	11345
928.267	11497
928.373	11999
928.479	11501
928.585	11242
928.69	11318
928.796	11322
928.901	11235
929.007	11079
929.112	11269
929.218	11193
929.323	11113
929.428	11075
929.533	11220
929.638	11029
929.743	11029
929.848	11128
929.953	11117
930.058	10957
930.163	10801
930.267	10850
930.372	10949
930.477	10717
930.581	11060
930.685	10858
930.79	10740
930.894	10790
930.998	10736
931.103	10778
931.207	10462
931.311	10409
931.415	10295
931.519	10090
931.623	10105
