Data from test_V78500241_1670.txt Node
Date: Fri Mar 25 14:45:20 CST 2022
User: usil
Spectrometer: V785-0024
Trigger mode: 0
Integration Time (sec): 4.000000E-1
Scans to average: 1
Nonlinearity correction enabled: false
Boxcar width: 0
Storing dark spectrum: false
XAxis mode: Wavelengths
Number of Pixels in Spectrum: 1024
>>>>>Begin Spectral Data<<<<<
801.071	22291
801.214	22166
801.356	21972
801.499	21846
801.641	21667
801.783	21656
801.926	21542
802.068	21622
802.211	21576
802.353	21443
802.496	21264
802.638	21135
802.78	21074
802.923	20998
803.065	21024
803.208	20990
803.35	20998
803.492	21093
803.635	21135
803.777	21070
803.919	21013
804.061	21359
804.204	21112
804.346	21020
804.488	20883
804.63	20925
804.773	20777
804.915	21066
805.057	21051
805.199	20758
805.341	21020
805.483	20933
805.626	20891
805.768	20960
805.91	20929
806.052	20887
806.194	20792
806.336	21020
806.478	21009
806.62	20868
806.762	20952
806.904	21112
807.046	21279
807.188	21192
807.33	21195
807.472	21321
807.614	21154
807.756	21192
807.898	20944
808.04	20899
808.182	21017
808.324	20994
808.465	21055
808.607	21283
808.749	21291
808.891	21496
809.033	21454
809.174	21447
809.316	21325
809.458	21428
809.6	21302
809.741	21389
809.883	21226
810.025	21507
810.166	21622
810.308	21454
810.45	21382
810.591	21408
810.733	21173
810.875	21089
811.016	21062
811.158	20990
811.299	21070
811.441	21226
811.582	21211
811.724	21039
811.865	21001
812.007	21020
812.148	21154
812.29	21119
812.431	21237
812.573	21291
812.714	21466
812.855	21545
812.997	21770
813.138	21861
813.279	21720
813.421	21576
813.562	21496
813.703	21359
813.845	21245
813.986	21001
814.127	20880
814.268	20629
814.41	20625
814.551	20689
814.692	20667
814.833	20648
814.974	20522
815.115	20678
815.256	20537
815.397	20446
815.539	20366
815.68	20358
815.821	20313
815.962	20431
816.103	20351
816.244	20202
816.385	20138
816.526	20103
816.666	19970
816.807	19833
816.948	19879
817.089	19875
817.23	19803
817.371	19727
817.512	19708
817.653	19708
817.793	19753
817.934	19769
818.075	19753
818.216	19780
818.356	19734
818.497	19586
818.638	19373
818.778	19441
818.919	19415
819.06	19563
819.2	19525
819.341	19639
819.481	19635
819.622	19799
819.762	20043
819.903	19963
820.043	19856
820.184	19776
820.324	19765
820.465	19746
820.605	19700
820.746	19605
820.886	19521
821.026	19685
821.167	19677
821.307	19655
821.447	19681
821.588	19548
821.728	19343
821.868	19339
822.008	19228
822.149	19103
822.289	19133
822.429	18920
822.569	18867
822.709	18730
822.849	18658
822.99	18669
823.13	18700
823.27	18593
823.41	18384
823.55	18372
823.69	18540
823.83	18369
823.97	18365
824.11	18319
824.25	18270
824.389	18247
824.529	18342
824.669	18152
824.809	18376
824.949	18323
825.089	18254
825.228	18266
825.368	18064
825.508	17984
825.648	18011
825.787	17961
825.927	17931
826.067	17916
826.206	18007
826.346	18060
826.485	17908
826.625	18019
826.765	17961
826.904	18038
827.044	17794
827.183	17756
827.323	17726
827.462	17748
827.601	17726
827.741	17729
827.88	17687
828.02	17497
828.159	17630
828.298	17794
828.437	17718
828.577	17680
828.716	17752
828.855	17672
828.994	17509
829.134	17376
829.273	17433
829.412	17311
829.551	17341
829.69	17490
829.829	17398
829.968	17493
830.107	17452
830.246	17417
830.385	17410
830.524	17242
830.663	17223
830.802	17208
830.941	17105
831.08	17067
831.219	17143
831.357	17105
831.496	17299
831.635	17006
831.774	16961
831.913	16949
832.051	16866
832.19	16831
832.329	16793
832.467	16721
832.606	16740
832.744	16672
832.883	16812
833.022	16656
833.16	16645
833.299	16733
833.437	16748
833.576	16877
833.714	16809
833.852	16774
833.991	16839
834.129	16828
834.267	16862
834.406	16801
834.544	16660
834.682	16831
834.821	16881
834.959	17010
835.097	16816
835.235	16873
835.373	16725
835.511	16790
835.65	16752
835.788	16656
835.926	16558
836.064	16523
836.202	16512
836.34	16592
836.478	16725
836.615	16653
836.753	16725
836.891	16824
837.029	16744
837.167	16637
837.305	16519
837.443	16512
837.58	16440
837.718	16550
837.856	16542
837.993	16428
838.131	16516
838.269	16489
838.406	16527
838.544	16455
838.681	16299
838.819	16177
838.956	16040
839.094	16044
839.231	16101
839.369	16211
839.506	16561
839.643	16295
839.781	16082
839.918	16032
840.055	16063
840.193	16051
840.33	16071
840.467	16078
840.604	16131
840.742	16341
840.879	15941
841.016	15915
841.153	15987
841.29	16249
841.427	16128
841.564	16150
841.701	16067
841.838	16116
841.975	15895
842.112	16010
842.249	15838
842.385	15812
842.522	16010
842.659	15880
842.796	15800
842.933	15937
843.069	15846
843.206	15736
843.343	15998
843.479	15823
843.616	15880
843.752	15705
843.889	15644
844.025	15747
844.162	15553
844.298	15842
844.435	15667
844.571	15587
844.708	15660
844.844	15797
844.98	15728
845.117	15747
845.253	15576
845.389	15542
845.525	15682
845.661	15545
845.798	15469
845.934	15481
846.07	15469
846.206	15424
846.342	15641
846.478	15492
846.614	15306
846.75	15154
846.886	15233
847.022	15310
847.158	15165
847.294	15241
847.429	15203
847.565	15123
847.701	15466
847.837	14933
847.972	14952
848.108	15036
848.244	15047
848.379	14906
848.515	14773
848.65	14727
848.786	14853
848.921	14785
849.057	14887
849.192	14914
849.328	14849
849.463	14887
849.598	14815
849.734	14811
849.869	14670
850.004	14579
850.14	14644
850.275	14560
850.41	14503
850.545	14454
850.68	14587
850.815	14587
850.95	14533
851.085	14807
851.22	14724
851.355	14735
851.49	14545
851.625	14575
851.76	14549
851.895	14571
852.03	14473
852.165	14629
852.299	14583
852.434	14602
852.569	14640
852.703	14629
852.838	14571
852.973	14674
853.107	14708
853.242	14674
853.376	14499
853.511	14317
853.645	14457
853.78	14571
853.914	14514
854.048	14389
854.183	14454
854.317	14400
854.451	14610
854.585	14438
854.72	14355
854.854	14598
854.988	14381
855.122	14434
855.256	14259
855.39	14374
855.524	14492
855.658	14438
855.792	14571
855.926	14473
856.06	14556
856.194	14514
856.327	14396
856.461	14366
856.595	14503
856.729	14434
856.862	14590
856.996	14389
857.13	14533
857.263	14571
857.397	14613
857.53	14419
857.664	14549
857.797	14590
857.931	14575
858.064	14328
858.197	14549
858.331	14408
858.464	14332
858.597	14381
858.731	14389
858.864	14446
858.997	14419
859.13	14511
859.263	14476
859.396	14419
859.529	14427
859.662	14431
859.795	14423
859.928	14484
860.061	14579
860.194	14651
860.327	14438
860.46	14396
860.592	14602
860.725	14583
860.858	14682
860.99	14522
861.123	14313
861.256	14431
861.388	14499
861.521	14941
861.653	14412
861.786	14229
861.918	14271
862.05	14370
862.183	14358
862.315	14339
862.447	14488
862.58	14343
862.712	14206
862.844	14134
862.976	14339
863.108	14301
863.24	14701
863.372	14187
863.504	14168
863.636	14240
863.768	14328
863.9	14153
864.032	14180
864.164	14233
864.296	14233
864.428	14366
864.559	14278
864.691	14301
864.823	14252
864.954	14225
865.086	14214
865.217	14145
865.349	14157
865.48	14202
865.612	14221
865.743	14317
865.875	14282
866.006	14244
866.137	14164
866.269	14119
866.4	14145
866.531	14176
866.662	14084
866.793	14172
866.924	14164
867.055	14282
867.186	14195
867.317	14218
867.448	14058
867.579	14168
867.71	14088
867.841	14050
867.972	14168
868.103	14168
868.233	14168
868.364	14176
868.495	14332
868.625	14396
868.756	14602
868.886	14370
869.017	14434
869.147	14564
869.278	14606
869.408	14408
869.539	14476
869.669	14632
869.799	14465
869.929	14579
870.06	14541
870.19	14758
870.32	14781
870.45	14838
870.58	14876
870.71	14948
870.84	14967
870.97	14823
871.1	14868
871.23	15051
871.36	15085
871.489	15146
871.619	15070
871.749	15039
871.879	15066
872.008	15214
872.138	15093
872.267	14975
872.397	14937
872.526	14883
872.656	14788
872.785	14906
872.915	15017
873.044	15135
873.173	15039
873.303	15260
873.432	15146
873.561	15157
873.69	15116
873.819	15127
873.948	15207
874.077	15127
874.206	15085
874.335	15116
874.464	15336
874.593	15306
874.722	15397
874.851	15397
874.979	15469
875.108	15507
875.237	15329
875.365	15363
875.494	15492
875.623	15553
875.751	15298
875.88	15439
876.008	15614
876.136	15694
876.265	15751
876.393	15930
876.521	15793
876.65	15835
876.778	15808
876.906	15781
877.034	15762
877.162	15759
877.29	15789
877.418	15797
877.546	15854
877.674	15861
877.802	15907
877.93	15838
878.058	15816
878.185	15747
878.313	15720
878.441	15903
878.568	15728
878.696	15911
878.824	15876
878.951	15888
879.079	16051
879.206	16219
879.333	16051
879.461	15975
879.588	15941
879.715	15934
879.842	16169
879.97	15884
880.097	15736
880.224	15618
880.351	15701
880.478	15656
880.605	15656
880.732	15644
880.859	15873
880.986	15720
881.112	15793
881.239	15572
881.366	15462
881.493	15370
881.619	15382
881.746	15367
881.872	15252
881.999	15256
882.125	15313
882.252	15332
882.378	15397
882.505	15545
882.631	15287
882.757	15233
882.883	15142
883.01	15161
883.136	15154
883.262	15024
883.388	14982
883.514	15165
883.64	15230
883.766	15116
883.892	15066
884.018	15043
884.143	15165
884.269	15351
884.395	14944
884.52	14830
884.646	14842
884.772	14830
884.897	14743
885.023	14887
885.148	14941
885.274	14986
885.399	14998
885.524	14845
885.65	14891
885.775	14929
885.9	14990
886.025	14929
886.15	14887
886.275	14765
886.4	14773
886.525	14849
886.65	14792
886.775	14819
886.9	14914
887.025	15108
887.149	14777
887.274	14636
887.399	14689
887.523	14701
887.648	14636
887.773	14670
887.897	14788
888.021	14701
888.146	14670
888.27	14804
888.395	14838
888.519	14731
888.643	14720
888.767	14716
888.891	14697
889.015	14530
889.139	14625
889.263	14480
889.387	14659
889.511	14724
889.635	14640
889.759	14522
889.883	14541
890.006	14613
890.13	14571
890.254	14511
890.377	14465
890.501	14469
890.624	14374
890.748	14393
890.871	14381
890.995	14100
891.118	14202
891.241	14202
891.364	14218
891.488	14419
891.611	14237
891.734	14263
891.857	14317
891.98	14263
892.103	14301
892.226	14233
892.349	14218
892.471	14119
892.594	14259
892.717	14282
892.839	14206
892.962	14275
893.085	14290
893.207	14233
893.33	14164
893.452	14191
893.575	14301
893.697	14164
893.819	14434
893.941	14423
894.064	14404
894.186	14256
894.308	14161
894.43	14347
894.552	14408
894.674	14317
894.796	14229
894.918	14229
895.04	14286
895.161	14328
895.283	14294
895.405	14301
895.526	14419
895.648	14275
895.769	14454
895.891	14305
896.012	14518
896.134	14446
896.255	14396
896.376	14351
896.498	14415
896.619	14408
896.74	14488
896.861	14533
896.982	14754
897.103	14819
897.224	14644
897.345	14560
897.466	14629
897.587	14632
897.708	14838
897.828	14697
897.949	14617
898.07	14461
898.19	14575
898.311	14765
898.431	14621
898.552	14727
898.672	14830
898.792	14861
898.913	14785
899.033	14602
899.153	14655
899.273	14480
899.393	14533
899.513	14636
899.633	14663
899.753	14701
899.873	14518
899.993	14674
900.113	14560
900.232	14670
900.352	14564
900.472	14465
900.591	14400
900.711	14514
900.83	14415
900.95	14568
901.069	14530
901.189	14374
901.308	14138
901.427	14084
901.546	14168
901.665	14187
901.784	14161
901.904	14077
902.023	13982
902.141	13757
902.26	13670
902.379	13784
902.498	13704
902.617	13540
902.735	13750
902.854	13807
902.973	13628
903.091	13476
903.21	13415
903.328	13453
903.446	13335
903.565	13289
903.683	13354
903.801	13228
903.919	13179
904.038	13278
904.156	13103
904.274	13057
904.392	13046
904.51	13118
904.627	13050
904.745	13122
904.863	13118
904.981	12905
905.098	12833
905.216	12802
905.334	12859
905.451	12787
905.569	12810
905.686	12791
905.803	12730
905.921	12593
906.038	12639
906.155	12646
906.272	12441
906.389	12582
906.506	12395
906.623	12388
906.74	12338
906.857	12311
906.974	12357
907.091	12448
907.208	12498
907.324	12418
907.441	12357
907.557	12117
907.674	12106
907.79	12064
907.907	12045
908.023	12117
908.139	12091
908.256	12098
908.372	12034
908.488	11988
908.604	11897
908.72	11908
908.836	11897
908.952	11916
909.068	11851
909.184	12038
909.3	11885
909.415	12007
909.531	11882
909.647	11627
909.762	11657
909.878	11642
909.993	11722
910.108	11726
910.224	11718
910.339	11680
910.454	11512
910.57	11433
910.685	11493
910.8	11733
910.915	11646
911.03	11463
911.145	11307
911.259	11417
911.374	11288
911.489	11197
911.604	11258
911.718	11132
911.833	11132
911.947	11048
912.062	10946
912.176	11083
912.291	10972
912.405	11098
912.519	11345
912.633	11341
912.748	11181
912.862	11010
912.976	10942
913.09	10847
913.204	10968
913.318	11029
913.431	11086
913.545	11162
913.659	11090
913.772	11094
913.886	10858
914	10790
914.113	10961
914.226	10923
914.34	10877
914.453	10702
914.566	10930
914.68	10805
914.793	10744
914.906	10706
915.019	10592
915.132	10493
915.245	10527
915.358	10653
915.47	10675
915.583	10599
915.696	10668
915.809	10714
915.921	10752
916.034	10634
916.146	10550
916.259	10478
916.371	10634
916.483	10702
916.595	10542
916.708	10512
916.82	10500
916.932	10405
917.044	10466
917.156	10535
917.268	10382
917.38	10409
917.491	10409
917.603	10413
917.715	10451
917.826	10508
917.938	10379
918.049	10280
918.161	10417
918.272	10569
918.384	10527
918.495	10424
918.606	10367
918.717	10280
918.828	10238
918.939	10272
919.05	10227
919.161	10299
919.272	10120
919.383	10116
919.494	10386
919.604	10546
919.715	10325
919.826	10211
919.936	10299
920.047	10390
920.157	10348
920.267	10508
920.378	10398
920.488	10284
920.598	10489
920.708	10599
920.818	10561
920.928	10523
921.038	10691
921.148	10683
921.258	10291
921.368	10230
921.477	10196
921.587	10124
921.697	9991
921.806	10196
921.916	10158
922.025	9930
922.134	9869
922.244	9854
922.353	9968
922.462	9819
922.571	9682
922.68	9564
922.789	9477
922.898	9633
923.007	9534
923.116	9515
923.224	9549
923.333	9507
923.442	9469
923.55	9492
923.659	9477
923.767	9450
923.876	9462
923.984	9534
924.092	9363
924.201	9386
924.309	9389
924.417	9481
924.525	9298
924.633	9348
924.741	10135
924.849	9169
924.956	9344
925.064	9188
925.172	9138
925.279	9089
925.387	9226
925.494	9268
925.602	9291
925.709	9294
925.816	9161
925.924	9165
926.031	9306
926.138	9291
926.245	9245
926.352	9173
926.459	9260
926.566	9351
926.673	9260
926.779	9123
926.886	9112
926.993	8902
927.099	8944
927.206	8845
927.312	8880
927.419	8986
927.525	8929
927.631	9024
927.737	8849
927.843	8868
927.95	8823
928.056	8853
928.162	8796
928.267	8887
928.373	9321
928.479	8902
928.585	8613
928.69	8853
928.796	8796
928.901	8769
929.007	8583
929.112	8739
929.218	8720
929.323	8689
929.428	8625
929.533	8766
929.638	8655
929.743	8678
929.848	8667
929.953	8640
930.058	8541
930.163	8317
930.267	8419
930.372	8583
930.477	8362
930.581	8541
930.685	8484
930.79	8309
930.894	8438
930.998	8271
931.103	8503
931.207	8195
931.311	8069
931.415	8065
931.519	7818
931.623	7830
