Data from test_V78500241_3170.txt Node
Date: Fri Mar 25 14:55:47 CST 2022
User: usil
Spectrometer: V785-0024
Trigger mode: 0
Integration Time (sec): 4.000000E-1
Scans to average: 1
Nonlinearity correction enabled: false
Boxcar width: 0
Storing dark spectrum: false
XAxis mode: Wavelengths
Number of Pixels in Spectrum: 1024
>>>>>Begin Spectral Data<<<<<
801.071	21941
801.214	21892
801.356	21663
801.499	21523
801.641	21386
801.783	21378
801.926	21374
802.068	21321
802.211	21313
802.353	21169
802.496	20941
802.638	20937
802.78	20823
802.923	20769
803.065	20609
803.208	20777
803.35	20735
803.492	20796
803.635	20807
803.777	20727
803.919	20853
804.061	21100
804.204	20849
804.346	20594
804.488	20625
804.63	20659
804.773	20469
804.915	20716
805.057	20731
805.199	20667
805.341	20659
805.483	20720
805.626	20693
805.768	20537
805.91	20663
806.052	20636
806.194	20514
806.336	20693
806.478	20678
806.62	20632
806.762	20670
806.904	20804
807.046	21055
807.188	20963
807.33	20948
807.472	21001
807.614	20921
807.756	20902
807.898	20842
808.04	20629
808.182	20735
808.324	20594
808.465	20788
808.607	20967
808.749	20971
808.891	21135
809.033	21294
809.174	21051
809.316	20990
809.458	20902
809.6	20967
809.741	21051
809.883	21142
810.025	21214
810.166	21154
810.308	21169
810.45	21150
810.591	20941
810.733	20804
810.875	20788
811.016	20674
811.158	20621
811.299	20800
811.441	20857
811.582	20823
811.724	20819
811.865	20689
812.007	20705
812.148	20838
812.29	20754
812.431	20842
812.573	21116
812.714	21154
812.855	21283
812.997	21370
813.138	21568
813.279	21473
813.421	21272
813.562	21184
813.703	21070
813.845	20891
813.986	20598
814.127	20366
814.268	20404
814.41	20286
814.551	20317
814.692	20431
814.833	20256
814.974	20301
815.115	20309
815.256	20100
815.397	20096
815.539	20195
815.68	20081
815.821	20008
815.962	19974
816.103	19906
816.244	19902
816.385	19772
816.526	19772
816.666	19506
816.807	19373
816.948	19613
817.089	19620
817.23	19445
817.371	19430
817.512	19457
817.653	19514
817.793	19335
817.934	19388
818.075	19449
818.216	19381
818.356	19411
818.497	19304
818.638	19103
818.778	19122
818.919	19183
819.06	19107
819.2	19194
819.341	19183
819.481	19213
819.622	19438
819.762	19655
819.903	19518
820.043	19468
820.184	19491
820.324	19312
820.465	19514
820.605	19464
820.746	19384
820.886	19263
821.026	19396
821.167	19278
821.307	19438
821.447	19396
821.588	19263
821.728	19133
821.868	18886
822.008	18814
822.149	18791
822.289	18753
822.429	18475
822.569	18426
822.709	18407
822.849	18346
822.99	18357
823.13	18262
823.27	18213
823.41	18171
823.55	18133
823.69	18087
823.83	18159
823.97	18007
824.11	17904
824.25	17889
824.389	17802
824.529	17901
824.669	17927
824.809	17999
824.949	17901
825.089	17969
825.228	17863
825.368	17649
825.508	17642
825.648	17752
825.787	17775
825.927	17699
826.067	17630
826.206	17630
826.346	17592
826.485	17604
826.625	17634
826.765	17840
826.904	17726
827.044	17440
827.183	17326
827.323	17372
827.462	17368
827.601	17269
827.741	17330
827.88	17410
828.02	17223
828.159	17360
828.298	17471
828.437	17345
828.577	17288
828.716	17471
828.855	17315
828.994	17037
829.134	17113
829.273	17045
829.412	17155
829.551	17033
829.69	16957
829.829	17060
829.968	17204
830.107	17086
830.246	17147
830.385	17109
830.524	17018
830.663	16908
830.802	16740
830.941	16702
831.08	16740
831.219	16812
831.357	16740
831.496	17003
831.635	16611
831.774	16565
831.913	16618
832.051	16451
832.19	16417
832.329	16504
832.467	16375
832.606	16352
832.744	16246
832.883	16306
833.022	16314
833.16	16428
833.299	16527
833.437	16443
833.576	16394
833.714	16428
833.852	16569
833.991	16455
834.129	16466
834.267	16599
834.406	16508
834.544	16478
834.682	16402
834.821	16478
834.959	16713
835.097	16421
835.235	16546
835.373	16424
835.511	16470
835.65	16413
835.788	16371
835.926	16291
836.064	16207
836.202	16101
836.34	16257
836.478	16398
836.615	16234
836.753	16382
836.891	16413
837.029	16325
837.167	16291
837.305	16299
837.443	16337
837.58	16230
837.718	16249
837.856	16299
837.993	16059
838.131	16284
838.269	16181
838.406	16234
838.544	16116
838.681	15953
838.819	15975
838.956	15804
839.094	15850
839.231	15850
839.369	15926
839.506	16147
839.643	16010
839.781	15781
839.918	15724
840.055	15838
840.193	15781
840.33	15778
840.467	15705
840.604	15663
840.742	16071
840.879	15584
841.016	15793
841.153	15766
841.29	15835
841.427	15808
841.564	15800
841.701	15736
841.838	15800
841.975	15679
842.112	15736
842.249	15572
842.385	15564
842.522	15766
842.659	15603
842.796	15538
842.933	15526
843.069	15416
843.206	15504
843.343	15576
843.479	15629
843.616	15549
843.752	15359
843.889	15428
844.025	15534
844.162	15283
844.298	15450
844.435	15336
844.571	15226
844.708	15447
844.844	15492
844.98	15564
845.117	15485
845.253	15310
845.389	15203
845.525	15348
845.661	15222
845.798	15093
845.934	15192
846.07	15146
846.206	15195
846.342	15279
846.478	15180
846.614	15051
846.75	14861
846.886	14883
847.022	14944
847.158	14952
847.294	14872
847.429	14868
847.565	14861
847.701	15093
847.837	14682
847.972	14568
848.108	14796
848.244	14773
848.379	14522
848.515	14484
848.65	14476
848.786	14377
848.921	14583
849.057	14617
849.192	14640
849.328	14571
849.463	14465
849.598	14511
849.734	14476
849.869	14431
850.004	14305
850.14	14355
850.275	14267
850.41	14263
850.545	14278
850.68	14309
850.815	14286
850.95	14244
851.085	14476
851.22	14393
851.355	14328
851.49	14271
851.625	14309
851.76	14149
851.895	14206
852.03	14153
852.165	14290
852.299	14294
852.434	14389
852.569	14278
852.703	14244
852.838	14286
852.973	14473
853.107	14434
853.242	14278
853.376	14195
853.511	13997
853.645	14134
853.78	14244
853.914	14123
854.048	14210
854.183	14142
854.317	14130
854.451	14358
854.585	14161
854.72	14164
854.854	14259
854.988	14077
855.122	14176
855.256	14039
855.39	14248
855.524	14267
855.658	14218
855.792	14145
855.926	14218
856.06	14168
856.194	14282
856.327	14180
856.461	14134
856.595	14054
856.729	14088
856.862	14191
856.996	14214
857.13	14218
857.263	14328
857.397	14305
857.53	14138
857.664	14298
857.797	14180
857.931	14290
858.064	14195
858.197	14195
858.331	14088
858.464	14149
858.597	14043
858.731	14119
858.864	14161
858.997	14069
859.13	14183
859.263	14157
859.396	14324
859.529	14115
859.662	14119
859.795	14153
859.928	14202
860.061	14305
860.194	14438
860.327	14210
860.46	14168
860.592	14271
860.725	14301
860.858	14256
860.99	14153
861.123	14096
861.256	14187
861.388	14195
861.521	14868
861.653	14069
861.786	14001
861.918	14027
862.05	14100
862.183	14054
862.315	14164
862.447	14130
862.58	14130
862.712	13902
862.844	13852
862.976	13944
863.108	13856
863.24	14278
863.372	13849
863.504	13890
863.636	13921
863.768	14031
863.9	13955
864.032	13913
864.164	13925
864.296	14058
864.428	14054
864.559	14008
864.691	14035
864.823	14046
864.954	14103
865.086	13913
865.217	13902
865.349	13811
865.48	13932
865.612	13925
865.743	14020
865.875	13898
866.006	13890
866.137	13974
866.269	13955
866.4	13951
866.531	13932
866.662	13807
866.793	13986
866.924	13898
867.055	13925
867.186	14016
867.317	13738
867.448	13894
867.579	13913
867.71	13936
867.841	13833
867.972	13970
868.103	13879
868.233	13967
868.364	13837
868.495	14046
868.625	14153
868.756	14240
868.886	14092
869.017	14130
869.147	14347
869.278	14210
869.408	14164
869.539	14271
869.669	14233
869.799	14157
869.929	14298
870.06	14320
870.19	14545
870.32	14480
870.45	14552
870.58	14530
870.71	14693
870.84	14670
870.97	14583
871.1	14610
871.23	14796
871.36	14739
871.489	14705
871.619	14758
871.749	14648
871.879	14731
872.008	14762
872.138	14819
872.267	14693
872.397	14667
872.526	14621
872.656	14549
872.785	14522
872.915	14792
873.044	14857
873.173	14792
873.303	14994
873.432	14872
873.561	14876
873.69	14887
873.819	14765
873.948	14921
874.077	14891
874.206	14838
874.335	14861
874.464	14910
874.593	15192
874.722	15085
874.851	15230
874.979	15058
875.108	15214
875.237	15028
875.365	15062
875.494	15112
875.623	15211
875.751	15165
875.88	15176
876.008	15336
876.136	15329
876.265	15561
876.393	15759
876.521	15564
876.65	15637
876.778	15660
876.906	15511
877.034	15416
877.162	15633
877.29	15526
877.418	15656
877.546	15572
877.674	15504
877.802	15553
877.93	15637
878.058	15553
878.185	15378
878.313	15542
878.441	15587
878.568	15443
878.696	15572
878.824	15507
878.951	15549
879.079	15766
879.206	15911
879.333	15656
879.461	15713
879.588	15587
879.715	15808
879.842	15895
879.97	15690
880.097	15473
880.224	15393
880.351	15306
880.478	15332
880.605	15386
880.732	15313
880.859	15625
880.986	15447
881.112	15431
881.239	15374
881.366	15150
881.493	15070
881.619	15070
881.746	15024
881.872	15058
881.999	14990
882.125	15112
882.252	15169
882.378	15154
882.505	15180
882.631	15047
882.757	14872
882.883	14921
883.01	14956
883.136	14853
883.262	14735
883.388	14705
883.514	14982
883.64	14960
883.766	14807
883.892	14724
884.018	14727
884.143	14804
884.269	14994
884.395	14716
884.52	14560
884.646	14610
884.772	14488
884.897	14590
885.023	14549
885.148	14629
885.274	14754
885.399	14750
885.524	14602
885.65	14697
885.775	14636
885.9	14495
886.025	14720
886.15	14629
886.275	14427
886.4	14568
886.525	14587
886.65	14503
886.775	14469
886.9	14746
887.025	14800
887.149	14625
887.274	14484
887.399	14328
887.523	14465
887.648	14298
887.773	14370
887.897	14552
888.021	14442
888.146	14343
888.27	14518
888.395	14613
888.519	14450
888.643	14492
888.767	14492
888.891	14343
889.015	14355
889.139	14176
889.263	14199
889.387	14450
889.511	14537
889.635	14431
889.759	14294
889.883	14225
890.006	14381
890.13	14465
890.254	14244
890.377	14275
890.501	14142
890.624	14069
890.748	14172
890.871	14012
890.995	13894
891.118	13997
891.241	14046
891.364	13986
891.488	14172
891.611	14035
891.734	13970
891.857	14088
891.98	13868
892.103	14084
892.226	14077
892.349	13982
892.471	13860
892.594	13986
892.717	14024
892.839	13974
892.962	13970
893.085	14092
893.207	13959
893.33	13909
893.452	14027
893.575	14046
893.697	14024
893.819	14119
893.941	14244
894.064	14100
894.186	14012
894.308	14024
894.43	14149
894.552	14157
894.674	14073
894.796	13940
894.918	13970
895.04	14062
895.161	14145
895.283	14164
895.405	13993
895.526	14119
895.648	14138
895.769	14218
895.891	14092
896.012	14191
896.134	14244
896.255	14172
896.376	14069
896.498	14183
896.619	14195
896.74	14187
896.861	14324
896.982	14488
897.103	14697
897.224	14499
897.345	14393
897.466	14381
897.587	14434
897.708	14602
897.828	14537
897.949	14370
898.07	14210
898.19	14423
898.311	14587
898.431	14427
898.552	14598
898.672	14632
898.792	14689
898.913	14648
899.033	14423
899.153	14298
899.273	14229
899.393	14366
899.513	14400
899.633	14343
899.753	14427
899.873	14343
899.993	14415
900.113	14362
900.232	14415
900.352	14438
900.472	14294
900.591	14126
900.711	14229
900.83	14149
900.95	14294
901.069	14336
901.189	14168
901.308	13997
901.427	13890
901.546	13921
901.665	13898
901.784	13898
901.904	13761
902.023	13685
902.141	13510
902.26	13510
902.379	13609
902.498	13445
902.617	13419
902.735	13453
902.854	13460
902.973	13449
903.091	13244
903.21	13232
903.328	13183
903.446	13149
903.565	13099
903.683	13122
903.801	13000
903.919	13099
904.038	13008
904.156	12867
904.274	12962
904.392	12829
904.51	12897
904.627	12935
904.745	12913
904.863	12935
904.981	12760
905.098	12578
905.216	12540
905.334	12555
905.451	12673
905.569	12612
905.686	12578
905.803	12620
905.921	12369
906.038	12479
906.155	12403
906.272	12251
906.389	12262
906.506	12247
906.623	12114
906.74	12129
906.857	12106
906.974	12030
907.091	12247
907.208	12266
907.324	12110
907.441	12083
907.557	11977
907.674	12007
907.79	11927
907.907	11920
908.023	11882
908.139	11851
908.256	11866
908.372	11828
908.488	11851
908.604	11649
908.72	11604
908.836	11668
908.952	11615
909.068	11608
909.184	11722
909.3	11623
909.415	11752
909.531	11710
909.647	11448
909.762	11417
909.878	11459
909.993	11410
910.108	11436
910.224	11440
910.339	11452
910.454	11360
910.57	11261
910.685	11136
910.8	11497
910.915	11421
911.03	11360
911.145	11113
911.259	11147
911.374	11117
911.489	11071
911.604	10961
911.718	10873
911.833	10946
911.947	10835
912.062	10679
912.176	10885
912.291	10839
912.405	10923
912.519	11098
912.633	11048
912.748	11006
912.862	10938
912.976	10828
913.09	10706
913.204	10714
913.318	10748
913.431	10911
913.545	10858
913.659	10911
913.772	10782
913.886	10675
914	10706
914.113	10790
914.226	10733
914.34	10744
914.453	10538
914.566	10763
914.68	10554
914.793	10664
914.906	10440
915.019	10402
915.132	10352
915.245	10390
915.358	10443
915.47	10363
915.583	10447
915.696	10436
915.809	10584
915.921	10550
916.034	10363
916.146	10348
916.259	10394
916.371	10500
916.483	10474
916.595	10352
916.708	10447
916.82	10363
916.932	10371
917.044	10306
917.156	10287
917.268	10207
917.38	10284
917.491	10211
917.603	10280
917.715	10440
917.826	10341
917.938	10177
918.049	10128
918.161	10238
918.272	10451
918.384	10333
918.495	10303
918.606	10139
918.717	10036
918.828	10196
918.939	10105
919.05	10097
919.161	10116
919.272	9945
919.383	9994
919.494	10173
919.604	10329
919.715	10181
919.826	10025
919.936	9987
920.047	10185
920.157	10158
920.267	10295
920.378	10150
920.488	10192
920.598	10398
920.708	10478
920.818	10303
920.928	10356
921.038	10489
921.148	10546
921.258	10204
921.368	10120
921.477	10017
921.587	9987
921.697	9895
921.806	9968
921.916	10006
922.025	9644
922.134	9778
922.244	9713
922.353	9724
922.462	9610
922.571	9545
922.68	9431
922.789	9393
922.898	9469
923.007	9344
923.116	9447
923.224	9439
923.333	9378
923.442	9294
923.55	9302
923.659	9321
923.767	9272
923.876	9241
923.984	9348
924.092	9169
924.201	9272
924.309	9192
924.417	9253
924.525	9230
924.633	9287
924.741	10147
924.849	9074
924.956	9192
925.064	9032
925.172	8952
925.279	8975
925.387	9028
925.494	9024
925.602	9218
925.709	9245
925.816	8971
925.924	9131
926.031	9085
926.138	9066
926.245	9070
926.352	8994
926.459	9146
926.566	9157
926.673	9013
926.779	8929
926.886	8845
926.993	8815
927.099	8777
927.206	8716
927.312	8739
927.419	8861
927.525	8864
927.631	8826
927.737	8651
927.843	8712
927.95	8587
928.056	8587
928.162	8731
928.267	8720
928.373	9241
928.479	8686
928.585	8480
928.69	8667
928.796	8769
928.901	8590
929.007	8503
929.112	8564
929.218	8499
929.323	8484
929.428	8514
929.533	8568
929.638	8446
929.743	8488
929.848	8533
929.953	8450
930.058	8419
930.163	8225
930.267	8240
930.372	8454
930.477	8305
930.581	8476
930.685	8358
930.79	8199
930.894	8187
930.998	8252
931.103	8286
931.207	7967
931.311	7978
931.415	7887
931.519	7731
931.623	7723
