Data from test_V78500241_2243.txt Node
Date: Fri Mar 25 14:49:19 CST 2022
User: usil
Spectrometer: V785-0024
Trigger mode: 0
Integration Time (sec): 4.000000E-1
Scans to average: 1
Nonlinearity correction enabled: false
Boxcar width: 0
Storing dark spectrum: false
XAxis mode: Wavelengths
Number of Pixels in Spectrum: 1024
>>>>>Begin Spectral Data<<<<<
801.071	22249
801.214	22055
801.356	21800
801.499	21739
801.641	21618
801.783	21492
801.926	21595
802.068	21412
802.211	21439
802.353	21450
802.496	21188
802.638	20963
802.78	20982
802.923	20952
803.065	20853
803.208	20868
803.35	20895
803.492	20941
803.635	21104
803.777	20952
803.919	20876
804.061	21363
804.204	20952
804.346	20724
804.488	20785
804.63	20807
804.773	20773
804.915	20781
805.057	20921
805.199	20762
805.341	20906
805.483	20906
805.626	20872
805.768	20781
805.91	20796
806.052	20811
806.194	20811
806.336	20914
806.478	20868
806.62	20781
806.762	20823
806.904	21017
807.046	21112
807.188	21093
807.33	21157
807.472	21154
807.614	20982
807.756	21142
807.898	21028
808.04	20921
808.182	20929
808.324	20902
808.465	20807
808.607	21116
808.749	21241
808.891	21382
809.033	21355
809.174	21298
809.316	21176
809.458	21176
809.6	21127
809.741	21142
809.883	21199
810.025	21355
810.166	21321
810.308	21272
810.45	21389
810.591	21313
810.733	21074
810.875	20956
811.016	20845
811.158	20967
811.299	21138
811.441	21211
811.582	21138
811.724	20986
811.865	20975
812.007	20868
812.148	20887
812.29	21028
812.431	21013
812.573	21195
812.714	21344
812.855	21492
812.997	21686
813.138	21637
813.279	21633
813.421	21439
813.562	21359
813.703	21165
813.845	21123
813.986	20845
814.127	20773
814.268	20613
814.41	20545
814.551	20533
814.692	20705
814.833	20480
814.974	20549
815.115	20461
815.256	20324
815.397	20423
815.539	20328
815.68	20244
815.821	20157
815.962	20229
816.103	20278
816.244	20187
816.385	20039
816.526	20073
816.666	19769
816.807	19647
816.948	19719
817.089	19837
817.23	19826
817.371	19689
817.512	19616
817.653	19708
817.793	19499
817.934	19578
818.075	19658
818.216	19521
818.356	19548
818.497	19472
818.638	19289
818.778	19426
818.919	19373
819.06	19407
819.2	19468
819.341	19438
819.481	19582
819.622	19708
819.762	19921
819.903	19852
820.043	19700
820.184	19643
820.324	19537
820.465	19681
820.605	19601
820.746	19662
820.886	19529
821.026	19563
821.167	19514
821.307	19628
821.447	19510
821.588	19510
821.728	19346
821.868	19190
822.008	19065
822.149	19004
822.289	18985
822.429	18798
822.569	18711
822.709	18635
822.849	18574
822.99	18582
823.13	18384
823.27	18486
823.41	18323
823.55	18296
823.69	18292
823.83	18361
823.97	18289
824.11	18030
824.25	18121
824.389	17999
824.529	18152
824.669	18167
824.809	18285
824.949	18197
825.089	18174
825.228	18053
825.368	17866
825.508	17908
825.648	17961
825.787	17824
825.927	17923
826.067	17821
826.206	17840
826.346	17923
826.485	17859
826.625	17843
826.765	17874
826.904	17935
827.044	17581
827.183	17665
827.323	17604
827.462	17600
827.601	17478
827.741	17524
827.88	17707
828.02	17512
828.159	17585
828.298	17551
828.437	17547
828.577	17440
828.716	17627
828.855	17436
828.994	17318
829.134	17269
829.273	17299
829.412	17189
829.551	17292
829.69	17311
829.829	17235
829.968	17372
830.107	17379
830.246	17311
830.385	17284
830.524	17200
830.663	17132
830.802	17003
830.941	16927
831.08	16904
831.219	16946
831.357	17006
831.496	17025
831.635	16862
831.774	16839
831.913	16759
832.051	16649
832.19	16637
832.329	16752
832.467	16641
832.606	16577
832.744	16516
832.883	16546
833.022	16519
833.16	16618
833.299	16554
833.437	16607
833.576	16733
833.714	16645
833.852	16710
833.991	16622
834.129	16725
834.267	16736
834.406	16679
834.544	16645
834.682	16668
834.821	16588
834.959	16839
835.097	16592
835.235	16771
835.373	16668
835.511	16611
835.65	16504
835.788	16516
835.926	16390
836.064	16409
836.202	16352
836.34	16554
836.478	16596
836.615	16481
836.753	16611
836.891	16679
837.029	16504
837.167	16440
837.305	16459
837.443	16466
837.58	16348
837.718	16504
837.856	16371
837.993	16257
838.131	16348
838.269	16295
838.406	16337
838.544	16230
838.681	16154
838.819	15983
838.956	15876
839.094	15937
839.231	16051
839.369	16032
839.506	16394
839.643	16215
839.781	15937
839.918	15854
840.055	16032
840.193	15888
840.33	15895
840.467	15888
840.604	15987
840.742	16192
840.879	15793
841.016	15846
841.153	15846
841.29	15892
841.427	15972
841.564	16010
841.701	15930
841.838	15991
841.975	15895
842.112	15861
842.249	15781
842.385	15618
842.522	15922
842.659	15694
842.796	15701
842.933	15823
843.069	15705
843.206	15713
843.343	15747
843.479	15686
843.616	15606
843.752	15564
843.889	15462
844.025	15549
844.162	15473
844.298	15606
844.435	15462
844.571	15397
844.708	15572
844.844	15663
844.98	15606
845.117	15614
845.253	15397
845.389	15351
845.525	15412
845.661	15408
845.798	15165
845.934	15428
846.07	15294
846.206	15435
846.342	15447
846.478	15329
846.614	15081
846.75	15070
846.886	14952
847.022	15051
847.158	14990
847.294	15093
847.429	15081
847.565	15093
847.701	15230
847.837	14815
847.972	14857
848.108	14990
848.244	14781
848.379	14659
848.515	14644
848.65	14629
848.786	14632
848.921	14735
849.057	14781
849.192	14705
849.328	14625
849.463	14682
849.598	14583
849.734	14541
849.869	14484
850.004	14511
850.14	14499
850.275	14518
850.41	14389
850.545	14412
850.68	14434
850.815	14423
850.95	14404
851.085	14610
851.22	14473
851.355	14488
851.49	14442
851.625	14412
851.76	14408
851.895	14301
852.03	14343
852.165	14355
852.299	14427
852.434	14530
852.569	14499
852.703	14450
852.838	14518
852.973	14663
853.107	14651
853.242	14454
853.376	14298
853.511	14130
853.645	14282
853.78	14408
853.914	14298
854.048	14309
854.183	14271
854.317	14404
854.451	14499
854.585	14339
854.72	14282
854.854	14347
854.988	14256
855.122	14286
855.256	14138
855.39	14225
855.524	14355
855.658	14332
855.792	14396
855.926	14396
856.06	14412
856.194	14473
856.327	14332
856.461	14324
856.595	14275
856.729	14275
856.862	14473
856.996	14362
857.13	14476
857.263	14454
857.397	14530
857.53	14259
857.664	14385
857.797	14469
857.931	14381
858.064	14381
858.197	14507
858.331	14339
858.464	14294
858.597	14138
858.731	14313
858.864	14195
858.997	14336
859.13	14324
859.263	14336
859.396	14370
859.529	14328
859.662	14271
859.795	14244
859.928	14396
860.061	14469
860.194	14499
860.327	14381
860.46	14286
860.592	14362
860.725	14434
860.858	14412
860.99	14377
861.123	14229
861.256	14267
861.388	14358
861.521	14933
861.653	14191
861.786	14119
861.918	14161
862.05	14221
862.183	14313
862.315	14377
862.447	14423
862.58	14305
862.712	14096
862.844	14088
862.976	14191
863.108	14134
863.24	14533
863.372	13936
863.504	14016
863.636	14126
863.768	14126
863.9	14088
864.032	14073
864.164	14172
864.296	14058
864.428	14248
864.559	14157
864.691	14240
864.823	14103
864.954	14153
865.086	14058
865.217	13959
865.349	14054
865.48	14088
865.612	14130
865.743	14195
865.875	14054
866.006	14050
866.137	14103
866.269	14035
866.4	14130
866.531	14107
866.662	14031
866.793	14081
866.924	14027
867.055	14119
867.186	14065
867.317	14008
867.448	14119
867.579	14107
867.71	14012
867.841	14024
867.972	14065
868.103	14107
868.233	14130
868.364	14103
868.495	14149
868.625	14332
868.756	14427
868.886	14157
869.017	14233
869.147	14476
869.278	14461
869.408	14328
869.539	14347
869.669	14454
869.799	14324
869.929	14476
870.06	14419
870.19	14693
870.32	14629
870.45	14659
870.58	14682
870.71	14785
870.84	14857
870.97	14750
871.1	14777
871.23	14929
871.36	14921
871.489	14864
871.619	14883
871.749	14887
871.879	14944
872.008	15089
872.138	14963
872.267	14895
872.397	14811
872.526	14800
872.656	14701
872.785	14845
872.915	15017
873.044	15070
873.173	14963
873.303	15119
873.432	14899
873.561	14967
873.69	14960
873.819	14975
873.948	15081
874.077	15077
874.206	14998
874.335	14895
874.464	15131
874.593	15222
874.722	15222
874.851	15374
874.979	15412
875.108	15458
875.237	15264
875.365	15176
875.494	15256
875.623	15321
875.751	15367
875.88	15325
876.008	15374
876.136	15466
876.265	15660
876.393	15770
876.521	15838
876.65	15739
876.778	15793
876.906	15766
877.034	15667
877.162	15717
877.29	15641
877.418	15682
877.546	15755
877.674	15774
877.802	15698
877.93	15694
878.058	15781
878.185	15504
878.313	15542
878.441	15709
878.568	15557
878.696	15747
878.824	15751
878.951	15884
879.079	15892
879.206	15911
879.333	15823
879.461	15778
879.588	15823
879.715	15869
879.842	16013
879.97	15819
880.097	15553
880.224	15568
880.351	15599
880.478	15584
880.605	15534
880.732	15519
880.859	15682
880.986	15557
881.112	15523
881.239	15466
881.366	15272
881.493	15291
881.619	15135
881.746	15252
881.872	15214
881.999	15188
882.125	15157
882.252	15211
882.378	15291
882.505	15302
882.631	15180
882.757	15028
882.883	15074
883.01	15116
883.136	14941
883.262	14864
883.388	14880
883.514	15047
883.64	15028
883.766	15032
883.892	14773
884.018	14842
884.143	15039
884.269	15051
884.395	14777
884.52	14640
884.646	14686
884.772	14594
884.897	14602
885.023	14731
885.148	14823
885.274	14826
885.399	14773
885.524	14739
885.65	14731
885.775	14686
885.9	14712
886.025	14838
886.15	14785
886.275	14724
886.4	14575
886.525	14727
886.65	14590
886.775	14739
886.9	14830
887.025	15032
887.149	14750
887.274	14552
887.399	14454
887.523	14454
887.648	14469
887.773	14434
887.897	14568
888.021	14564
888.146	14499
888.27	14663
888.395	14727
888.519	14549
888.643	14648
888.767	14602
888.891	14450
889.015	14431
889.139	14488
889.263	14450
889.387	14579
889.511	14602
889.635	14564
889.759	14385
889.883	14351
890.006	14465
890.13	14552
890.254	14358
890.377	14415
890.501	14286
890.624	14142
890.748	14294
890.871	14176
890.995	14100
891.118	13986
891.241	14081
891.364	14187
891.488	14328
891.611	14145
891.734	13986
891.857	14142
891.98	14153
892.103	14096
892.226	14161
892.349	14020
892.471	13967
892.594	14107
892.717	14126
892.839	14119
892.962	14065
893.085	14134
893.207	14107
893.33	13955
893.452	14035
893.575	14244
893.697	14130
893.819	14298
893.941	14290
894.064	14290
894.186	14054
894.308	14107
894.43	14278
894.552	14301
894.674	14271
894.796	14126
894.918	14088
895.04	14119
895.161	14396
895.283	14218
895.405	14145
895.526	14195
895.648	14282
895.769	14252
895.891	14271
896.012	14328
896.134	14347
896.255	14267
896.376	14199
896.498	14282
896.619	14256
896.74	14252
896.861	14446
896.982	14549
897.103	14720
897.224	14594
897.345	14530
897.466	14492
897.587	14560
897.708	14651
897.828	14560
897.949	14610
898.07	14461
898.19	14499
898.311	14724
898.431	14514
898.552	14777
898.672	14819
898.792	14720
898.913	14648
899.033	14545
899.153	14522
899.273	14377
899.393	14476
899.513	14473
899.633	14514
899.753	14564
899.873	14484
899.993	14511
900.113	14476
900.232	14663
900.352	14499
900.472	14454
900.591	14355
900.711	14351
900.83	14328
900.95	14492
901.069	14446
901.189	14324
901.308	14016
901.427	13993
901.546	14020
901.665	14111
901.784	14016
901.904	13936
902.023	13811
902.141	13643
902.26	13616
902.379	13689
902.498	13552
902.617	13556
902.735	13700
902.854	13632
902.973	13533
903.091	13358
903.21	13320
903.328	13335
903.446	13308
903.565	13156
903.683	13206
903.801	13133
903.919	13091
904.038	13114
904.156	13019
904.274	13160
904.392	13038
904.51	12970
904.627	12916
904.745	13038
904.863	13129
904.981	12844
905.098	12681
905.216	12677
905.334	12734
905.451	12703
905.569	12650
905.686	12662
905.803	12707
905.921	12437
906.038	12650
906.155	12494
906.272	12429
906.389	12460
906.506	12330
906.623	12281
906.74	12205
906.857	12079
906.974	12133
907.091	12380
907.208	12319
907.324	12289
907.441	12216
907.557	12007
907.674	12019
907.79	11920
907.907	11897
908.023	12068
908.139	12019
908.256	11923
908.372	11935
908.488	11813
908.604	11752
908.72	11809
908.836	11786
908.952	11684
909.068	11843
909.184	11855
909.3	11767
909.415	11870
909.531	11707
909.647	11547
909.762	11589
909.878	11535
909.993	11592
910.108	11554
910.224	11490
910.339	11562
910.454	11440
910.57	11372
910.685	11261
910.8	11589
910.915	11551
911.03	11455
911.145	11212
911.259	11239
911.374	11220
911.489	11189
911.604	11071
911.718	11014
911.833	11018
911.947	10885
912.062	10835
912.176	10934
912.291	10999
912.405	11006
912.519	11227
912.633	11178
912.748	11098
912.862	11025
912.976	10877
913.09	10744
913.204	10812
913.318	10889
913.431	10995
913.545	10923
913.659	10953
913.772	10831
913.886	10778
914	10733
914.113	10858
914.226	10850
914.34	10847
914.453	10599
914.566	10835
914.68	10725
914.793	10729
914.906	10523
915.019	10478
915.132	10474
915.245	10516
915.358	10455
915.47	10523
915.583	10519
915.696	10630
915.809	10615
915.921	10694
916.034	10523
916.146	10440
916.259	10436
916.371	10565
916.483	10481
916.595	10386
916.708	10424
916.82	10478
916.932	10417
917.044	10371
917.156	10375
917.268	10356
917.38	10322
917.491	10333
917.603	10352
917.715	10447
917.826	10470
917.938	10348
918.049	10169
918.161	10360
918.272	10466
918.384	10516
918.495	10413
918.606	10188
918.717	10086
918.828	10215
918.939	10192
919.05	10166
919.161	10166
919.272	9991
919.383	10143
919.494	10295
919.604	10519
919.715	10234
919.826	10147
919.936	10249
920.047	10306
920.157	10219
920.267	10451
920.378	10162
920.488	10135
920.598	10421
920.708	10519
920.818	10413
920.928	10405
921.038	10573
921.148	10573
921.258	10253
921.368	10238
921.477	10086
921.587	10105
921.697	9979
921.806	10051
921.916	9968
922.025	9846
922.134	9732
922.244	9766
922.353	9812
922.462	9675
922.571	9667
922.68	9500
922.789	9481
922.898	9534
923.007	9370
923.116	9492
923.224	9504
923.333	9447
923.442	9310
923.55	9348
923.659	9382
923.767	9408
923.876	9260
923.984	9485
924.092	9245
924.201	9302
924.309	9469
924.417	9363
924.525	9302
924.633	9340
924.741	10242
924.849	9097
924.956	9302
925.064	9146
925.172	9017
925.279	9123
925.387	9089
925.494	9123
925.602	9298
925.709	9249
925.816	9017
925.924	9119
926.031	9207
926.138	9169
926.245	9165
926.352	9005
926.459	9142
926.566	9146
926.673	9066
926.779	8986
926.886	9005
926.993	8887
927.099	8876
927.206	8861
927.312	8750
927.419	8941
927.525	8864
927.631	8918
927.737	8807
927.843	8785
927.95	8621
928.056	8807
928.162	8811
928.267	8838
928.373	9344
928.479	8785
928.585	8606
928.69	8766
928.796	8727
928.901	8621
929.007	8465
929.112	8667
929.218	8693
929.323	8590
929.428	8590
929.533	8758
929.638	8484
929.743	8541
929.848	8526
929.953	8552
930.058	8526
930.163	8309
930.267	8374
930.372	8552
930.477	8240
930.581	8571
930.685	8427
930.79	8275
930.894	8218
930.998	8244
931.103	8404
931.207	8065
931.311	7997
931.415	8027
931.519	7780
931.623	7814
