Data from test_V78500241_1531.txt Node
Date: Fri Mar 25 14:44:22 CST 2022
User: usil
Spectrometer: V785-0024
Trigger mode: 0
Integration Time (sec): 4.000000E-1
Scans to average: 1
Nonlinearity correction enabled: false
Boxcar width: 0
Storing dark spectrum: false
XAxis mode: Wavelengths
Number of Pixels in Spectrum: 1024
>>>>>Begin Spectral Data<<<<<
801.071	22402
801.214	22295
801.356	21941
801.499	21869
801.641	21770
801.783	21854
801.926	21842
802.068	21781
802.211	21637
802.353	21599
802.496	21310
802.638	21275
802.78	21332
802.923	21135
803.065	21028
803.208	21066
803.35	21096
803.492	21119
803.635	21329
803.777	21203
803.919	21226
804.061	21431
804.204	21135
804.346	21043
804.488	21009
804.63	21055
804.773	21020
804.915	21047
805.057	21100
805.199	20990
805.341	21009
805.483	21104
805.626	21199
805.768	20998
805.91	20994
806.052	20994
806.194	21013
806.336	21165
806.478	21020
806.62	20937
806.762	21135
806.904	21256
807.046	21431
807.188	21450
807.33	21355
807.472	21534
807.614	21340
807.756	21378
807.898	21169
808.04	21211
808.182	21142
808.324	21230
808.465	21374
808.607	21386
808.749	21534
808.891	21545
809.033	21747
809.174	21663
809.316	21458
809.458	21504
809.6	21454
809.741	21595
809.883	21534
810.025	21732
810.166	21572
810.308	21553
810.45	21454
810.591	21405
810.733	21211
810.875	21173
811.016	21142
811.158	21226
811.299	21302
811.441	21359
811.582	21279
811.724	21283
811.865	21260
812.007	21074
812.148	21207
812.29	21241
812.431	21374
812.573	21447
812.714	21648
812.855	21717
812.997	21876
813.138	21915
813.279	21728
813.421	21804
813.562	21686
813.703	21496
813.845	21306
813.986	21146
814.127	20800
814.268	20845
814.41	20807
814.551	20636
814.692	20796
814.833	20731
814.974	20708
815.115	20746
815.256	20560
815.397	20492
815.539	20545
815.68	20629
815.821	20469
815.962	20541
816.103	20488
816.244	20343
816.385	20221
816.526	20320
816.666	20050
816.807	19967
816.948	20058
817.089	20161
817.23	19932
817.371	19845
817.512	19974
817.653	19947
817.793	19791
817.934	19860
818.075	19906
818.216	19826
818.356	19871
818.497	19681
818.638	19582
818.778	19597
818.919	19696
819.06	19643
819.2	19776
819.341	19719
819.481	19712
819.622	19868
819.762	20142
819.903	20062
820.043	19940
820.184	19833
820.324	19883
820.465	19967
820.605	19849
820.746	19947
820.886	19719
821.026	19826
821.167	19746
821.307	19887
821.447	19765
821.588	19658
821.728	19521
821.868	19343
822.008	19274
822.149	19198
822.289	19232
822.429	18977
822.569	18966
822.709	18985
822.849	18795
822.99	18730
823.13	18753
823.27	18753
823.41	18627
823.55	18506
823.69	18547
823.83	18525
823.97	18486
824.11	18304
824.25	18277
824.389	18395
824.529	18376
824.669	18403
824.809	18498
824.949	18456
825.089	18315
825.228	18403
825.368	18167
825.508	18171
825.648	18129
825.787	18205
825.927	18232
826.067	18034
826.206	18022
826.346	18163
826.485	18026
826.625	18251
826.765	18243
826.904	18163
827.044	17897
827.183	17790
827.323	17684
827.462	17988
827.601	17764
827.741	17741
827.88	17836
828.02	17642
828.159	17687
828.298	17870
828.437	17824
828.577	17733
828.716	17950
828.855	17805
828.994	17604
829.134	17505
829.273	17657
829.412	17512
829.551	17512
829.69	17581
829.829	17623
829.968	17695
830.107	17558
830.246	17566
830.385	17364
830.524	17452
830.663	17383
830.802	17345
830.941	17109
831.08	17143
831.219	17193
831.357	17155
831.496	17425
831.635	17147
831.774	16961
831.913	17064
832.051	16972
832.19	16965
832.329	17010
832.467	16987
832.606	16790
832.744	16858
832.883	16839
833.022	16831
833.16	16854
833.299	16957
833.437	16850
833.576	17067
833.714	16881
833.852	16805
833.991	16881
834.129	17006
834.267	17037
834.406	16934
834.544	16866
834.682	16858
834.821	16991
834.959	17056
835.097	16752
835.235	16953
835.373	16908
835.511	16949
835.65	16831
835.788	16858
835.926	16634
836.064	16519
836.202	16672
836.34	16812
836.478	16942
836.615	16736
836.753	16908
836.891	16896
837.029	16729
837.167	16790
837.305	16656
837.443	16740
837.58	16649
837.718	16736
837.856	16584
837.993	16733
838.131	16736
838.269	16523
838.406	16641
838.544	16527
838.681	16322
838.819	16443
838.956	16246
839.094	16246
839.231	16299
839.369	16333
839.506	16535
839.643	16462
839.781	16253
839.918	16112
840.055	16143
840.193	16192
840.33	16150
840.467	16097
840.604	16196
840.742	16409
840.879	16036
841.016	16154
841.153	16131
841.29	16341
841.427	16177
841.564	16211
841.701	16230
841.838	16204
841.975	16013
842.112	16040
842.249	16002
842.385	15994
842.522	16196
842.659	15972
842.796	15975
842.933	15956
843.069	15922
843.206	15926
843.343	16120
843.479	15968
843.616	15884
843.752	15759
843.889	15778
844.025	15979
844.162	15717
844.298	15831
844.435	15793
844.571	15728
844.708	15804
844.844	15915
844.98	15915
845.117	15873
845.253	15770
845.389	15755
845.525	15743
845.661	15762
845.798	15625
845.934	15694
846.07	15629
846.206	15903
846.342	15857
846.478	15648
846.614	15454
846.75	15397
846.886	15317
847.022	15458
847.158	15386
847.294	15336
847.429	15389
847.565	15272
847.701	15485
847.837	15081
847.972	15005
848.108	15093
848.244	15150
848.379	14982
848.515	14861
848.65	14872
848.786	15017
848.921	14944
849.057	15009
849.192	15001
849.328	14933
849.463	15055
849.598	14819
849.734	14876
849.869	14937
850.004	14701
850.14	14785
850.275	14708
850.41	14640
850.545	14708
850.68	14663
850.815	14701
850.95	14621
851.085	14929
851.22	14769
851.355	14712
851.49	14659
851.625	14533
851.76	14739
851.895	14457
852.03	14522
852.165	14602
852.299	14674
852.434	14762
852.569	14663
852.703	14724
852.838	14724
852.973	14765
853.107	14933
853.242	14727
853.376	14632
853.511	14404
853.645	14488
853.78	14682
853.914	14594
854.048	14564
854.183	14507
854.317	14617
854.451	14693
854.585	14625
854.72	14571
854.854	14720
854.988	14461
855.122	14602
855.256	14324
855.39	14560
855.524	14602
855.658	14579
855.792	14568
855.926	14667
856.06	14545
856.194	14674
856.327	14621
856.461	14514
856.595	14530
856.729	14530
856.862	14735
856.996	14625
857.13	14659
857.263	14686
857.397	14625
857.53	14518
857.664	14636
857.797	14579
857.931	14651
858.064	14560
858.197	14651
858.331	14552
858.464	14495
858.597	14347
858.731	14636
858.864	14610
858.997	14533
859.13	14705
859.263	14556
859.396	14526
859.529	14560
859.662	14541
859.795	14537
859.928	14503
860.061	14746
860.194	14602
860.327	14537
860.46	14575
860.592	14590
860.725	14746
860.858	14674
860.99	14590
861.123	14575
861.256	14480
861.388	14674
861.521	15218
861.653	14469
861.786	14389
861.918	14419
862.05	14511
862.183	14492
862.315	14564
862.447	14602
862.58	14484
862.712	14366
862.844	14298
862.976	14240
863.108	14366
863.24	14705
863.372	14252
863.504	14301
863.636	14324
863.768	14518
863.9	14404
864.032	14366
864.164	14259
864.296	14290
864.428	14454
864.559	14336
864.691	14396
864.823	14404
864.954	14385
865.086	14358
865.217	14290
865.349	14244
865.48	14313
865.612	14244
865.743	14415
865.875	14256
866.006	14313
866.137	14278
866.269	14294
866.4	14278
866.531	14294
866.662	14290
866.793	14324
866.924	14313
867.055	14343
867.186	14233
867.317	14259
867.448	14195
867.579	14271
867.71	14161
867.841	14278
867.972	14240
868.103	14298
868.233	14282
868.364	14358
868.495	14389
868.625	14518
868.756	14625
868.886	14377
869.017	14663
869.147	14613
869.278	14686
869.408	14533
869.539	14446
869.669	14556
869.799	14610
869.929	14655
870.06	14587
870.19	14899
870.32	14876
870.45	14952
870.58	15039
870.71	15070
870.84	15081
870.97	14891
871.1	14918
871.23	15100
871.36	15119
871.489	15043
871.619	15157
871.749	15116
871.879	15169
872.008	15203
872.138	15112
872.267	15131
872.397	14982
872.526	15058
872.656	14895
872.785	14933
872.915	15104
873.044	15241
873.173	15161
873.303	15097
873.432	15252
873.561	15279
873.69	15268
873.819	15112
873.948	15226
874.077	15218
874.206	15119
874.335	15165
874.464	15298
874.593	15485
874.722	15450
874.851	15500
874.979	15584
875.108	15606
875.237	15515
875.365	15348
875.494	15515
875.623	15572
875.751	15428
875.88	15507
876.008	15713
876.136	15698
876.265	15854
876.393	16044
876.521	15991
876.65	16059
876.778	15888
876.906	15899
877.034	15850
877.162	15842
877.29	15816
877.418	16029
877.546	15884
877.674	15918
877.802	15895
877.93	15945
878.058	15892
878.185	15812
878.313	15964
878.441	15953
878.568	15857
878.696	15895
878.824	16071
878.951	15979
879.079	16147
879.206	16265
879.333	16242
879.461	16116
879.588	16150
879.715	16112
879.842	16360
879.97	15979
880.097	15857
880.224	15808
880.351	15766
880.478	15915
880.605	15823
880.732	15759
880.859	15922
880.986	15766
881.112	15846
881.239	15690
881.366	15515
881.493	15515
881.619	15477
881.746	15473
881.872	15496
881.999	15408
882.125	15355
882.252	15507
882.378	15462
882.505	15568
882.631	15378
882.757	15291
882.883	15237
883.01	15237
883.136	15104
883.262	15135
883.388	15127
883.514	15355
883.64	15275
883.766	15184
883.892	15043
884.018	15043
884.143	15260
884.269	15382
884.395	15138
884.52	15062
884.646	14952
884.772	14872
884.897	14925
885.023	14963
885.148	14982
885.274	15165
885.399	15062
885.524	14925
885.65	14956
885.775	15036
885.9	14998
886.025	15089
886.15	15039
886.275	14925
886.4	14887
886.525	14971
886.65	14864
886.775	14929
886.9	15009
887.025	15154
887.149	15039
887.274	14758
887.399	14727
887.523	14701
887.648	14716
887.773	14731
887.897	14765
888.021	14868
888.146	14663
888.27	14918
888.395	14895
888.519	14804
888.643	14777
888.767	14823
888.891	14724
889.015	14606
889.139	14689
889.263	14667
889.387	14724
889.511	14807
889.635	14746
889.759	14606
889.883	14663
890.006	14617
890.13	14735
890.254	14549
890.377	14655
890.501	14370
890.624	14339
890.748	14469
890.871	14385
890.995	14168
891.118	14240
891.241	14446
891.364	14317
891.488	14419
891.611	14240
891.734	14366
891.857	14526
891.98	14339
892.103	14461
892.226	14400
892.349	14324
892.471	14145
892.594	14332
892.717	14343
892.839	14282
892.962	14332
893.085	14408
893.207	14263
893.33	14252
893.452	14183
893.575	14355
893.697	14301
893.819	14488
893.941	14530
894.064	14518
894.186	14218
894.308	14313
894.43	14503
894.552	14503
894.674	14579
894.796	14256
894.918	14305
895.04	14294
895.161	14423
895.283	14408
895.405	14381
895.526	14442
895.648	14370
895.769	14415
895.891	14431
896.012	14610
896.134	14476
896.255	14492
896.376	14533
896.498	14427
896.619	14499
896.74	14575
896.861	14571
896.982	14785
897.103	14952
897.224	14762
897.345	14765
897.466	14705
897.587	14708
897.708	14838
897.828	14769
897.949	14708
898.07	14750
898.19	14746
898.311	14853
898.431	14743
898.552	14769
898.672	14929
898.792	14971
898.913	14899
899.033	14731
899.153	14659
899.273	14537
899.393	14674
899.513	14781
899.633	14693
899.753	14705
899.873	14640
899.993	14746
900.113	14712
900.232	14644
900.352	14644
900.472	14602
900.591	14514
900.711	14549
900.83	14473
900.95	14716
901.069	14670
901.189	14461
901.308	14358
901.427	14199
901.546	14210
901.665	14252
901.784	14180
901.904	14065
902.023	13993
902.141	13727
902.26	13856
902.379	13898
902.498	13818
902.617	13651
902.735	13830
902.854	13822
902.973	13757
903.091	13548
903.21	13525
903.328	13544
903.446	13350
903.565	13365
903.683	13453
903.801	13293
903.919	13362
904.038	13362
904.156	13137
904.274	13236
904.392	13103
904.51	13133
904.627	13190
904.745	13263
904.863	13206
904.981	12993
905.098	12798
905.216	12840
905.334	12886
905.451	12863
905.569	12840
905.686	12878
905.803	12726
905.921	12673
906.038	12810
906.155	12677
906.272	12597
906.389	12513
906.506	12448
906.623	12418
906.74	12403
906.857	12342
906.974	12346
907.091	12494
907.208	12597
907.324	12483
907.441	12369
907.557	12182
907.674	12197
907.79	12159
907.907	12194
908.023	12098
908.139	12254
908.256	12121
908.372	12136
908.488	12125
908.604	11927
908.72	12015
908.836	11992
908.952	11923
909.068	11992
909.184	12057
909.3	11992
909.415	12095
909.531	11901
909.647	11745
909.762	11764
909.878	11649
909.993	11760
910.108	11649
910.224	11627
910.339	11809
910.454	11596
910.57	11532
910.685	11532
910.8	11756
910.915	11688
911.03	11608
911.145	11402
911.259	11410
911.374	11353
911.489	11299
911.604	11284
911.718	11147
911.833	11201
911.947	10987
912.062	10923
912.176	11185
912.291	11166
912.405	11136
912.519	11288
912.633	11372
912.748	11204
912.862	11098
912.976	11079
913.09	10923
913.204	11064
913.318	11048
913.431	11140
913.545	11102
913.659	11155
913.772	10987
913.886	10904
914	10896
914.113	10946
914.226	11006
914.34	10915
914.453	10778
914.566	10923
914.68	10809
914.793	10809
914.906	10801
915.019	10630
915.132	10599
915.245	10630
915.358	10645
915.47	10714
915.583	10645
915.696	10714
915.809	10797
915.921	10801
916.034	10596
916.146	10622
916.259	10561
916.371	10641
916.483	10664
916.595	10615
916.708	10649
916.82	10531
916.932	10558
917.044	10561
917.156	10538
917.268	10417
917.38	10432
917.491	10424
917.603	10478
917.715	10573
917.826	10687
917.938	10443
918.049	10348
918.161	10516
918.272	10592
918.384	10645
918.495	10459
918.606	10337
918.717	10299
918.828	10314
918.939	10440
919.05	10223
919.161	10272
919.272	10192
919.383	10253
919.494	10405
919.604	10516
919.715	10360
919.826	10310
919.936	10310
920.047	10508
920.157	10428
920.267	10622
920.378	10386
920.488	10390
920.598	10512
920.708	10729
920.818	10599
920.928	10523
921.038	10717
921.148	10683
921.258	10360
921.368	10291
921.477	10234
921.587	10169
921.697	10082
921.806	10276
921.916	10093
922.025	9949
922.134	9918
922.244	9884
922.353	9892
922.462	9838
922.571	9800
922.68	9564
922.789	9637
922.898	9671
923.007	9542
923.116	9641
923.224	9671
923.333	9622
923.442	9504
923.55	9511
923.659	9561
923.767	9644
923.876	9435
923.984	9469
924.092	9370
924.201	9458
924.309	9431
924.417	9511
924.525	9370
924.633	9485
924.741	10348
924.849	9237
924.956	9355
925.064	9253
925.172	9165
925.279	9249
925.387	9226
925.494	9294
925.602	9431
925.709	9272
925.816	9268
925.924	9310
926.031	9313
926.138	9272
926.245	9287
926.352	9127
926.459	9321
926.566	9397
926.673	9192
926.779	9157
926.886	9112
926.993	8982
927.099	8956
927.206	8944
927.312	8918
927.419	9055
927.525	9001
927.631	9024
927.737	8880
927.843	8853
927.95	8750
928.056	8868
928.162	8910
928.267	8937
928.373	9416
928.479	8971
928.585	8697
928.69	8906
928.796	8876
928.901	8754
929.007	8575
929.112	8781
929.218	8746
929.323	8731
929.428	8731
929.533	8849
929.638	8590
929.743	8648
929.848	8724
929.953	8697
930.058	8530
930.163	8457
930.267	8465
930.372	8613
930.477	8423
930.581	8629
930.685	8469
930.79	8408
930.894	8412
930.998	8370
931.103	8602
931.207	8161
931.311	8195
931.415	8043
931.519	7841
931.623	7883
