Data from test_V78500241_122.txt Node
Date: Fri Mar 25 14:34:34 CST 2022
User: usil
Spectrometer: V785-0024
Trigger mode: 0
Integration Time (sec): 4.000000E-1
Scans to average: 1
Nonlinearity correction enabled: false
Boxcar width: 0
Storing dark spectrum: false
XAxis mode: Wavelengths
Number of Pixels in Spectrum: 1024
>>>>>Begin Spectral Data<<<<<
801.071	29942
801.214	29828
801.356	29551
801.499	29524
801.641	29140
801.783	29368
801.926	29395
802.068	29265
802.211	29235
802.353	29223
802.496	29067
802.638	29022
802.78	29162
802.923	28885
803.065	28965
803.208	28995
803.35	29025
803.492	29109
803.635	29178
803.777	29037
803.919	29254
804.061	29581
804.204	29273
804.346	29223
804.488	29048
804.63	29212
804.773	29102
804.915	29429
805.057	29551
805.199	29490
805.341	29604
805.483	29684
805.626	29714
805.768	29642
805.91	29764
806.052	29961
806.194	29821
806.336	30266
806.478	30167
806.62	30441
806.762	30525
806.904	30806
807.046	31304
807.188	31468
807.33	31879
807.472	32385
807.614	32788
807.756	33492
807.898	34219
808.04	35417
808.182	36791
808.324	38823
808.465	40930
808.607	43320
808.749	45446
808.891	46527
809.033	46584
809.174	45477
809.316	43225
809.458	40752
809.6	38450
809.741	36532
809.883	34892
810.025	33979
810.166	33180
810.308	32606
810.45	32122
810.591	31666
810.733	31244
810.875	31069
811.016	30681
811.158	30517
811.299	30525
811.441	30639
811.582	30384
811.724	30330
811.865	30117
812.007	30171
812.148	30057
812.29	29988
812.431	30098
812.573	30197
812.714	30296
812.855	30277
812.997	30372
813.138	30448
813.279	30437
813.421	30174
813.562	30167
813.703	30030
813.845	29733
813.986	29497
814.127	29273
814.268	29273
814.41	29178
814.551	29185
814.692	29109
814.833	28980
814.974	29041
815.115	29003
815.256	28782
815.397	28786
815.539	28759
815.68	28611
815.821	28706
815.962	28675
816.103	28603
816.244	28500
816.385	28554
816.526	28390
816.666	28116
816.807	28021
816.948	27956
817.089	28017
817.23	27926
817.371	28070
817.512	28051
817.653	28036
817.793	27831
817.934	27945
818.075	27903
818.216	27899
818.356	27937
818.497	27705
818.638	27728
818.778	27720
818.919	27827
819.06	27751
819.2	27774
819.341	27812
819.481	27781
819.622	27975
819.762	28048
819.903	27979
820.043	27956
820.184	27911
820.324	27907
820.465	27941
820.605	27842
820.746	27823
820.886	27595
821.026	27812
821.167	27663
821.307	27751
821.447	27500
821.588	27504
821.728	27359
821.868	27169
822.008	27062
822.149	27085
822.289	27032
822.429	26853
822.569	26670
822.709	26769
822.849	26408
822.99	26503
823.13	26366
823.27	26347
823.41	26336
823.55	26149
823.69	26237
823.83	26347
823.97	26259
824.11	25955
824.25	25921
824.389	26107
824.529	26199
824.669	25963
824.809	26119
824.949	26145
825.089	26111
825.228	26111
825.368	25925
825.508	25799
825.648	25788
825.787	25852
825.927	25890
826.067	25871
826.206	25769
826.346	25879
826.485	25951
826.625	25887
826.765	25997
826.904	25799
827.044	25594
827.183	25533
827.323	25529
827.462	25582
827.601	25384
827.741	25518
827.88	25495
828.02	25255
828.159	25339
828.298	25430
828.437	25445
828.577	25365
828.716	25464
828.855	25316
828.994	25270
829.134	25190
829.273	25217
829.412	25228
829.551	25057
829.69	25061
829.829	25099
829.968	25072
830.107	25107
830.246	25198
830.385	25057
830.524	24920
830.663	24821
830.802	24894
830.941	24650
831.08	24665
831.219	24760
831.357	24711
831.496	24996
831.635	24612
831.774	24608
831.913	24555
832.051	24555
832.19	24597
832.329	24589
832.467	24654
832.606	24445
832.744	24391
832.883	24486
833.022	24627
833.16	24601
833.299	24768
833.437	24882
833.576	24821
833.714	24996
833.852	25103
833.991	25107
834.129	25278
834.267	25365
834.406	25110
834.544	25274
834.682	25187
834.821	24973
834.959	25000
835.097	24730
835.235	24806
835.373	24661
835.511	24608
835.65	24384
835.788	24247
835.926	24232
836.064	23984
836.202	24121
836.34	24289
836.478	24338
836.615	24102
836.753	24060
836.891	24285
837.029	24144
837.167	24163
837.305	24087
837.443	24079
837.58	23950
837.718	23920
837.856	23863
837.993	23786
838.131	23935
838.269	23802
838.406	23832
838.544	23752
838.681	23642
838.819	23482
838.956	23254
839.094	23356
839.231	23509
839.369	23604
839.506	23893
839.643	23444
839.781	23239
839.918	23258
840.055	23277
840.193	23334
840.33	23261
840.467	23121
840.604	23326
840.742	23360
840.879	23132
841.016	23170
841.153	23174
841.29	23162
841.427	23299
841.564	23341
841.701	23315
841.838	23189
841.975	23064
842.112	23140
842.249	23033
842.385	22934
842.522	23132
842.659	22984
842.796	23003
842.933	23052
843.069	23044
843.206	23010
843.343	23102
843.479	23086
843.616	23117
843.752	22984
843.889	22991
844.025	23128
844.162	23098
844.298	23109
844.435	23052
844.571	23372
844.708	23581
844.844	23767
844.98	24262
845.117	24700
845.253	25274
845.389	26587
845.525	29105
845.661	33214
845.798	38206
845.934	41973
846.07	43438
846.206	42410
846.342	38979
846.478	34150
846.614	29764
846.75	26963
846.886	25297
847.022	24369
847.158	23707
847.294	23299
847.429	22942
847.565	22824
847.701	22949
847.837	22333
847.972	22276
848.108	22223
848.244	22188
848.379	22048
848.515	22040
848.65	21800
848.786	21945
848.921	21926
849.057	21956
849.192	21838
849.328	21724
849.463	21892
849.598	21660
849.734	21751
849.869	21587
850.004	21606
850.14	21561
850.275	21564
850.41	21424
850.545	21530
850.68	21325
850.815	21431
850.95	21469
851.085	21629
851.22	21713
851.355	21504
851.49	21340
851.625	21473
851.76	21431
851.895	21336
852.03	21389
852.165	21424
852.299	21549
852.434	21564
852.569	21534
852.703	21431
852.838	21652
852.973	21644
853.107	21717
853.242	21618
853.376	21310
853.511	21321
853.645	21454
853.78	21675
853.914	21583
854.048	21507
854.183	21606
854.317	21523
854.451	21850
854.585	21553
854.72	21580
854.854	21557
854.988	21431
855.122	21496
855.256	21321
855.39	21564
855.524	21534
855.658	21298
855.792	21374
855.926	21275
856.06	21313
856.194	21424
856.327	21321
856.461	21226
856.595	21222
856.729	21264
856.862	21420
856.996	21203
857.13	21249
857.263	21443
857.397	21249
857.53	21192
857.664	21336
857.797	21287
857.931	21454
858.064	21264
858.197	21180
858.331	21135
858.464	21146
858.597	21013
858.731	21123
858.864	21032
858.997	21047
859.13	21135
859.263	21218
859.396	21233
859.529	21047
859.662	21100
859.795	21039
859.928	21135
860.061	21176
860.194	21294
860.327	21039
860.46	21051
860.592	21218
860.725	21279
860.858	21203
860.99	21085
861.123	21066
861.256	21024
861.388	21169
861.521	21679
861.653	20895
861.786	20960
861.918	20925
862.05	21154
862.183	21173
862.315	21135
862.447	21123
862.58	20948
862.712	20906
862.844	20861
862.976	20929
863.108	20887
863.24	21142
863.372	20773
863.504	20769
863.636	20845
863.768	20727
863.9	20727
864.032	20716
864.164	20693
864.296	20674
864.428	20781
864.559	20933
864.691	20826
864.823	20708
864.954	20632
865.086	20769
865.217	20667
865.349	20693
865.48	20575
865.612	20640
865.743	20773
865.875	20564
866.006	20674
866.137	20655
866.269	20678
866.4	20640
866.531	20560
866.662	20541
866.793	20648
866.924	20518
867.055	20503
867.186	20609
867.317	20488
867.448	20488
867.579	20499
867.71	20587
867.841	20423
867.972	20594
868.103	20522
868.233	20575
868.364	20545
868.495	20754
868.625	20853
868.756	20948
868.886	20758
869.017	20739
869.147	20876
869.278	20944
869.408	20857
869.539	20876
869.669	20982
869.799	20956
869.929	20998
870.06	20918
870.19	20998
870.32	21165
870.45	21169
870.58	21256
870.71	21447
870.84	21424
870.97	21272
871.1	21230
871.23	21454
871.36	21397
871.489	21393
871.619	21458
871.749	21507
871.879	21580
872.008	21561
872.138	21561
872.267	21576
872.397	21564
872.526	21420
872.656	21511
872.785	21332
872.915	21705
873.044	21641
873.173	21762
873.303	21694
873.432	21774
873.561	21857
873.69	21789
873.819	21755
873.948	21861
874.077	21751
874.206	21732
874.335	21743
874.464	21888
874.593	22101
874.722	22048
874.851	22200
874.979	22173
875.108	22211
875.237	22177
875.365	22082
875.494	22196
875.623	22265
875.751	22390
875.88	22257
876.008	22497
876.136	22554
876.265	22854
876.393	23010
876.521	22991
876.65	23003
876.778	22911
876.906	23029
877.034	22957
877.162	23022
877.29	23208
877.418	23159
877.546	23189
877.674	23337
877.802	23395
877.93	23421
878.058	23608
878.185	23638
878.313	23893
878.441	24163
878.568	24228
878.696	24844
878.824	25400
878.951	26305
879.079	27351
879.206	28831
879.333	30467
879.461	31620
879.588	32507
879.715	32480
879.842	31807
879.97	30376
880.097	28885
880.224	27618
880.351	26899
880.478	26172
880.605	25693
880.732	25445
880.859	25453
880.986	25179
881.112	25103
881.239	24939
881.366	24852
881.493	24741
881.619	24623
881.746	24688
881.872	24726
881.999	24585
882.125	24688
882.252	24757
882.378	24791
882.505	24897
882.631	24661
882.757	24471
882.883	24601
883.01	24661
883.136	24467
883.262	24483
883.388	24308
883.514	24391
883.64	24426
883.766	24365
883.892	24216
884.018	24258
884.143	24464
884.269	24582
884.395	24350
884.52	24129
884.646	24327
884.772	24133
884.897	24106
885.023	24300
885.148	24243
885.274	24186
885.399	24266
885.524	24053
885.65	23961
885.775	23874
885.9	23817
886.025	23748
886.15	23642
886.275	23349
886.4	23246
886.525	23200
886.65	22942
886.775	23071
886.9	23121
887.025	23200
887.149	23003
887.274	22542
887.399	22561
887.523	22459
887.648	22379
887.773	22390
887.897	22306
888.021	22299
888.146	22036
888.27	22192
888.395	22166
888.519	22150
888.643	22109
888.767	22021
888.891	21979
889.015	21854
889.139	21755
889.263	21713
889.387	21724
889.511	21682
889.635	21679
889.759	21576
889.883	21389
890.006	21507
890.13	21580
890.254	21401
890.377	21306
890.501	21180
890.624	21077
890.748	21180
890.871	21062
890.995	20861
891.118	20902
891.241	20921
891.364	20819
891.488	20937
891.611	20781
891.734	20727
891.857	20777
891.98	20785
892.103	20754
892.226	20648
892.349	20743
892.471	20556
892.594	20526
892.717	20533
892.839	20602
892.962	20511
893.085	20564
893.207	20415
893.33	20389
893.452	20381
893.575	20400
893.697	20404
893.819	20609
893.941	20552
894.064	20484
894.186	20271
894.308	20324
894.43	20381
894.552	20419
894.674	20164
894.796	20237
894.918	20168
895.04	20172
895.161	20259
895.283	20396
895.405	20088
895.526	20149
895.648	20119
895.769	20088
895.891	20103
896.012	20214
896.134	20062
896.255	20092
896.376	20096
896.498	20126
896.619	20111
896.74	20130
896.861	20168
896.982	20385
897.103	20438
897.224	20313
897.345	20328
897.466	20180
897.587	20195
897.708	20244
897.828	20328
897.949	20130
898.07	20046
898.19	20096
898.311	20313
898.431	20035
898.552	20221
898.672	20301
898.792	20328
898.913	20233
899.033	20142
899.153	19932
899.273	19803
899.393	19871
899.513	19982
899.633	19803
899.753	19959
899.873	19780
899.993	19936
900.113	19913
900.232	19925
900.352	19738
900.472	19693
900.591	19712
900.711	19753
900.83	19658
900.95	19887
901.069	19811
901.189	19571
901.308	19400
901.427	19209
901.546	19324
901.665	19225
901.784	19209
901.904	19122
902.023	18996
902.141	18776
902.26	18810
902.379	18840
902.498	18684
902.617	18578
902.735	18715
902.854	18563
902.973	18525
903.091	18292
903.21	18300
903.328	18289
903.446	18216
903.565	18098
903.683	18076
903.801	18011
903.919	18045
904.038	18159
904.156	17961
904.274	17901
904.392	17832
904.51	17821
904.627	17863
904.745	17954
904.863	17939
904.981	17573
905.098	17528
905.216	17505
905.334	17551
905.451	17463
905.569	17501
905.686	17528
905.803	17608
905.921	17303
906.038	17376
906.155	17269
906.272	17155
906.389	17231
906.506	17075
906.623	16984
906.74	16999
906.857	16980
906.974	16793
907.091	17045
907.208	17128
907.324	16980
907.441	16877
907.557	16679
907.674	16645
907.79	16599
907.907	16725
908.023	16736
908.139	16607
908.256	16626
908.372	16596
908.488	16599
908.604	16508
908.72	16249
908.836	16382
908.952	16356
909.068	16356
909.184	16481
909.3	16367
909.415	16322
909.531	16421
909.647	16082
909.762	16196
909.878	16105
909.993	16131
910.108	15934
910.224	16017
910.339	15884
910.454	15945
910.57	15884
910.685	15895
910.8	16112
910.915	15983
911.03	15861
911.145	15648
911.259	15660
911.374	15766
911.489	15530
911.604	15584
911.718	15408
911.833	15393
911.947	15386
912.062	15272
912.176	15447
912.291	15340
912.405	15401
912.519	15587
912.633	15549
912.748	15526
912.862	15393
912.976	15241
913.09	15085
913.204	15249
913.318	15245
913.431	15222
913.545	15329
913.659	15294
913.772	15154
913.886	15119
914	15062
914.113	15135
914.226	15161
914.34	15127
914.453	14963
914.566	15024
914.68	14941
914.793	14899
914.906	14682
915.019	14682
915.132	14606
915.245	14705
915.358	14689
915.47	14765
915.583	14750
915.696	14735
915.809	14743
915.921	14868
916.034	14750
916.146	14610
916.259	14552
916.371	14689
916.483	14689
916.595	14564
916.708	14602
916.82	14560
916.932	14533
917.044	14541
917.156	14476
917.268	14244
917.38	14469
917.491	14427
917.603	14301
917.715	14446
917.826	14423
917.938	14347
918.049	14233
918.161	14240
918.272	14442
918.384	14404
918.495	14237
918.606	14134
918.717	14077
918.828	14172
918.939	14134
919.05	13967
919.161	14001
919.272	13856
919.383	13967
919.494	13997
919.604	14195
919.715	14005
919.826	13868
919.936	13993
920.047	14008
920.157	14020
920.267	14145
920.378	13997
920.488	13986
920.598	14237
920.708	14294
920.818	14126
920.928	14134
921.038	14301
921.148	14263
921.258	13997
921.368	13875
921.477	13738
921.587	13677
921.697	13643
921.806	13731
921.916	13556
922.025	13499
922.134	13384
922.244	13411
922.353	13350
922.462	13194
922.571	13206
922.68	13076
922.789	13061
922.898	12958
923.007	13015
923.116	13114
923.224	13034
923.333	13012
923.442	12844
923.55	12760
923.659	12894
923.767	12840
923.876	12772
923.984	12840
924.092	12840
924.201	12810
924.309	12783
924.417	12738
924.525	12684
924.633	12635
924.741	13632
924.849	12464
924.956	12642
925.064	12498
925.172	12414
925.279	12475
925.387	12460
925.494	12536
925.602	12604
925.709	12528
925.816	12391
925.924	12399
926.031	12551
926.138	12429
926.245	12353
926.352	12323
926.459	12418
926.566	12452
926.673	12247
926.779	12197
926.886	12076
926.993	12121
927.099	12011
927.206	12022
927.312	12049
927.419	12171
927.525	12041
927.631	12041
927.737	11897
927.843	11920
927.95	11779
928.056	11824
928.162	11885
928.267	11946
928.373	12346
928.479	11996
928.585	11703
928.69	11775
928.796	11866
928.901	11699
929.007	11619
929.112	11783
929.218	11688
929.323	11566
929.428	11627
929.533	11688
929.638	11444
929.743	11562
929.848	11615
929.953	11490
930.058	11455
930.163	11307
930.267	11299
930.372	11356
930.477	11242
930.581	11467
930.685	11284
930.79	11261
930.894	11193
930.998	11242
931.103	11345
931.207	10919
931.311	10896
931.415	10736
931.519	10531
931.623	10592
