Data from test_V78500241_265.txt Node
Date: Fri Mar 25 14:35:34 CST 2022
User: usil
Spectrometer: V785-0024
Trigger mode: 0
Integration Time (sec): 4.000000E-1
Scans to average: 1
Nonlinearity correction enabled: false
Boxcar width: 0
Storing dark spectrum: false
XAxis mode: Wavelengths
Number of Pixels in Spectrum: 1024
>>>>>Begin Spectral Data<<<<<
801.071	27408
801.214	27237
801.356	27123
801.499	27062
801.641	26708
801.783	26811
801.926	26773
802.068	26796
802.211	26571
802.353	26530
802.496	26583
802.638	26385
802.78	26317
802.923	26301
803.065	26202
803.208	26199
803.35	26294
803.492	26309
803.635	26446
803.777	26453
803.919	26313
804.061	26686
804.204	26427
804.346	26328
804.488	26229
804.63	26271
804.773	26248
804.915	26339
805.057	26400
805.199	26286
805.341	26385
805.483	26377
805.626	26450
805.768	26294
805.91	26377
806.052	26267
806.194	26374
806.336	26541
806.478	26415
806.62	26298
806.762	26408
806.904	26602
807.046	26849
807.188	26838
807.33	26777
807.472	26731
807.614	26606
807.756	26579
807.898	26594
808.04	26522
808.182	26632
808.324	26651
808.465	26678
808.607	26830
808.749	27104
808.891	27127
809.033	27165
809.174	27036
809.316	26940
809.458	27119
809.6	26857
809.741	26925
809.883	26872
810.025	27131
810.166	27074
810.308	27150
810.45	27039
810.591	26902
810.733	26807
810.875	26667
811.016	26648
811.158	26499
811.299	26701
811.441	26724
811.582	26830
811.724	26507
811.865	26663
812.007	26762
812.148	26686
812.29	26804
812.431	27005
812.573	26971
812.714	27230
812.855	27298
812.997	27348
813.138	27420
813.279	27203
813.421	27279
813.562	27268
813.703	27005
813.845	26792
813.986	26606
814.127	26408
814.268	26393
814.41	26332
814.551	26305
814.692	26366
814.833	26267
814.974	26309
815.115	26206
815.256	26199
815.397	26058
815.539	26290
815.68	26062
815.821	26062
815.962	26142
816.103	26020
816.244	25799
816.385	25643
816.526	25655
816.666	25601
816.807	25514
816.948	25559
817.089	25479
817.23	25422
817.371	25464
817.512	25434
817.653	25419
817.793	25373
817.934	25320
818.075	25392
818.216	25396
818.356	25320
818.497	25251
818.638	25209
818.778	25046
818.919	25183
819.06	25103
819.2	25091
819.341	25289
819.481	25198
819.622	25392
819.762	25597
819.903	25548
820.043	25365
820.184	25384
820.324	25434
820.465	25403
820.605	25324
820.746	25365
820.886	25274
821.026	25415
821.167	25339
821.307	25289
821.447	25206
821.588	25217
821.728	24973
821.868	24977
822.008	24726
822.149	24776
822.289	24623
822.429	24467
822.569	24365
822.709	24361
822.849	24239
822.99	24243
823.13	24174
823.27	23980
823.41	23958
823.55	23813
823.69	23984
823.83	24045
823.97	23969
824.11	23627
824.25	23748
824.389	23722
824.529	23794
824.669	23668
824.809	23908
824.949	23790
825.089	23882
825.228	23775
825.368	23528
825.508	23657
825.648	23566
825.787	23520
825.927	23562
826.067	23425
826.206	23539
826.346	23623
826.485	23520
826.625	23562
826.765	23570
826.904	23509
827.044	23292
827.183	23246
827.323	23193
827.462	23288
827.601	23284
827.741	23242
827.88	23178
828.02	23117
828.159	23105
828.298	23083
828.437	23345
828.577	23178
828.716	23288
828.855	23109
828.994	22934
829.134	22801
829.273	22900
829.412	22942
829.551	22824
829.69	22771
829.829	22957
829.968	22991
830.107	22980
830.246	22908
830.385	22790
830.524	22858
830.663	22538
830.802	22569
830.941	22405
831.08	22542
831.219	22493
831.357	22634
831.496	22733
831.635	22451
831.774	22314
831.913	22348
832.051	22280
832.19	22124
832.329	22272
832.467	22253
832.606	22177
832.744	22177
832.883	22158
833.022	22135
833.16	22185
833.299	22097
833.437	22196
833.576	22086
833.714	22048
833.852	22234
833.991	22192
834.129	22234
834.267	22185
834.406	22166
834.544	22124
834.682	22154
834.821	22143
834.959	22154
835.097	22074
835.235	22211
835.373	22135
835.511	22234
835.65	22010
835.788	22036
835.926	21785
836.064	21671
836.202	21808
836.34	21949
836.478	21918
836.615	21964
836.753	21915
836.891	22017
837.029	21953
837.167	21884
837.305	21774
837.443	21732
837.58	21682
837.718	21857
837.856	21800
837.993	21732
838.131	21759
838.269	21633
838.406	21785
838.544	21507
838.681	21530
838.819	21378
838.956	21275
839.094	21199
839.231	21203
839.369	21310
839.506	21603
839.643	21443
839.781	21237
839.918	21211
840.055	21138
840.193	21089
840.33	21066
840.467	21104
840.604	21169
840.742	21291
840.879	20998
841.016	20994
841.153	21066
841.29	21283
841.427	21085
841.564	21119
841.701	21127
841.838	21085
841.975	20960
842.112	20956
842.249	20910
842.385	20861
842.522	21047
842.659	20902
842.796	20883
842.933	20838
843.069	20887
843.206	20785
843.343	20826
843.479	20853
843.616	20857
843.752	20640
843.889	20602
844.025	20834
844.162	20644
844.298	20785
844.435	20484
844.571	20533
844.708	20655
844.844	20651
844.98	20587
845.117	20785
845.253	20454
845.389	20533
845.525	20374
845.661	20503
845.798	20495
845.934	20705
846.07	20518
846.206	20568
846.342	20568
846.478	20393
846.614	20180
846.75	20206
846.886	20210
847.022	20134
847.158	20092
847.294	20206
847.429	20157
847.565	19978
847.701	20294
847.837	19883
847.972	19776
848.108	19822
848.244	19761
848.379	19677
848.515	19601
848.65	19559
848.786	19628
848.921	19575
849.057	19666
849.192	19727
849.328	19575
849.463	19685
849.598	19540
849.734	19502
849.869	19426
850.004	19457
850.14	19403
850.275	19384
850.41	19225
850.545	19339
850.68	19266
850.815	19301
850.95	19278
851.085	19514
851.22	19403
851.355	19392
851.49	19335
851.625	19559
851.76	19308
851.895	19183
852.03	19263
852.165	19324
852.299	19320
852.434	19358
852.569	19312
852.703	19247
852.838	19346
852.973	19350
853.107	19377
853.242	19187
853.376	19206
853.511	19023
853.645	19118
853.78	19217
853.914	19133
854.048	19187
854.183	19107
854.317	19118
854.451	19327
854.585	19042
854.72	19190
854.854	19175
854.988	19091
855.122	19137
855.256	19038
855.39	19190
855.524	19168
855.658	19095
855.792	19160
855.926	19156
856.06	19251
856.194	19285
856.327	19080
856.461	19103
856.595	19129
856.729	19114
856.862	19213
856.996	19164
857.13	19164
857.263	19164
857.397	19171
857.53	19012
857.664	19042
857.797	19202
857.931	19297
858.064	19148
858.197	19080
858.331	19088
858.464	18973
858.597	19042
858.731	19019
858.864	19095
858.997	19156
859.13	19164
859.263	19183
859.396	19118
859.529	19194
859.662	19061
859.795	19118
859.928	19114
860.061	19141
860.194	19324
860.327	19183
860.46	19084
860.592	19183
860.725	19263
860.858	19187
860.99	19046
861.123	19008
861.256	18928
861.388	19031
861.521	19750
861.653	18920
861.786	18897
861.918	18951
862.05	19141
862.183	19148
862.315	19118
862.447	19194
862.58	19164
862.712	18943
862.844	18878
862.976	18989
863.108	18848
863.24	19293
863.372	18734
863.504	18878
863.636	18833
863.768	18882
863.9	18772
864.032	18745
864.164	18840
864.296	18829
864.428	18859
864.559	18932
864.691	18875
864.823	18867
864.954	18768
865.086	18909
865.217	18654
865.349	18639
865.48	18779
865.612	18692
865.743	18821
865.875	18738
866.006	18730
866.137	18760
866.269	18696
866.4	18719
866.531	18601
866.662	18620
866.793	18696
866.924	18711
867.055	18642
867.186	18821
867.317	18585
867.448	18532
867.579	18665
867.71	18570
867.841	18601
867.972	18635
868.103	18749
868.233	18669
868.364	18692
868.495	18681
868.625	18993
868.756	18954
868.886	18829
869.017	18882
869.147	19015
869.278	19046
869.408	18837
869.539	18951
869.669	18905
869.799	18939
869.929	18977
870.06	18966
870.19	19171
870.32	19251
870.45	19278
870.58	19171
870.71	19343
870.84	19453
870.97	19251
871.1	19301
871.23	19415
871.36	19419
871.489	19362
871.619	19464
871.749	19358
871.879	19529
872.008	19689
872.138	19441
872.267	19468
872.397	19301
872.526	19381
872.656	19209
872.785	19304
872.915	19502
873.044	19476
873.173	19556
873.303	19548
873.432	19594
873.561	19590
873.69	19544
873.819	19480
873.948	19544
874.077	19506
874.206	19483
874.335	19468
874.464	19658
874.593	19849
874.722	19719
874.851	19807
874.979	19772
875.108	19826
875.237	19689
875.365	19757
875.494	19674
875.623	19860
875.751	19727
875.88	19849
876.008	20012
876.136	20084
876.265	20214
876.393	20419
876.521	20271
876.65	20347
876.778	20100
876.906	20096
877.034	20035
877.162	20229
877.29	20111
877.418	20164
877.546	20187
877.674	20183
877.802	20062
877.93	20062
878.058	20122
878.185	20016
878.313	20168
878.441	20195
878.568	20043
878.696	20180
878.824	20218
878.951	20237
879.079	20381
879.206	20571
879.333	20454
879.461	20328
879.588	20446
879.715	20423
879.842	20541
879.97	20263
880.097	20084
880.224	20012
880.351	20149
880.478	20084
880.605	20115
880.732	19997
880.859	20195
880.986	20008
881.112	20088
881.239	19944
881.366	19807
881.493	19696
881.619	19734
881.746	19715
881.872	19681
881.999	19559
882.125	19601
882.252	19696
882.378	19655
882.505	19772
882.631	19605
882.757	19487
882.883	19422
883.01	19422
883.136	19400
883.262	19320
883.388	19369
883.514	19480
883.64	19483
883.766	19209
883.892	19255
884.018	19285
884.143	19362
884.269	19472
884.395	19160
884.52	19129
884.646	19012
884.772	19027
884.897	19046
885.023	19076
885.148	19133
885.274	19183
885.399	19156
885.524	19034
885.65	19065
885.775	19061
885.9	18981
886.025	19050
886.15	19034
886.275	18943
886.4	18958
886.525	18947
886.65	18856
886.775	18954
886.9	19057
887.025	19190
887.149	18905
887.274	18848
887.399	18768
887.523	18760
887.648	18760
887.773	18665
887.897	18897
888.021	18886
888.146	18738
888.27	18939
888.395	18947
888.519	18852
888.643	18863
888.767	18928
888.891	18738
889.015	18696
889.139	18589
889.263	18639
889.387	18738
889.511	18817
889.635	18692
889.759	18604
889.883	18646
890.006	18582
890.13	18658
890.254	18601
890.377	18544
890.501	18429
890.624	18399
890.748	18399
890.871	18270
890.995	18098
891.118	18121
891.241	18190
891.364	18273
891.488	18338
891.611	18167
891.734	18247
891.857	18357
891.98	18251
892.103	18300
892.226	18213
892.349	18140
892.471	18079
892.594	18098
892.717	18140
892.839	18197
892.962	18144
893.085	18140
893.207	18247
893.33	18121
893.452	18148
893.575	18197
893.697	18213
893.819	18232
893.941	18243
894.064	18273
894.186	18049
894.308	18053
894.43	18228
894.552	18281
894.674	18277
894.796	18129
894.918	18129
895.04	18133
895.161	18216
895.283	18213
895.405	18068
895.526	18174
895.648	18140
895.769	17942
895.891	18171
896.012	18296
896.134	18178
896.255	18182
896.376	18186
896.498	18148
896.619	18281
896.74	18258
896.861	18201
896.982	18582
897.103	18722
897.224	18448
897.345	18422
897.466	18319
897.587	18342
897.708	18692
897.828	18506
897.949	18311
898.07	18277
898.19	18391
898.311	18528
898.431	18403
898.552	18422
898.672	18589
898.792	18384
898.913	18353
899.033	18357
899.153	18270
899.273	18178
899.393	18129
899.513	18289
899.633	18129
899.753	18220
899.873	18117
899.993	18163
900.113	18197
900.232	18197
900.352	18201
900.472	18011
900.591	17958
900.711	18114
900.83	17996
900.95	18095
901.069	18106
901.189	17885
901.308	17707
901.427	17714
901.546	17741
901.665	17684
901.784	17642
901.904	17490
902.023	17516
902.141	17250
902.26	17216
902.379	17235
902.498	17022
902.617	17136
902.735	17200
902.854	17067
902.973	17083
903.091	16934
903.21	16820
903.328	16828
903.446	16850
903.565	16683
903.683	16675
903.801	16485
903.919	16641
904.038	16580
904.156	16500
904.274	16493
904.392	16432
904.51	16394
904.627	16386
904.745	16440
904.863	16470
904.981	16211
905.098	16181
905.216	16139
905.334	16143
905.451	16200
905.569	16082
905.686	16101
905.803	16055
905.921	15903
906.038	16044
906.155	15899
906.272	15827
906.389	15854
906.506	15618
906.623	15568
906.74	15564
906.857	15424
906.974	15584
907.091	15595
907.208	15747
907.324	15564
907.441	15584
907.557	15469
907.674	15310
907.79	15325
907.907	15268
908.023	15294
908.139	15256
908.256	15256
908.372	15291
908.488	15207
908.604	15161
908.72	14891
908.836	15051
908.952	15009
909.068	15017
909.184	15100
909.3	15005
909.415	15055
909.531	15013
909.647	14788
909.762	14697
909.878	14670
909.993	14845
910.108	14667
910.224	14621
910.339	14667
910.454	14613
910.57	14636
910.685	14492
910.8	14735
910.915	14678
911.03	14571
911.145	14385
911.259	14377
911.374	14298
911.489	14385
911.604	14187
911.718	14016
911.833	14100
911.947	14043
912.062	13917
912.176	14054
912.291	13993
912.405	14092
912.519	14313
912.633	14225
912.748	14187
912.862	14065
912.976	13906
913.09	13769
913.204	13807
913.318	13902
913.431	13963
913.545	13970
913.659	14054
913.772	14016
913.886	13795
914	13723
914.113	13727
914.226	13913
914.34	13871
914.453	13597
914.566	13845
914.68	13597
914.793	13632
914.906	13510
915.019	13434
915.132	13362
915.245	13438
915.358	13464
915.47	13346
915.583	13464
915.696	13502
915.809	13563
915.921	13582
916.034	13441
916.146	13304
916.259	13362
916.371	13434
916.483	13358
916.595	13194
916.708	13304
916.82	13339
916.932	13320
917.044	13266
917.156	13171
917.268	13152
917.38	13217
917.491	13027
917.603	13050
917.715	13225
917.826	13236
917.938	13129
918.049	12985
918.161	13038
918.272	13183
918.384	13236
918.495	13107
918.606	12901
918.717	12776
918.828	12954
918.939	12875
919.05	12825
919.161	12897
919.272	12703
919.383	12745
919.494	12977
919.604	13091
919.715	12852
919.826	12814
919.936	12741
920.047	12996
920.157	12958
920.267	13072
920.378	12833
920.488	12848
920.598	13050
920.708	13122
920.818	12996
920.928	13042
921.038	13080
921.148	13099
921.258	12833
921.368	12715
921.477	12738
921.587	12631
921.697	12445
921.806	12635
921.916	12585
922.025	12338
922.134	12235
922.244	12247
922.353	12315
922.462	12232
922.571	12121
922.68	11965
922.789	11969
922.898	11973
923.007	11912
923.116	11961
923.224	11965
923.333	11996
923.442	11923
923.55	11794
923.659	11802
923.767	11931
923.876	11684
923.984	11840
924.092	11760
924.201	11714
924.309	11684
924.417	11714
924.525	11596
924.633	11718
924.741	12616
924.849	11410
924.956	11581
925.064	11444
925.172	11414
925.279	11463
925.387	11463
925.494	11459
925.602	11478
925.709	11505
925.816	11391
925.924	11395
926.031	11520
926.138	11467
926.245	11463
926.352	11341
926.459	11509
926.566	11474
926.673	11421
926.779	11318
926.886	11345
926.993	11197
927.099	11102
927.206	11086
927.312	11109
927.419	11136
927.525	11094
927.631	11174
927.737	11075
927.843	10911
927.95	10873
928.056	10953
928.162	10896
928.267	11018
928.373	11539
928.479	11033
928.585	10790
928.69	10942
928.796	11037
928.901	10831
929.007	10714
929.112	10809
929.218	10847
929.323	10733
929.428	10721
929.533	10881
929.638	10653
929.743	10748
929.848	10660
929.953	10679
930.058	10641
930.163	10432
930.267	10459
930.372	10634
930.477	10306
930.581	10611
930.685	10485
930.79	10314
930.894	10375
930.998	10341
931.103	10413
931.207	10055
931.311	10071
931.415	9968
931.519	9785
931.623	9823
