Data from test_V78500241_425.txt Node
Date: Fri Mar 25 14:36:40 CST 2022
User: usil
Spectrometer: V785-0024
Trigger mode: 0
Integration Time (sec): 4.000000E-1
Scans to average: 1
Nonlinearity correction enabled: false
Boxcar width: 0
Storing dark spectrum: false
XAxis mode: Wavelengths
Number of Pixels in Spectrum: 1024
>>>>>Begin Spectral Data<<<<<
801.071	26629
801.214	26514
801.356	26218
801.499	26240
801.641	26107
801.783	25966
801.926	26084
802.068	26016
802.211	25959
802.353	25845
802.496	25769
802.638	25784
802.78	25746
802.923	25556
803.065	25529
803.208	25635
803.35	25582
803.492	25620
803.635	25738
803.777	25578
803.919	25510
804.061	25906
804.204	25670
804.346	25597
804.488	25510
804.63	25632
804.773	25392
804.915	25540
805.057	25635
805.199	25567
805.341	25624
805.483	25635
805.626	25677
805.768	25575
805.91	25635
806.052	25693
806.194	25491
806.336	25791
806.478	25590
806.62	25578
806.762	25731
806.904	25944
807.046	26065
807.188	26107
807.33	25978
807.472	26119
807.614	25841
807.756	25974
807.898	25845
808.04	25769
808.182	25704
808.324	25814
808.465	25868
808.607	26005
808.749	26008
808.891	26374
809.033	26362
809.174	26263
809.316	26081
809.458	25936
809.6	26058
809.741	26069
809.883	26225
810.025	26294
810.166	26240
810.308	26298
810.45	26183
810.591	26180
810.733	26050
810.875	25894
811.016	25864
811.158	25868
811.299	26005
811.441	26180
811.582	26039
811.724	25894
811.865	25913
812.007	25928
812.148	26001
812.29	25841
812.431	26081
812.573	26081
812.714	26294
812.855	26408
812.997	26549
813.138	26727
813.279	26476
813.421	26324
813.562	26419
813.703	26332
813.845	26138
813.986	25856
814.127	25586
814.268	25594
814.41	25567
814.551	25548
814.692	25464
814.833	25438
814.974	25537
815.115	25457
815.256	25270
815.397	25346
815.539	25289
815.68	25202
815.821	25202
815.962	25266
816.103	25244
816.244	25034
816.385	24951
816.526	25004
816.666	24711
816.807	24665
816.948	24738
817.089	24821
817.23	24597
817.371	24616
817.512	24692
817.653	24566
817.793	24681
817.934	24551
818.075	24627
818.216	24608
818.356	24536
818.497	24521
818.638	24228
818.778	24319
818.919	24262
819.06	24292
819.2	24361
819.341	24445
819.481	24627
819.622	24627
819.762	24859
819.903	24688
820.043	24688
820.184	24623
820.324	24585
820.465	24669
820.605	24654
820.746	24464
820.886	24426
821.026	24471
821.167	24525
821.307	24623
821.447	24502
821.588	24376
821.728	24258
821.868	24095
822.008	24049
822.149	24136
822.289	23996
822.429	23687
822.569	23627
822.709	23581
822.849	23482
822.99	23376
823.13	23330
823.27	23379
823.41	23261
823.55	23124
823.69	23273
823.83	23250
823.97	23147
824.11	22877
824.25	22915
824.389	22961
824.529	23178
824.669	23029
824.809	23132
824.949	23006
825.089	23056
825.228	22949
825.368	22653
825.508	22729
825.648	22930
825.787	22839
825.927	22847
826.067	22698
826.206	22675
826.346	22790
826.485	22797
826.625	22752
826.765	22953
826.904	22858
827.044	22516
827.183	22538
827.323	22341
827.462	22432
827.601	22360
827.741	22379
827.88	22470
828.02	22162
828.159	22341
828.298	22390
828.437	22455
828.577	22398
828.716	22447
828.855	22265
828.994	22135
829.134	22158
829.273	21998
829.412	22006
829.551	22097
829.69	22112
829.829	22204
829.968	22188
830.107	22120
830.246	22112
830.385	22055
830.524	21918
830.663	21846
830.802	21850
830.941	21679
831.08	21633
831.219	21842
831.357	21747
831.496	21850
831.635	21633
831.774	21610
831.913	21599
832.051	21386
832.19	21450
832.329	21469
832.467	21389
832.606	21336
832.744	21355
832.883	21340
833.022	21252
833.16	21351
833.299	21279
833.437	21332
833.576	21382
833.714	21252
833.852	21439
833.991	21458
834.129	21298
834.267	21507
834.406	21367
834.544	21439
834.682	21313
834.821	21260
834.959	21530
835.097	21363
835.235	21405
835.373	21340
835.511	21195
835.65	21249
835.788	21188
835.926	21081
836.064	21055
836.202	21070
836.34	21127
836.478	21321
836.615	21207
836.753	21169
836.891	21218
837.029	21298
837.167	21188
837.305	21070
837.443	21081
837.58	21036
837.718	21039
837.856	21089
837.993	20868
838.131	20956
838.269	21036
838.406	20895
838.544	20857
838.681	20796
838.819	20568
838.956	20442
839.094	20427
839.231	20511
839.369	20659
839.506	20823
839.643	20842
839.781	20545
839.918	20324
840.055	20469
840.193	20442
840.33	20469
840.467	20507
840.604	20431
840.742	20724
840.879	20336
841.016	20298
841.153	20305
841.29	20473
841.427	20473
841.564	20450
841.701	20438
841.838	20336
841.975	20199
842.112	20240
842.249	20214
842.385	20119
842.522	20358
842.659	20054
842.796	20153
842.933	20046
843.069	20115
843.206	20180
843.343	20062
843.479	20214
843.616	20157
843.752	19936
843.889	19807
844.025	19955
844.162	19860
844.298	20012
844.435	19925
844.571	19959
844.708	19947
844.844	20020
844.98	19986
845.117	20001
845.253	19898
845.389	19746
845.525	19833
845.661	19837
845.798	19738
845.934	19738
846.07	19677
846.206	19723
846.342	19719
846.478	19609
846.614	19377
846.75	19392
846.886	19225
847.022	19449
847.158	19388
847.294	19331
847.429	19396
847.565	19240
847.701	19578
847.837	19076
847.972	19057
848.108	19255
848.244	19133
848.379	19031
848.515	18970
848.65	18878
848.786	18821
848.921	18905
849.057	18909
849.192	18966
849.328	19004
849.463	18932
849.598	18897
849.734	18817
849.869	18688
850.004	18711
850.14	18696
850.275	18620
850.41	18597
850.545	18639
850.68	18627
850.815	18620
850.95	18601
851.085	18760
851.22	18703
851.355	18715
851.49	18642
851.625	18654
851.76	18574
851.895	18555
852.03	18509
852.165	18684
852.299	18684
852.434	18745
852.569	18669
852.703	18650
852.838	18749
852.973	18798
853.107	18833
853.242	18665
853.376	18403
853.511	18319
853.645	18464
853.78	18528
853.914	18490
854.048	18350
854.183	18410
854.317	18525
854.451	18551
854.585	18414
854.72	18353
854.854	18513
854.988	18410
855.122	18353
855.256	18369
855.39	18403
855.524	18494
855.658	18551
855.792	18502
855.926	18410
856.06	18467
856.194	18589
856.327	18521
856.461	18361
856.595	18391
856.729	18346
856.862	18517
856.996	18429
857.13	18536
857.263	18464
857.397	18566
857.53	18410
857.664	18376
857.797	18547
857.931	18585
858.064	18521
858.197	18506
858.331	18296
858.464	18350
858.597	18323
858.731	18300
858.864	18327
858.997	18471
859.13	18426
859.263	18532
859.396	18532
859.529	18353
859.662	18407
859.795	18357
859.928	18532
860.061	18566
860.194	18506
860.327	18418
860.46	18433
860.592	18437
860.725	18395
860.858	18513
860.99	18376
861.123	18330
861.256	18395
861.388	18410
861.521	19080
861.653	18220
861.786	18224
861.918	18277
862.05	18228
862.183	18414
862.315	18536
862.447	18604
862.58	18395
862.712	18209
862.844	18106
862.976	18182
863.108	18155
863.24	18429
863.372	18072
863.504	18034
863.636	18015
863.768	18178
863.9	18076
864.032	18015
864.164	18083
864.296	18117
864.428	18148
864.559	18190
864.691	18133
864.823	18064
864.954	18117
865.086	18216
865.217	18076
865.349	18022
865.48	17965
865.612	17980
865.743	18289
865.875	18011
866.006	17969
866.137	18091
866.269	17920
866.4	17996
866.531	18030
866.662	17977
866.793	17954
866.924	18038
867.055	17920
867.186	18011
867.317	17999
867.448	17836
867.579	17882
867.71	17840
867.841	17935
867.972	18015
868.103	18038
868.233	18041
868.364	17980
868.495	18045
868.625	18258
868.756	18292
868.886	18117
869.017	18144
869.147	18292
869.278	18353
869.408	18258
869.539	18311
869.669	18281
869.799	18235
869.929	18372
870.06	18323
870.19	18452
870.32	18498
870.45	18559
870.58	18597
870.71	18734
870.84	18741
870.97	18650
871.1	18574
871.23	18795
871.36	18856
871.489	18798
871.619	18703
871.749	18802
871.879	18951
872.008	18821
872.138	18795
872.267	18783
872.397	18738
872.526	18658
872.656	18540
872.785	18597
872.915	18779
873.044	18760
873.173	18757
873.303	18894
873.432	18837
873.561	18993
873.69	18795
873.819	18844
873.948	18848
874.077	18886
874.206	18806
874.335	18833
874.464	18901
874.593	19274
874.722	19034
874.851	19156
874.979	19168
875.108	19046
875.237	19053
875.365	19000
875.494	19122
875.623	19084
875.751	19126
875.88	19137
876.008	19194
876.136	19259
876.265	19578
876.393	19624
876.521	19613
876.65	19548
876.778	19472
876.906	19354
877.034	19434
877.162	19514
877.29	19407
877.418	19411
877.546	19575
877.674	19624
877.802	19544
877.93	19533
878.058	19266
878.185	19438
878.313	19381
878.441	19559
878.568	19312
878.696	19457
878.824	19559
878.951	19647
879.079	19639
879.206	19784
879.333	19727
879.461	19563
879.588	19594
879.715	19670
879.842	19849
879.97	19628
880.097	19476
880.224	19419
880.351	19297
880.478	19426
880.605	19324
880.732	19400
880.859	19571
880.986	19331
881.112	19362
881.239	19156
881.366	19099
881.493	19069
881.619	18958
881.746	18916
881.872	18947
881.999	18970
882.125	18882
882.252	19015
882.378	19095
882.505	19027
882.631	18821
882.757	18806
882.883	18711
883.01	18814
883.136	18677
883.262	18555
883.388	18585
883.514	18738
883.64	18798
883.766	18692
883.892	18483
884.018	18635
884.143	18661
884.269	18787
884.395	18566
884.52	18323
884.646	18418
884.772	18391
884.897	18247
885.023	18357
885.148	18410
885.274	18578
885.399	18540
885.524	18388
885.65	18467
885.775	18376
885.9	18319
886.025	18532
886.15	18452
886.275	18422
886.4	18270
886.525	18403
886.65	18235
886.775	18285
886.9	18521
887.025	18585
887.149	18315
887.274	18167
887.399	18106
887.523	18209
887.648	18125
887.773	18030
887.897	18334
888.021	18121
888.146	18110
888.27	18201
888.395	18323
888.519	18289
888.643	18216
888.767	18201
888.891	17931
889.015	17882
889.139	17996
889.263	17908
889.387	18053
889.511	18182
889.635	18087
889.759	17874
889.883	17931
890.006	17954
890.13	18030
890.254	17863
890.377	17813
890.501	17737
890.624	17764
890.748	17843
890.871	17615
890.995	17665
891.118	17592
891.241	17570
891.364	17585
891.488	17775
891.611	17604
891.734	17547
891.857	17558
891.98	17657
892.103	17615
892.226	17672
892.349	17551
892.471	17395
892.594	17551
892.717	17482
892.839	17398
892.962	17554
893.085	17528
893.207	17535
893.33	17372
893.452	17444
893.575	17630
893.697	17478
893.819	17691
893.941	17805
894.064	17611
894.186	17551
894.308	17520
894.43	17604
894.552	17630
894.674	17619
894.796	17539
894.918	17524
895.04	17505
895.161	17630
895.283	17592
895.405	17478
895.526	17493
895.648	17623
895.769	17649
895.891	17627
896.012	17630
896.134	17668
896.255	17646
896.376	17520
896.498	17535
896.619	17634
896.74	17646
896.861	17741
896.982	17874
897.103	18041
897.224	17901
897.345	17824
897.466	17783
897.587	17927
897.708	17920
897.828	17847
897.949	17859
898.07	17668
898.19	17786
898.311	17954
898.431	17748
898.552	17893
898.672	17882
898.792	17916
898.913	17969
899.033	17714
899.153	17657
899.273	17592
899.393	17615
899.513	17642
899.633	17611
899.753	17684
899.873	17615
899.993	17729
900.113	17596
900.232	17638
900.352	17600
900.472	17493
900.591	17292
900.711	17493
900.83	17372
900.95	17566
901.069	17554
901.189	17421
901.308	17269
901.427	17071
901.546	17140
901.665	17014
901.784	17174
901.904	16965
902.023	16930
902.141	16702
902.26	16622
902.379	16672
902.498	16668
902.617	16489
902.735	16607
902.854	16603
902.973	16489
903.091	16253
903.21	16329
903.328	16348
903.446	16192
903.565	16082
903.683	16204
903.801	16097
903.919	16131
904.038	16021
904.156	15915
904.274	16063
904.392	15934
904.51	15956
904.627	15964
904.745	15873
904.863	15838
904.981	15663
905.098	15530
905.216	15633
905.334	15542
905.451	15648
905.569	15618
905.686	15587
905.803	15534
905.921	15466
906.038	15424
906.155	15481
906.272	15344
906.389	15233
906.506	15192
906.623	15097
906.74	15036
906.857	14921
906.974	15066
907.091	15146
907.208	15211
907.324	15116
907.441	15039
907.557	14883
907.674	14899
907.79	14826
907.907	14830
908.023	14750
908.139	14777
908.256	14743
908.372	14731
908.488	14682
908.604	14571
908.72	14492
908.836	14644
908.952	14522
909.068	14492
909.184	14659
909.3	14518
909.415	14499
909.531	14480
909.647	14294
909.762	14320
909.878	14161
909.993	14256
910.108	14210
910.224	14210
910.339	14206
910.454	14130
910.57	14077
910.685	14012
910.8	14248
910.915	14145
911.03	13997
911.145	13887
911.259	13814
911.374	14027
911.489	13807
911.604	13780
911.718	13563
911.833	13605
911.947	13483
912.062	13495
912.176	13521
912.291	13567
912.405	13605
912.519	13727
912.633	13780
912.748	13666
912.862	13605
912.976	13518
913.09	13400
913.204	13419
913.318	13502
913.431	13567
913.545	13575
913.659	13537
913.772	13346
913.886	13362
914	13217
914.113	13411
914.226	13362
914.34	13384
914.453	13251
914.566	13289
914.68	13114
914.793	13209
914.906	13080
915.019	12985
915.132	12973
915.245	12928
915.358	12996
915.47	12993
915.583	13012
915.696	12954
915.809	13050
915.921	13084
916.034	12905
916.146	12928
916.259	12848
916.371	12996
916.483	12973
916.595	12859
916.708	12932
916.82	12886
916.932	12905
917.044	12878
917.156	12802
917.268	12681
917.38	12677
917.491	12681
917.603	12817
917.715	12795
917.826	12779
917.938	12669
918.049	12620
918.161	12684
918.272	12715
918.384	12810
918.495	12692
918.606	12620
918.717	12422
918.828	12566
918.939	12551
919.05	12437
919.161	12498
919.272	12281
919.383	12289
919.494	12471
919.604	12798
919.715	12460
919.826	12369
919.936	12407
920.047	12566
920.157	12467
920.267	12646
920.378	12418
920.488	12426
920.598	12555
920.708	12722
920.818	12654
920.928	12597
921.038	12768
921.148	12738
921.258	12464
921.368	12350
921.477	12304
921.587	12197
921.697	12117
921.806	12262
921.916	12060
922.025	12049
922.134	11859
922.244	11923
922.353	11927
922.462	11767
922.571	11729
922.68	11676
922.789	11570
922.898	11585
923.007	11573
923.116	11710
923.224	11589
923.333	11516
923.442	11429
923.55	11417
923.659	11387
923.767	11452
923.876	11364
923.984	11429
924.092	11208
924.201	11452
924.309	11452
924.417	11379
924.525	11296
924.633	11433
924.741	12266
924.849	11102
924.956	11288
925.064	11105
925.172	11124
925.279	11181
925.387	11071
925.494	11067
925.602	11170
925.709	11151
925.816	11105
925.924	11147
926.031	11155
926.138	11079
926.245	11117
926.352	10965
926.459	11181
926.566	11178
926.673	11025
926.779	10835
926.886	10869
926.993	10771
927.099	10782
927.206	10656
927.312	10717
927.419	10816
927.525	10668
927.631	10714
927.737	10580
927.843	10531
927.95	10504
928.056	10618
928.162	10649
928.267	10588
928.373	11155
928.479	10683
928.585	10462
928.69	10519
928.796	10596
928.901	10398
929.007	10295
929.112	10409
929.218	10455
929.323	10371
929.428	10409
929.533	10459
929.638	10257
929.743	10265
929.848	10325
929.953	10284
930.058	10280
930.163	10063
930.267	10044
930.372	10219
930.477	9941
930.581	10280
930.685	10154
930.79	10021
930.894	9994
930.998	9987
931.103	10086
931.207	9759
931.311	9740
931.415	9595
931.519	9397
931.623	9416
