Data from test_V78500241_3215.txt Node
Date: Fri Mar 25 14:56:06 CST 2022
User: usil
Spectrometer: V785-0024
Trigger mode: 0
Integration Time (sec): 4.000000E-1
Scans to average: 1
Nonlinearity correction enabled: false
Boxcar width: 0
Storing dark spectrum: false
XAxis mode: Wavelengths
Number of Pixels in Spectrum: 1024
>>>>>Begin Spectral Data<<<<<
801.071	21994
801.214	21774
801.356	21603
801.499	21587
801.641	21408
801.783	21317
801.926	21332
802.068	21325
802.211	21306
802.353	21138
802.496	20880
802.638	20925
802.78	20868
802.923	20640
803.065	20598
803.208	20655
803.35	20712
803.492	20724
803.635	20921
803.777	20807
803.919	20788
804.061	21017
804.204	20697
804.346	20579
804.488	20617
804.63	20598
804.773	20613
804.915	20545
805.057	20655
805.199	20674
805.341	20716
805.483	20587
805.626	20564
805.768	20583
805.91	20579
806.052	20670
806.194	20412
806.336	20678
806.478	20549
806.62	20575
806.762	20621
806.904	20845
807.046	20979
807.188	20967
807.33	20823
807.472	20815
807.614	20731
807.756	20807
807.898	20587
808.04	20625
808.182	20663
808.324	20682
808.465	20670
808.607	20773
808.749	20956
808.891	21062
809.033	21119
809.174	21005
809.316	20944
809.458	20982
809.6	20982
809.741	21024
809.883	21013
810.025	21184
810.166	21230
810.308	21055
810.45	21013
810.591	20906
810.733	20777
810.875	20834
811.016	20670
811.158	20659
811.299	20785
811.441	20971
811.582	20845
811.724	20876
811.865	20625
812.007	20579
812.148	20750
812.29	20743
812.431	20887
812.573	21013
812.714	21100
812.855	21184
812.997	21298
813.138	21545
813.279	21306
813.421	21161
813.562	21222
813.703	21032
813.845	20823
813.986	20613
814.127	20431
814.268	20275
814.41	20305
814.551	20214
814.692	20320
814.833	20149
814.974	20225
815.115	20301
815.256	20168
815.397	20126
815.539	20069
815.68	20065
815.821	20005
815.962	20065
816.103	20062
816.244	19818
816.385	19719
816.526	19651
816.666	19597
816.807	19476
816.948	19544
817.089	19518
817.23	19510
817.371	19468
817.512	19327
817.653	19282
817.793	19297
817.934	19441
818.075	19354
818.216	19312
818.356	19327
818.497	19148
818.638	18943
818.778	19152
818.919	19175
819.06	19042
819.2	19164
819.341	19377
819.481	19327
819.622	19445
819.762	19620
819.903	19578
820.043	19529
820.184	19480
820.324	19324
820.465	19453
820.605	19403
820.746	19346
820.886	19297
821.026	19407
821.167	19213
821.307	19388
821.447	19194
821.588	19209
821.728	19110
821.868	19034
822.008	18741
822.149	18730
822.289	18787
822.429	18486
822.569	18410
822.709	18395
822.849	18201
822.99	18292
823.13	18220
823.27	18136
823.41	18190
823.55	18003
823.69	18076
823.83	18144
823.97	17980
824.11	17824
824.25	17874
824.389	17897
824.529	17859
824.669	17885
824.809	17935
824.949	17836
825.089	17923
825.228	17828
825.368	17608
825.508	17642
825.648	17573
825.787	17657
825.927	17745
826.067	17497
826.206	17558
826.346	17646
826.485	17642
826.625	17585
826.765	17718
826.904	17623
827.044	17436
827.183	17341
827.323	17269
827.462	17376
827.601	17322
827.741	17227
827.88	17376
828.02	17155
828.159	17147
828.298	17337
828.437	17421
828.577	17189
828.716	17379
828.855	17269
828.994	17075
829.134	16991
829.273	17014
829.412	17037
829.551	17060
829.69	17071
829.829	17018
829.968	17174
830.107	17037
830.246	17109
830.385	17117
830.524	16991
830.663	16900
830.802	16816
830.941	16710
831.08	16599
831.219	16778
831.357	16710
831.496	16934
831.635	16752
831.774	16558
831.913	16546
832.051	16421
832.19	16512
832.329	16550
832.467	16447
832.606	16268
832.744	16360
832.883	16280
833.022	16485
833.16	16322
833.299	16371
833.437	16322
833.576	16402
833.714	16440
833.852	16440
833.991	16462
834.129	16523
834.267	16508
834.406	16531
834.544	16497
834.682	16497
834.821	16329
834.959	16588
835.097	16493
835.235	16462
835.373	16462
835.511	16538
835.65	16295
835.788	16398
835.926	16204
836.064	16143
836.202	16276
836.34	16451
836.478	16443
836.615	16280
836.753	16394
836.891	16470
837.029	16230
837.167	16306
837.305	16276
837.443	16230
837.58	16261
837.718	16314
837.856	16207
837.993	16147
838.131	16162
838.269	16139
838.406	16093
838.544	16044
838.681	15998
838.819	15922
838.956	15770
839.094	15667
839.231	15846
839.369	15918
839.506	16177
839.643	15964
839.781	15846
839.918	15686
840.055	15762
840.193	15720
840.33	15770
840.467	15717
840.604	15762
840.742	16013
840.879	15648
841.016	15667
841.153	15610
841.29	15865
841.427	15759
841.564	15808
841.701	15835
841.838	15701
841.975	15633
842.112	15656
842.249	15625
842.385	15538
842.522	15599
842.659	15564
842.796	15466
842.933	15587
843.069	15469
843.206	15485
843.343	15724
843.479	15542
843.616	15534
843.752	15351
843.889	15363
844.025	15466
844.162	15321
844.298	15439
844.435	15287
844.571	15237
844.708	15447
844.844	15405
844.98	15393
845.117	15511
845.253	15355
845.389	15097
845.525	15279
845.661	15256
845.798	15104
845.934	15207
846.07	15097
846.206	15207
846.342	15241
846.478	15146
846.614	14910
846.75	14861
846.886	14906
847.022	15203
847.158	15005
847.294	14933
847.429	14963
847.565	14785
847.701	15104
847.837	14594
847.972	14606
848.108	14788
848.244	14765
848.379	14434
848.515	14461
848.65	14541
848.786	14575
848.921	14590
849.057	14579
849.192	14552
849.328	14503
849.463	14549
849.598	14571
849.734	14457
849.869	14442
850.004	14336
850.14	14263
850.275	14480
850.41	14229
850.545	14202
850.68	14305
850.815	14286
850.95	14218
851.085	14408
851.22	14362
851.355	14320
851.49	14267
851.625	14267
851.76	14286
851.895	14142
852.03	14199
852.165	14229
852.299	14286
852.434	14328
852.569	14332
852.703	14294
852.838	14324
852.973	14396
853.107	14400
853.242	14134
853.376	14180
853.511	14001
853.645	14081
853.78	14244
853.914	14084
854.048	14092
854.183	14073
854.317	14130
854.451	14336
854.585	14145
854.72	14058
854.854	14180
854.988	14073
855.122	14084
855.256	14046
855.39	14183
855.524	14199
855.658	14240
855.792	14123
855.926	14286
856.06	14130
856.194	14248
856.327	14153
856.461	14142
856.595	14092
856.729	14100
856.862	14278
856.996	14088
857.13	14214
857.263	14256
857.397	14248
857.53	14126
857.664	14259
857.797	14301
857.931	14244
858.064	14218
858.197	14267
858.331	14126
858.464	14054
858.597	14005
858.731	14202
858.864	14123
858.997	14176
859.13	14119
859.263	14168
859.396	14259
859.529	14069
859.662	14119
859.795	14119
859.928	14168
860.061	14256
860.194	14351
860.327	14244
860.46	14138
860.592	14294
860.725	14298
860.858	14252
860.99	14256
861.123	14092
861.256	14119
861.388	14096
861.521	15013
861.653	14001
861.786	13955
861.918	13940
862.05	14111
862.183	14088
862.315	14142
862.447	14103
862.58	14043
862.712	13898
862.844	13890
862.976	14012
863.108	14020
863.24	14339
863.372	13868
863.504	13852
863.636	13955
863.768	13925
863.9	13928
864.032	13925
864.164	13852
864.296	13944
864.428	14027
864.559	13944
864.691	13993
864.823	14012
864.954	13887
865.086	14005
865.217	13986
865.349	13890
865.48	13986
865.612	13909
865.743	14001
865.875	13917
866.006	13887
866.137	13845
866.269	13856
866.4	13887
866.531	13868
866.662	13883
866.793	13864
866.924	14020
867.055	13887
867.186	13868
867.317	13833
867.448	13742
867.579	13871
867.71	13887
867.841	13818
867.972	13967
868.103	13860
868.233	13974
868.364	13833
868.495	13932
868.625	14187
868.756	14240
868.886	14081
869.017	14195
869.147	14244
869.278	14271
869.408	14225
869.539	14168
869.669	14187
869.799	14168
869.929	14324
870.06	14214
870.19	14495
870.32	14450
870.45	14545
870.58	14560
870.71	14625
870.84	14617
870.97	14526
871.1	14499
871.23	14796
871.36	14804
871.489	14621
871.619	14629
871.749	14773
871.879	14876
872.008	14834
872.138	14705
872.267	14758
872.397	14720
872.526	14617
872.656	14571
872.785	14617
872.915	14762
873.044	14727
873.173	14819
873.303	14857
873.432	14819
873.561	14960
873.69	14868
873.819	14750
873.948	14998
874.077	14887
874.206	14712
874.335	14826
874.464	14956
874.593	15195
874.722	15055
874.851	15074
874.979	15104
875.108	15207
875.237	15077
875.365	15047
875.494	15180
875.623	15222
875.751	15005
875.88	15165
876.008	15252
876.136	15370
876.265	15595
876.393	15717
876.521	15667
876.65	15625
876.778	15519
876.906	15443
877.034	15545
877.162	15599
877.29	15542
877.418	15564
877.546	15458
877.674	15587
877.802	15523
877.93	15530
878.058	15435
878.185	15405
878.313	15511
878.441	15549
878.568	15306
878.696	15462
878.824	15557
878.951	15629
879.079	15682
879.206	15964
879.333	15778
879.461	15580
879.588	15633
879.715	15622
879.842	15774
879.97	15644
880.097	15329
880.224	15313
880.351	15332
880.478	15382
880.605	15420
880.732	15325
880.859	15584
880.986	15389
881.112	15428
881.239	15336
881.366	15226
881.493	15154
881.619	15123
881.746	15043
881.872	14998
881.999	14982
882.125	15043
882.252	15176
882.378	15116
882.505	15165
882.631	14948
882.757	14918
882.883	14933
883.01	14941
883.136	14781
883.262	14743
883.388	14693
883.514	14891
883.64	14864
883.766	14807
883.892	14697
884.018	14765
884.143	14868
884.269	14986
884.395	14568
884.52	14541
884.646	14610
884.772	14511
884.897	14530
885.023	14606
885.148	14659
885.274	14807
885.399	14610
885.524	14629
885.65	14632
885.775	14610
885.9	14552
886.025	14667
886.15	14693
886.275	14495
886.4	14400
886.525	14545
886.65	14541
886.775	14568
886.9	14750
887.025	14686
887.149	14602
887.274	14290
887.399	14343
887.523	14301
887.648	14385
887.773	14221
887.897	14564
888.021	14476
888.146	14419
888.27	14503
888.395	14552
888.519	14412
888.643	14476
888.767	14499
888.891	14503
889.015	14294
889.139	14317
889.263	14282
889.387	14332
889.511	14488
889.635	14355
889.759	14298
889.883	14229
890.006	14294
890.13	14461
890.254	14138
890.377	14206
890.501	14153
890.624	14031
890.748	14100
890.871	13932
890.995	13909
891.118	13860
891.241	14001
891.364	14058
891.488	14111
891.611	13986
891.734	14054
891.857	13974
891.98	13925
892.103	14058
892.226	14005
892.349	13974
892.471	13868
892.594	14001
892.717	13989
892.839	13993
892.962	13970
893.085	14069
893.207	13944
893.33	13894
893.452	13978
893.575	14046
893.697	13993
893.819	14115
893.941	14199
894.064	14218
894.186	13978
894.308	14020
894.43	14119
894.552	14278
894.674	14123
894.796	13887
894.918	13993
895.04	13963
895.161	14172
895.283	14073
895.405	14069
895.526	13997
895.648	14065
895.769	14092
895.891	14145
896.012	14199
896.134	14282
896.255	14142
896.376	14157
896.498	14168
896.619	14218
896.74	14138
896.861	14199
896.982	14522
897.103	14765
897.224	14465
897.345	14461
897.466	14374
897.587	14404
897.708	14579
897.828	14454
897.949	14408
898.07	14305
898.19	14434
898.311	14583
898.431	14461
898.552	14484
898.672	14613
898.792	14583
898.913	14545
899.033	14518
899.153	14324
899.273	14286
899.393	14400
899.513	14408
899.633	14415
899.753	14347
899.873	14385
899.993	14564
900.113	14389
900.232	14473
900.352	14362
900.472	14290
900.591	14233
900.711	14233
900.83	14225
900.95	14301
901.069	14366
901.189	14157
901.308	13986
901.427	13875
901.546	13902
901.665	14027
901.784	13928
901.904	13807
902.023	13662
902.141	13559
902.26	13434
902.379	13548
902.498	13460
902.617	13468
902.735	13502
902.854	13411
902.973	13460
903.091	13221
903.21	13217
903.328	13232
903.446	13137
903.565	13053
903.683	13076
903.801	13031
903.919	13057
904.038	13050
904.156	12897
904.274	12958
904.392	12837
904.51	12837
904.627	12878
904.745	12947
904.863	12863
904.981	12715
905.098	12574
905.216	12574
905.334	12589
905.451	12506
905.569	12456
905.686	12608
905.803	12517
905.921	12448
906.038	12422
906.155	12391
906.272	12285
906.389	12369
906.506	12087
906.623	12148
906.74	12091
906.857	12038
906.974	12110
907.091	12163
907.208	12334
907.324	12209
907.441	12079
907.557	11992
907.674	11916
907.79	11855
907.907	11950
908.023	11916
908.139	11904
908.256	11828
908.372	11870
908.488	11779
908.604	11699
908.72	11756
908.836	11653
908.952	11623
909.068	11653
909.184	11729
909.3	11661
909.415	11707
909.531	11691
909.647	11474
909.762	11395
909.878	11383
909.993	11467
910.108	11421
910.224	11417
910.339	11490
910.454	11356
910.57	11204
910.685	11246
910.8	11528
910.915	11410
911.03	11299
911.145	11105
911.259	11212
911.374	11216
911.489	11018
911.604	11045
911.718	10892
911.833	10927
911.947	10763
912.062	10664
912.176	10911
912.291	10877
912.405	10892
912.519	11132
912.633	11098
912.748	10938
912.862	10847
912.976	10809
913.09	10664
913.204	10664
913.318	10828
913.431	10847
913.545	10911
913.659	10854
913.772	10767
913.886	10675
914	10653
914.113	10774
914.226	10755
914.34	10702
914.453	10637
914.566	10729
914.68	10603
914.793	10580
914.906	10360
915.019	10344
915.132	10360
915.245	10348
915.358	10405
915.47	10398
915.583	10421
915.696	10413
915.809	10584
915.921	10569
916.034	10409
916.146	10348
916.259	10421
916.371	10577
916.483	10318
916.595	10337
916.708	10382
916.82	10333
916.932	10348
917.044	10261
917.156	10318
917.268	10238
917.38	10196
917.491	10147
917.603	10207
917.715	10261
917.826	10295
917.938	10310
918.049	10120
918.161	10154
918.272	10394
918.384	10390
918.495	10303
918.606	10166
918.717	10116
918.828	10120
918.939	10139
919.05	10021
919.161	10059
919.272	9895
919.383	10025
919.494	10196
919.604	10299
919.715	10120
919.826	10063
919.936	10154
920.047	10211
920.157	10188
920.267	10337
920.378	10147
920.488	10112
920.598	10348
920.708	10474
920.818	10318
920.928	10284
921.038	10462
921.148	10409
921.258	10162
921.368	10101
921.477	10055
921.587	9983
921.697	9949
921.806	10025
921.916	9835
922.025	9762
922.134	9637
922.244	9690
922.353	9709
922.462	9580
922.571	9515
922.68	9435
922.789	9332
922.898	9386
923.007	9302
923.116	9454
923.224	9431
923.333	9435
923.442	9317
923.55	9237
923.659	9317
923.767	9431
923.876	9260
923.984	9321
924.092	9237
924.201	9291
924.309	9260
924.417	9260
924.525	9222
924.633	9245
924.741	10143
924.849	9066
924.956	9195
925.064	9017
925.172	8963
925.279	8963
925.387	9039
925.494	9085
925.602	9150
925.709	9131
925.816	9013
925.924	9036
926.031	9100
926.138	9081
926.245	9150
926.352	8994
926.459	9089
926.566	9112
926.673	9020
926.779	8902
926.886	8918
926.993	8781
927.099	8758
927.206	8697
927.312	8766
927.419	8849
927.525	8804
927.631	8838
927.737	8678
927.843	8640
927.95	8564
928.056	8625
928.162	8670
928.267	8648
928.373	9226
928.479	8689
928.585	8568
928.69	8655
928.796	8708
928.901	8621
929.007	8484
929.112	8533
929.218	8579
929.323	8590
929.428	8575
929.533	8659
929.638	8412
929.743	8484
929.848	8465
929.953	8480
930.058	8400
930.163	8195
930.267	8195
930.372	8370
930.477	8218
930.581	8522
930.685	8381
930.79	8164
930.894	8229
930.998	8199
931.103	8351
931.207	8031
931.311	7951
931.415	7906
931.519	7696
931.623	7662
