Data from test_V78500241_2319.txt Node
Date: Fri Mar 25 14:49:51 CST 2022
User: usil
Spectrometer: V785-0024
Trigger mode: 0
Integration Time (sec): 4.000000E-1
Scans to average: 1
Nonlinearity correction enabled: false
Boxcar width: 0
Storing dark spectrum: false
XAxis mode: Wavelengths
Number of Pixels in Spectrum: 1024
>>>>>Begin Spectral Data<<<<<
801.071	22230
801.214	22067
801.356	21842
801.499	21755
801.641	21557
801.783	21599
801.926	21652
802.068	21469
802.211	21412
802.353	21306
802.496	21116
802.638	20975
802.78	21020
802.923	20796
803.065	20891
803.208	20861
803.35	20883
803.492	21062
803.635	21070
803.777	20765
803.919	21013
804.061	21298
804.204	21005
804.346	20834
804.488	20868
804.63	20864
804.773	20777
804.915	20880
805.057	21039
805.199	20659
805.341	20952
805.483	20906
805.626	20823
805.768	20739
805.91	20815
806.052	20864
806.194	20724
806.336	20910
806.478	20777
806.62	20880
806.762	20921
806.904	21009
807.046	21093
807.188	21138
807.33	21142
807.472	21199
807.614	21077
807.756	21077
807.898	20990
808.04	20937
808.182	20921
808.324	20864
808.465	20861
808.607	21089
808.749	21230
808.891	21298
809.033	21363
809.174	21294
809.316	21123
809.458	21169
809.6	21173
809.741	21268
809.883	21199
810.025	21268
810.166	21298
810.308	21279
810.45	21306
810.591	21317
810.733	21077
810.875	20941
811.016	21024
811.158	20925
811.299	20948
811.441	21039
811.582	21150
811.724	20971
811.865	20982
812.007	20883
812.148	20914
812.29	21043
812.431	21093
812.573	21154
812.714	21192
812.855	21447
812.997	21564
813.138	21686
813.279	21622
813.421	21492
813.562	21416
813.703	21226
813.845	21161
813.986	20697
814.127	20727
814.268	20575
814.41	20579
814.551	20522
814.692	20522
814.833	20465
814.974	20450
815.115	20480
815.256	20396
815.397	20389
815.539	20336
815.68	20233
815.821	20164
815.962	20256
816.103	20339
816.244	19963
816.385	19833
816.526	19928
816.666	19780
816.807	19616
816.948	19658
817.089	19811
817.23	19700
817.371	19613
817.512	19533
817.653	19578
817.793	19605
817.934	19674
818.075	19605
818.216	19601
818.356	19632
818.497	19396
818.638	19297
818.778	19255
818.919	19274
819.06	19362
819.2	19441
819.341	19396
819.481	19460
819.622	19700
819.762	19788
819.903	19734
820.043	19655
820.184	19666
820.324	19643
820.465	19670
820.605	19639
820.746	19647
820.886	19613
821.026	19624
821.167	19590
821.307	19628
821.447	19590
821.588	19392
821.728	19346
821.868	19103
822.008	18989
822.149	18943
822.289	19046
822.429	18859
822.569	18692
822.709	18681
822.849	18582
822.99	18521
823.13	18528
823.27	18532
823.41	18315
823.55	18251
823.69	18277
823.83	18201
823.97	18251
824.11	18095
824.25	18060
824.389	18038
824.529	18171
824.669	17984
824.809	18171
824.949	18243
825.089	18095
825.228	18057
825.368	17824
825.508	17904
825.648	17878
825.787	17847
825.927	18011
826.067	17859
826.206	17775
826.346	17965
826.485	17866
826.625	17878
826.765	17931
826.904	17939
827.044	17748
827.183	17630
827.323	17547
827.462	17573
827.601	17497
827.741	17505
827.88	17581
828.02	17459
828.159	17570
828.298	17589
828.437	17611
828.577	17512
828.716	17726
828.855	17474
828.994	17326
829.134	17334
829.273	17269
829.412	17303
829.551	17166
829.69	17261
829.829	17269
829.968	17402
830.107	17288
830.246	17360
830.385	17220
830.524	17212
830.663	17200
830.802	17067
830.941	16919
831.08	16946
831.219	17056
831.357	16911
831.496	17140
831.635	16843
831.774	16816
831.913	16797
832.051	16729
832.19	16683
832.329	16694
832.467	16653
832.606	16546
832.744	16634
832.883	16527
833.022	16542
833.16	16637
833.299	16599
833.437	16645
833.576	16607
833.714	16611
833.852	16478
833.991	16550
834.129	16656
834.267	16702
834.406	16626
834.544	16622
834.682	16641
834.821	16592
834.959	16850
835.097	16588
835.235	16710
835.373	16615
835.511	16599
835.65	16519
835.788	16382
835.926	16348
836.064	16356
836.202	16287
836.34	16569
836.478	16493
836.615	16622
836.753	16561
836.891	16592
837.029	16599
837.167	16466
837.305	16478
837.443	16367
837.58	16352
837.718	16390
837.856	16451
837.993	16329
838.131	16261
838.269	16329
838.406	16356
838.544	16303
838.681	16086
838.819	16036
838.956	15953
839.094	16021
839.231	15964
839.369	16143
839.506	16314
839.643	16093
839.781	16029
839.918	15934
840.055	15930
840.193	15930
840.33	15907
840.467	15808
840.604	16025
840.742	16280
840.879	15785
841.016	15823
841.153	15892
841.29	16135
841.427	15838
841.564	15964
841.701	15937
841.838	15861
841.975	15816
842.112	15895
842.249	15766
842.385	15724
842.522	15892
842.659	15816
842.796	15679
842.933	15618
843.069	15656
843.206	15679
843.343	15671
843.479	15709
843.616	15648
843.752	15439
843.889	15557
844.025	15701
844.162	15504
844.298	15622
844.435	15424
844.571	15439
844.708	15507
844.844	15584
844.98	15591
845.117	15576
845.253	15515
845.389	15412
845.525	15412
845.661	15488
845.798	15252
845.934	15378
846.07	15230
846.206	15313
846.342	15458
846.478	15233
846.614	15195
846.75	14963
846.886	15047
847.022	15184
847.158	15062
847.294	15017
847.429	15055
847.565	15142
847.701	15249
847.837	14754
847.972	14651
848.108	14929
848.244	14967
848.379	14777
848.515	14636
848.65	14575
848.786	14697
848.921	14667
849.057	14743
849.192	14769
849.328	14648
849.463	14621
849.598	14648
849.734	14579
849.869	14575
850.004	14518
850.14	14473
850.275	14434
850.41	14362
850.545	14309
850.68	14389
850.815	14431
850.95	14332
851.085	14621
851.22	14374
851.355	14454
851.49	14343
851.625	14431
851.76	14343
851.895	14362
852.03	14317
852.165	14419
852.299	14461
852.434	14492
852.569	14396
852.703	14492
852.838	14552
852.973	14606
853.107	14514
853.242	14450
853.376	14313
853.511	14130
853.645	14259
853.78	14431
853.914	14263
854.048	14267
854.183	14176
854.317	14313
854.451	14511
854.585	14298
854.72	14214
854.854	14294
854.988	14267
855.122	14237
855.256	14187
855.39	14347
855.524	14343
855.658	14362
855.792	14259
855.926	14355
856.06	14324
856.194	14434
856.327	14290
856.461	14149
856.595	14290
856.729	14244
856.862	14309
856.996	14317
857.13	14347
857.263	14434
857.397	14419
857.53	14240
857.664	14362
857.797	14301
857.931	14446
858.064	14423
858.197	14484
858.331	14229
858.464	14248
858.597	14210
858.731	14294
858.864	14271
858.997	14229
859.13	14282
859.263	14248
859.396	14328
859.529	14366
859.662	14202
859.795	14294
859.928	14313
860.061	14469
860.194	14469
860.327	14187
860.46	14317
860.592	14404
860.725	14339
860.858	14434
860.99	14362
861.123	14336
861.256	14103
861.388	14317
861.521	14830
861.653	14062
861.786	14142
861.918	14039
862.05	14294
862.183	14256
862.315	14259
862.447	14412
862.58	14221
862.712	14100
862.844	14024
862.976	14062
863.108	14084
863.24	14457
863.372	14092
863.504	13978
863.636	14077
863.768	14138
863.9	14058
864.032	14008
864.164	14084
864.296	14180
864.428	14221
864.559	14233
864.691	14225
864.823	14065
864.954	14069
865.086	14168
865.217	14092
865.349	14027
865.48	13978
865.612	14043
865.743	14180
865.875	14054
866.006	14012
866.137	14107
866.269	14058
866.4	14035
866.531	14035
866.662	14016
866.793	13951
866.924	14043
867.055	14005
867.186	14058
867.317	14107
867.448	14012
867.579	13970
867.71	14058
867.841	14001
867.972	14096
868.103	14031
868.233	14107
868.364	14024
868.495	14126
868.625	14187
868.756	14347
868.886	14271
869.017	14317
869.147	14381
869.278	14488
869.408	14305
869.539	14259
869.669	14396
869.799	14278
869.929	14412
870.06	14412
870.19	14610
870.32	14625
870.45	14636
870.58	14667
870.71	14868
870.84	14773
870.97	14651
871.1	14735
871.23	14819
871.36	14815
871.489	14861
871.619	14830
871.749	14876
871.879	14906
872.008	14952
872.138	14845
872.267	14902
872.397	14758
872.526	14811
872.656	14735
872.785	14739
872.915	14979
873.044	14963
873.173	14963
873.303	14956
873.432	14948
873.561	15058
873.69	14933
873.819	14982
873.948	15013
874.077	14906
874.206	14975
874.335	14975
874.464	15123
874.593	15188
874.722	15214
874.851	15450
874.979	15264
875.108	15260
875.237	15184
875.365	15203
875.494	15279
875.623	15287
875.751	15275
875.88	15275
876.008	15485
876.136	15431
876.265	15675
876.393	15823
876.521	15724
876.65	15808
876.778	15686
876.906	15648
877.034	15603
877.162	15705
877.29	15610
877.418	15568
877.546	15660
877.674	15671
877.802	15701
877.93	15656
878.058	15515
878.185	15526
878.313	15641
878.441	15606
878.568	15511
878.696	15660
878.824	15637
878.951	15755
879.079	15915
879.206	15949
879.333	15823
879.461	15629
879.588	15781
879.715	15751
879.842	15998
879.97	15766
880.097	15504
880.224	15530
880.351	15526
880.478	15557
880.605	15447
880.732	15557
880.859	15789
880.986	15713
881.112	15545
881.239	15481
881.366	15241
881.493	15195
881.619	15230
881.746	15142
881.872	15138
881.999	15237
882.125	15127
882.252	15180
882.378	15169
882.505	15405
882.631	15138
882.757	15081
882.883	15066
883.01	14990
883.136	14937
883.262	14819
883.388	14781
883.514	15070
883.64	15123
883.766	14952
883.892	14762
884.018	14868
884.143	14982
884.269	15081
884.395	14739
884.52	14758
884.646	14663
884.772	14750
884.897	14590
885.023	14655
885.148	14785
885.274	14845
885.399	14804
885.524	14743
885.65	14743
885.775	14769
885.9	14720
886.025	14811
886.15	14811
886.275	14750
886.4	14583
886.525	14720
886.65	14560
886.775	14667
886.9	14849
887.025	15036
887.149	14651
887.274	14499
887.399	14419
887.523	14522
887.648	14427
887.773	14317
887.897	14594
888.021	14560
888.146	14549
888.27	14648
888.395	14659
888.519	14587
888.643	14549
888.767	14629
888.891	14469
889.015	14427
889.139	14438
889.263	14396
889.387	14457
889.511	14568
889.635	14488
889.759	14271
889.883	14358
890.006	14389
890.13	14400
890.254	14355
890.377	14328
890.501	14210
890.624	14202
890.748	14225
890.871	14138
890.995	14024
891.118	14016
891.241	14100
891.364	13951
891.488	14172
891.611	14062
891.734	14084
891.857	14107
891.98	14142
892.103	14187
892.226	14161
892.349	14077
892.471	14008
892.594	14138
892.717	14153
892.839	14161
892.962	14157
893.085	14084
893.207	14050
893.33	13906
893.452	13970
893.575	14210
893.697	14065
893.819	14225
893.941	14195
894.064	14309
894.186	14119
894.308	14005
894.43	14214
894.552	14400
894.674	14301
894.796	14062
894.918	14164
895.04	14100
895.161	14225
895.283	14218
895.405	14221
895.526	14126
895.648	14218
895.769	14218
895.891	14263
896.012	14351
896.134	14317
896.255	14267
896.376	14237
896.498	14240
896.619	14385
896.74	14324
896.861	14355
896.982	14556
897.103	14773
897.224	14514
897.345	14560
897.466	14442
897.587	14571
897.708	14617
897.828	14533
897.949	14480
898.07	14396
898.19	14518
898.311	14632
898.431	14530
898.552	14648
898.672	14651
898.792	14758
898.913	14758
899.033	14530
899.153	14484
899.273	14404
899.393	14514
899.513	14522
899.633	14499
899.753	14492
899.873	14362
899.993	14511
900.113	14552
900.232	14495
900.352	14438
900.472	14389
900.591	14362
900.711	14465
900.83	14336
900.95	14434
901.069	14476
901.189	14317
901.308	14088
901.427	14039
901.546	14046
901.665	14005
901.784	14035
901.904	13932
902.023	13875
902.141	13776
902.26	13677
902.379	13647
902.498	13601
902.617	13506
902.735	13586
902.854	13613
902.973	13525
903.091	13255
903.21	13293
903.328	13373
903.446	13240
903.565	13141
903.683	13221
903.801	13015
903.919	13149
904.038	13061
904.156	12954
904.274	12981
904.392	12973
904.51	12958
904.627	12882
904.745	13107
904.863	12954
904.981	12745
905.098	12696
905.216	12745
905.334	12681
905.451	12738
905.569	12601
905.686	12681
905.803	12662
905.921	12410
906.038	12597
906.155	12494
906.272	12384
906.389	12410
906.506	12129
906.623	12239
906.74	12235
906.857	12072
906.974	12163
907.091	12300
907.208	12323
907.324	12243
907.441	12167
907.557	12041
907.674	11988
907.79	12007
907.907	11954
908.023	12121
908.139	11965
908.256	12011
908.372	11939
908.488	11828
908.604	11756
908.72	11684
908.836	11691
908.952	11737
909.068	11828
909.184	11824
909.3	11691
909.415	11832
909.531	11760
909.647	11589
909.762	11471
909.878	11509
909.993	11558
910.108	11554
910.224	11463
910.339	11608
910.454	11395
910.57	11417
910.685	11292
910.8	11657
910.915	11596
911.03	11364
911.145	11204
911.259	11174
911.374	11231
911.489	11197
911.604	11147
911.718	11003
911.833	11075
911.947	10877
912.062	10805
912.176	10987
912.291	10976
912.405	10885
912.519	11174
912.633	11231
912.748	11064
912.862	10961
912.976	10790
913.09	10736
913.204	10752
913.318	10869
913.431	10938
913.545	10938
913.659	10980
913.772	10892
913.886	10759
914	10736
914.113	10809
914.226	10896
914.34	10835
914.453	10702
914.566	10889
914.68	10626
914.793	10649
914.906	10565
915.019	10440
915.132	10424
915.245	10535
915.358	10531
915.47	10504
915.583	10462
915.696	10512
915.809	10584
915.921	10626
916.034	10436
916.146	10436
916.259	10379
916.371	10538
916.483	10436
916.595	10470
916.708	10451
916.82	10440
916.932	10440
917.044	10413
917.156	10382
917.268	10265
917.38	10276
917.491	10276
917.603	10451
917.715	10428
917.826	10390
917.938	10303
918.049	10185
918.161	10272
918.272	10428
918.384	10470
918.495	10261
918.606	10257
918.717	10124
918.828	10280
918.939	10257
919.05	10109
919.161	10204
919.272	9949
919.383	10063
919.494	10238
919.604	10428
919.715	10227
919.826	10143
919.936	10101
920.047	10246
920.157	10185
920.267	10405
920.378	10246
920.488	10284
920.598	10421
920.708	10565
920.818	10390
920.928	10398
921.038	10561
921.148	10550
921.258	10257
921.368	10200
921.477	10071
921.587	10078
921.697	9945
921.806	10051
921.916	9964
922.025	9823
922.134	9671
922.244	9724
922.353	9759
922.462	9709
922.571	9629
922.68	9435
922.789	9439
922.898	9443
923.007	9424
923.116	9557
923.224	9462
923.333	9462
923.442	9408
923.55	9313
923.659	9435
923.767	9397
923.876	9245
923.984	9367
924.092	9253
924.201	9298
924.309	9294
924.417	9298
924.525	9195
924.633	9268
924.741	10223
924.849	9112
924.956	9165
925.064	9127
925.172	9058
925.279	9062
925.387	9184
925.494	9127
925.602	9233
925.709	9230
925.816	9017
925.924	9131
926.031	9211
926.138	9146
926.245	9146
926.352	9001
926.459	9146
926.566	9180
926.673	9047
926.779	8971
926.886	8952
926.993	8880
927.099	8872
927.206	8838
927.312	8785
927.419	8914
927.525	8788
927.631	8902
927.737	8746
927.843	8686
927.95	8590
928.056	8712
928.162	8735
928.267	8773
928.373	9424
928.479	8857
928.585	8606
928.69	8788
928.796	8766
928.901	8632
929.007	8541
929.112	8689
929.218	8598
929.323	8564
929.428	8526
929.533	8712
929.638	8545
929.743	8499
929.848	8568
929.953	8514
930.058	8488
930.163	8256
930.267	8290
930.372	8438
930.477	8313
930.581	8594
930.685	8412
930.79	8282
930.894	8290
930.998	8252
931.103	8351
931.207	8062
931.311	8046
931.415	7906
931.519	7776
931.623	7765
