Data from test_V78500241_3313.txt Node
Date: Fri Mar 25 14:56:46 CST 2022
User: usil
Spectrometer: V785-0024
Trigger mode: 0
Integration Time (sec): 4.000000E-1
Scans to average: 1
Nonlinearity correction enabled: false
Boxcar width: 0
Storing dark spectrum: false
XAxis mode: Wavelengths
Number of Pixels in Spectrum: 1024
>>>>>Begin Spectral Data<<<<<
801.071	21964
801.214	21838
801.356	21561
801.499	21538
801.641	21431
801.783	21351
801.926	21348
802.068	21264
802.211	21272
802.353	21081
802.496	20925
802.638	20811
802.78	20765
802.923	20651
803.065	20648
803.208	20670
803.35	20705
803.492	20781
803.635	20876
803.777	20609
803.919	20705
804.061	20994
804.204	20674
804.346	20594
804.488	20419
804.63	20758
804.773	20473
804.915	20636
805.057	20644
805.199	20590
805.341	20640
805.483	20689
805.626	20693
805.768	20446
805.91	20575
806.052	20613
806.194	20514
806.336	20693
806.478	20648
806.62	20568
806.762	20724
806.904	20823
807.046	20990
807.188	20929
807.33	20773
807.472	20921
807.614	20849
807.756	20811
807.898	20670
808.04	20716
808.182	20648
808.324	20663
808.465	20617
808.607	20731
808.749	20777
808.891	21089
809.033	21123
809.174	20952
809.316	20842
809.458	20868
809.6	20906
809.741	20925
809.883	20902
810.025	20998
810.166	20948
810.308	21077
810.45	21154
810.591	20956
810.733	20861
810.875	20682
811.016	20598
811.158	20762
811.299	20861
811.441	20804
811.582	20735
811.724	20708
811.865	20579
812.007	20682
812.148	20629
812.29	20697
812.431	20902
812.573	20998
812.714	21157
812.855	21165
812.997	21340
813.138	21359
813.279	21294
813.421	21230
813.562	21043
813.703	20944
813.845	20826
813.986	20549
814.127	20332
814.268	20339
814.41	20237
814.551	20309
814.692	20271
814.833	20244
814.974	20142
815.115	20286
815.256	20115
815.397	20092
815.539	20111
815.68	19940
815.821	19837
815.962	20035
816.103	19898
816.244	19799
816.385	19647
816.526	19632
816.666	19495
816.807	19422
816.948	19460
817.089	19491
817.23	19373
817.371	19403
817.512	19377
817.653	19335
817.793	19266
817.934	19354
818.075	19422
818.216	19430
818.356	19381
818.497	19266
818.638	19038
818.778	19027
818.919	19050
819.06	19015
819.2	19259
819.341	19217
819.481	19236
819.622	19373
819.762	19696
819.903	19518
820.043	19403
820.184	19350
820.324	19354
820.465	19381
820.605	19411
820.746	19324
820.886	19145
821.026	19331
821.167	19308
821.307	19377
821.447	19160
821.588	19217
821.728	19031
821.868	18859
822.008	18806
822.149	18764
822.289	18566
822.429	18441
822.569	18532
822.709	18372
822.849	18281
822.99	18262
823.13	18224
823.27	18163
823.41	18114
823.55	17992
823.69	18060
823.83	18057
823.97	17984
824.11	17798
824.25	17901
824.389	17783
824.529	17779
824.669	17874
824.809	17954
824.949	17828
825.089	17923
825.228	17920
825.368	17699
825.508	17615
825.648	17661
825.787	17604
825.927	17604
826.067	17554
826.206	17505
826.346	17665
826.485	17748
826.625	17596
826.765	17726
826.904	17604
827.044	17478
827.183	17387
827.323	17387
827.462	17330
827.601	17227
827.741	17292
827.88	17326
828.02	17212
828.159	17178
828.298	17349
828.437	17254
828.577	17193
828.716	17429
828.855	17258
828.994	17060
829.134	16995
829.273	17060
829.412	17029
829.551	16995
829.69	17029
829.829	17029
829.968	17132
830.107	17166
830.246	16987
830.385	16999
830.524	16839
830.663	16873
830.802	16793
830.941	16721
831.08	16706
831.219	16748
831.357	16736
831.496	16786
831.635	16634
831.774	16622
831.913	16519
832.051	16508
832.19	16409
832.329	16478
832.467	16333
832.606	16474
832.744	16287
832.883	16402
833.022	16314
833.16	16284
833.299	16337
833.437	16436
833.576	16356
833.714	16356
833.852	16481
833.991	16462
834.129	16455
834.267	16382
834.406	16421
834.544	16474
834.682	16485
834.821	16424
834.959	16596
835.097	16428
835.235	16451
835.373	16497
835.511	16432
835.65	16276
835.788	16386
835.926	16196
836.064	16158
836.202	16192
836.34	16306
836.478	16470
836.615	16318
836.753	16348
836.891	16428
837.029	16516
837.167	16421
837.305	16257
837.443	16303
837.58	16154
837.718	16268
837.856	16169
837.993	16135
838.131	16333
838.269	16093
838.406	16158
838.544	16048
838.681	15911
838.819	15918
838.956	15747
839.094	15709
839.231	15846
839.369	15907
839.506	16147
839.643	16074
839.781	15759
839.918	15747
840.055	15774
840.193	15922
840.33	15774
840.467	15762
840.604	15720
840.742	16059
840.879	15595
841.016	15682
841.153	15686
841.29	15911
841.427	15770
841.564	15755
841.701	15865
841.838	15694
841.975	15656
842.112	15705
842.249	15530
842.385	15481
842.522	15743
842.659	15549
842.796	15507
842.933	15656
843.069	15431
843.206	15424
843.343	15656
843.479	15644
843.616	15511
843.752	15450
843.889	15386
844.025	15511
844.162	15424
844.298	15428
844.435	15378
844.571	15325
844.708	15344
844.844	15568
844.98	15458
845.117	15397
845.253	15287
845.389	15154
845.525	15241
845.661	15272
845.798	15055
845.934	15104
846.07	15097
846.206	15214
846.342	15275
846.478	15188
846.614	14986
846.75	14864
846.886	14864
847.022	14906
847.158	14891
847.294	14937
847.429	14902
847.565	14891
847.701	15097
847.837	14674
847.972	14583
848.108	14739
848.244	14716
848.379	14583
848.515	14499
848.65	14514
848.786	14613
848.921	14556
849.057	14549
849.192	14571
849.328	14617
849.463	14545
849.598	14499
849.734	14469
849.869	14355
850.004	14252
850.14	14381
850.275	14240
850.41	14202
850.545	14248
850.68	14347
850.815	14298
850.95	14202
851.085	14461
851.22	14328
851.355	14282
851.49	14294
851.625	14225
851.76	14214
851.895	14088
852.03	14252
852.165	14256
852.299	14324
852.434	14347
852.569	14256
852.703	14396
852.838	14336
852.973	14522
853.107	14507
853.242	14248
853.376	14195
853.511	13986
853.645	14077
853.78	14282
853.914	14240
854.048	14164
854.183	14130
854.317	14263
854.451	14347
854.585	14202
854.72	14069
854.854	14199
854.988	14096
855.122	14161
855.256	14088
855.39	14103
855.524	14195
855.658	14229
855.792	14286
855.926	14252
856.06	14294
856.194	14298
856.327	14058
856.461	14077
856.595	14115
856.729	14168
856.862	14259
856.996	14168
857.13	14355
857.263	14259
857.397	14343
857.53	14161
857.664	14229
857.797	14210
857.931	14225
858.064	14183
858.197	14351
858.331	14180
858.464	14126
858.597	14012
858.731	14100
858.864	14161
858.997	14100
859.13	14134
859.263	14157
859.396	14252
859.529	14084
859.662	14096
859.795	14054
859.928	14084
860.061	14294
860.194	14267
860.327	14119
860.46	14275
860.592	14240
860.725	14309
860.858	14214
860.99	14176
861.123	14149
861.256	14069
861.388	14107
861.521	14807
861.653	14035
861.786	13993
861.918	14020
862.05	14126
862.183	14107
862.315	14168
862.447	14176
862.58	14119
862.712	13913
862.844	13898
862.976	14058
863.108	13982
863.24	14309
863.372	13719
863.504	13871
863.636	13906
863.768	14001
863.9	13993
864.032	13826
864.164	14039
864.296	13993
864.428	14069
864.559	14111
864.691	14065
864.823	13986
864.954	13993
865.086	14005
865.217	14027
865.349	13875
865.48	13925
865.612	13894
865.743	14058
865.875	13921
866.006	13868
866.137	14062
866.269	13925
866.4	13902
866.531	13921
866.662	13913
866.793	13860
866.924	13925
867.055	13955
867.186	13986
867.317	13928
867.448	13925
867.579	13890
867.71	13837
867.841	13902
867.972	14046
868.103	13921
868.233	13894
868.364	13940
868.495	13986
868.625	14138
868.756	14298
868.886	14100
869.017	14153
869.147	14275
869.278	14286
869.408	14294
869.539	14252
869.669	14248
869.799	14229
869.929	14347
870.06	14271
870.19	14583
870.32	14476
870.45	14465
870.58	14629
870.71	14640
870.84	14716
870.97	14473
871.1	14571
871.23	14743
871.36	14777
871.489	14655
871.619	14712
871.749	14697
871.879	14769
872.008	14849
872.138	14765
872.267	14743
872.397	14583
872.526	14598
872.656	14594
872.785	14583
872.915	14845
873.044	14891
873.173	14861
873.303	14906
873.432	14937
873.561	14956
873.69	14952
873.819	14811
873.948	14914
874.077	14731
874.206	14765
874.335	14838
874.464	14937
874.593	15062
874.722	15077
874.851	15135
874.979	15161
875.108	15173
875.237	15135
875.365	15100
875.494	15211
875.623	15310
875.751	15097
875.88	15207
876.008	15294
876.136	15336
876.265	15599
876.393	15713
876.521	15572
876.65	15576
876.778	15629
876.906	15485
877.034	15485
877.162	15622
877.29	15507
877.418	15530
877.546	15549
877.674	15538
877.802	15599
877.93	15561
878.058	15496
878.185	15523
878.313	15557
878.441	15542
878.568	15306
878.696	15568
878.824	15629
878.951	15686
879.079	15629
879.206	15812
879.333	15747
879.461	15603
879.588	15633
879.715	15705
879.842	15873
879.97	15652
880.097	15477
880.224	15450
880.351	15367
880.478	15416
880.605	15401
880.732	15473
880.859	15633
880.986	15344
881.112	15389
881.239	15370
881.366	15119
881.493	15169
881.619	14929
881.746	15104
881.872	14994
881.999	15093
882.125	15055
882.252	15066
882.378	15070
882.505	15291
882.631	15013
882.757	14883
882.883	15024
883.01	14895
883.136	14804
883.262	14731
883.388	14705
883.514	14895
883.64	14994
883.766	14887
883.892	14720
884.018	14712
884.143	14750
884.269	15005
884.395	14678
884.52	14644
884.646	14575
884.772	14602
884.897	14545
885.023	14602
885.148	14651
885.274	14743
885.399	14682
885.524	14613
885.65	14587
885.775	14537
885.9	14522
886.025	14670
886.15	14644
886.275	14651
886.4	14518
886.525	14575
886.65	14511
886.775	14434
886.9	14594
887.025	14800
887.149	14701
887.274	14488
887.399	14358
887.523	14389
887.648	14355
887.773	14275
887.897	14533
888.021	14473
888.146	14336
888.27	14511
888.395	14598
888.519	14533
888.643	14507
888.767	14495
888.891	14362
889.015	14267
889.139	14332
889.263	14313
889.387	14408
889.511	14495
889.635	14370
889.759	14309
889.883	14324
890.006	14282
890.13	14381
890.254	14172
890.377	14256
890.501	14172
890.624	14134
890.748	14214
890.871	13989
890.995	13967
891.118	13868
891.241	14065
891.364	13989
891.488	13993
891.611	13997
891.734	14084
891.857	14084
891.98	13993
892.103	14024
892.226	13982
892.349	13917
892.471	13780
892.594	13967
892.717	14027
892.839	13955
892.962	14008
893.085	14043
893.207	13887
893.33	13753
893.452	13841
893.575	14031
893.697	13982
893.819	14107
893.941	14202
894.064	14126
894.186	13890
894.308	13921
894.43	14138
894.552	14180
894.674	14199
894.796	13947
894.918	14062
895.04	14012
895.161	14157
895.283	14172
895.405	14069
895.526	14058
895.648	14111
895.769	14111
895.891	14225
896.012	14237
896.134	14157
896.255	14100
896.376	14240
896.498	14119
896.619	14240
896.74	14191
896.861	14221
896.982	14495
897.103	14632
897.224	14549
897.345	14446
897.466	14393
897.587	14400
897.708	14602
897.828	14533
897.949	14423
898.07	14256
898.19	14442
898.311	14579
898.431	14412
898.552	14571
898.672	14526
898.792	14564
898.913	14560
899.033	14442
899.153	14442
899.273	14339
899.393	14377
899.513	14461
899.633	14332
899.753	14332
899.873	14290
899.993	14404
900.113	14362
900.232	14442
900.352	14278
900.472	14301
900.591	14267
900.711	14290
900.83	14187
900.95	14332
901.069	14233
901.189	14218
901.308	13875
901.427	13822
901.546	13902
901.665	13963
901.784	13970
901.904	13864
902.023	13696
902.141	13518
902.26	13483
902.379	13529
902.498	13457
902.617	13445
902.735	13487
902.854	13476
902.973	13381
903.091	13240
903.21	13213
903.328	13175
903.446	13175
903.565	13099
903.683	13107
903.801	12958
903.919	13050
904.038	13027
904.156	12962
904.274	13019
904.392	12890
904.51	12905
904.627	12871
904.745	12951
904.863	12894
904.981	12627
905.098	12555
905.216	12589
905.334	12570
905.451	12627
905.569	12494
905.686	12677
905.803	12707
905.921	12407
906.038	12528
906.155	12422
906.272	12338
906.389	12380
906.506	12167
906.623	12220
906.74	12159
906.857	11999
906.974	12083
907.091	12197
907.208	12292
907.324	12159
907.441	12171
907.557	11954
907.674	11863
907.79	11840
907.907	11897
908.023	11942
908.139	11958
908.256	11885
908.372	11874
908.488	11805
908.604	11737
908.72	11695
908.836	11691
908.952	11741
909.068	11695
909.184	11798
909.3	11707
909.415	11707
909.531	11805
909.647	11520
909.762	11448
909.878	11402
909.993	11459
910.108	11425
910.224	11455
910.339	11402
910.454	11383
910.57	11303
910.685	11254
910.8	11566
910.915	11589
911.03	11353
911.145	11170
911.259	11155
911.374	11242
911.489	11045
911.604	10995
911.718	10873
911.833	10968
911.947	10809
912.062	10694
912.176	10866
912.291	10930
912.405	10934
912.519	11098
912.633	11117
912.748	10968
912.862	10957
912.976	10771
913.09	10683
913.204	10687
913.318	10771
913.431	10915
913.545	10835
913.659	10866
913.772	10759
913.886	10714
914	10694
914.113	10714
914.226	10748
914.34	10740
914.453	10584
914.566	10740
914.68	10611
914.793	10637
914.906	10428
915.019	10363
915.132	10246
915.245	10379
915.358	10443
915.47	10398
915.583	10470
915.696	10447
915.809	10538
915.921	10527
916.034	10470
916.146	10280
916.259	10352
916.371	10432
916.483	10462
916.595	10310
916.708	10360
916.82	10310
916.932	10280
917.044	10379
917.156	10329
917.268	10276
917.38	10280
917.491	10188
917.603	10185
917.715	10363
917.826	10424
917.938	10234
918.049	10116
918.161	10181
918.272	10352
918.384	10344
918.495	10265
918.606	10124
918.717	10029
918.828	10177
918.939	10227
919.05	10044
919.161	10116
919.272	9922
919.383	9991
919.494	10261
919.604	10386
919.715	10120
919.826	10071
919.936	10116
920.047	10265
920.157	10185
920.267	10360
920.378	10227
920.488	10158
920.598	10325
920.708	10508
920.818	10405
920.928	10299
921.038	10535
921.148	10481
921.258	10185
921.368	10040
921.477	10078
921.587	10059
921.697	9888
921.806	10059
921.916	9922
922.025	9831
922.134	9751
922.244	9728
922.353	9740
922.462	9587
922.571	9504
922.68	9412
922.789	9477
922.898	9443
923.007	9359
923.116	9450
923.224	9386
923.333	9401
923.442	9313
923.55	9355
923.659	9313
923.767	9359
923.876	9253
923.984	9359
924.092	9226
924.201	9241
924.309	9298
924.417	9279
924.525	9249
924.633	9294
924.741	10067
924.849	9055
924.956	9176
925.064	8986
925.172	8914
925.279	9009
925.387	9043
925.494	9005
925.602	9214
925.709	9154
925.816	8948
925.924	9157
926.031	9138
926.138	9036
926.245	9138
926.352	9020
926.459	9173
926.566	9211
926.673	8971
926.779	8902
926.886	8956
926.993	8811
927.099	8750
927.206	8720
927.312	8769
927.419	8842
927.525	8788
927.631	8864
927.737	8701
927.843	8682
927.95	8526
928.056	8674
928.162	8655
928.267	8769
928.373	9302
928.479	8788
928.585	8503
928.69	8670
928.796	8766
928.901	8568
929.007	8385
929.112	8606
929.218	8602
929.323	8526
929.428	8473
929.533	8606
929.638	8450
929.743	8454
929.848	8564
929.953	8495
930.058	8339
930.163	8279
930.267	8218
930.372	8385
930.477	8233
930.581	8454
930.685	8412
930.79	8237
930.894	8172
930.998	8206
931.103	8347
931.207	8058
931.311	7883
931.415	7879
931.519	7704
931.623	7788
