Data from test_V78500241_1187.txt Node
Date: Fri Mar 25 14:41:58 CST 2022
User: usil
Spectrometer: V785-0024
Trigger mode: 0
Integration Time (sec): 4.000000E-1
Scans to average: 1
Nonlinearity correction enabled: false
Boxcar width: 0
Storing dark spectrum: false
XAxis mode: Wavelengths
Number of Pixels in Spectrum: 1024
>>>>>Begin Spectral Data<<<<<
801.071	22538
801.214	22428
801.356	22112
801.499	22010
801.641	21827
801.783	21854
801.926	21937
802.068	21679
802.211	21637
802.353	21625
802.496	21420
802.638	21256
802.78	21306
802.923	21256
803.065	21150
803.208	21096
803.35	21222
803.492	21310
803.635	21325
803.777	21165
803.919	21370
804.061	21587
804.204	21169
804.346	20982
804.488	21017
804.63	21104
804.773	21013
804.915	21100
805.057	21199
805.199	21085
805.341	21157
805.483	21222
805.626	21131
805.768	21039
805.91	21112
806.052	21245
806.194	20975
806.336	21226
806.478	20975
806.62	21020
806.762	21108
806.904	21237
807.046	21477
807.188	21405
807.33	21523
807.472	21549
807.614	21408
807.756	21378
807.898	21211
808.04	21176
808.182	21264
808.324	21169
808.465	21268
808.607	21644
808.749	21660
808.891	21747
809.033	21778
809.174	21701
809.316	21568
809.458	21549
809.6	21580
809.741	21416
809.883	21595
810.025	21663
810.166	21652
810.308	21629
810.45	21629
810.591	21610
810.733	21420
810.875	21249
811.016	21222
811.158	21249
811.299	21313
811.441	21428
811.582	21279
811.724	21321
811.865	21245
812.007	21245
812.148	21226
812.29	21310
812.431	21507
812.573	21660
812.714	21656
812.855	21835
812.997	21930
813.138	22017
813.279	21846
813.421	21694
813.562	21728
813.703	21500
813.845	21401
813.986	21161
814.127	20880
814.268	20937
814.41	20861
814.551	20815
814.692	20849
814.833	20712
814.974	20929
815.115	20765
815.256	20632
815.397	20750
815.539	20693
815.68	20613
815.821	20503
815.962	20583
816.103	20621
816.244	20419
816.385	20332
816.526	20377
816.666	20176
816.807	20046
816.948	20180
817.089	20195
817.23	19997
817.371	20046
817.512	19997
817.653	19978
817.793	19978
817.934	19928
818.075	20043
818.216	20020
818.356	19906
818.497	19651
818.638	19632
818.778	19643
818.919	19624
819.06	19769
819.2	19791
819.341	19902
819.481	19795
819.622	20012
819.762	20199
819.903	20180
820.043	19978
820.184	19997
820.324	19925
820.465	20005
820.605	19940
820.746	19875
820.886	19780
821.026	19936
821.167	19906
821.307	19989
821.447	19860
821.588	19947
821.728	19559
821.868	19510
822.008	19388
822.149	19403
822.289	19362
822.429	19000
822.569	19012
822.709	19072
822.849	18825
822.99	18890
823.13	18913
823.27	18802
823.41	18696
823.55	18623
823.69	18677
823.83	18654
823.97	18597
824.11	18448
824.25	18346
824.389	18429
824.529	18532
824.669	18536
824.809	18544
824.949	18517
825.089	18578
825.228	18426
825.368	18243
825.508	18330
825.648	18201
825.787	18334
825.927	18300
826.067	18209
826.206	18254
826.346	18216
826.485	18289
826.625	18224
826.765	18342
826.904	18247
827.044	18102
827.183	17988
827.323	17885
827.462	17950
827.601	17912
827.741	17961
827.88	17935
828.02	17817
828.159	17935
828.298	17946
828.437	17992
828.577	17908
828.716	18041
828.855	17897
828.994	17623
829.134	17608
829.273	17687
829.412	17764
829.551	17634
829.69	17604
829.829	17703
829.968	17771
830.107	17729
830.246	17707
830.385	17554
830.524	17539
830.663	17448
830.802	17490
830.941	17315
831.08	17220
831.219	17353
831.357	17307
831.496	17478
831.635	17391
831.774	17094
831.913	17174
832.051	17121
832.19	17113
832.329	17143
832.467	16995
832.606	17003
832.744	17045
832.883	17056
833.022	16930
833.16	17022
833.299	17014
833.437	17052
833.576	17170
833.714	16999
833.852	17037
833.991	17098
834.129	17109
834.267	17174
834.406	17041
834.544	17079
834.682	17159
834.821	17128
834.959	17170
835.097	16972
835.235	17143
835.373	17109
835.511	17003
835.65	17029
835.788	16934
835.926	16877
836.064	16653
836.202	16820
836.34	16965
836.478	17132
836.615	16877
836.753	16946
836.891	17018
837.029	17025
837.167	16835
837.305	16976
837.443	16831
837.58	16820
837.718	16869
837.856	16877
837.993	16736
838.131	16828
838.269	16835
838.406	16793
838.544	16706
838.681	16569
838.819	16565
838.956	16367
839.094	16322
839.231	16417
839.369	16470
839.506	16790
839.643	16664
839.781	16295
839.918	16265
840.055	16367
840.193	16405
840.33	16287
840.467	16257
840.604	16356
840.742	16580
840.879	16215
841.016	16192
841.153	16291
841.29	16519
841.427	16485
841.564	16375
841.701	16405
841.838	16325
841.975	16386
842.112	16234
842.249	16169
842.385	16147
842.522	16352
842.659	16234
842.796	16181
842.933	16128
843.069	16204
843.206	16006
843.343	16268
843.479	16135
843.616	16154
843.752	15945
843.889	15911
844.025	16074
844.162	15892
844.298	15918
844.435	15899
844.571	15926
844.708	15953
844.844	16086
844.98	16029
845.117	16032
845.253	15968
845.389	15800
845.525	15926
845.661	15816
845.798	15797
845.934	15850
846.07	15812
846.206	15922
846.342	16013
846.478	15751
846.614	15614
846.75	15511
846.886	15488
847.022	15652
847.158	15618
847.294	15526
847.429	15500
847.565	15515
847.701	15701
847.837	15355
847.972	15252
848.108	15340
848.244	15275
848.379	15195
848.515	15070
848.65	15062
848.786	15074
848.921	15131
849.057	15252
849.192	15199
849.328	15028
849.463	15066
849.598	15051
849.734	15051
849.869	14975
850.004	14861
850.14	14933
850.275	14891
850.41	14781
850.545	14895
850.68	14823
850.815	14910
850.95	14826
851.085	15043
851.22	15017
851.355	14834
851.49	14864
851.625	14746
851.76	14724
851.895	14743
852.03	14727
852.165	14826
852.299	14906
852.434	14823
852.569	14967
852.703	14941
852.838	14982
852.973	15135
853.107	15032
853.242	14872
853.376	14777
853.511	14602
853.645	14792
853.78	14838
853.914	14823
854.048	14708
854.183	14731
854.317	14739
854.451	14914
854.585	14712
854.72	14754
854.854	14853
854.988	14632
855.122	14659
855.256	14571
855.39	14746
855.524	14720
855.658	14800
855.792	14773
855.926	14727
856.06	14883
856.194	14826
856.327	14739
856.461	14682
856.595	14739
856.729	14621
856.862	14830
856.996	14819
857.13	14857
857.263	14815
857.397	14720
857.53	14754
857.664	14906
857.797	14834
857.931	14910
858.064	14701
858.197	14792
858.331	14720
858.464	14682
858.597	14727
858.731	14762
858.864	14743
858.997	14670
859.13	14811
859.263	14853
859.396	14743
859.529	14712
859.662	14731
859.795	14625
859.928	14758
860.061	14880
860.194	14918
860.327	14781
860.46	14796
860.592	14785
860.725	14811
860.858	14887
860.99	14724
861.123	14651
861.256	14663
861.388	14682
861.521	15359
861.653	14651
861.786	14682
861.918	14610
862.05	14739
862.183	14724
862.315	14735
862.447	14758
862.58	14670
862.712	14583
862.844	14450
862.976	14442
863.108	14503
863.24	14918
863.372	14469
863.504	14552
863.636	14442
863.768	14564
863.9	14492
864.032	14454
864.164	14366
864.296	14488
864.428	14632
864.559	14545
864.691	14617
864.823	14541
864.954	14549
865.086	14446
865.217	14571
865.349	14442
865.48	14480
865.612	14556
865.743	14655
865.875	14511
866.006	14461
866.137	14590
866.269	14480
866.4	14454
866.531	14507
866.662	14408
866.793	14415
866.924	14389
867.055	14465
867.186	14556
867.317	14446
867.448	14370
867.579	14450
867.71	14370
867.841	14473
867.972	14473
868.103	14484
868.233	14476
868.364	14511
868.495	14495
868.625	14689
868.756	14807
868.886	14663
869.017	14777
869.147	14842
869.278	14857
869.408	14697
869.539	14773
869.669	14834
869.799	14769
869.929	14868
870.06	14842
870.19	15028
870.32	15024
870.45	15081
870.58	15192
870.71	15272
870.84	15325
870.97	15104
871.1	15058
871.23	15317
871.36	15416
871.489	15131
871.619	15260
871.749	15325
871.879	15370
872.008	15367
872.138	15348
872.267	15344
872.397	15222
872.526	15218
872.656	15123
872.785	15161
872.915	15294
873.044	15469
873.173	15321
873.303	15428
873.432	15367
873.561	15401
873.69	15359
873.819	15329
873.948	15496
874.077	15332
874.206	15321
874.335	15378
874.464	15519
874.593	15591
874.722	15545
874.851	15736
874.979	15633
875.108	15751
875.237	15606
875.365	15557
875.494	15717
875.623	15675
875.751	15629
875.88	15652
876.008	15781
876.136	15968
876.265	16097
876.393	16276
876.521	16150
876.65	16177
876.778	16063
876.906	16147
877.034	16044
877.162	16112
877.29	16124
877.418	16147
877.546	16109
877.674	16048
877.802	16139
877.93	16032
878.058	16082
878.185	15979
878.313	16032
878.441	16093
878.568	15903
878.696	16044
878.824	16158
878.951	16147
879.079	16257
879.206	16474
879.333	16344
879.461	16230
879.588	16257
879.715	16299
879.842	16493
879.97	16124
880.097	16097
880.224	15960
880.351	15991
880.478	15998
880.605	15987
880.732	15964
880.859	16200
880.986	15983
881.112	15998
881.239	15789
881.366	15781
881.493	15698
881.619	15603
881.746	15603
881.872	15542
881.999	15606
882.125	15485
882.252	15660
882.378	15606
882.505	15705
882.631	15622
882.757	15374
882.883	15485
883.01	15382
883.136	15439
883.262	15348
883.388	15298
883.514	15424
883.64	15485
883.766	15344
883.892	15275
884.018	15249
884.143	15424
884.269	15450
884.395	15230
884.52	15100
884.646	15127
884.772	14986
884.897	15009
885.023	15135
885.148	15264
885.274	15268
885.399	15195
885.524	15131
885.65	15104
885.775	15169
885.9	15024
886.025	15264
886.15	15192
886.275	15142
886.4	14967
886.525	15138
886.65	15039
886.775	14982
886.9	15222
887.025	15310
887.149	15123
887.274	15020
887.399	14891
887.523	14914
887.648	14849
887.773	14876
887.897	15047
888.021	14960
888.146	14982
888.27	15028
888.395	15192
888.519	14967
888.643	15036
888.767	15055
888.891	14861
889.015	14800
889.139	14861
889.263	14716
889.387	14895
889.511	15058
889.635	15013
889.759	14743
889.883	14769
890.006	14887
890.13	14845
890.254	14663
890.377	14823
890.501	14651
890.624	14530
890.748	14693
890.871	14564
890.995	14492
891.118	14431
891.241	14526
891.364	14492
891.488	14587
891.611	14511
891.734	14480
891.857	14526
891.98	14514
892.103	14549
892.226	14537
892.349	14438
892.471	14377
892.594	14511
892.717	14598
892.839	14579
892.962	14545
893.085	14579
893.207	14492
893.33	14415
893.452	14556
893.575	14579
893.697	14488
893.819	14632
893.941	14804
894.064	14674
894.186	14503
894.308	14526
894.43	14617
894.552	14648
894.674	14651
894.796	14457
894.918	14613
895.04	14507
895.161	14632
895.283	14564
895.405	14594
895.526	14701
895.648	14693
895.769	14651
895.891	14598
896.012	14705
896.134	14621
896.255	14823
896.376	14659
896.498	14705
896.619	14819
896.74	14674
896.861	14743
896.982	14982
897.103	15287
897.224	14948
897.345	14899
897.466	14872
897.587	14864
897.708	15089
897.828	14975
897.949	14845
898.07	14853
898.19	14975
898.311	15077
898.431	14933
898.552	15020
898.672	15100
898.792	15081
898.913	15009
899.033	14933
899.153	14906
899.273	14773
899.393	14849
899.513	14899
899.633	14872
899.753	14933
899.873	14773
899.993	14963
900.113	14750
900.232	14876
900.352	14819
900.472	14804
900.591	14861
900.711	14765
900.83	14682
900.95	14781
901.069	14849
901.189	14579
901.308	14480
901.427	14351
901.546	14412
901.665	14404
901.784	14412
901.904	14298
902.023	14157
902.141	13959
902.26	13864
902.379	13974
902.498	13955
902.617	13894
902.735	14046
902.854	13947
902.973	13947
903.091	13586
903.21	13639
903.328	13658
903.446	13586
903.565	13518
903.683	13578
903.801	13308
903.919	13438
904.038	13449
904.156	13400
904.274	13422
904.392	13285
904.51	13377
904.627	13339
904.745	13396
904.863	13445
904.981	13118
905.098	13023
905.216	13008
905.334	13126
905.451	12951
905.569	12875
905.686	13042
905.803	12989
905.921	12863
906.038	12981
906.155	12833
906.272	12642
906.389	12768
906.506	12551
906.623	12715
906.74	12574
906.857	12540
906.974	12521
907.091	12650
907.208	12764
907.324	12635
907.441	12517
907.557	12388
907.674	12350
907.79	12224
907.907	12384
908.023	12330
908.139	12353
908.256	12330
908.372	12228
908.488	12228
908.604	12152
908.72	12121
908.836	12049
908.952	12057
909.068	12148
909.184	12224
909.3	12152
909.415	12110
909.531	12102
909.647	11999
909.762	11832
909.878	11794
909.993	11836
910.108	11893
910.224	11821
910.339	11840
910.454	11783
910.57	11805
910.685	11760
910.8	11920
910.915	11889
911.03	11729
911.145	11551
911.259	11528
911.374	11509
911.489	11433
911.604	11474
911.718	11353
911.833	11334
911.947	11246
912.062	11109
912.176	11337
912.291	11356
912.405	11303
912.519	11547
912.633	11547
912.748	11353
912.862	11376
912.976	11242
913.09	11121
913.204	11159
913.318	11197
913.431	11322
913.545	11261
913.659	11326
913.772	11204
913.886	11064
914	11045
914.113	11136
914.226	11201
914.34	11136
914.453	11098
914.566	11143
914.68	11060
914.793	11006
914.906	10782
915.019	10725
915.132	10790
915.245	10771
915.358	10820
915.47	10797
915.583	10854
915.696	10908
915.809	10949
915.921	10953
916.034	10771
916.146	10714
916.259	10744
916.371	10869
916.483	10839
916.595	10721
916.708	10672
916.82	10740
916.932	10710
917.044	10687
917.156	10694
917.268	10607
917.38	10584
917.491	10664
917.603	10634
917.715	10755
917.826	10694
917.938	10607
918.049	10500
918.161	10641
918.272	10748
918.384	10717
918.495	10584
918.606	10519
918.717	10394
918.828	10554
918.939	10599
919.05	10390
919.161	10535
919.272	10356
919.383	10348
919.494	10519
919.604	10675
919.715	10538
919.826	10466
919.936	10592
920.047	10603
920.157	10596
920.267	10706
920.378	10649
920.488	10546
920.598	10759
920.708	10805
920.818	10660
920.928	10717
921.038	10866
921.148	10812
921.258	10538
921.368	10382
921.477	10265
921.587	10325
921.697	10223
921.806	10363
921.916	10196
922.025	10101
922.134	10059
922.244	10017
922.353	10013
922.462	9934
922.571	9895
922.68	9816
922.789	9724
922.898	9747
923.007	9713
923.116	9766
923.224	9762
923.333	9663
923.442	9633
923.55	9633
923.659	9644
923.767	9690
923.876	9625
923.984	9709
924.092	9564
924.201	9564
924.309	9622
924.417	9663
924.525	9618
924.633	9526
924.741	10329
924.849	9408
924.956	9530
925.064	9355
925.172	9317
925.279	9363
925.387	9424
925.494	9397
925.602	9523
925.709	9481
925.816	9313
925.924	9405
926.031	9477
926.138	9344
926.245	9412
926.352	9310
926.459	9382
926.566	9469
926.673	9310
926.779	9287
926.886	9279
926.993	9127
927.099	9062
927.206	9032
927.312	9013
927.419	9146
927.525	9116
927.631	9165
927.737	9001
927.843	8979
927.95	8830
928.056	9020
928.162	9009
928.267	9058
928.373	9603
928.479	9135
928.585	8849
928.69	8956
928.796	8986
928.901	8853
929.007	8861
929.112	8899
929.218	8853
929.323	8834
929.428	8762
929.533	8982
929.638	8758
929.743	8804
929.848	8826
929.953	8720
930.058	8731
930.163	8476
930.267	8514
930.372	8769
930.477	8514
930.581	8796
930.685	8590
930.79	8465
930.894	8530
930.998	8518
931.103	8594
931.207	8317
931.311	8225
931.415	8172
931.519	7997
931.623	7936
