Data from test_V78500241_1559.txt Node
Date: Fri Mar 25 14:44:34 CST 2022
User: usil
Spectrometer: V785-0024
Trigger mode: 0
Integration Time (sec): 4.000000E-1
Scans to average: 1
Nonlinearity correction enabled: false
Boxcar width: 0
Storing dark spectrum: false
XAxis mode: Wavelengths
Number of Pixels in Spectrum: 1024
>>>>>Begin Spectral Data<<<<<
801.071	22329
801.214	22386
801.356	22067
801.499	21861
801.641	21743
801.783	21663
801.926	21789
802.068	21831
802.211	21561
802.353	21553
802.496	21351
802.638	21382
802.78	21180
802.923	21157
803.065	21207
803.208	21116
803.35	21169
803.492	21154
803.635	21241
803.777	20994
803.919	21192
804.061	21523
804.204	21074
804.346	21039
804.488	20929
804.63	21017
804.773	20921
804.915	21001
805.057	21154
805.199	21135
805.341	21085
805.483	21131
805.626	21157
805.768	21028
805.91	21066
806.052	21184
806.194	20982
806.336	21207
806.478	21013
806.62	20948
806.762	21051
806.904	21199
807.046	21549
807.188	21359
807.33	21359
807.472	21431
807.614	21340
807.756	21367
807.898	21203
808.04	21188
808.182	21207
808.324	21237
808.465	21256
808.607	21408
808.749	21511
808.891	21496
809.033	21690
809.174	21641
809.316	21549
809.458	21500
809.6	21477
809.741	21625
809.883	21431
810.025	21561
810.166	21538
810.308	21633
810.45	21530
810.591	21511
810.733	21389
810.875	21184
811.016	21074
811.158	21058
811.299	21211
811.441	21340
811.582	21230
811.724	21317
811.865	21218
812.007	21203
812.148	21317
812.29	21344
812.431	21488
812.573	21557
812.714	21599
812.855	21720
812.997	21960
813.138	21991
813.279	21953
813.421	21732
813.562	21652
813.703	21587
813.845	21431
813.986	21077
814.127	20914
814.268	20773
814.41	20804
814.551	20819
814.692	20765
814.833	20724
814.974	20689
815.115	20727
815.256	20617
815.397	20674
815.539	20724
815.68	20419
815.821	20480
815.962	20609
816.103	20495
816.244	20290
816.385	20328
816.526	20305
816.666	20020
816.807	19951
816.948	20069
817.089	20107
817.23	19982
817.371	19898
817.512	19940
817.653	19837
817.793	19913
817.934	19925
818.075	19997
818.216	19951
818.356	19799
818.497	19761
818.638	19647
818.778	19746
818.919	19422
819.06	19651
819.2	19719
819.341	19746
819.481	19746
819.622	19970
819.762	20111
819.903	20069
820.043	19932
820.184	19849
820.324	19902
820.465	19944
820.605	19883
820.746	19947
820.886	19746
821.026	19784
821.167	19803
821.307	19982
821.447	19814
821.588	19715
821.728	19510
821.868	19499
822.008	19259
822.149	19289
822.289	19278
822.429	18943
822.569	19031
822.709	18882
822.849	18730
822.99	18802
823.13	18764
823.27	18673
823.41	18646
823.55	18582
823.69	18616
823.83	18612
823.97	18513
824.11	18323
824.25	18391
824.389	18319
824.529	18502
824.669	18365
824.809	18467
824.949	18448
825.089	18426
825.228	18357
825.368	18159
825.508	18174
825.648	18197
825.787	18247
825.927	18220
826.067	17965
826.206	18186
826.346	18167
826.485	18125
826.625	18053
826.765	18171
826.904	18174
827.044	17870
827.183	17901
827.323	17695
827.462	17859
827.601	17832
827.741	17802
827.88	17748
828.02	17646
828.159	17813
828.298	17798
828.437	17813
828.577	17786
828.716	17977
828.855	17684
828.994	17566
829.134	17570
829.273	17551
829.412	17501
829.551	17471
829.69	17501
829.829	17562
829.968	17741
830.107	17630
830.246	17657
830.385	17471
830.524	17520
830.663	17296
830.802	17242
830.941	17265
831.08	17227
831.219	17242
831.357	17318
831.496	17311
831.635	17197
831.774	17083
831.913	16999
832.051	16987
832.19	16908
832.329	17067
832.467	16908
832.606	16831
832.744	16976
832.883	16835
833.022	16892
833.16	16839
833.299	16759
833.437	16885
833.576	16889
833.714	16911
833.852	16987
833.991	16877
834.129	17045
834.267	17029
834.406	16930
834.544	17025
834.682	16915
834.821	16911
834.959	17075
835.097	16782
835.235	16946
835.373	16938
835.511	16946
835.65	16786
835.788	16805
835.926	16706
836.064	16668
836.202	16725
836.34	16797
836.478	16900
836.615	16755
836.753	16801
836.891	16850
837.029	16904
837.167	16889
837.305	16767
837.443	16668
837.58	16584
837.718	16733
837.856	16694
837.993	16592
838.131	16596
838.269	16596
838.406	16481
838.544	16489
838.681	16371
838.819	16325
838.956	16177
839.094	16226
839.231	16276
839.369	16322
839.506	16645
839.643	16497
839.781	16284
839.918	16173
840.055	16166
840.193	16188
840.33	16215
840.467	16249
840.604	16200
840.742	16428
840.879	15979
841.016	16109
841.153	16109
841.29	16234
841.427	16128
841.564	16310
841.701	16276
841.838	16158
841.975	16029
842.112	16032
842.249	15945
842.385	15895
842.522	16082
842.659	16109
842.796	15937
842.933	16055
843.069	15964
843.206	15884
843.343	16010
843.479	15953
843.616	16002
843.752	15778
843.889	15884
844.025	15934
844.162	15766
844.298	15857
844.435	15690
844.571	15751
844.708	15732
844.844	15903
844.98	15949
845.117	15854
845.253	15675
845.389	15682
845.525	15568
845.661	15663
845.798	15618
845.934	15808
846.07	15663
846.206	15888
846.342	15892
846.478	15641
846.614	15420
846.75	15401
846.886	15275
847.022	15412
847.158	15408
847.294	15294
847.429	15401
847.565	15321
847.701	15492
847.837	15066
847.972	15039
848.108	15169
848.244	15036
848.379	14872
848.515	14982
848.65	14891
848.786	14925
848.921	14902
849.057	15047
849.192	14986
849.328	14929
849.463	14853
849.598	14906
849.734	14868
849.869	14765
850.004	14750
850.14	14743
850.275	14750
850.41	14606
850.545	14606
850.68	14663
850.815	14667
850.95	14629
851.085	14887
851.22	14811
851.355	14655
851.49	14587
851.625	14693
851.76	14686
851.895	14552
852.03	14594
852.165	14632
852.299	14754
852.434	14743
852.569	14682
852.703	14701
852.838	14819
852.973	14811
853.107	14845
853.242	14678
853.376	14511
853.511	14495
853.645	14514
853.78	14693
853.914	14568
854.048	14473
854.183	14457
854.317	14541
854.451	14670
854.585	14495
854.72	14556
854.854	14625
854.988	14434
855.122	14530
855.256	14454
855.39	14602
855.524	14629
855.658	14587
855.792	14503
855.926	14590
856.06	14587
856.194	14629
856.327	14571
856.461	14400
856.595	14495
856.729	14488
856.862	14716
856.996	14511
857.13	14667
857.263	14670
857.397	14743
857.53	14469
857.664	14602
857.797	14610
857.931	14670
858.064	14552
858.197	14678
858.331	14564
858.464	14514
858.597	14526
858.731	14499
858.864	14473
858.997	14522
859.13	14579
859.263	14541
859.396	14621
859.529	14507
859.662	14545
859.795	14480
859.928	14579
860.061	14720
860.194	14697
860.327	14587
860.46	14484
860.592	14670
860.725	14739
860.858	14693
860.99	14552
861.123	14473
861.256	14423
861.388	14469
861.521	15058
861.653	14503
861.786	14393
861.918	14450
862.05	14480
862.183	14450
862.315	14568
862.447	14533
862.58	14438
862.712	14324
862.844	14294
862.976	14374
863.108	14374
863.24	14842
863.372	14225
863.504	14313
863.636	14347
863.768	14317
863.9	14275
864.032	14267
864.164	14324
864.296	14377
864.428	14415
864.559	14431
864.691	14469
864.823	14412
864.954	14343
865.086	14434
865.217	14343
865.349	14214
865.48	14332
865.612	14286
865.743	14404
865.875	14362
866.006	14225
866.137	14370
866.269	14412
866.4	14271
866.531	14282
866.662	14301
866.793	14282
866.924	14259
867.055	14343
867.186	14233
867.317	14237
867.448	14164
867.579	14278
867.71	14218
867.841	14199
867.972	14298
868.103	14290
868.233	14305
868.364	14221
868.495	14415
868.625	14503
868.756	14617
868.886	14461
869.017	14461
869.147	14575
869.278	14667
869.408	14594
869.539	14571
869.669	14636
869.799	14693
869.929	14640
870.06	14705
870.19	14876
870.32	14796
870.45	14876
870.58	14929
870.71	15097
870.84	15077
870.97	14921
871.1	14971
871.23	15116
871.36	15077
871.489	15013
871.619	15135
871.749	15150
871.879	15214
872.008	15367
872.138	15256
872.267	15180
872.397	15028
872.526	14956
872.656	14956
872.785	14956
872.915	15131
873.044	15249
873.173	15154
873.303	15291
873.432	15252
873.561	15279
873.69	15180
873.819	15131
873.948	15275
874.077	15218
874.206	15127
874.335	15154
874.464	15359
874.593	15538
874.722	15428
874.851	15477
874.979	15606
875.108	15481
875.237	15469
875.365	15344
875.494	15325
875.623	15591
875.751	15553
875.88	15553
876.008	15564
876.136	15648
876.265	15987
876.393	16120
876.521	15956
876.65	16002
876.778	15956
876.906	15899
877.034	15899
877.162	15930
877.29	15751
877.418	15926
877.546	15865
877.674	15953
877.802	15895
877.93	15960
878.058	15918
878.185	15895
878.313	15846
878.441	15854
878.568	15732
878.696	15778
878.824	15827
878.951	16002
879.079	16128
879.206	16261
879.333	16063
879.461	16135
879.588	16169
879.715	16257
879.842	16276
879.97	15922
880.097	15743
880.224	15808
880.351	15842
880.478	15770
880.605	15781
880.732	15720
880.859	16013
880.986	15793
881.112	15724
881.239	15701
881.366	15599
881.493	15424
881.619	15397
881.746	15515
881.872	15462
881.999	15393
882.125	15428
882.252	15485
882.378	15469
882.505	15553
882.631	15348
882.757	15287
882.883	15272
883.01	15203
883.136	15256
883.262	15188
883.388	15116
883.514	15260
883.64	15355
883.766	15180
883.892	15100
884.018	15161
884.143	15211
884.269	15283
884.395	15074
884.52	14963
884.646	14914
884.772	14906
884.897	14880
885.023	14948
885.148	14975
885.274	15180
885.399	15066
885.524	15020
885.65	14979
885.775	14960
885.9	14845
886.025	15112
886.15	15001
886.275	14994
886.4	14826
886.525	14960
886.65	14971
886.775	14853
886.9	14986
887.025	15188
887.149	14982
887.274	14792
887.399	14659
887.523	14670
887.648	14701
887.773	14689
887.897	14792
888.021	14842
888.146	14610
888.27	14883
888.395	14864
888.519	14830
888.643	14906
888.767	14861
888.891	14648
889.015	14667
889.139	14644
889.263	14575
889.387	14746
889.511	14773
889.635	14769
889.759	14708
889.883	14644
890.006	14598
890.13	14750
890.254	14533
890.377	14545
890.501	14419
890.624	14415
890.748	14404
890.871	14332
890.995	14229
891.118	14309
891.241	14168
891.364	14282
891.488	14480
891.611	14374
891.734	14370
891.857	14412
891.98	14313
892.103	14358
892.226	14362
892.349	14324
892.471	14229
892.594	14294
892.717	14332
892.839	14256
892.962	14278
893.085	14351
893.207	14320
893.33	14263
893.452	14187
893.575	14370
893.697	14282
893.819	14530
893.941	14522
894.064	14503
894.186	14286
894.308	14221
894.43	14484
894.552	14465
894.674	14450
894.796	14271
894.918	14358
895.04	14343
895.161	14431
895.283	14404
895.405	14362
895.526	14412
895.648	14461
895.769	14336
895.891	14564
896.012	14518
896.134	14484
896.255	14518
896.376	14438
896.498	14533
896.619	14541
896.74	14454
896.861	14602
896.982	14811
897.103	14990
897.224	14735
897.345	14708
897.466	14693
897.587	14712
897.708	14826
897.828	14788
897.949	14765
898.07	14644
898.19	14731
898.311	14990
898.431	14769
898.552	14785
898.672	14834
898.792	14849
898.913	14811
899.033	14754
899.153	14655
899.273	14606
899.393	14655
899.513	14686
899.633	14697
899.753	14674
899.873	14629
899.993	14762
900.113	14701
900.232	14590
900.352	14625
900.472	14575
900.591	14514
900.711	14575
900.83	14590
900.95	14648
901.069	14720
901.189	14389
901.308	14271
901.427	14176
901.546	14225
901.665	14248
901.784	14305
901.904	14138
902.023	13997
902.141	13830
902.26	13795
902.379	13928
902.498	13753
902.617	13791
902.735	13875
902.854	13826
902.973	13685
903.091	13460
903.21	13464
903.328	13556
903.446	13487
903.565	13407
903.683	13400
903.801	13350
903.919	13339
904.038	13282
904.156	13168
904.274	13149
904.392	13266
904.51	13137
904.627	13171
904.745	13225
904.863	13236
904.981	12954
905.098	12905
905.216	12821
905.334	12852
905.451	12852
905.569	12776
905.686	12890
905.803	12867
905.921	12726
906.038	12749
906.155	12604
906.272	12620
906.389	12620
906.506	12490
906.623	12403
906.74	12445
906.857	12369
906.974	12239
907.091	12445
907.208	12608
907.324	12464
907.441	12300
907.557	12224
907.674	12254
907.79	12110
907.907	12095
908.023	12213
908.139	12220
908.256	12007
908.372	12091
908.488	12091
908.604	11904
908.72	11992
908.836	11969
908.952	11885
909.068	11942
909.184	11965
909.3	11897
909.415	11973
909.531	11988
909.647	11752
909.762	11699
909.878	11665
909.993	11756
910.108	11627
910.224	11688
910.339	11684
910.454	11619
910.57	11562
910.685	11467
910.8	11832
910.915	11695
911.03	11585
911.145	11414
911.259	11452
911.374	11372
911.489	11292
911.604	11307
911.718	11227
911.833	11204
911.947	11003
912.062	11006
912.176	11113
912.291	11147
912.405	11208
912.519	11258
912.633	11284
912.748	11231
912.862	11193
912.976	11006
913.09	10949
913.204	10961
913.318	11018
913.431	11170
913.545	11098
913.659	11117
913.772	11086
913.886	10915
914	10869
914.113	10984
914.226	11060
914.34	10976
914.453	10850
914.566	10972
914.68	10908
914.793	10774
914.906	10714
915.019	10573
915.132	10626
915.245	10634
915.358	10683
915.47	10729
915.583	10687
915.696	10714
915.809	10828
915.921	10733
916.034	10687
916.146	10668
916.259	10550
916.371	10725
916.483	10679
916.595	10588
916.708	10656
916.82	10584
916.932	10569
917.044	10611
917.156	10546
917.268	10493
917.38	10565
917.491	10519
917.603	10523
917.715	10706
917.826	10577
917.938	10478
918.049	10382
918.161	10554
918.272	10615
918.384	10664
918.495	10367
918.606	10432
918.717	10363
918.828	10371
918.939	10394
919.05	10329
919.161	10432
919.272	10219
919.383	10295
919.494	10455
919.604	10561
919.715	10455
919.826	10390
919.936	10352
920.047	10424
920.157	10516
920.267	10569
920.378	10462
920.488	10432
920.598	10725
920.708	10763
920.818	10573
920.928	10558
921.038	10812
921.148	10744
921.258	10417
921.368	10379
921.477	10344
921.587	10196
921.697	10150
921.806	10299
921.916	10173
922.025	10044
922.134	10013
922.244	9926
922.353	10013
922.462	9873
922.571	9751
922.68	9698
922.789	9606
922.898	9675
923.007	9564
923.116	9698
923.224	9705
923.333	9622
923.442	9618
923.55	9431
923.659	9488
923.767	9572
923.876	9473
923.984	9587
924.092	9496
924.201	9629
924.309	9568
924.417	9515
924.525	9469
924.633	9545
924.741	10375
924.849	9313
924.956	9450
925.064	9321
925.172	9268
925.279	9230
925.387	9291
925.494	9306
925.602	9466
925.709	9397
925.816	9268
925.924	9363
926.031	9336
926.138	9256
926.245	9214
926.352	9199
926.459	9401
926.566	9374
926.673	9287
926.779	9161
926.886	9169
926.993	9077
927.099	9070
927.206	8948
927.312	8914
927.419	9036
927.525	9020
927.631	9062
927.737	8891
927.843	8925
927.95	8781
928.056	8956
928.162	8910
928.267	8925
928.373	9439
928.479	8990
928.585	8731
928.69	8925
928.796	8937
928.901	8781
929.007	8651
929.112	8815
929.218	8796
929.323	8746
929.428	8689
929.533	8842
929.638	8674
929.743	8667
929.848	8735
929.953	8632
930.058	8640
930.163	8438
930.267	8480
930.372	8621
930.477	8454
930.581	8705
930.685	8571
930.79	8408
930.894	8393
930.998	8427
931.103	8549
931.207	8202
931.311	8172
931.415	8077
931.519	8001
931.623	7913
