Data from test_V78500241_1081.txt Node
Date: Fri Mar 25 14:41:14 CST 2022
User: usil
Spectrometer: V785-0024
Trigger mode: 0
Integration Time (sec): 4.000000E-1
Scans to average: 1
Nonlinearity correction enabled: false
Boxcar width: 0
Storing dark spectrum: false
XAxis mode: Wavelengths
Number of Pixels in Spectrum: 1024
>>>>>Begin Spectral Data<<<<<
801.071	22771
801.214	22557
801.356	22322
801.499	22246
801.641	22211
801.783	22063
801.926	22120
802.068	21937
802.211	21987
802.353	21800
802.496	21743
802.638	21599
802.78	21622
802.923	21576
803.065	21374
803.208	21321
803.35	21401
803.492	21523
803.635	21511
803.777	21538
803.919	21671
804.061	21774
804.204	21534
804.346	21378
804.488	21370
804.63	21397
804.773	21233
804.915	21336
805.057	21420
805.199	21317
805.341	21439
805.483	21488
805.626	21355
805.768	21351
805.91	21336
806.052	21336
806.194	21393
806.336	21523
806.478	21473
806.62	21351
806.762	21439
806.904	21523
807.046	21895
807.188	21705
807.33	21816
807.472	21827
807.614	21682
807.756	21869
807.898	21618
808.04	21507
808.182	21679
808.324	21766
808.465	21789
808.607	21873
808.749	22196
808.891	22337
809.033	22455
809.174	22223
809.316	22211
809.458	22040
809.6	21972
809.741	22002
809.883	21956
810.025	21956
810.166	22010
810.308	22112
810.45	22025
810.591	21812
810.733	21698
810.875	21614
811.016	21477
811.158	21523
811.299	21660
811.441	21793
811.582	21667
811.724	21523
811.865	21504
812.007	21583
812.148	21561
812.29	21603
812.431	21743
812.573	21789
812.714	21903
812.855	21975
812.997	22166
813.138	22272
813.279	22154
813.421	22078
813.562	22082
813.703	21876
813.845	21823
813.986	21488
814.127	21279
814.268	21116
814.41	21214
814.551	21108
814.692	21104
814.833	21157
814.974	21066
815.115	21017
815.256	20910
815.397	20948
815.539	20967
815.68	20952
815.821	20788
815.962	20838
816.103	20876
816.244	20720
816.385	20617
816.526	20522
816.666	20427
816.807	20263
816.948	20275
817.089	20347
817.23	20282
817.371	20294
817.512	20412
817.653	20385
817.793	20263
817.934	20320
818.075	20366
818.216	20362
818.356	20240
818.497	20069
818.638	19871
818.778	20024
818.919	20024
819.06	19909
819.2	20077
819.341	20172
819.481	20161
819.622	20244
819.762	20454
819.903	20404
820.043	20366
820.184	20225
820.324	20225
820.465	20347
820.605	20240
820.746	20336
820.886	20168
821.026	20164
821.167	20100
821.307	20225
821.447	20161
821.588	19970
821.728	19986
821.868	19814
822.008	19772
822.149	19712
822.289	19620
822.429	19480
822.569	19168
822.709	19365
822.849	19046
822.99	19145
823.13	19000
823.27	19148
823.41	18928
823.55	18928
823.69	19015
823.83	19008
823.97	18844
824.11	18646
824.25	18715
824.389	18795
824.529	18787
824.669	18715
824.809	18829
824.949	18886
825.089	18760
825.228	18768
825.368	18623
825.508	18635
825.648	18578
825.787	18578
825.927	18506
826.067	18471
826.206	18456
826.346	18582
826.485	18475
826.625	18391
826.765	18612
826.904	18513
827.044	18247
827.183	18251
827.323	18114
827.462	18247
827.601	18167
827.741	18239
827.88	18224
828.02	18140
828.159	18216
828.298	18178
828.437	18262
828.577	18186
828.716	18292
828.855	18015
828.994	17901
829.134	17939
829.273	18049
829.412	17961
829.551	17897
829.69	17863
829.829	17996
829.968	18049
830.107	17954
830.246	17969
830.385	17927
830.524	17878
830.663	17809
830.802	17680
830.941	17509
831.08	17566
831.219	17684
831.357	17596
831.496	17821
831.635	17493
831.774	17436
831.913	17421
832.051	17356
832.19	17376
832.329	17429
832.467	17307
832.606	17250
832.744	17239
832.883	17231
833.022	17258
833.16	17174
833.299	17364
833.437	17299
833.576	17322
833.714	17349
833.852	17322
833.991	17433
834.129	17395
834.267	17520
834.406	17322
834.544	17410
834.682	17353
834.821	17284
834.959	17585
835.097	17254
835.235	17395
835.373	17368
835.511	17391
835.65	17200
835.788	17326
835.926	16984
836.064	17060
836.202	17136
836.34	17376
836.478	17337
836.615	17197
836.753	17239
836.891	17303
837.029	17223
837.167	17193
837.305	17273
837.443	17052
837.58	17037
837.718	17162
837.856	17083
837.993	16968
838.131	17102
838.269	16987
838.406	16991
838.544	16858
838.681	16820
838.819	16752
838.956	16626
839.094	16603
839.231	16641
839.369	16710
839.506	16987
839.643	16786
839.781	16694
839.918	16599
840.055	16588
840.193	16668
840.33	16580
840.467	16656
840.604	16694
840.742	16847
840.879	16493
841.016	16584
841.153	16561
841.29	16725
841.427	16694
841.564	16561
841.701	16645
841.838	16542
841.975	16550
842.112	16561
842.249	16481
842.385	16352
842.522	16691
842.659	16363
842.796	16405
842.933	16451
843.069	16455
843.206	16352
843.343	16462
843.479	16390
843.616	16455
843.752	16173
843.889	16086
844.025	16276
844.162	16249
844.298	16268
844.435	16169
844.571	16291
844.708	16230
844.844	16238
844.98	16443
845.117	16325
845.253	16124
845.389	16139
845.525	16367
845.661	16405
845.798	16409
845.934	16550
846.07	16569
846.206	16554
846.342	16516
846.478	16341
846.614	15991
846.75	15827
846.886	15804
847.022	15831
847.158	15698
847.294	15835
847.429	15774
847.565	15618
847.701	15968
847.837	15408
847.972	15447
848.108	15614
848.244	15553
848.379	15355
848.515	15329
848.65	15291
848.786	15363
848.921	15329
849.057	15477
849.192	15431
849.328	15287
849.463	15291
849.598	15264
849.734	15256
849.869	15135
850.004	15119
850.14	15161
850.275	15150
850.41	15028
850.545	15020
850.68	15024
850.815	15013
850.95	15032
851.085	15302
851.22	15237
851.355	15077
851.49	15013
851.625	14948
851.76	15119
851.895	14929
852.03	14944
852.165	14998
852.299	15188
852.434	15154
852.569	15058
852.703	15089
852.838	15310
852.973	15226
853.107	15195
853.242	15081
853.376	15036
853.511	14880
853.645	14941
853.78	14960
853.914	14941
854.048	14918
854.183	14933
854.317	14941
854.451	15154
854.585	14963
854.72	14994
854.854	14963
854.988	14815
855.122	14853
855.256	14906
855.39	14952
855.524	15089
855.658	14986
855.792	14937
855.926	15028
856.06	15032
856.194	15112
856.327	14960
856.461	14902
856.595	14960
856.729	14914
856.862	15047
856.996	14944
857.13	15020
857.263	15085
857.397	15085
857.53	14982
857.664	15218
857.797	15074
857.931	15070
858.064	15009
858.197	15112
858.331	14994
858.464	14887
858.597	14861
858.731	14914
858.864	15001
858.997	14861
859.13	14925
859.263	14895
859.396	14971
859.529	14929
859.662	14872
859.795	14921
859.928	14956
860.061	15032
860.194	15100
860.327	15017
860.46	14914
860.592	15097
860.725	15070
860.858	15036
860.99	14857
861.123	14891
861.256	14868
861.388	15001
861.521	15534
861.653	14887
861.786	14948
861.918	14788
862.05	14925
862.183	14914
862.315	14929
862.447	14982
862.58	14891
862.712	14670
862.844	14682
862.976	14868
863.108	14815
863.24	15226
863.372	14701
863.504	14731
863.636	14724
863.768	14800
863.9	14773
864.032	14659
864.164	14655
864.296	14746
864.428	14716
864.559	14834
864.691	14826
864.823	14739
864.954	14804
865.086	14739
865.217	14701
865.349	14644
865.48	14705
865.612	14644
865.743	14785
865.875	14773
866.006	14701
866.137	14743
866.269	14724
866.4	14708
866.531	14674
866.662	14708
866.793	14610
866.924	14663
867.055	14693
867.186	14629
867.317	14670
867.448	14625
867.579	14708
867.71	14617
867.841	14575
867.972	14629
868.103	14686
868.233	14678
868.364	14697
868.495	14682
868.625	14906
868.756	15123
868.886	14857
869.017	14876
869.147	15058
869.278	15093
869.408	14971
869.539	14998
869.669	14975
869.799	14944
869.929	15074
870.06	15032
870.19	15226
870.32	15195
870.45	15268
870.58	15370
870.71	15466
870.84	15450
870.97	15332
871.1	15325
871.23	15477
871.36	15564
871.489	15466
871.619	15462
871.749	15481
871.879	15538
872.008	15572
872.138	15564
872.267	15568
872.397	15416
872.526	15279
872.656	15310
872.785	15329
872.915	15587
873.044	15732
873.173	15523
873.303	15622
873.432	15523
873.561	15804
873.69	15576
873.819	15523
873.948	15694
874.077	15564
874.206	15564
874.335	15652
874.464	15663
874.593	15949
874.722	15793
874.851	15937
874.979	15823
875.108	15930
875.237	15876
875.365	15854
875.494	15816
875.623	15953
875.751	15907
875.88	15991
876.008	16150
876.136	16055
876.265	16249
876.393	16497
876.521	16394
876.65	16432
876.778	16405
876.906	16230
877.034	16249
877.162	16337
877.29	16162
877.418	16265
877.546	16306
877.674	16287
877.802	16306
877.93	16322
878.058	16268
878.185	16124
878.313	16276
878.441	16413
878.568	16242
878.696	16360
878.824	16455
878.951	16519
879.079	16649
879.206	16736
879.333	16607
879.461	16634
879.588	16702
879.715	16793
879.842	16828
879.97	16664
880.097	16318
880.224	16253
880.351	16379
880.478	16287
880.605	16299
880.732	16303
880.859	16360
880.986	16280
881.112	16318
881.239	16021
881.366	16017
881.493	15903
881.619	15842
881.746	15854
881.872	15785
881.999	15888
882.125	15800
882.252	15964
882.378	15880
882.505	16059
882.631	15781
882.757	15778
882.883	15709
883.01	15717
883.136	15644
883.262	15504
883.388	15625
883.514	15713
883.64	15717
883.766	15724
883.892	15542
884.018	15507
884.143	15694
884.269	15724
884.395	15488
884.52	15424
884.646	15526
884.772	15294
884.897	15291
885.023	15249
885.148	15443
885.274	15591
885.399	15538
885.524	15485
885.65	15462
885.775	15370
885.9	15412
886.025	15397
886.15	15504
886.275	15374
886.4	15195
886.525	15359
886.65	15321
886.775	15199
886.9	15329
887.025	15614
887.149	15321
887.274	15146
887.399	15157
887.523	15036
887.648	15074
887.773	14956
887.897	15154
888.021	15211
888.146	15142
888.27	15241
888.395	15226
888.519	15180
888.643	15233
888.767	15279
888.891	15131
889.015	14948
889.139	15131
889.263	15013
889.387	15104
889.511	15272
889.635	15199
889.759	14967
889.883	15043
890.006	15024
890.13	15066
890.254	14963
890.377	15013
890.501	14762
890.624	14861
890.748	14944
890.871	14743
890.995	14678
891.118	14617
891.241	14705
891.364	14735
891.488	14785
891.611	14705
891.734	14735
891.857	14792
891.98	14651
892.103	14750
892.226	14861
892.349	14621
892.471	14575
892.594	14587
892.717	14689
892.839	14575
892.962	14648
893.085	14849
893.207	14682
893.33	14503
893.452	14674
893.575	14701
893.697	14636
893.819	14708
893.941	14899
894.064	14868
894.186	14735
894.308	14602
894.43	14842
894.552	14883
894.674	14838
894.796	14575
894.918	14746
895.04	14689
895.161	14758
895.283	14724
895.405	14739
895.526	14777
895.648	14708
895.769	14788
895.891	14739
896.012	14902
896.134	14876
896.255	14902
896.376	14807
896.498	14792
896.619	14902
896.74	14811
896.861	15001
896.982	15157
897.103	15329
897.224	15138
897.345	15066
897.466	14937
897.587	15116
897.708	15138
897.828	15058
897.949	15100
898.07	14963
898.19	15077
898.311	15226
898.431	15017
898.552	15173
898.672	15291
898.792	15306
898.913	15230
899.033	15047
899.153	14887
899.273	14849
899.393	14998
899.513	15047
899.633	15058
899.753	15051
899.873	14952
899.993	15066
900.113	15047
900.232	15013
900.352	14971
900.472	14914
900.591	14807
900.711	14944
900.83	14800
900.95	14899
901.069	14906
901.189	14819
901.308	14670
901.427	14549
901.546	14594
901.665	14583
901.784	14533
901.904	14590
902.023	14366
902.141	14119
902.26	14100
902.379	14202
902.498	14081
902.617	14107
902.735	14164
902.854	14168
902.973	14046
903.091	13841
903.21	13704
903.328	13818
903.446	13708
903.565	13605
903.683	13689
903.801	13540
903.919	13613
904.038	13719
904.156	13438
904.274	13578
904.392	13400
904.51	13422
904.627	13514
904.745	13449
904.863	13468
904.981	13339
905.098	13122
905.216	13156
905.334	13141
905.451	13190
905.569	13145
905.686	13187
905.803	13046
905.921	13057
906.038	13072
906.155	12920
906.272	12844
906.389	12875
906.506	12798
906.623	12726
906.74	12768
906.857	12616
906.974	12627
907.091	12825
907.208	12772
907.324	12749
907.441	12631
907.557	12544
907.674	12464
907.79	12464
907.907	12346
908.023	12460
908.139	12429
908.256	12426
908.372	12365
908.488	12338
908.604	12239
908.72	12213
908.836	12159
908.952	12152
909.068	12228
909.184	12289
909.3	12175
909.415	12243
909.531	12220
909.647	12015
909.762	11961
909.878	11973
909.993	12003
910.108	12003
910.224	11999
910.339	11961
910.454	11859
910.57	11851
910.685	11794
910.8	12030
910.915	12026
911.03	11805
911.145	11688
911.259	11646
911.374	11619
911.489	11585
911.604	11684
911.718	11429
911.833	11360
911.947	11284
912.062	11216
912.176	11402
912.291	11391
912.405	11482
912.519	11581
912.633	11657
912.748	11524
912.862	11425
912.976	11292
913.09	11147
913.204	11242
913.318	11318
913.431	11398
913.545	11448
913.659	11372
913.772	11292
913.886	11185
914	11098
914.113	11261
914.226	11258
914.34	11189
914.453	11064
914.566	11250
914.68	11140
914.793	11086
914.906	10927
915.019	10812
915.132	10809
915.245	10896
915.358	10984
915.47	10980
915.583	10934
915.696	10961
915.809	10980
915.921	11010
916.034	10919
916.146	10885
916.259	10831
916.371	10908
916.483	10908
916.595	10847
916.708	10873
916.82	10812
916.932	10835
917.044	10748
917.156	10805
917.268	10763
917.38	10763
917.491	10755
917.603	10790
917.715	10839
917.826	10843
917.938	10714
918.049	10668
918.161	10752
918.272	10938
918.384	10862
918.495	10702
918.606	10740
918.717	10550
918.828	10683
918.939	10603
919.05	10504
919.161	10721
919.272	10481
919.383	10455
919.494	10588
919.604	10854
919.715	10691
919.826	10618
919.936	10694
920.047	10714
920.157	10634
920.267	10911
920.378	10691
920.488	10656
920.598	10801
920.708	11060
920.818	10839
920.928	10816
921.038	10946
921.148	10927
921.258	10672
921.368	10558
921.477	10531
921.587	10508
921.697	10310
921.806	10512
921.916	10386
922.025	10185
922.134	10200
922.244	10207
922.353	10211
922.462	10093
922.571	9979
922.68	9941
922.789	9915
922.898	9880
923.007	9854
923.116	9956
923.224	9835
923.333	9762
923.442	9766
923.55	9652
923.659	9720
923.767	9797
923.876	9732
923.984	9774
924.092	9667
924.201	9743
924.309	9740
924.417	9766
924.525	9656
924.633	9690
924.741	10584
924.849	9473
924.956	9644
925.064	9488
925.172	9363
925.279	9462
925.387	9534
925.494	9511
925.602	9606
925.709	9610
925.816	9405
925.924	9515
926.031	9603
926.138	9447
926.245	9572
926.352	9424
926.459	9603
926.566	9572
926.673	9469
926.779	9389
926.886	9317
926.993	9222
927.099	9135
927.206	9218
927.312	9127
927.419	9310
927.525	9291
927.631	9302
927.737	9150
927.843	9074
927.95	8948
928.056	9081
928.162	9085
928.267	9188
928.373	9686
928.479	9195
928.585	8929
928.69	9100
928.796	9112
928.901	8963
929.007	8868
929.112	8986
929.218	8967
929.323	8982
929.428	8971
929.533	9043
929.638	8853
929.743	8883
929.848	8967
929.953	8910
930.058	8853
930.163	8644
930.267	8701
930.372	8785
930.477	8621
930.581	8895
930.685	8773
930.79	8606
930.894	8689
930.998	8621
931.103	8746
931.207	8396
931.311	8305
931.415	8252
931.519	8088
931.623	8103
