Data from test_V78500241_349.txt Node
Date: Fri Mar 25 14:36:09 CST 2022
User: usil
Spectrometer: V785-0024
Trigger mode: 0
Integration Time (sec): 4.000000E-1
Scans to average: 1
Nonlinearity correction enabled: false
Boxcar width: 0
Storing dark spectrum: false
XAxis mode: Wavelengths
Number of Pixels in Spectrum: 1024
>>>>>Begin Spectral Data<<<<<
801.071	27017
801.214	26815
801.356	26568
801.499	26518
801.641	26290
801.783	26446
801.926	26366
802.068	26161
802.211	26240
802.353	26126
802.496	26077
802.638	25978
802.78	25887
802.923	25856
803.065	25772
803.208	25727
803.35	25632
803.492	25951
803.635	25921
803.777	25788
803.919	25894
804.061	26164
804.204	25883
804.346	25769
804.488	25890
804.63	25795
804.773	25700
804.915	25887
805.057	26039
805.199	25966
805.341	25772
805.483	25955
805.626	25795
805.768	25868
805.91	26005
806.052	25879
806.194	25860
806.336	26043
806.478	25871
806.62	25970
806.762	26012
806.904	26157
807.046	26381
807.188	26164
807.33	26126
807.472	26252
807.614	26081
807.756	26153
807.898	26145
808.04	25902
808.182	25955
808.324	26035
808.465	26088
808.607	26199
808.749	26370
808.891	26514
809.033	26545
809.174	26469
809.316	26305
809.458	26408
809.6	26377
809.741	26419
809.883	26366
810.025	26560
810.166	26602
810.308	26511
810.45	26590
810.591	26377
810.733	26290
810.875	26252
811.016	26206
811.158	26218
811.299	26358
811.441	26252
811.582	26396
811.724	26248
811.865	26012
812.007	26187
812.148	26313
812.29	26278
812.431	26336
812.573	26320
812.714	26522
812.855	26689
812.997	26724
813.138	26849
813.279	26781
813.421	26708
813.562	26606
813.703	26552
813.845	26495
813.986	26115
814.127	25963
814.268	25879
814.41	25845
814.551	25677
814.692	25807
814.833	25738
814.974	25753
815.115	25719
815.256	25613
815.397	25632
815.539	25715
815.68	25533
815.821	25468
815.962	25552
816.103	25628
816.244	25297
816.385	25259
816.526	25137
816.666	25000
816.807	24996
816.948	25023
817.089	24916
817.23	24943
817.371	24966
817.512	24890
817.653	24798
817.793	24791
817.934	24882
818.075	24837
818.216	24886
818.356	24738
818.497	24730
818.638	24441
818.778	24471
818.919	24593
819.06	24608
819.2	24623
819.341	24726
819.481	24749
819.622	24886
819.762	25171
819.903	25148
820.043	25084
820.184	24920
820.324	24817
820.465	25008
820.605	24757
820.746	24753
820.886	24821
821.026	24753
821.167	24658
821.307	24753
821.447	24627
821.588	24669
821.728	24525
821.868	24281
822.008	24224
822.149	24144
822.289	24216
822.429	23996
822.569	23958
822.709	23950
822.849	23726
822.99	23745
823.13	23756
823.27	23615
823.41	23516
823.55	23417
823.69	23604
823.83	23497
823.97	23387
824.11	23284
824.25	23261
824.389	23246
824.529	23395
824.669	23356
824.809	23288
824.949	23242
825.089	23395
825.228	23174
825.368	23178
825.508	22961
825.648	23109
825.787	23178
825.927	23200
826.067	23075
826.206	23102
826.346	23086
826.485	23174
826.625	23071
826.765	23193
826.904	22991
827.044	22847
827.183	22744
827.323	22668
827.462	22816
827.601	22683
827.741	22786
827.88	22896
828.02	22618
828.159	22626
828.298	22744
828.437	22797
828.577	22649
828.716	22778
828.855	22603
828.994	22474
829.134	22481
829.273	22474
829.412	22573
829.551	22268
829.69	22500
829.829	22500
829.968	22577
830.107	22367
830.246	22451
830.385	22375
830.524	22211
830.663	22211
830.802	22192
830.941	21975
831.08	21911
831.219	22135
831.357	22078
831.496	22143
831.635	22101
831.774	21922
831.913	21945
832.051	21800
832.19	21827
832.329	21922
832.467	21641
832.606	21637
832.744	21637
832.883	21732
833.022	21701
833.16	21587
833.299	21698
833.437	21614
833.576	21698
833.714	21682
833.852	21736
833.991	21724
834.129	21713
834.267	21831
834.406	21690
834.544	21698
834.682	21511
834.821	21568
834.959	21819
835.097	21507
835.235	21660
835.373	21618
835.511	21660
835.65	21454
835.788	21538
835.926	21382
836.064	21252
836.202	21321
836.34	21439
836.478	21507
836.615	21519
836.753	21564
836.891	21610
837.029	21443
837.167	21443
837.305	21412
837.443	21443
837.58	21336
837.718	21450
837.856	21332
837.993	21252
838.131	21416
838.269	21195
838.406	21275
838.544	21283
838.681	20979
838.819	20971
838.956	20842
839.094	20743
839.231	20864
839.369	20864
839.506	21370
839.643	20918
839.781	20804
839.918	20682
840.055	20830
840.193	20598
840.33	20644
840.467	20697
840.604	20632
840.742	20967
840.879	20495
841.016	20583
841.153	20629
841.29	20861
841.427	20750
841.564	20659
841.701	20727
841.838	20716
841.975	20655
842.112	20526
842.249	20415
842.385	20423
842.522	20663
842.659	20442
842.796	20370
842.933	20488
843.069	20358
843.206	20400
843.343	20457
843.479	20484
843.616	20415
843.752	20161
843.889	20263
844.025	20404
844.162	20153
844.298	20317
844.435	20107
844.571	20103
844.708	20142
844.844	20328
844.98	20336
845.117	20214
845.253	20065
845.389	20069
845.525	20065
845.661	20031
845.798	19913
845.934	20043
846.07	19970
846.206	20046
846.342	20077
846.478	19997
846.614	19719
846.75	19586
846.886	19772
847.022	19830
847.158	19674
847.294	19639
847.429	19677
847.565	19616
847.701	19906
847.837	19354
847.972	19354
848.108	19365
848.244	19457
848.379	19213
848.515	19171
848.65	19156
848.786	19179
848.921	19228
849.057	19278
849.192	19373
849.328	19221
849.463	19209
849.598	19194
849.734	19103
849.869	19084
850.004	18905
850.14	18989
850.275	18981
850.41	18890
850.545	19072
850.68	18833
850.815	19000
850.95	18791
851.085	19126
851.22	19019
851.355	18928
851.49	18935
851.625	18817
851.76	18996
851.895	18882
852.03	18935
852.165	18897
852.299	18882
852.434	18935
852.569	19027
852.703	18913
852.838	18966
852.973	19004
853.107	18966
853.242	18882
853.376	18787
853.511	18616
853.645	18730
853.78	18856
853.914	18779
854.048	18707
854.183	18783
854.317	18696
854.451	18928
854.585	18791
854.72	18779
854.854	18848
854.988	18631
855.122	18776
855.256	18555
855.39	18722
855.524	18890
855.658	18844
855.792	18745
855.926	18878
856.06	18848
856.194	18905
856.327	18673
856.461	18745
856.595	18650
856.729	18665
856.862	18947
856.996	18753
857.13	18856
857.263	18871
857.397	18867
857.53	18700
857.664	18726
857.797	18642
857.931	18760
858.064	18726
858.197	18821
858.331	18700
858.464	18661
858.597	18654
858.731	18669
858.864	18650
858.997	18741
859.13	18631
859.263	18604
859.396	18722
859.529	18661
859.662	18658
859.795	18623
859.928	18604
860.061	18738
860.194	18734
860.327	18669
860.46	18601
860.592	18738
860.725	18715
860.858	18646
860.99	18658
861.123	18559
861.256	18612
861.388	18593
861.521	19381
861.653	18582
861.786	18475
861.918	18536
862.05	18604
862.183	18650
862.315	18726
862.447	18684
862.58	18646
862.712	18509
862.844	18403
862.976	18502
863.108	18372
863.24	18745
863.372	18448
863.504	18410
863.636	18365
863.768	18479
863.9	18338
864.032	18308
864.164	18361
864.296	18395
864.428	18563
864.559	18517
864.691	18422
864.823	18384
864.954	18422
865.086	18315
865.217	18350
865.349	18338
865.48	18323
865.612	18357
865.743	18407
865.875	18342
866.006	18266
866.137	18384
866.269	18292
866.4	18194
866.531	18232
866.662	18209
866.793	18296
866.924	18315
867.055	18304
867.186	18300
867.317	18174
867.448	18220
867.579	18243
867.71	18171
867.841	18076
867.972	18194
868.103	18292
868.233	18216
868.364	18247
868.495	18357
868.625	18426
868.756	18650
868.886	18426
869.017	18429
869.147	18661
869.278	18677
869.408	18654
869.539	18582
869.669	18551
869.799	18570
869.929	18612
870.06	18570
870.19	18833
870.32	18703
870.45	18821
870.58	18935
870.71	18890
870.84	19012
870.97	18795
871.1	18783
871.23	18993
871.36	19069
871.489	18924
871.619	18996
871.749	18996
871.879	19133
872.008	19148
872.138	19110
872.267	19031
872.397	19027
872.526	18878
872.656	18928
872.785	18856
872.915	19008
873.044	19012
873.173	19038
873.303	19255
873.432	19137
873.561	19107
873.69	19095
873.819	19008
873.948	19289
874.077	19050
874.206	19156
874.335	19103
874.464	19183
874.593	19301
874.722	19362
874.851	19377
874.979	19445
875.108	19354
875.237	19392
875.365	19213
875.494	19331
875.623	19396
875.751	19381
875.88	19365
876.008	19537
876.136	19514
876.265	19784
876.393	19936
876.521	19913
876.65	19928
876.778	19807
876.906	19750
877.034	19685
877.162	19689
877.29	19727
877.418	19807
877.546	19677
877.674	19666
877.802	19849
877.93	19772
878.058	19772
878.185	19578
878.313	19727
878.441	19795
878.568	19575
878.696	19681
878.824	19883
878.951	19856
879.079	19906
879.206	20077
879.333	19967
879.461	19856
879.588	19902
879.715	20043
879.842	20096
879.97	19894
880.097	19639
880.224	19632
880.351	19643
880.478	19567
880.605	19506
880.732	19594
880.859	19860
880.986	19643
881.112	19582
881.239	19556
881.366	19510
881.493	19324
881.619	19244
881.746	19373
881.872	19194
881.999	19152
882.125	19213
882.252	19274
882.378	19301
882.505	19453
882.631	19103
882.757	18977
882.883	19110
883.01	19019
883.136	18993
883.262	18863
883.388	18840
883.514	18958
883.64	19008
883.766	18844
883.892	18810
884.018	18844
884.143	19012
884.269	19034
884.395	18814
884.52	18631
884.646	18719
884.772	18627
884.897	18597
885.023	18646
885.148	18719
885.274	18833
885.399	18658
885.524	18715
885.65	18658
885.775	18620
885.9	18559
886.025	18741
886.15	18703
886.275	18589
886.4	18536
886.525	18601
886.65	18627
886.775	18578
886.9	18787
887.025	18844
887.149	18544
887.274	18429
887.399	18391
887.523	18399
887.648	18380
887.773	18281
887.897	18445
888.021	18380
888.146	18334
888.27	18483
888.395	18521
888.519	18471
888.643	18502
888.767	18460
888.891	18258
889.015	18174
889.139	18281
889.263	18270
889.387	18365
889.511	18441
889.635	18380
889.759	18163
889.883	18190
890.006	18205
890.13	18262
890.254	18125
890.377	18152
890.501	17958
890.624	18064
890.748	18072
890.871	17912
890.995	17722
891.118	17646
891.241	17870
891.364	17699
891.488	17885
891.611	17874
891.734	17802
891.857	17882
891.98	17866
892.103	17817
892.226	17805
892.349	17775
892.471	17619
892.594	17802
892.717	17904
892.839	17741
892.962	17836
893.085	17783
893.207	17824
893.33	17661
893.452	17726
893.575	17786
893.697	17779
893.819	17889
893.941	17977
894.064	17904
894.186	17699
894.308	17699
894.43	17893
894.552	17923
894.674	17901
894.796	17680
894.918	17764
895.04	17805
895.161	17855
895.283	17821
895.405	17722
895.526	17843
895.648	17866
895.769	17805
895.891	17874
896.012	17935
896.134	17939
896.255	17809
896.376	17805
896.498	17885
896.619	17866
896.74	17931
896.861	17916
896.982	18148
897.103	18289
897.224	18129
897.345	18060
897.466	18060
897.587	18213
897.708	18140
897.828	18098
897.949	18117
898.07	17866
898.19	18034
898.311	18190
898.431	17916
898.552	17965
898.672	18060
898.792	18133
898.913	18041
899.033	17912
899.153	17828
899.273	17798
899.393	17863
899.513	17813
899.633	17859
899.753	17897
899.873	17935
899.993	17866
900.113	17882
900.232	17916
900.352	17737
900.472	17737
900.591	17657
900.711	17687
900.83	17558
900.95	17847
901.069	17855
901.189	17619
901.308	17307
901.427	17307
901.546	17288
901.665	17315
901.784	17296
901.904	17189
902.023	17064
902.141	16942
902.26	16908
902.379	16980
902.498	16763
902.617	16717
902.735	16850
902.854	16816
902.973	16660
903.091	16592
903.21	16508
903.328	16466
903.446	16428
903.565	16291
903.683	16291
903.801	16246
903.919	16356
904.038	16268
904.156	16120
904.274	16253
904.392	16025
904.51	16097
904.627	16055
904.745	16128
904.863	16166
904.981	15918
905.098	15774
905.216	15743
905.334	15709
905.451	15808
905.569	15717
905.686	15732
905.803	15827
905.921	15584
906.038	15663
906.155	15534
906.272	15329
906.389	15408
906.506	15351
906.623	15321
906.74	15241
906.857	15157
906.974	15279
907.091	15393
907.208	15420
907.324	15397
907.441	15154
907.557	15127
907.674	15036
907.79	15032
907.907	15043
908.023	15001
908.139	14971
908.256	14998
908.372	14899
908.488	14891
908.604	14777
908.72	14754
908.836	14750
908.952	14731
909.068	14632
909.184	14804
909.3	14750
909.415	14746
909.531	14735
909.647	14518
909.762	14450
909.878	14438
909.993	14423
910.108	14389
910.224	14351
910.339	14431
910.454	14332
910.57	14294
910.685	14180
910.8	14457
910.915	14469
911.03	14195
911.145	14164
911.259	14130
911.374	14081
911.489	14012
911.604	13989
911.718	13769
911.833	13818
911.947	13712
912.062	13666
912.176	13772
912.291	13906
912.405	13807
912.519	13940
912.633	13936
912.748	13845
912.862	13712
912.976	13616
913.09	13529
913.204	13544
913.318	13624
913.431	13738
913.545	13727
913.659	13761
913.772	13616
913.886	13472
914	13491
914.113	13616
914.226	13628
914.34	13518
914.453	13400
914.566	13472
914.68	13445
914.793	13419
914.906	13274
915.019	13122
915.132	13008
915.245	13091
915.358	13259
915.47	13183
915.583	13160
915.696	13156
915.809	13198
915.921	13320
916.034	13088
916.146	13004
916.259	13076
916.371	13084
916.483	13046
916.595	12947
916.708	13008
916.82	13084
916.932	12932
917.044	12897
917.156	12977
917.268	12795
917.38	12909
917.491	12817
917.603	12814
917.715	12905
917.826	12928
917.938	12875
918.049	12677
918.161	12795
918.272	12909
918.384	12970
918.495	12863
918.606	12631
918.717	12650
918.828	12726
918.939	12734
919.05	12589
919.161	12627
919.272	12483
919.383	12422
919.494	12681
919.604	12867
919.715	12544
919.826	12559
919.936	12616
920.047	12722
920.157	12513
920.267	12817
920.378	12631
920.488	12574
920.598	12753
920.708	12951
920.818	12806
920.928	12806
921.038	12958
921.148	12909
921.258	12608
921.368	12540
921.477	12513
921.587	12357
921.697	12357
921.806	12403
921.916	12182
922.025	12148
922.134	12171
922.244	11996
922.353	12140
922.462	11912
922.571	11870
922.68	11824
922.789	11722
922.898	11684
923.007	11596
923.116	11680
923.224	11733
923.333	11718
923.442	11562
923.55	11554
923.659	11577
923.767	11665
923.876	11501
923.984	11524
924.092	11474
924.201	11558
924.309	11505
924.417	11497
924.525	11474
924.633	11448
924.741	12152
924.849	11201
924.956	11455
925.064	11299
925.172	11121
925.279	11231
925.387	11231
925.494	11178
925.602	11326
925.709	11315
925.816	11174
925.924	11227
926.031	11337
926.138	11288
926.245	11220
926.352	11060
926.459	11334
926.566	11216
926.673	11181
926.779	10991
926.886	11052
926.993	10915
927.099	10896
927.206	10877
927.312	10797
927.419	10934
927.525	10805
927.631	10831
927.737	10847
927.843	10729
927.95	10630
928.056	10675
928.162	10664
928.267	10755
928.373	11379
928.479	10786
928.585	10569
928.69	10733
928.796	10748
928.901	10561
929.007	10413
929.112	10634
929.218	10542
929.323	10497
929.428	10443
929.533	10637
929.638	10459
929.743	10481
929.848	10500
929.953	10512
930.058	10379
930.163	10177
930.267	10207
930.372	10363
930.477	10143
930.581	10352
930.685	10272
930.79	10097
930.894	10135
930.998	10120
931.103	10173
931.207	9865
931.311	9819
931.415	9690
931.519	9492
931.623	9469
