Data from test_V78500241_3068.txt Node
Date: Fri Mar 25 14:55:04 CST 2022
User: usil
Spectrometer: V785-0024
Trigger mode: 0
Integration Time (sec): 4.000000E-1
Scans to average: 1
Nonlinearity correction enabled: false
Boxcar width: 0
Storing dark spectrum: false
XAxis mode: Wavelengths
Number of Pixels in Spectrum: 1024
>>>>>Begin Spectral Data<<<<<
801.071	22055
801.214	21964
801.356	21690
801.499	21580
801.641	21515
801.783	21389
801.926	21439
802.068	21344
802.211	21283
802.353	21264
802.496	21173
802.638	20918
802.78	20883
802.923	20777
803.065	20705
803.208	20750
803.35	20785
803.492	20864
803.635	20948
803.777	20686
803.919	20800
804.061	21146
804.204	20842
804.346	20670
804.488	20693
804.63	20758
804.773	20606
804.915	20720
805.057	20804
805.199	20689
805.341	20773
805.483	20804
805.626	20834
805.768	20598
805.91	20735
806.052	20720
806.194	20571
806.336	20883
806.478	20697
806.62	20636
806.762	20773
806.904	20895
807.046	21108
807.188	20990
807.33	21039
807.472	21127
807.614	20876
807.756	20967
807.898	20731
808.04	20705
808.182	20648
808.324	20724
808.465	20807
808.607	20883
808.749	21051
808.891	21214
809.033	21294
809.174	21112
809.316	20998
809.458	21093
809.6	21058
809.741	21188
809.883	21214
810.025	21245
810.166	21165
810.308	21203
810.45	21127
810.591	21036
810.733	20880
810.875	20906
811.016	20796
811.158	20674
811.299	20842
811.441	20902
811.582	20842
811.724	20746
811.865	20899
812.007	20823
812.148	20845
812.29	20796
812.431	21036
812.573	21138
812.714	21233
812.855	21313
812.997	21367
813.138	21591
813.279	21386
813.421	21348
813.562	21321
813.703	21047
813.845	20967
813.986	20632
814.127	20575
814.268	20442
814.41	20431
814.551	20434
814.692	20351
814.833	20438
814.974	20484
815.115	20347
815.256	20180
815.397	20172
815.539	20210
815.68	20107
815.821	20096
815.962	20187
816.103	20142
816.244	19875
816.385	19841
816.526	19852
816.666	19632
816.807	19571
816.948	19567
817.089	19670
817.23	19556
817.371	19616
817.512	19537
817.653	19434
817.793	19487
817.934	19487
818.075	19480
818.216	19445
818.356	19411
818.497	19377
818.638	19118
818.778	19168
818.919	19133
819.06	19145
819.2	19358
819.341	19354
819.481	19362
819.622	19499
819.762	19799
819.903	19655
820.043	19460
820.184	19457
820.324	19449
820.465	19521
820.605	19434
820.746	19343
820.886	19419
821.026	19407
821.167	19400
821.307	19491
821.447	19381
821.588	19396
821.728	19232
821.868	19137
822.008	19004
822.149	18882
822.289	18859
822.429	18654
822.569	18593
822.709	18536
822.849	18327
822.99	18342
823.13	18308
823.27	18243
823.41	18117
823.55	18114
823.69	18136
823.83	18201
823.97	18201
824.11	18011
824.25	17950
824.389	18072
824.529	17954
824.669	17927
824.809	18114
824.949	17935
825.089	18083
825.228	17942
825.368	17714
825.508	17703
825.648	17775
825.787	17710
825.927	17775
826.067	17596
826.206	17752
826.346	17699
826.485	17630
826.625	17615
826.765	17935
826.904	17729
827.044	17395
827.183	17448
827.323	17482
827.462	17493
827.601	17459
827.741	17337
827.88	17417
828.02	17174
828.159	17353
828.298	17444
828.437	17398
828.577	17379
828.716	17581
828.855	17322
828.994	17181
829.134	17155
829.273	17162
829.412	17170
829.551	17151
829.69	17162
829.829	17086
829.968	17341
830.107	17250
830.246	17242
830.385	17090
830.524	17143
830.663	16953
830.802	16957
830.941	16706
831.08	16812
831.219	16835
831.357	16839
831.496	16972
831.635	16828
831.774	16622
831.913	16607
832.051	16683
832.19	16516
832.329	16558
832.467	16504
832.606	16402
832.744	16481
832.883	16481
833.022	16356
833.16	16512
833.299	16535
833.437	16459
833.576	16569
833.714	16603
833.852	16527
833.991	16561
834.129	16565
834.267	16603
834.406	16500
834.544	16592
834.682	16523
834.821	16611
834.959	16577
835.097	16432
835.235	16596
835.373	16622
835.511	16641
835.65	16542
835.788	16527
835.926	16303
836.064	16219
836.202	16303
836.34	16443
836.478	16455
836.615	16329
836.753	16462
836.891	16565
837.029	16489
837.167	16352
837.305	16344
837.443	16432
837.58	16284
837.718	16234
837.856	16272
837.993	16185
838.131	16417
838.269	16246
838.406	16185
838.544	16242
838.681	16017
838.819	16063
838.956	15873
839.094	15873
839.231	15854
839.369	16017
839.506	16284
839.643	16010
839.781	15846
839.918	15755
840.055	15922
840.193	15812
840.33	15888
840.467	15854
840.604	15732
840.742	16131
840.879	15781
841.016	15751
841.153	15816
841.29	15918
841.427	15785
841.564	15899
841.701	15759
841.838	15759
841.975	15781
842.112	15770
842.249	15633
842.385	15633
842.522	15793
842.659	15595
842.796	15584
842.933	15648
843.069	15515
843.206	15652
843.343	15637
843.479	15622
843.616	15637
843.752	15450
843.889	15348
844.025	15584
844.162	15268
844.298	15511
844.435	15355
844.571	15386
844.708	15370
844.844	15534
844.98	15492
845.117	15447
845.253	15275
845.389	15329
845.525	15256
845.661	15233
845.798	15116
845.934	15268
846.07	15165
846.206	15180
846.342	15405
846.478	15291
846.614	15074
846.75	14925
846.886	14876
847.022	15028
847.158	14944
847.294	14906
847.429	14921
847.565	14975
847.701	15112
847.837	14629
847.972	14724
848.108	14720
848.244	14807
848.379	14636
848.515	14473
848.65	14587
848.786	14537
848.921	14564
849.057	14678
849.192	14762
849.328	14663
849.463	14545
849.598	14507
849.734	14446
849.869	14408
850.004	14393
850.14	14408
850.275	14434
850.41	14271
850.545	14278
850.68	14381
850.815	14404
850.95	14317
851.085	14575
851.22	14408
851.355	14457
851.49	14214
851.625	14324
851.76	14309
851.895	14290
852.03	14290
852.165	14377
852.299	14385
852.434	14400
852.569	14396
852.703	14385
852.838	14442
852.973	14454
853.107	14377
853.242	14324
853.376	14275
853.511	14043
853.645	14130
853.78	14389
853.914	14225
854.048	14161
854.183	14161
854.317	14225
854.451	14358
854.585	14180
854.72	14218
854.854	14324
854.988	14161
855.122	14138
855.256	14115
855.39	14195
855.524	14237
855.658	14240
855.792	14191
855.926	14237
856.06	14237
856.194	14298
856.327	14195
856.461	14164
856.595	14172
856.729	14153
856.862	14362
856.996	14176
857.13	14176
857.263	14328
857.397	14366
857.53	14233
857.664	14278
857.797	14355
857.931	14389
858.064	14309
858.197	14290
858.331	14244
858.464	14199
858.597	14142
858.731	14161
858.864	14195
858.997	14168
859.13	14256
859.263	14324
859.396	14248
859.529	14214
859.662	14157
859.795	14126
859.928	14199
860.061	14362
860.194	14366
860.327	14237
860.46	14199
860.592	14343
860.725	14355
860.858	14412
860.99	14172
861.123	14115
861.256	14126
861.388	14180
861.521	14883
861.653	14123
861.786	13967
861.918	14039
862.05	14145
862.183	14187
862.315	14248
862.447	14332
862.58	14180
862.712	13963
862.844	13982
862.976	13970
863.108	13932
863.24	14305
863.372	13906
863.504	13906
863.636	13955
863.768	13955
863.9	14020
864.032	13993
864.164	13921
864.296	13978
864.428	14195
864.559	14100
864.691	14084
864.823	14077
864.954	13997
865.086	14050
865.217	13986
865.349	13818
865.48	13944
865.612	13925
865.743	14123
865.875	13978
866.006	13986
866.137	13928
866.269	13997
866.4	13932
866.531	13928
866.662	13830
866.793	13830
866.924	13936
867.055	13970
867.186	13989
867.317	13887
867.448	13959
867.579	13902
867.71	13868
867.841	13902
867.972	13947
868.103	13925
868.233	14024
868.364	13993
868.495	14077
868.625	14096
868.756	14347
868.886	14069
869.017	14183
869.147	14290
869.278	14252
869.408	14195
869.539	14077
869.669	14248
869.799	14229
869.929	14328
870.06	14351
870.19	14457
870.32	14488
870.45	14541
870.58	14617
870.71	14670
870.84	14708
870.97	14606
871.1	14587
871.23	14720
871.36	14861
871.489	14708
871.619	14845
871.749	14845
871.879	14834
872.008	14944
872.138	14796
872.267	14872
872.397	14682
872.526	14549
872.656	14640
872.785	14655
872.915	14823
873.044	14891
873.173	14826
873.303	14921
873.432	14876
873.561	15024
873.69	14891
873.819	14781
873.948	14933
874.077	14891
874.206	14781
874.335	14944
874.464	14948
874.593	15195
874.722	15169
874.851	15161
874.979	15142
875.108	15241
875.237	15150
875.365	15097
875.494	15138
875.623	15203
875.751	15100
875.88	15241
876.008	15329
876.136	15420
876.265	15557
876.393	15743
876.521	15644
876.65	15648
876.778	15622
876.906	15591
877.034	15507
877.162	15523
877.29	15561
877.418	15591
877.546	15515
877.674	15671
877.802	15618
877.93	15580
878.058	15561
878.185	15359
878.313	15534
878.441	15656
878.568	15466
878.696	15428
878.824	15606
878.951	15637
879.079	15762
879.206	15907
879.333	15743
879.461	15542
879.588	15690
879.715	15816
879.842	15903
879.97	15694
880.097	15405
880.224	15363
880.351	15439
880.478	15412
880.605	15367
880.732	15492
880.859	15698
880.986	15473
881.112	15504
881.239	15317
881.366	15249
881.493	15131
881.619	15074
881.746	15135
881.872	15081
881.999	15001
882.125	14986
882.252	15116
882.378	15127
882.505	15169
882.631	15047
882.757	14823
882.883	14956
883.01	14876
883.136	14933
883.262	14804
883.388	14735
883.514	14830
883.64	14952
883.766	14769
883.892	14708
884.018	14727
884.143	14895
884.269	14994
884.395	14594
884.52	14579
884.646	14689
884.772	14583
884.897	14415
885.023	14549
885.148	14651
885.274	14792
885.399	14663
885.524	14667
885.65	14571
885.775	14701
885.9	14621
886.025	14701
886.15	14762
886.275	14610
886.4	14552
886.525	14564
886.65	14522
886.775	14473
886.9	14701
887.025	14769
887.149	14537
887.274	14419
887.399	14377
887.523	14385
887.648	14381
887.773	14301
887.897	14598
888.021	14537
888.146	14347
888.27	14537
888.395	14594
888.519	14507
888.643	14442
888.767	14415
888.891	14362
889.015	14313
889.139	14385
889.263	14259
889.387	14366
889.511	14575
889.635	14427
889.759	14202
889.883	14324
890.006	14396
890.13	14438
890.254	14202
890.377	14248
890.501	14123
890.624	14130
890.748	14046
890.871	14088
890.995	13909
891.118	13906
891.241	14008
891.364	13974
891.488	14123
891.611	13997
891.734	13986
891.857	14142
891.98	14046
892.103	14043
892.226	13997
892.349	14039
892.471	13875
892.594	13928
892.717	14069
892.839	13963
892.962	14027
893.085	14126
893.207	14077
893.33	13917
893.452	13852
893.575	13978
893.697	14035
893.819	14168
893.941	14199
894.064	14130
894.186	13890
894.308	14092
894.43	14195
894.552	14145
894.674	14149
894.796	14058
894.918	14043
895.04	13978
895.161	14126
895.283	14145
895.405	14035
895.526	14027
895.648	14142
895.769	14195
895.891	14199
896.012	14240
896.134	14267
896.255	14195
896.376	14210
896.498	14218
896.619	14191
896.74	14176
896.861	14244
896.982	14575
897.103	14754
897.224	14473
897.345	14446
897.466	14423
897.587	14419
897.708	14602
897.828	14549
897.949	14336
898.07	14355
898.19	14454
898.311	14575
898.431	14480
898.552	14518
898.672	14594
898.792	14663
898.913	14568
899.033	14488
899.153	14427
899.273	14305
899.393	14438
899.513	14389
899.633	14400
899.753	14355
899.873	14377
899.993	14476
900.113	14400
900.232	14393
900.352	14358
900.472	14286
900.591	14256
900.711	14393
900.83	14119
900.95	14313
901.069	14358
901.189	14138
901.308	14119
901.427	13947
901.546	13925
901.665	14005
901.784	13967
901.904	13788
902.023	13769
902.141	13529
902.26	13518
902.379	13620
902.498	13476
902.617	13499
902.735	13480
902.854	13495
902.973	13453
903.091	13266
903.21	13266
903.328	13350
903.446	13217
903.565	13080
903.683	13084
903.801	13065
903.919	13088
904.038	13038
904.156	13012
904.274	12973
904.392	12886
904.51	12989
904.627	12939
904.745	13015
904.863	12958
904.981	12821
905.098	12635
905.216	12585
905.334	12646
905.451	12654
905.569	12608
905.686	12692
905.803	12604
905.921	12490
906.038	12544
906.155	12506
906.272	12304
906.389	12315
906.506	12209
906.623	12266
906.74	12205
906.857	12064
906.974	12019
907.091	12289
907.208	12391
907.324	12228
907.441	12087
907.557	11988
907.674	12007
907.79	11904
907.907	11946
908.023	11885
908.139	12049
908.256	11931
908.372	11889
908.488	11885
908.604	11752
908.72	11672
908.836	11722
908.952	11817
909.068	11764
909.184	11851
909.3	11668
909.415	11809
909.531	11805
909.647	11604
909.762	11539
909.878	11398
909.993	11524
910.108	11433
910.224	11429
910.339	11543
910.454	11368
910.57	11296
910.685	11265
910.8	11543
910.915	11524
911.03	11391
911.145	11265
911.259	11159
911.374	11162
911.489	11113
911.604	11048
911.718	10896
911.833	10976
911.947	10831
912.062	10790
912.176	10949
912.291	10968
912.405	10968
912.519	11227
912.633	11201
912.748	10976
912.862	10919
912.976	10786
913.09	10706
913.204	10710
913.318	10824
913.431	10949
913.545	10923
913.659	10923
913.772	10824
913.886	10672
914	10714
914.113	10774
914.226	10889
914.34	10801
914.453	10645
914.566	10831
914.68	10675
914.793	10679
914.906	10504
915.019	10386
915.132	10295
915.245	10424
915.358	10500
915.47	10447
915.583	10462
915.696	10409
915.809	10641
915.921	10634
916.034	10466
916.146	10367
916.259	10367
916.371	10405
916.483	10451
916.595	10417
916.708	10409
916.82	10413
916.932	10379
917.044	10356
917.156	10379
917.268	10246
917.38	10333
917.491	10257
917.603	10409
917.715	10382
917.826	10436
917.938	10223
918.049	10150
918.161	10249
918.272	10409
918.384	10421
918.495	10371
918.606	10207
918.717	10131
918.828	10238
918.939	10303
919.05	10051
919.161	10078
919.272	9964
919.383	10051
919.494	10196
919.604	10310
919.715	10188
919.826	10086
919.936	10143
920.047	10253
920.157	10230
920.267	10474
920.378	10242
920.488	10230
920.598	10348
920.708	10531
920.818	10421
920.928	10371
921.038	10535
921.148	10542
921.258	10204
921.368	10124
921.477	10128
921.587	10112
921.697	9983
921.806	10048
921.916	9865
922.025	9812
922.134	9759
922.244	9641
922.353	9747
922.462	9492
922.571	9568
922.68	9431
922.789	9397
922.898	9443
923.007	9405
923.116	9466
923.224	9454
923.333	9492
923.442	9370
923.55	9325
923.659	9393
923.767	9378
923.876	9317
923.984	9332
924.092	9161
924.201	9348
924.309	9294
924.417	9408
924.525	9157
924.633	9279
924.741	10181
924.849	9089
924.956	9218
925.064	9055
925.172	9013
925.279	9017
925.387	9127
925.494	9097
925.602	9207
925.709	9207
925.816	9051
925.924	9154
926.031	9214
926.138	9135
926.245	9161
926.352	9028
926.459	9127
926.566	9245
926.673	9017
926.779	8960
926.886	8971
926.993	8842
927.099	8845
927.206	8762
927.312	8746
927.419	8811
927.525	8796
927.631	8883
927.737	8735
927.843	8705
927.95	8583
928.056	8629
928.162	8819
928.267	8693
928.373	9226
928.479	8766
928.585	8545
928.69	8773
928.796	8686
928.901	8686
929.007	8514
929.112	8682
929.218	8579
929.323	8587
929.428	8473
929.533	8636
929.638	8442
929.743	8461
929.848	8522
929.953	8495
930.058	8438
930.163	8263
930.267	8298
930.372	8492
930.477	8221
930.581	8587
930.685	8358
930.79	8256
930.894	8240
930.998	8259
931.103	8434
931.207	8073
931.311	8005
931.415	7944
931.519	7761
931.623	7769
