Data from test_V78500241_3407.txt Node
Date: Fri Mar 25 14:57:26 CST 2022
User: usil
Spectrometer: V785-0024
Trigger mode: 0
Integration Time (sec): 4.000000E-1
Scans to average: 1
Nonlinearity correction enabled: false
Boxcar width: 0
Storing dark spectrum: false
XAxis mode: Wavelengths
Number of Pixels in Spectrum: 1024
>>>>>Begin Spectral Data<<<<<
801.071	21918
801.214	21869
801.356	21667
801.499	21530
801.641	21435
801.783	21313
801.926	21332
802.068	21211
802.211	21192
802.353	21058
802.496	20796
802.638	20773
802.78	20648
802.923	20621
803.065	20617
803.208	20552
803.35	20594
803.492	20594
803.635	20746
803.777	20743
803.919	20712
804.061	20887
804.204	20720
804.346	20575
804.488	20400
804.63	20632
804.773	20339
804.915	20499
805.057	20678
805.199	20374
805.341	20480
805.483	20583
805.626	20564
805.768	20530
805.91	20537
806.052	20590
806.194	20389
806.336	20621
806.478	20533
806.62	20469
806.762	20598
806.904	20746
807.046	20944
807.188	20857
807.33	20777
807.472	20880
807.614	20712
807.756	20724
807.898	20541
808.04	20545
808.182	20434
808.324	20552
808.465	20648
808.607	20667
808.749	20872
808.891	21055
809.033	20937
809.174	20941
809.316	20921
809.458	20819
809.6	20826
809.741	20941
809.883	20906
810.025	21047
810.166	20990
810.308	21085
810.45	20967
810.591	20819
810.733	20788
810.875	20686
811.016	20556
811.158	20461
811.299	20640
811.441	20746
811.582	20758
811.724	20613
811.865	20583
812.007	20568
812.148	20648
812.29	20552
812.431	20727
812.573	20963
812.714	20933
812.855	21176
812.997	21146
813.138	21291
813.279	21245
813.421	21100
813.562	20967
813.703	20925
813.845	20872
813.986	20492
814.127	20218
814.268	20263
814.41	20210
814.551	20142
814.692	20244
814.833	20149
814.974	20043
815.115	20142
815.256	19917
815.397	19997
815.539	19982
815.68	19921
815.821	19822
815.962	19894
816.103	19849
816.244	19609
816.385	19677
816.526	19677
816.666	19487
816.807	19278
816.948	19441
817.089	19422
817.23	19392
817.371	19244
817.512	19221
817.653	19285
817.793	19255
817.934	19228
818.075	19312
818.216	19377
818.356	19255
818.497	19156
818.638	18935
818.778	19042
818.919	19019
819.06	19012
819.2	19160
819.341	19080
819.481	19141
819.622	19304
819.762	19426
819.903	19514
820.043	19331
820.184	19274
820.324	19251
820.465	19407
820.605	19308
820.746	19365
820.886	19164
821.026	19263
821.167	19190
821.307	19232
821.447	19160
821.588	19103
821.728	18977
821.868	18890
822.008	18730
822.149	18673
822.289	18692
822.429	18426
822.569	18388
822.709	18407
822.849	18277
822.99	18171
823.13	18152
823.27	18144
823.41	17931
823.55	17901
823.69	18041
823.83	18083
823.97	17996
824.11	17752
824.25	17661
824.389	17771
824.529	17901
824.669	17748
824.809	17923
824.949	17813
825.089	17786
825.228	17863
825.368	17623
825.508	17623
825.648	17623
825.787	17570
825.927	17646
826.067	17505
826.206	17436
826.346	17623
826.485	17535
826.625	17516
826.765	17611
826.904	17501
827.044	17288
827.183	17379
827.323	17151
827.462	17284
827.601	17185
827.741	17227
827.88	17212
828.02	17193
828.159	17269
828.298	17197
828.437	17345
828.577	17159
828.716	17322
828.855	17185
828.994	16961
829.134	17060
829.273	17041
829.412	16953
829.551	16972
829.69	17010
829.829	16961
829.968	17193
830.107	17052
830.246	17056
830.385	16923
830.524	16934
830.663	16812
830.802	16752
830.941	16519
831.08	16653
831.219	16748
831.357	16675
831.496	16911
831.635	16569
831.774	16607
831.913	16470
832.051	16470
832.19	16405
832.329	16474
832.467	16318
832.606	16322
832.744	16303
832.883	16314
833.022	16291
833.16	16303
833.299	16329
833.437	16303
833.576	16246
833.714	16421
833.852	16440
833.991	16409
834.129	16455
834.267	16493
834.406	16348
834.544	16341
834.682	16474
834.821	16367
834.959	16584
835.097	16318
835.235	16459
835.373	16413
835.511	16348
835.65	16333
835.788	16360
835.926	16128
836.064	16143
836.202	16166
836.34	16223
836.478	16341
836.615	16272
836.753	16268
836.891	16398
837.029	16329
837.167	16261
837.305	16234
837.443	16207
837.58	16196
837.718	16341
837.856	16272
837.993	16071
838.131	16188
838.269	16265
838.406	16131
838.544	16105
838.681	15934
838.819	15907
838.956	15774
839.094	15774
839.231	15759
839.369	15922
839.506	16177
839.643	15979
839.781	15793
839.918	15656
840.055	15686
840.193	15717
840.33	15705
840.467	15770
840.604	15789
840.742	16010
840.879	15675
841.016	15686
841.153	15606
841.29	15823
841.427	15808
841.564	15800
841.701	15759
841.838	15724
841.975	15622
842.112	15663
842.249	15530
842.385	15587
842.522	15762
842.659	15549
842.796	15595
842.933	15614
843.069	15416
843.206	15492
843.343	15648
843.479	15534
843.616	15545
843.752	15291
843.889	15359
844.025	15443
844.162	15211
844.298	15469
844.435	15310
844.571	15230
844.708	15370
844.844	15485
844.98	15420
845.117	15450
845.253	15237
845.389	15214
845.525	15211
845.661	15188
845.798	15119
845.934	15230
846.07	14979
846.206	15119
846.342	15230
846.478	15097
846.614	14819
846.75	14868
846.886	14815
847.022	14868
847.158	14872
847.294	14933
847.429	14929
847.565	14838
847.701	15005
847.837	14648
847.972	14583
848.108	14720
848.244	14701
848.379	14514
848.515	14473
848.65	14393
848.786	14480
848.921	14469
849.057	14533
849.192	14533
849.328	14507
849.463	14503
849.598	14465
849.734	14480
849.869	14317
850.004	14107
850.14	14324
850.275	14301
850.41	14164
850.545	14214
850.68	14199
850.815	14263
850.95	14252
851.085	14377
851.22	14442
851.355	14332
851.49	14218
851.625	14256
851.76	14157
851.895	14157
852.03	14221
852.165	14244
852.299	14248
852.434	14305
852.569	14202
852.703	14332
852.838	14305
852.973	14263
853.107	14404
853.242	14202
853.376	14153
853.511	14069
853.645	14081
853.78	14206
853.914	14138
854.048	14069
854.183	14092
854.317	14043
854.451	14256
854.585	14081
854.72	14050
854.854	14195
854.988	14164
855.122	14062
855.256	13967
855.39	14039
855.524	14168
855.658	14138
855.792	14111
855.926	14134
856.06	14183
856.194	14309
856.327	14103
856.461	14088
856.595	14073
856.729	14077
856.862	14259
856.996	14096
857.13	14233
857.263	14244
857.397	14172
857.53	14107
857.664	14195
857.797	14172
857.931	14271
858.064	14164
858.197	14271
858.331	14073
858.464	14065
858.597	14062
858.731	14134
858.864	14157
858.997	14176
859.13	14157
859.263	14096
859.396	14286
859.529	14225
859.662	14054
859.795	14130
859.928	14126
860.061	14366
860.194	14328
860.327	14237
860.46	14062
860.592	14248
860.725	14180
860.858	14237
860.99	14130
861.123	14027
861.256	14103
861.388	14100
861.521	14826
861.653	14031
861.786	13925
861.918	14050
862.05	14054
862.183	14107
862.315	14153
862.447	14218
862.58	14035
862.712	13849
862.844	13811
862.976	13989
863.108	13890
863.24	14339
863.372	13871
863.504	13989
863.636	13947
863.768	14001
863.9	13906
864.032	13955
864.164	13814
864.296	13963
864.428	14065
864.559	13982
864.691	14016
864.823	13963
864.954	13856
865.086	13883
865.217	13890
865.349	13841
865.48	13864
865.612	13890
865.743	13982
865.875	13890
866.006	13830
866.137	13936
866.269	13799
866.4	13913
866.531	13784
866.662	13765
866.793	13788
866.924	13925
867.055	13898
867.186	13845
867.317	13860
867.448	13807
867.579	13875
867.71	13795
867.841	13788
867.972	13951
868.103	13883
868.233	13887
868.364	13921
868.495	14069
868.625	14187
868.756	14168
868.886	14046
869.017	13978
869.147	14206
869.278	14278
869.408	14164
869.539	14088
869.669	14180
869.799	14092
869.929	14282
870.06	14275
870.19	14522
870.32	14412
870.45	14427
870.58	14522
870.71	14697
870.84	14697
870.97	14484
871.1	14431
871.23	14686
871.36	14804
871.489	14727
871.619	14667
871.749	14667
871.879	14743
872.008	14826
872.138	14834
872.267	14739
872.397	14530
872.526	14598
872.656	14617
872.785	14648
872.915	14754
873.044	14857
873.173	14731
873.303	14823
873.432	14849
873.561	14868
873.69	14830
873.819	14819
873.948	14845
874.077	14788
874.206	14762
874.335	14777
874.464	14921
874.593	15108
874.722	15062
874.851	15116
874.979	15154
875.108	15146
875.237	15100
875.365	15112
875.494	15077
875.623	15142
875.751	14948
875.88	15157
876.008	15283
876.136	15275
876.265	15622
876.393	15682
876.521	15568
876.65	15618
876.778	15485
876.906	15530
877.034	15481
877.162	15599
877.29	15435
877.418	15561
877.546	15469
877.674	15500
877.802	15542
877.93	15530
878.058	15393
878.185	15382
878.313	15523
878.441	15580
878.568	15355
878.696	15462
878.824	15473
878.951	15564
879.079	15778
879.206	15911
879.333	15671
879.461	15614
879.588	15622
879.715	15629
879.842	15778
879.97	15648
880.097	15348
880.224	15378
880.351	15408
880.478	15393
880.605	15348
880.732	15378
880.859	15641
880.986	15447
881.112	15401
881.239	15199
881.366	15176
881.493	15123
881.619	15009
881.746	15055
881.872	15028
881.999	15009
882.125	14899
882.252	15093
882.378	15085
882.505	15211
882.631	14921
882.757	14800
882.883	14960
883.01	14925
883.136	14819
883.262	14701
883.388	14678
883.514	14887
883.64	14914
883.766	14777
883.892	14674
884.018	14754
884.143	14842
884.269	14952
884.395	14727
884.52	14533
884.646	14556
884.772	14526
884.897	14484
885.023	14533
885.148	14655
885.274	14773
885.399	14583
885.524	14590
885.65	14530
885.775	14579
885.9	14587
886.025	14693
886.15	14727
886.275	14476
886.4	14511
886.525	14533
886.65	14575
886.775	14568
886.9	14693
887.025	14777
887.149	14507
887.274	14343
887.399	14336
887.523	14343
887.648	14309
887.773	14328
887.897	14469
888.021	14488
888.146	14415
888.27	14560
888.395	14564
888.519	14541
888.643	14442
888.767	14594
888.891	14343
889.015	14256
889.139	14271
889.263	14191
889.387	14290
889.511	14415
889.635	14385
889.759	14244
889.883	14233
890.006	14259
890.13	14446
890.254	14168
890.377	14164
890.501	14016
890.624	14107
890.748	14126
890.871	13963
890.995	13997
891.118	13944
891.241	13993
891.364	13936
891.488	14145
891.611	13898
891.734	14012
891.857	14027
891.98	14012
892.103	13959
892.226	14008
892.349	13978
892.471	13784
892.594	14001
892.717	13993
892.839	13944
892.962	13928
893.085	14012
893.207	14008
893.33	13849
893.452	13852
893.575	14001
893.697	14054
893.819	14157
893.941	14240
894.064	14134
894.186	13917
894.308	13902
894.43	14130
894.552	14115
894.674	14138
894.796	13925
894.918	14035
895.04	14005
895.161	14027
895.283	14096
895.405	14027
895.526	14081
895.648	14039
895.769	14107
895.891	14172
896.012	14168
896.134	14202
896.255	14138
896.376	14161
896.498	14130
896.619	14138
896.74	14043
896.861	14221
896.982	14503
897.103	14621
897.224	14484
897.345	14454
897.466	14396
897.587	14404
897.708	14476
897.828	14389
897.949	14328
898.07	14298
898.19	14381
898.311	14549
898.431	14427
898.552	14454
898.672	14579
898.792	14503
898.913	14640
899.033	14389
899.153	14374
899.273	14256
899.393	14358
899.513	14404
899.633	14305
899.753	14499
899.873	14393
899.993	14423
900.113	14301
900.232	14355
900.352	14362
900.472	14202
900.591	14187
900.711	14240
900.83	14233
900.95	14339
901.069	14286
901.189	14024
901.308	13902
901.427	13887
901.546	13917
901.665	13967
901.784	13951
901.904	13788
902.023	13624
902.141	13430
902.26	13483
902.379	13655
902.498	13480
902.617	13358
902.735	13499
902.854	13392
902.973	13377
903.091	13209
903.21	13137
903.328	13194
903.446	13107
903.565	13019
903.683	13057
903.801	12848
903.919	13034
904.038	12962
904.156	12844
904.274	12954
904.392	12909
904.51	12920
904.627	12764
904.745	12871
904.863	12962
904.981	12646
905.098	12563
905.216	12498
905.334	12566
905.451	12509
905.569	12445
905.686	12574
905.803	12483
905.921	12376
906.038	12544
906.155	12414
906.272	12254
906.389	12273
906.506	12247
906.623	12117
906.74	12167
906.857	11992
906.974	12030
907.091	12178
907.208	12258
907.324	12152
907.441	12022
907.557	11866
907.674	11851
907.79	11840
907.907	11912
908.023	11904
908.139	11931
908.256	11870
908.372	11794
908.488	11851
908.604	11710
908.72	11596
908.836	11653
908.952	11627
909.068	11695
909.184	11722
909.3	11665
909.415	11722
909.531	11745
909.647	11448
909.762	11395
909.878	11436
909.993	11452
910.108	11372
910.224	11353
910.339	11414
910.454	11277
910.57	11292
910.685	11235
910.8	11440
910.915	11501
911.03	11277
911.145	11124
911.259	11174
911.374	11124
911.489	11105
911.604	11033
911.718	10866
911.833	10896
911.947	10763
912.062	10725
912.176	10816
912.291	10919
912.405	10843
912.519	11121
912.633	11102
912.748	10980
912.862	10835
912.976	10748
913.09	10580
913.204	10717
913.318	10744
913.431	10824
913.545	10904
913.659	10919
913.772	10691
913.886	10653
914	10588
914.113	10755
914.226	10782
914.34	10736
914.453	10618
914.566	10729
914.68	10554
914.793	10645
914.906	10344
915.019	10253
915.132	10382
915.245	10363
915.358	10451
915.47	10485
915.583	10436
915.696	10481
915.809	10554
915.921	10565
916.034	10375
916.146	10325
916.259	10371
916.371	10440
916.483	10379
916.595	10386
916.708	10303
916.82	10348
916.932	10375
917.044	10348
917.156	10310
917.268	10223
917.38	10261
917.491	10261
917.603	10265
917.715	10276
917.826	10337
917.938	10238
918.049	10074
918.161	10211
918.272	10398
918.384	10386
918.495	10310
918.606	10082
918.717	10025
918.828	10135
918.939	10200
919.05	10048
919.161	10082
919.272	9903
919.383	9994
919.494	10124
919.604	10360
919.715	10082
919.826	10143
919.936	10059
920.047	10287
920.157	10097
920.267	10386
920.378	10242
920.488	10116
920.598	10265
920.708	10531
920.818	10310
920.928	10398
921.038	10504
921.148	10405
921.258	10135
921.368	10120
921.477	10055
921.587	9911
921.697	9800
921.806	10021
921.916	9880
922.025	9705
922.134	9728
922.244	9648
922.353	9701
922.462	9641
922.571	9473
922.68	9443
922.789	9329
922.898	9412
923.007	9408
923.116	9454
923.224	9401
923.333	9420
923.442	9268
923.55	9241
923.659	9272
923.767	9325
923.876	9211
923.984	9256
924.092	9165
924.201	9226
924.309	9195
924.417	9264
924.525	9233
924.633	9268
924.741	10128
924.849	9039
924.956	9154
925.064	8998
925.172	9020
925.279	8986
925.387	9058
925.494	9058
925.602	9157
925.709	9146
925.816	8971
925.924	8971
926.031	9116
926.138	9074
926.245	9112
926.352	9009
926.459	9127
926.566	9127
926.673	8998
926.779	8967
926.886	8910
926.993	8834
927.099	8758
927.206	8712
927.312	8762
927.419	8819
927.525	8727
927.631	8800
927.737	8667
927.843	8617
927.95	8590
928.056	8663
928.162	8693
928.267	8659
928.373	9310
928.479	8701
928.585	8541
928.69	8724
928.796	8663
928.901	8590
929.007	8476
929.112	8602
929.218	8518
929.323	8594
929.428	8476
929.533	8670
929.638	8408
929.743	8419
929.848	8526
929.953	8556
930.058	8339
930.163	8210
930.267	8244
930.372	8305
930.477	8298
930.581	8465
930.685	8358
930.79	8225
930.894	8259
930.998	8176
931.103	8332
931.207	7978
931.311	7921
931.415	7921
931.519	7742
931.623	7700
