Data from test_V78500241_2431.txt Node
Date: Fri Mar 25 14:50:38 CST 2022
User: usil
Spectrometer: V785-0024
Trigger mode: 0
Integration Time (sec): 4.000000E-1
Scans to average: 1
Nonlinearity correction enabled: false
Boxcar width: 0
Storing dark spectrum: false
XAxis mode: Wavelengths
Number of Pixels in Spectrum: 1024
>>>>>Begin Spectral Data<<<<<
801.071	22112
801.214	21960
801.356	21747
801.499	21614
801.641	21496
801.783	21519
801.926	21488
802.068	21397
802.211	21313
802.353	21310
802.496	20994
802.638	20887
802.78	20811
802.923	20796
803.065	20720
803.208	20864
803.35	20788
803.492	20937
803.635	20998
803.777	20781
803.919	20845
804.061	21173
804.204	20944
804.346	20735
804.488	20686
804.63	20727
804.773	20686
804.915	20682
805.057	20701
805.199	20617
805.341	20842
805.483	20887
805.626	20792
805.768	20758
805.91	20621
806.052	20682
806.194	20632
806.336	20785
806.478	20800
806.62	20655
806.762	20853
806.904	20979
807.046	21112
807.188	21108
807.33	21028
807.472	21116
807.614	21066
807.756	21005
807.898	20861
808.04	20773
808.182	20731
808.324	20796
808.465	20887
808.607	20963
808.749	21142
808.891	21218
809.033	21237
809.174	21226
809.316	21055
809.458	21032
809.6	21062
809.741	21089
809.883	21161
810.025	21256
810.166	21313
810.308	21344
810.45	21165
810.591	21135
810.733	21001
810.875	21047
811.016	20876
811.158	20727
811.299	20891
811.441	21024
811.582	20956
811.724	20891
811.865	20857
812.007	20902
812.148	20830
812.29	20857
812.431	21024
812.573	21138
812.714	21332
812.855	21447
812.997	21450
813.138	21599
813.279	21431
813.421	21291
813.562	21313
813.703	21157
813.845	20944
813.986	20804
814.127	20594
814.268	20347
814.41	20415
814.551	20385
814.692	20457
814.833	20404
814.974	20339
815.115	20434
815.256	20248
815.397	20275
815.539	20263
815.68	20233
815.821	20142
815.962	20103
816.103	20054
816.244	20096
816.385	19761
816.526	19875
816.666	19772
816.807	19643
816.948	19761
817.089	19677
817.23	19700
817.371	19559
817.512	19449
817.653	19533
817.793	19510
817.934	19476
818.075	19514
818.216	19559
818.356	19468
818.497	19350
818.638	19183
818.778	19187
818.919	19164
819.06	19187
819.2	19350
819.341	19358
819.481	19365
819.622	19620
819.762	19639
819.903	19658
820.043	19613
820.184	19552
820.324	19601
820.465	19575
820.605	19540
820.746	19556
820.886	19441
821.026	19518
821.167	19510
821.307	19480
821.447	19529
821.588	19373
821.728	19225
821.868	19080
822.008	18901
822.149	18970
822.289	18916
822.429	18669
822.569	18597
822.709	18513
822.849	18547
822.99	18433
823.13	18319
823.27	18391
823.41	18159
823.55	18220
823.69	18292
823.83	18114
823.97	18163
824.11	17961
824.25	17973
824.389	17939
824.529	18079
824.669	18079
824.809	18057
824.949	18045
825.089	18045
825.228	17958
825.368	17843
825.508	17870
825.648	17741
825.787	17824
825.927	17836
826.067	17668
826.206	17707
826.346	17897
826.485	17699
826.625	17737
826.765	17935
826.904	17836
827.044	17600
827.183	17558
827.323	17341
827.462	17524
827.601	17433
827.741	17524
827.88	17379
828.02	17459
828.159	17471
828.298	17471
828.437	17600
828.577	17535
828.716	17543
828.855	17436
828.994	17208
829.134	17261
829.273	17159
829.412	17136
829.551	17083
829.69	17181
829.829	17258
829.968	17208
830.107	17102
830.246	17121
830.385	17105
830.524	17090
830.663	17121
830.802	16809
830.941	16881
831.08	16793
831.219	16987
831.357	16831
831.496	17056
831.635	16805
831.774	16683
831.913	16771
832.051	16713
832.19	16584
832.329	16607
832.467	16523
832.606	16588
832.744	16592
832.883	16577
833.022	16527
833.16	16580
833.299	16634
833.437	16538
833.576	16603
833.714	16497
833.852	16626
833.991	16626
834.129	16615
834.267	16675
834.406	16527
834.544	16729
834.682	16615
834.821	16584
834.959	16755
835.097	16493
835.235	16584
835.373	16561
835.511	16599
835.65	16504
835.788	16459
835.926	16447
836.064	16265
836.202	16219
836.34	16527
836.478	16527
836.615	16421
836.753	16421
836.891	16512
837.029	16588
837.167	16459
837.305	16409
837.443	16299
837.58	16306
837.718	16360
837.856	16265
837.993	16318
838.131	16287
838.269	16238
838.406	16325
838.544	16234
838.681	16032
838.819	16006
838.956	15850
839.094	15915
839.231	15861
839.369	15998
839.506	16246
839.643	16097
839.781	15876
839.918	15785
840.055	15903
840.193	15797
840.33	15869
840.467	15899
840.604	15994
840.742	16188
840.879	15766
841.016	15785
841.153	15854
841.29	15983
841.427	15861
841.564	16002
841.701	15937
841.838	15816
841.975	15781
842.112	15774
842.249	15739
842.385	15656
842.522	15838
842.659	15622
842.796	15633
842.933	15591
843.069	15641
843.206	15648
843.343	15736
843.479	15682
843.616	15656
843.752	15397
843.889	15500
844.025	15595
844.162	15298
844.298	15553
844.435	15420
844.571	15374
844.708	15439
844.844	15511
844.98	15610
845.117	15572
845.253	15359
845.389	15367
845.525	15416
845.661	15386
845.798	15283
845.934	15218
846.07	15207
846.206	15325
846.342	15298
846.478	15184
846.614	14982
846.75	14982
846.886	14906
847.022	15116
847.158	15100
847.294	14979
847.429	15017
847.565	14967
847.701	15245
847.837	14785
847.972	14686
848.108	14883
848.244	14792
848.379	14606
848.515	14571
848.65	14564
848.786	14602
848.921	14716
849.057	14701
849.192	14724
849.328	14667
849.463	14602
849.598	14541
849.734	14511
849.869	14465
850.004	14374
850.14	14366
850.275	14404
850.41	14313
850.545	14396
850.68	14351
850.815	14442
850.95	14400
851.085	14469
851.22	14427
851.355	14438
851.49	14347
851.625	14324
851.76	14400
851.895	14324
852.03	14305
852.165	14400
852.299	14434
852.434	14381
852.569	14377
852.703	14389
852.838	14518
852.973	14484
853.107	14530
853.242	14366
853.376	14248
853.511	14153
853.645	14176
853.78	14404
853.914	14332
854.048	14252
854.183	14206
854.317	14180
854.451	14454
854.585	14294
854.72	14225
854.854	14305
854.988	14138
855.122	14256
855.256	14176
855.39	14202
855.524	14377
855.658	14374
855.792	14275
855.926	14290
856.06	14298
856.194	14434
856.327	14328
856.461	14237
856.595	14134
856.729	14240
856.862	14347
856.996	14271
857.13	14343
857.263	14404
857.397	14355
857.53	14278
857.664	14294
857.797	14317
857.931	14454
858.064	14259
858.197	14336
858.331	14282
858.464	14180
858.597	14187
858.731	14191
858.864	14271
858.997	14187
859.13	14195
859.263	14336
859.396	14336
859.529	14237
859.662	14252
859.795	14149
859.928	14252
860.061	14473
860.194	14427
860.327	14282
860.46	14343
860.592	14404
860.725	14461
860.858	14237
860.99	14278
861.123	14157
861.256	14210
861.388	14271
861.521	14883
861.653	14195
861.786	14103
861.918	14123
862.05	14123
862.183	14164
862.315	14355
862.447	14355
862.58	14172
862.712	13970
862.844	13986
862.976	14138
863.108	14039
863.24	14374
863.372	13864
863.504	14043
863.636	14062
863.768	14043
863.9	13986
864.032	13932
864.164	14065
864.296	14065
864.428	14130
864.559	14111
864.691	14130
864.823	14065
864.954	14161
865.086	14054
865.217	14100
865.349	13921
865.48	14020
865.612	13944
865.743	14172
865.875	13925
866.006	13970
866.137	14058
866.269	13989
866.4	13947
866.531	13959
866.662	13936
866.793	13970
866.924	13986
867.055	14062
867.186	14046
867.317	13944
867.448	13879
867.579	13993
867.71	13871
867.841	14046
867.972	14103
868.103	14008
868.233	14046
868.364	14062
868.495	14134
868.625	14221
868.756	14351
868.886	14145
869.017	14294
869.147	14370
869.278	14412
869.408	14298
869.539	14294
869.669	14336
869.799	14172
869.929	14290
870.06	14393
870.19	14632
870.32	14579
870.45	14625
870.58	14697
870.71	14876
870.84	14731
870.97	14598
871.1	14625
871.23	14868
871.36	14906
871.489	14720
871.619	14883
871.749	14910
871.879	14948
872.008	14956
872.138	14811
872.267	14906
872.397	14823
872.526	14648
872.656	14674
872.785	14731
872.915	14941
873.044	14944
873.173	14849
873.303	14982
873.432	14956
873.561	14918
873.69	14925
873.819	14754
873.948	14971
874.077	14887
874.206	14857
874.335	14960
874.464	15097
874.593	15207
874.722	15169
874.851	15222
874.979	15195
875.108	15241
875.237	15131
875.365	15154
875.494	15279
875.623	15321
875.751	15195
875.88	15313
876.008	15332
876.136	15542
876.265	15641
876.393	15774
876.521	15671
876.65	15762
876.778	15690
876.906	15591
877.034	15511
877.162	15682
877.29	15584
877.418	15622
877.546	15618
877.674	15633
877.802	15641
877.93	15694
878.058	15549
878.185	15519
878.313	15720
878.441	15652
878.568	15443
878.696	15515
878.824	15679
878.951	15732
879.079	15812
879.206	15960
879.333	15774
879.461	15644
879.588	15720
879.715	15850
879.842	15930
879.97	15831
880.097	15466
880.224	15485
880.351	15500
880.478	15568
880.605	15447
880.732	15538
880.859	15701
880.986	15500
881.112	15534
881.239	15378
881.366	15294
881.493	15226
881.619	15218
881.746	15184
881.872	15051
881.999	15127
882.125	15104
882.252	15252
882.378	15146
882.505	15325
882.631	15199
882.757	14941
882.883	15081
883.01	14994
883.136	14876
883.262	14883
883.388	14785
883.514	14990
883.64	15081
883.766	14910
883.892	14800
884.018	14845
884.143	15013
884.269	15066
884.395	14785
884.52	14598
884.646	14686
884.772	14613
884.897	14640
885.023	14670
885.148	14693
885.274	14834
885.399	14762
885.524	14659
885.65	14610
885.775	14720
885.9	14617
886.025	14887
886.15	14777
886.275	14602
886.4	14518
886.525	14686
886.65	14682
886.775	14632
886.9	14826
887.025	14929
887.149	14705
887.274	14419
887.399	14492
887.523	14438
887.648	14423
887.773	14457
887.897	14587
888.021	14530
888.146	14446
888.27	14564
888.395	14651
888.519	14537
888.643	14606
888.767	14537
888.891	14431
889.015	14301
889.139	14415
889.263	14377
889.387	14469
889.511	14571
889.635	14461
889.759	14393
889.883	14324
890.006	14370
890.13	14480
890.254	14389
890.377	14347
890.501	14103
890.624	14145
890.748	14206
890.871	14202
890.995	13986
891.118	13982
891.241	14134
891.364	14092
891.488	14214
891.611	14176
891.734	14054
891.857	14157
891.98	14081
892.103	14077
892.226	14065
892.349	14039
892.471	13864
892.594	13978
892.717	14062
892.839	14043
892.962	14031
893.085	14119
893.207	13955
893.33	13944
893.452	13978
893.575	14115
893.697	14088
893.819	14210
893.941	14351
894.064	14214
894.186	14005
894.308	14088
894.43	14275
894.552	14267
894.674	14187
894.796	14005
894.918	14126
895.04	14077
895.161	14206
895.283	14180
895.405	14027
895.526	14172
895.648	14195
895.769	14324
895.891	14240
896.012	14278
896.134	14252
896.255	14191
896.376	14199
896.498	14286
896.619	14339
896.74	14309
896.861	14305
896.982	14598
897.103	14762
897.224	14511
897.345	14495
897.466	14457
897.587	14549
897.708	14575
897.828	14499
897.949	14450
898.07	14404
898.19	14492
898.311	14720
898.431	14629
898.552	14644
898.672	14537
898.792	14712
898.913	14670
899.033	14514
899.153	14431
899.273	14358
899.393	14492
899.513	14434
899.633	14393
899.753	14526
899.873	14434
899.993	14537
900.113	14499
900.232	14450
900.352	14412
900.472	14408
900.591	14347
900.711	14343
900.83	14214
900.95	14408
901.069	14385
901.189	14278
901.308	14043
901.427	13967
901.546	14012
901.665	14008
901.784	14043
901.904	13909
902.023	13826
902.141	13639
902.26	13559
902.379	13563
902.498	13502
902.617	13544
902.735	13582
902.854	13556
902.973	13491
903.091	13285
903.21	13339
903.328	13327
903.446	13217
903.565	13133
903.683	13103
903.801	13031
903.919	13000
904.038	13103
904.156	12985
904.274	13046
904.392	12856
904.51	12890
904.627	13019
904.745	12985
904.863	13023
904.981	12760
905.098	12601
905.216	12681
905.334	12662
905.451	12665
905.569	12662
905.686	12696
905.803	12677
905.921	12448
906.038	12506
906.155	12414
906.272	12365
906.389	12391
906.506	12213
906.623	12289
906.74	12201
906.857	12034
906.974	12106
907.091	12330
907.208	12388
907.324	12346
907.441	12091
907.557	12045
907.674	11958
907.79	11969
907.907	11931
908.023	11980
908.139	11965
908.256	11901
908.372	11889
908.488	11923
908.604	11802
908.72	11630
908.836	11733
908.952	11695
909.068	11813
909.184	11851
909.3	11737
909.415	11798
909.531	11840
909.647	11509
909.762	11505
909.878	11452
909.993	11509
910.108	11516
910.224	11410
910.339	11512
910.454	11402
910.57	11322
910.685	11261
910.8	11596
910.915	11512
911.03	11349
911.145	11208
911.259	11090
911.374	11170
911.489	11242
911.604	11117
911.718	10942
911.833	10984
911.947	10877
912.062	10812
912.176	10927
912.291	10938
912.405	10885
912.519	11159
912.633	11147
912.748	11029
912.862	10961
912.976	10736
913.09	10771
913.204	10782
913.318	10847
913.431	10938
913.545	10972
913.659	10957
913.772	10805
913.886	10786
914	10660
914.113	10812
914.226	10873
914.34	10847
914.453	10660
914.566	10869
914.68	10634
914.793	10611
914.906	10466
915.019	10462
915.132	10455
915.245	10478
915.358	10523
915.47	10508
915.583	10508
915.696	10493
915.809	10645
915.921	10550
916.034	10405
916.146	10405
916.259	10356
916.371	10546
916.483	10470
916.595	10432
916.708	10371
916.82	10421
916.932	10413
917.044	10390
917.156	10333
917.268	10272
917.38	10337
917.491	10196
917.603	10287
917.715	10322
917.826	10360
917.938	10257
918.049	10234
918.161	10329
918.272	10481
918.384	10523
918.495	10352
918.606	10181
918.717	10131
918.828	10154
918.939	10246
919.05	10147
919.161	10188
919.272	9949
919.383	10059
919.494	10207
919.604	10440
919.715	10196
919.826	10101
919.936	10173
920.047	10303
920.157	10234
920.267	10367
920.378	10227
920.488	10211
920.598	10379
920.708	10504
920.818	10451
920.928	10428
921.038	10504
921.148	10489
921.258	10238
921.368	10154
921.477	10063
921.587	9968
921.697	9899
921.806	10040
921.916	9930
922.025	9785
922.134	9705
922.244	9755
922.353	9793
922.462	9762
922.571	9641
922.68	9477
922.789	9424
922.898	9496
923.007	9443
923.116	9443
923.224	9496
923.333	9462
923.442	9374
923.55	9325
923.659	9340
923.767	9428
923.876	9283
923.984	9313
924.092	9298
924.201	9264
924.309	9325
924.417	9389
924.525	9249
924.633	9291
924.741	10071
924.849	9138
924.956	9260
925.064	9074
925.172	8998
925.279	9123
925.387	9150
925.494	9135
925.602	9245
925.709	9180
925.816	9017
925.924	9116
926.031	9146
926.138	9131
926.245	9161
926.352	9009
926.459	9184
926.566	9264
926.673	9070
926.779	8933
926.886	8910
926.993	8857
927.099	8823
927.206	8739
927.312	8845
927.419	8868
927.525	8830
927.631	8941
927.737	8689
927.843	8773
927.95	8587
928.056	8739
928.162	8773
928.267	8811
928.373	9428
928.479	8845
928.585	8499
928.69	8667
928.796	8811
928.901	8590
929.007	8465
929.112	8613
929.218	8629
929.323	8545
929.428	8526
929.533	8697
929.638	8442
929.743	8518
929.848	8640
929.953	8552
930.058	8450
930.163	8328
930.267	8393
930.372	8427
930.477	8286
930.581	8522
930.685	8427
930.79	8263
930.894	8279
930.998	8244
931.103	8423
931.207	8020
931.311	8035
931.415	7883
931.519	7765
931.623	7849
