Data from test_V78500241_275.txt Node
Date: Fri Mar 25 14:35:38 CST 2022
User: usil
Spectrometer: V785-0024
Trigger mode: 0
Integration Time (sec): 4.000000E-1
Scans to average: 1
Nonlinearity correction enabled: false
Boxcar width: 0
Storing dark spectrum: false
XAxis mode: Wavelengths
Number of Pixels in Spectrum: 1024
>>>>>Begin Spectral Data<<<<<
801.071	27222
801.214	27317
801.356	26975
801.499	26826
801.641	26853
801.783	26765
801.926	26868
802.068	26651
802.211	26686
802.353	26594
802.496	26313
802.638	26358
802.78	26358
802.923	26317
803.065	26240
803.208	26210
803.35	26214
803.492	26434
803.635	26438
803.777	26336
803.919	26286
804.061	26602
804.204	26164
804.346	26191
804.488	26313
804.63	26336
804.773	26180
804.915	26195
805.057	26419
805.199	26275
805.341	26374
805.483	26355
805.626	26434
805.768	26157
805.91	26374
806.052	26343
806.194	26191
806.336	26552
806.478	26381
806.62	26256
806.762	26347
806.904	26583
807.046	26689
807.188	26743
807.33	26773
807.472	26834
807.614	26648
807.756	26781
807.898	26537
808.04	26526
808.182	26625
808.324	26583
808.465	26568
808.607	26743
808.749	26944
808.891	26952
809.033	27230
809.174	26899
809.316	26956
809.458	26910
809.6	26838
809.741	27032
809.883	26963
810.025	27089
810.166	27096
810.308	27043
810.45	26876
810.591	26895
810.733	26754
810.875	26556
811.016	26686
811.158	26549
811.299	26804
811.441	26746
811.582	26781
811.724	26655
811.865	26716
812.007	26602
812.148	26678
812.29	26792
812.431	26746
812.573	26929
812.714	27058
812.855	27047
812.997	27268
813.138	27344
813.279	27283
813.421	27017
813.562	27161
813.703	26853
813.845	26963
813.986	26594
814.127	26358
814.268	26320
814.41	26343
814.551	26282
814.692	26259
814.833	26244
814.974	26180
815.115	26237
815.256	26065
815.397	26126
815.539	26191
815.68	26024
815.821	25947
815.962	25974
816.103	25898
816.244	25906
816.385	25712
816.526	25746
816.666	25491
816.807	25400
816.948	25559
817.089	25449
817.23	25487
817.371	25388
817.512	25415
817.653	25377
817.793	25362
817.934	25430
818.075	25304
818.216	25304
818.356	25251
818.497	25183
818.638	25076
818.778	25148
818.919	25091
819.06	25000
819.2	25244
819.341	25141
819.481	25228
819.622	25449
819.762	25476
819.903	25559
820.043	25453
820.184	25335
820.324	25358
820.465	25324
820.605	25297
820.746	25183
820.886	25190
821.026	25190
821.167	25324
821.307	25377
821.447	25019
821.588	25137
821.728	25000
821.868	24787
822.008	24814
822.149	24661
822.289	24635
822.429	24452
822.569	24369
822.709	24327
822.849	24194
822.99	24243
823.13	24163
823.27	24045
823.41	23927
823.55	23977
823.69	23946
823.83	23958
823.97	23843
824.11	23843
824.25	23733
824.389	23790
824.529	23760
824.669	23676
824.809	23824
824.949	23851
825.089	23790
825.228	23836
825.368	23543
825.508	23627
825.648	23539
825.787	23497
825.927	23627
826.067	23581
826.206	23547
826.346	23566
826.485	23425
826.625	23528
826.765	23592
826.904	23516
827.044	23303
827.183	23269
827.323	23193
827.462	23132
827.601	23197
827.741	23079
827.88	23162
828.02	23060
828.159	23170
828.298	23121
828.437	23178
828.577	23147
828.716	23235
828.855	23033
828.994	22831
829.134	22946
829.273	22923
829.412	22816
829.551	22900
829.69	22862
829.829	22980
829.968	22930
830.107	22987
830.246	22911
830.385	22854
830.524	22820
830.663	22672
830.802	22672
830.941	22455
831.08	22322
831.219	22436
831.357	22542
831.496	22622
831.635	22516
831.774	22310
831.913	22230
832.051	22188
832.19	22158
832.329	22196
832.467	21987
832.606	21975
832.744	21972
832.883	22051
833.022	21926
833.16	22139
833.299	22223
833.437	22162
833.576	22173
833.714	22158
833.852	22029
833.991	22185
834.129	22268
834.267	22109
834.406	22154
834.544	22135
834.682	22048
834.821	21964
834.959	22303
835.097	22036
835.235	22177
835.373	22078
835.511	22029
835.65	22044
835.788	21876
835.926	21785
836.064	21705
836.202	21720
836.34	21865
836.478	21994
836.615	21911
836.753	21880
836.891	22013
837.029	21987
837.167	21922
837.305	21831
837.443	21800
837.58	21774
837.718	21804
837.856	21690
837.993	21675
838.131	21671
838.269	21671
838.406	21641
838.544	21576
838.681	21420
838.819	21485
838.956	21306
839.094	21066
839.231	21374
839.369	21279
839.506	21603
839.643	21359
839.781	21272
839.918	20998
840.055	21074
840.193	21123
840.33	21039
840.467	21051
840.604	21195
840.742	21359
840.879	20960
841.016	21104
841.153	21005
841.29	21135
841.427	21036
841.564	21089
841.701	21070
841.838	21024
841.975	20872
842.112	21085
842.249	20891
842.385	20796
842.522	21093
842.659	20853
842.796	20845
842.933	20804
843.069	20655
843.206	20746
843.343	20804
843.479	20781
843.616	20842
843.752	20575
843.889	20632
844.025	20705
844.162	20412
844.298	20697
844.435	20640
844.571	20480
844.708	20655
844.844	20594
844.98	20686
845.117	20693
845.253	20602
845.389	20450
845.525	20552
845.661	20575
845.798	20355
845.934	20511
846.07	20370
846.206	20575
846.342	20579
846.478	20408
846.614	20168
846.75	20020
846.886	20050
847.022	20088
847.158	20054
847.294	19982
847.429	20111
847.565	19887
847.701	20294
847.837	19677
847.972	19784
848.108	19989
848.244	19803
848.379	19567
848.515	19430
848.65	19529
848.786	19613
848.921	19518
849.057	19578
849.192	19674
849.328	19628
849.463	19544
849.598	19529
849.734	19582
849.869	19537
850.004	19343
850.14	19278
850.275	19308
850.41	19251
850.545	19213
850.68	19206
850.815	19438
850.95	19244
851.085	19476
851.22	19354
851.355	19251
851.49	19156
851.625	19407
851.76	19126
851.895	19171
852.03	19236
852.165	19304
852.299	19384
852.434	19304
852.569	19346
852.703	19316
852.838	19415
852.973	19369
853.107	19441
853.242	19217
853.376	19168
853.511	19053
853.645	19061
853.78	19236
853.914	19072
854.048	19126
854.183	19099
854.317	19076
854.451	19244
854.585	19114
854.72	19122
854.854	19095
854.988	19000
855.122	19126
855.256	18947
855.39	19023
855.524	19133
855.658	19236
855.792	19046
855.926	19050
856.06	19038
856.194	19164
856.327	19034
856.461	19000
856.595	19019
856.729	19057
856.862	19266
856.996	19122
857.13	19008
857.263	19156
857.397	19114
857.53	19076
857.664	19129
857.797	19088
857.931	19171
858.064	19061
858.197	19133
858.331	19084
858.464	18981
858.597	18924
858.731	19012
858.864	19038
858.997	19038
859.13	19099
859.263	19072
859.396	19069
859.529	19065
859.662	19053
859.795	19046
859.928	19091
860.061	19133
860.194	19198
860.327	19099
860.46	18970
860.592	19099
860.725	19095
860.858	19213
860.99	19148
861.123	18985
861.256	18924
861.388	19061
861.521	19571
861.653	18840
861.786	18791
861.918	18989
862.05	19050
862.183	19110
862.315	19107
862.447	19107
862.58	19061
862.712	18814
862.844	18817
862.976	18882
863.108	18821
863.24	19148
863.372	18654
863.504	18741
863.636	18859
863.768	18639
863.9	18833
864.032	18654
864.164	18696
864.296	18734
864.428	18821
864.559	18764
864.691	18867
864.823	18696
864.954	18776
865.086	18817
865.217	18677
865.349	18616
865.48	18703
865.612	18738
865.743	18764
865.875	18616
866.006	18688
866.137	18684
866.269	18711
866.4	18627
866.531	18547
866.662	18566
866.793	18635
866.924	18563
867.055	18642
867.186	18620
867.317	18635
867.448	18601
867.579	18620
867.71	18528
867.841	18464
867.972	18635
868.103	18525
868.233	18578
868.364	18669
868.495	18783
868.625	18821
868.756	18943
868.886	18776
869.017	18783
869.147	18897
869.278	18909
869.408	18726
869.539	18817
869.669	18798
869.799	18825
869.929	18909
870.06	19004
870.19	19137
870.32	18996
870.45	19175
870.58	19168
870.71	19263
870.84	19381
870.97	19301
871.1	19137
871.23	19441
871.36	19407
871.489	19266
871.619	19343
871.749	19422
871.879	19419
872.008	19502
872.138	19438
872.267	19369
872.397	19232
872.526	19263
872.656	19282
872.785	19255
872.915	19419
873.044	19567
873.173	19434
873.303	19449
873.432	19521
873.561	19540
873.69	19362
873.819	19472
873.948	19419
874.077	19453
874.206	19441
874.335	19426
874.464	19624
874.593	19658
874.722	19655
874.851	19708
874.979	19712
875.108	19845
875.237	19727
875.365	19647
875.494	19681
875.623	19769
875.751	19658
875.88	19731
876.008	19883
876.136	19856
876.265	20126
876.393	20309
876.521	20126
876.65	20233
876.778	20256
876.906	20122
877.034	20107
877.162	19997
877.29	19936
877.418	20176
877.546	20073
877.674	20157
877.802	20069
877.93	20096
878.058	20058
878.185	20005
878.313	20092
878.441	20054
878.568	20016
878.696	20221
878.824	20111
878.951	20176
879.079	20275
879.206	20385
879.333	20328
879.461	20088
879.588	20320
879.715	20366
879.842	20396
879.97	20168
880.097	19951
880.224	19906
880.351	20058
880.478	19982
880.605	19974
880.732	19955
880.859	20157
880.986	20008
881.112	19986
881.239	19811
881.366	19780
881.493	19651
881.619	19635
881.746	19567
881.872	19487
881.999	19616
882.125	19525
882.252	19601
882.378	19594
882.505	19765
882.631	19571
882.757	19346
882.883	19335
883.01	19403
883.136	19270
883.262	19255
883.388	19168
883.514	19304
883.64	19354
883.766	19251
883.892	19133
884.018	19168
884.143	19221
884.269	19278
884.395	19065
884.52	19034
884.646	19004
884.772	18905
884.897	18939
885.023	18882
885.148	19046
885.274	19088
885.399	18993
885.524	18985
885.65	18954
885.775	19031
885.9	18981
886.025	19019
886.15	18954
886.275	18882
886.4	18795
886.525	18901
886.65	18852
886.775	18863
886.9	18996
887.025	19129
887.149	18909
887.274	18730
887.399	18741
887.523	18688
887.648	18658
887.773	18673
887.897	18703
888.021	18745
888.146	18681
888.27	18821
888.395	18844
888.519	18833
888.643	18711
888.767	18848
888.891	18563
889.015	18418
889.139	18547
889.263	18460
889.387	18719
889.511	18597
889.635	18681
889.759	18490
889.883	18506
890.006	18467
890.13	18555
890.254	18365
890.377	18410
890.501	18353
890.624	18163
890.748	18471
890.871	18304
890.995	18083
891.118	18083
891.241	18194
891.364	18102
891.488	18247
891.611	18110
891.734	18239
891.857	18201
891.98	18133
892.103	18178
892.226	18277
892.349	18083
892.471	17965
892.594	18095
892.717	18117
892.839	18201
892.962	18072
893.085	18247
893.207	18121
893.33	18007
893.452	18053
893.575	18133
893.697	18091
893.819	18216
893.941	18277
894.064	18110
894.186	17984
894.308	18019
894.43	18171
894.552	18228
894.674	18121
894.796	17908
894.918	18087
895.04	18041
895.161	18098
895.283	18072
895.405	18064
895.526	18155
895.648	18060
895.769	18003
895.891	18152
896.012	18273
896.134	18190
896.255	18106
896.376	18068
896.498	18152
896.619	18133
896.74	18155
896.861	18308
896.982	18498
897.103	18578
897.224	18426
897.345	18441
897.466	18213
897.587	18338
897.708	18509
897.828	18452
897.949	18304
898.07	18205
898.19	18319
898.311	18414
898.431	18304
898.552	18479
898.672	18471
898.792	18528
898.913	18380
899.033	18266
899.153	18186
899.273	17977
899.393	18121
899.513	18019
899.633	18140
899.753	18197
899.873	18163
899.993	18117
900.113	17980
900.232	18209
900.352	18064
900.472	17935
900.591	17935
900.711	17950
900.83	17859
900.95	17977
901.069	18091
901.189	17885
901.308	17729
901.427	17524
901.546	17661
901.665	17543
901.784	17737
901.904	17410
902.023	17452
902.141	17094
902.26	17113
902.379	17159
902.498	17136
902.617	17117
902.735	17045
902.854	16987
902.973	16972
903.091	16778
903.21	16744
903.328	16740
903.446	16698
903.565	16687
903.683	16596
903.801	16500
903.919	16561
904.038	16569
904.156	16310
904.274	16447
904.392	16303
904.51	16314
904.627	16329
904.745	16462
904.863	16470
904.981	16200
905.098	16017
905.216	16071
905.334	15998
905.451	16010
905.569	15854
905.686	16067
905.803	16002
905.921	15797
906.038	15926
906.155	15751
906.272	15701
906.389	15766
906.506	15610
906.623	15557
906.74	15526
906.857	15534
906.974	15389
907.091	15648
907.208	15720
907.324	15572
907.441	15523
907.557	15272
907.674	15256
907.79	15245
907.907	15264
908.023	15291
908.139	15260
908.256	15252
908.372	15119
908.488	15085
908.604	15005
908.72	14990
908.836	14971
908.952	14899
909.068	14861
909.184	15055
909.3	14891
909.415	14990
909.531	14967
909.647	14716
909.762	14636
909.878	14636
909.993	14765
910.108	14670
910.224	14598
910.339	14678
910.454	14564
910.57	14488
910.685	14438
910.8	14697
910.915	14678
911.03	14526
911.145	14355
911.259	14347
911.374	14305
911.489	14233
911.604	14164
911.718	14016
911.833	14088
911.947	13852
912.062	13826
912.176	14046
912.291	14119
912.405	14050
912.519	14256
912.633	14225
912.748	14069
912.862	14100
912.976	13856
913.09	13784
913.204	13784
913.318	13795
913.431	14016
913.545	13917
913.659	14005
913.772	13967
913.886	13826
914	13723
914.113	13902
914.226	13860
914.34	13845
914.453	13567
914.566	13833
914.68	13620
914.793	13506
914.906	13457
915.019	13411
915.132	13327
915.245	13441
915.358	13449
915.47	13289
915.583	13381
915.696	13415
915.809	13548
915.921	13392
916.034	13327
916.146	13183
916.259	13209
916.371	13354
916.483	13301
916.595	13236
916.708	13327
916.82	13324
916.932	13225
917.044	13274
917.156	13137
917.268	13031
917.38	13088
917.491	13023
917.603	13080
917.715	13114
917.826	13225
917.938	13038
918.049	12886
918.161	12973
918.272	13107
918.384	13133
918.495	13008
918.606	12909
918.717	12943
918.828	12897
918.939	12905
919.05	12776
919.161	12882
919.272	12627
919.383	12730
919.494	12932
919.604	13019
919.715	12783
919.826	12738
919.936	12726
920.047	12863
920.157	12779
920.267	13034
920.378	12901
920.488	12757
920.598	12973
920.708	13156
920.818	12977
920.928	12996
921.038	13107
921.148	13046
921.258	12814
921.368	12741
921.477	12563
921.587	12570
921.697	12369
921.806	12585
921.916	12464
922.025	12330
922.134	12266
922.244	12251
922.353	12224
922.462	12197
922.571	12022
922.68	11889
922.789	11836
922.898	11870
923.007	11916
923.116	11958
923.224	11878
923.333	11897
923.442	11817
923.55	11779
923.659	11760
923.767	11805
923.876	11767
923.984	11764
924.092	11653
924.201	11722
924.309	11703
924.417	11710
924.525	11589
924.633	11615
924.741	12574
924.849	11467
924.956	11653
925.064	11478
925.172	11395
925.279	11417
925.387	11406
925.494	11463
925.602	11474
925.709	11455
925.816	11414
925.924	11395
926.031	11440
926.138	11425
926.245	11482
926.352	11334
926.459	11410
926.566	11452
926.673	11345
926.779	11132
926.886	11235
926.993	11151
927.099	11048
927.206	10953
927.312	10972
927.419	11003
927.525	10976
927.631	11056
927.737	10965
927.843	10915
927.95	10755
928.056	10919
928.162	10904
928.267	10968
928.373	11379
928.479	11018
928.585	10812
928.69	10869
928.796	10911
928.901	10801
929.007	10660
929.112	10820
929.218	10733
929.323	10664
929.428	10675
929.533	10843
929.638	10538
929.743	10607
929.848	10634
929.953	10615
930.058	10535
930.163	10363
930.267	10413
930.372	10474
930.477	10227
930.581	10599
930.685	10386
930.79	10207
930.894	10280
930.998	10192
931.103	10405
931.207	10055
931.311	9861
931.415	9876
931.519	9641
931.623	9705
