Data from test_V78500241_1356.txt Node
Date: Fri Mar 25 14:43:09 CST 2022
User: usil
Spectrometer: V785-0024
Trigger mode: 0
Integration Time (sec): 4.000000E-1
Scans to average: 1
Nonlinearity correction enabled: false
Boxcar width: 0
Storing dark spectrum: false
XAxis mode: Wavelengths
Number of Pixels in Spectrum: 1024
>>>>>Begin Spectral Data<<<<<
801.071	22352
801.214	22344
801.356	22032
801.499	21861
801.641	21804
801.783	21838
801.926	21789
802.068	21633
802.211	21644
802.353	21614
802.496	21336
802.638	21188
802.78	21336
802.923	21226
803.065	21116
803.208	21005
803.35	21211
803.492	21093
803.635	21256
803.777	21116
803.919	21226
804.061	21351
804.204	21252
804.346	21116
804.488	20982
804.63	21062
804.773	20963
804.915	21165
805.057	21089
805.199	21005
805.341	21131
805.483	21169
805.626	21138
805.768	20956
805.91	21142
806.052	21043
806.194	21013
806.336	21150
806.478	21017
806.62	20979
806.762	20994
806.904	21192
807.046	21397
807.188	21473
807.33	21393
807.472	21458
807.614	21275
807.756	21264
807.898	21329
808.04	21161
808.182	21146
808.324	21249
808.465	21317
808.607	21610
808.749	21622
808.891	21679
809.033	21899
809.174	21793
809.316	21622
809.458	21534
809.6	21382
809.741	21477
809.883	21644
810.025	21705
810.166	21580
810.308	21545
810.45	21504
810.591	21496
810.733	21447
810.875	21283
811.016	21093
811.158	21108
811.299	21313
811.441	21367
811.582	21359
811.724	21218
811.865	21237
812.007	21108
812.148	21233
812.29	21226
812.431	21443
812.573	21511
812.714	21614
812.855	21816
812.997	21854
813.138	21998
813.279	21759
813.421	21720
813.562	21625
813.703	21344
813.845	21378
813.986	21127
814.127	20982
814.268	20777
814.41	20762
814.551	20655
814.692	20967
814.833	20644
814.974	20720
815.115	20811
815.256	20609
815.397	20648
815.539	20606
815.68	20473
815.821	20431
815.962	20377
816.103	20427
816.244	20336
816.385	20320
816.526	20195
816.666	20069
816.807	19894
816.948	19913
817.089	19967
817.23	19997
817.371	19799
817.512	19940
817.653	19913
817.793	19837
817.934	19913
818.075	19890
818.216	20012
818.356	19932
818.497	19753
818.638	19639
818.778	19677
818.919	19537
819.06	19666
819.2	19708
819.341	19723
819.481	19788
819.622	19947
819.762	20206
819.903	20069
820.043	19940
820.184	19898
820.324	20020
820.465	20062
820.605	19868
820.746	19795
820.886	19738
821.026	19963
821.167	19727
821.307	19906
821.447	19780
821.588	19559
821.728	19537
821.868	19449
822.008	19327
822.149	19289
822.289	19320
822.429	19027
822.569	18973
822.709	19046
822.849	18757
822.99	18776
823.13	18684
823.27	18829
823.41	18684
823.55	18551
823.69	18528
823.83	18623
823.97	18540
824.11	18467
824.25	18338
824.389	18452
824.529	18456
824.669	18410
824.809	18433
824.949	18433
825.089	18464
825.228	18456
825.368	18182
825.508	18152
825.648	18102
825.787	18163
825.927	18251
826.067	18098
826.206	18091
826.346	18136
826.485	18114
826.625	18106
826.765	18338
826.904	18117
827.044	17958
827.183	17950
827.323	17836
827.462	17950
827.601	17733
827.741	17824
827.88	17920
828.02	17722
828.159	17813
828.298	17931
828.437	17824
828.577	17756
828.716	17927
828.855	17745
828.994	17668
829.134	17547
829.273	17630
829.412	17501
829.551	17512
829.69	17493
829.829	17649
829.968	17745
830.107	17657
830.246	17608
830.385	17539
830.524	17512
830.663	17459
830.802	17288
830.941	17147
831.08	17223
831.219	17231
831.357	17269
831.496	17379
831.635	17178
831.774	17105
831.913	17029
832.051	16911
832.19	16946
832.329	16961
832.467	16919
832.606	16850
832.744	16869
832.883	16866
833.022	16809
833.16	16965
833.299	16976
833.437	16900
833.576	17003
833.714	16839
833.852	17045
833.991	17014
834.129	17048
834.267	17037
834.406	16987
834.544	16987
834.682	17014
834.821	16858
834.959	17090
835.097	16987
835.235	16946
835.373	16961
835.511	17083
835.65	16911
835.788	16866
835.926	16675
836.064	16729
836.202	16774
836.34	16866
836.478	16942
836.615	16889
836.753	16847
836.891	16927
837.029	16839
837.167	16828
837.305	16801
837.443	16793
837.58	16782
837.718	16858
837.856	16721
837.993	16641
838.131	16698
838.269	16645
838.406	16675
838.544	16687
838.681	16504
838.819	16398
838.956	16318
839.094	16207
839.231	16337
839.369	16466
839.506	16740
839.643	16478
839.781	16276
839.918	16337
840.055	16348
840.193	16276
840.33	16200
840.467	16226
840.604	16371
840.742	16569
840.879	16124
841.016	16196
841.153	16234
841.29	16432
841.427	16348
841.564	16371
841.701	16272
841.838	16166
841.975	16120
842.112	16173
842.249	16059
842.385	16010
842.522	16207
842.659	16059
842.796	16025
842.933	16051
843.069	16010
843.206	16025
843.343	16116
843.479	16204
843.616	16044
843.752	15766
843.889	15804
844.025	15926
844.162	15797
844.298	16044
844.435	15838
844.571	15850
844.708	15869
844.844	15846
844.98	15975
845.117	16101
845.253	15766
845.389	15804
845.525	15857
845.661	15861
845.798	15922
845.934	15975
846.07	15926
846.206	15934
846.342	15972
846.478	15724
846.614	15530
846.75	15355
846.886	15443
847.022	15439
847.158	15374
847.294	15458
847.429	15363
847.565	15313
847.701	15526
847.837	15169
847.972	15093
848.108	15317
848.244	15256
848.379	15024
848.515	15028
848.65	14906
848.786	14948
848.921	15077
849.057	15093
849.192	15207
849.328	15116
849.463	15051
849.598	14944
849.734	14967
849.869	14944
850.004	14743
850.14	14872
850.275	14819
850.41	14686
850.545	14708
850.68	14754
850.815	14857
850.95	14701
851.085	14857
851.22	14842
851.355	14765
851.49	14758
851.625	14777
851.76	14804
851.895	14579
852.03	14727
852.165	14739
852.299	14739
852.434	14891
852.569	14769
852.703	14914
852.838	14811
852.973	14902
853.107	14834
853.242	14781
853.376	14610
853.511	14507
853.645	14552
853.78	14853
853.914	14758
854.048	14579
854.183	14575
854.317	14670
854.451	14796
854.585	14610
854.72	14541
854.854	14648
854.988	14556
855.122	14545
855.256	14457
855.39	14564
855.524	14678
855.658	14720
855.792	14640
855.926	14648
856.06	14674
856.194	14648
856.327	14644
856.461	14541
856.595	14522
856.729	14590
856.862	14670
856.996	14659
857.13	14682
857.263	14693
857.397	14758
857.53	14697
857.664	14648
857.797	14640
857.931	14769
858.064	14602
858.197	14640
858.331	14644
858.464	14640
858.597	14518
858.731	14625
858.864	14613
858.997	14537
859.13	14655
859.263	14724
859.396	14746
859.529	14644
859.662	14651
859.795	14632
859.928	14667
860.061	14876
860.194	14796
860.327	14655
860.46	14667
860.592	14716
860.725	14796
860.858	14617
860.99	14552
861.123	14564
861.256	14613
861.388	14610
861.521	15313
861.653	14495
861.786	14461
861.918	14465
862.05	14473
862.183	14507
862.315	14617
862.447	14750
862.58	14537
862.712	14469
862.844	14328
862.976	14488
863.108	14469
863.24	14693
863.372	14434
863.504	14412
863.636	14408
863.768	14549
863.9	14362
864.032	14313
864.164	14275
864.296	14438
864.428	14530
864.559	14454
864.691	14579
864.823	14404
864.954	14530
865.086	14298
865.217	14438
865.349	14282
865.48	14324
865.612	14446
865.743	14503
865.875	14370
866.006	14377
866.137	14412
866.269	14370
866.4	14415
866.531	14305
866.662	14355
866.793	14480
866.924	14385
867.055	14404
867.186	14298
867.317	14267
867.448	14290
867.579	14259
867.71	14309
867.841	14214
867.972	14446
868.103	14362
868.233	14305
868.364	14370
868.495	14396
868.625	14590
868.756	14670
868.886	14526
869.017	14625
869.147	14731
869.278	14735
869.408	14602
869.539	14693
869.669	14659
869.799	14689
869.929	14739
870.06	14864
870.19	14910
870.32	14921
870.45	14956
870.58	15062
870.71	15100
870.84	15085
870.97	15142
871.1	15055
871.23	15207
871.36	15249
871.489	15211
871.619	15173
871.749	15199
871.879	15199
872.008	15332
872.138	15188
872.267	15104
872.397	15093
872.526	15097
872.656	15116
872.785	15100
872.915	15260
873.044	15340
873.173	15161
873.303	15294
873.432	15393
873.561	15313
873.69	15382
873.819	15252
873.948	15260
874.077	15317
874.206	15298
874.335	15233
874.464	15431
874.593	15561
874.722	15530
874.851	15652
874.979	15519
875.108	15671
875.237	15557
875.365	15576
875.494	15587
875.623	15641
875.751	15572
875.88	15576
876.008	15785
876.136	15728
876.265	16029
876.393	16116
876.521	16082
876.65	16055
876.778	15934
876.906	16002
877.034	15937
877.162	16048
877.29	15964
877.418	15930
877.546	15899
877.674	16021
877.802	16029
877.93	15979
878.058	15937
878.185	15888
878.313	16090
878.441	16010
878.568	15846
878.696	15895
878.824	16040
878.951	16071
879.079	16265
879.206	16394
879.333	16356
879.461	16207
879.588	16223
879.715	16344
879.842	16519
879.97	16109
880.097	16002
880.224	15876
880.351	15979
880.478	15979
880.605	15857
880.732	15869
880.859	16025
880.986	16017
881.112	15930
881.239	15778
881.366	15584
881.493	15663
881.619	15557
881.746	15526
881.872	15492
881.999	15469
882.125	15431
882.252	15591
882.378	15557
882.505	15663
882.631	15435
882.757	15401
882.883	15424
883.01	15408
883.136	15291
883.262	15154
883.388	15127
883.514	15450
883.64	15329
883.766	15405
883.892	15169
884.018	15211
884.143	15302
884.269	15447
884.395	15116
884.52	15009
884.646	14960
884.772	14944
884.897	14937
885.023	15081
885.148	15287
885.274	15241
885.399	15195
885.524	15077
885.65	15039
885.775	15055
885.9	14948
886.025	15131
886.15	15097
886.275	15051
886.4	14990
886.525	14998
886.65	14967
886.775	14910
886.9	15188
887.025	15272
887.149	15058
887.274	14853
887.399	14807
887.523	14895
887.648	14807
887.773	14701
887.897	14918
888.021	14876
888.146	14792
888.27	15024
888.395	14975
888.519	14838
888.643	14963
888.767	14891
888.891	14777
889.015	14659
889.139	14800
889.263	14735
889.387	14826
889.511	14887
889.635	14857
889.759	14663
889.883	14659
890.006	14773
890.13	14842
890.254	14670
890.377	14689
890.501	14488
890.624	14495
890.748	14697
890.871	14507
890.995	14332
891.118	14286
891.241	14438
891.364	14503
891.488	14476
891.611	14408
891.734	14408
891.857	14465
891.98	14492
892.103	14507
892.226	14366
892.349	14370
892.471	14301
892.594	14381
892.717	14457
892.839	14438
892.962	14374
893.085	14537
893.207	14469
893.33	14244
893.452	14290
893.575	14556
893.697	14347
893.819	14613
893.941	14636
894.064	14518
894.186	14404
894.308	14313
894.43	14610
894.552	14545
894.674	14533
894.796	14396
894.918	14434
895.04	14442
895.161	14518
895.283	14480
895.405	14415
895.526	14389
895.648	14507
895.769	14533
895.891	14537
896.012	14632
896.134	14533
896.255	14564
896.376	14396
896.498	14488
896.619	14651
896.74	14598
896.861	14621
896.982	14838
897.103	15074
897.224	14739
897.345	14739
897.466	14743
897.587	14842
897.708	14986
897.828	14861
897.949	14838
898.07	14705
898.19	14826
898.311	14861
898.431	14762
898.552	14937
898.672	14925
898.792	14906
898.913	14941
899.033	14815
899.153	14682
899.273	14743
899.393	14731
899.513	14724
899.633	14689
899.753	14716
899.873	14716
899.993	14720
900.113	14853
900.232	14765
900.352	14754
900.472	14701
900.591	14613
900.711	14583
900.83	14514
900.95	14682
901.069	14788
901.189	14610
901.308	14332
901.427	14263
901.546	14282
901.665	14271
901.784	14294
901.904	14145
902.023	14054
902.141	13852
902.26	13849
902.379	13887
902.498	13826
902.617	13803
902.735	13795
902.854	13849
902.973	13704
903.091	13597
903.21	13601
903.328	13605
903.446	13502
903.565	13430
903.683	13411
903.801	13278
903.919	13430
904.038	13362
904.156	13244
904.274	13327
904.392	13190
904.51	13156
904.627	13278
904.745	13190
904.863	13266
904.981	12924
905.098	12989
905.216	12875
905.334	13008
905.451	12863
905.569	12867
905.686	12859
905.803	12932
905.921	12711
906.038	12791
906.155	12757
906.272	12582
906.389	12593
906.506	12521
906.623	12471
906.74	12483
906.857	12399
906.974	12365
907.091	12521
907.208	12597
907.324	12574
907.441	12369
907.557	12152
907.674	12220
907.79	12285
907.907	12235
908.023	12308
908.139	12285
908.256	12213
908.372	12148
908.488	12140
908.604	11961
908.72	11870
908.836	12072
908.952	11961
909.068	12121
909.184	12091
909.3	12030
909.415	12121
909.531	12026
909.647	11756
909.762	11722
909.878	11649
909.993	11783
910.108	11737
910.224	11748
910.339	11752
910.454	11623
910.57	11684
910.685	11501
910.8	11821
910.915	11710
911.03	11653
911.145	11383
911.259	11410
911.374	11433
911.489	11376
911.604	11356
911.718	11227
911.833	11170
911.947	11159
912.062	11048
912.176	11155
912.291	11170
912.405	11254
912.519	11364
912.633	11353
912.748	11246
912.862	11162
912.976	11124
913.09	10930
913.204	11033
913.318	11086
913.431	11140
913.545	11151
913.659	11242
913.772	11124
913.886	10961
914	10942
914.113	11006
914.226	11022
914.34	11052
914.453	10850
914.566	11033
914.68	10915
914.793	10854
914.906	10679
915.019	10653
915.132	10618
915.245	10786
915.358	10668
915.47	10774
915.583	10740
915.696	10778
915.809	10961
915.921	10873
916.034	10691
916.146	10649
916.259	10660
916.371	10721
916.483	10767
916.595	10596
916.708	10584
916.82	10653
916.932	10538
917.044	10660
917.156	10596
917.268	10516
917.38	10577
917.491	10588
917.603	10527
917.715	10592
917.826	10691
917.938	10527
918.049	10440
918.161	10596
918.272	10675
918.384	10733
918.495	10546
918.606	10375
918.717	10382
918.828	10440
918.939	10440
919.05	10348
919.161	10405
919.272	10215
919.383	10295
919.494	10481
919.604	10611
919.715	10508
919.826	10424
919.936	10413
920.047	10538
920.157	10436
920.267	10755
920.378	10504
920.488	10459
920.598	10656
920.708	10801
920.818	10668
920.928	10588
921.038	10801
921.148	10721
921.258	10512
921.368	10443
921.477	10329
921.587	10280
921.697	10204
921.806	10333
921.916	10158
922.025	10063
922.134	9979
922.244	9911
922.353	10044
922.462	9876
922.571	9861
922.68	9728
922.789	9671
922.898	9804
923.007	9618
923.116	9740
923.224	9629
923.333	9698
923.442	9549
923.55	9526
923.659	9591
923.767	9614
923.876	9576
923.984	9553
924.092	9500
924.201	9561
924.309	9564
924.417	9564
924.525	9595
924.633	9519
924.741	10470
924.849	9348
924.956	9450
925.064	9253
925.172	9275
925.279	9283
925.387	9370
925.494	9302
925.602	9428
925.709	9473
925.816	9249
925.924	9367
926.031	9424
926.138	9435
926.245	9412
926.352	9294
926.459	9408
926.566	9507
926.673	9351
926.779	9142
926.886	9157
926.993	9104
927.099	9005
927.206	9024
927.312	9055
927.419	9055
927.525	8986
927.631	9070
927.737	8982
927.843	8994
927.95	8899
928.056	8899
928.162	8941
928.267	8933
928.373	9637
928.479	9066
928.585	8701
928.69	8910
928.796	8944
928.901	8891
929.007	8754
929.112	8872
929.218	8750
929.323	8750
929.428	8750
929.533	8952
929.638	8667
929.743	8720
929.848	8788
929.953	8792
930.058	8716
930.163	8514
930.267	8533
930.372	8640
930.477	8541
930.581	8682
930.685	8594
930.79	8476
930.894	8514
930.998	8427
931.103	8606
931.207	8218
931.311	8142
931.415	8149
931.519	7944
931.623	7982
