Data from test_V78500241_2277.txt Node
Date: Fri Mar 25 14:49:34 CST 2022
User: usil
Spectrometer: V785-0024
Trigger mode: 0
Integration Time (sec): 4.000000E-1
Scans to average: 1
Nonlinearity correction enabled: false
Boxcar width: 0
Storing dark spectrum: false
XAxis mode: Wavelengths
Number of Pixels in Spectrum: 1024
>>>>>Begin Spectral Data<<<<<
801.071	22154
801.214	22067
801.356	21869
801.499	21762
801.641	21587
801.783	21530
801.926	21603
802.068	21447
802.211	21291
802.353	21351
802.496	21154
802.638	21062
802.78	20944
802.923	20880
803.065	20864
803.208	20781
803.35	20887
803.492	20910
803.635	21062
803.777	20807
803.919	21001
804.061	21237
804.204	20864
804.346	20826
804.488	20804
804.63	20788
804.773	20796
804.915	20788
805.057	20902
805.199	20746
805.341	20883
805.483	20849
805.626	20918
805.768	20739
805.91	20800
806.052	20838
806.194	20708
806.336	20823
806.478	20758
806.62	20735
806.762	20929
806.904	20982
807.046	21218
807.188	21169
807.33	21146
807.472	21142
807.614	21039
807.756	21062
807.898	20918
808.04	20785
808.182	20876
808.324	20944
808.465	20960
808.607	21119
808.749	21272
808.891	21230
809.033	21359
809.174	21260
809.316	21142
809.458	21192
809.6	21112
809.741	21245
809.883	21264
810.025	21272
810.166	21237
810.308	21317
810.45	21310
810.591	21214
810.733	21096
810.875	20956
811.016	20849
811.158	20842
811.299	21058
811.441	21081
811.582	21081
811.724	20937
811.865	20857
812.007	20891
812.148	20979
812.29	20883
812.431	21165
812.573	21241
812.714	21317
812.855	21420
812.997	21542
813.138	21595
813.279	21622
813.421	21393
813.562	21363
813.703	21184
813.845	21081
813.986	20785
814.127	20762
814.268	20731
814.41	20590
814.551	20560
814.692	20594
814.833	20419
814.974	20351
815.115	20476
815.256	20313
815.397	20374
815.539	20377
815.68	20168
815.821	20111
815.962	20290
816.103	20176
816.244	20069
816.385	19928
816.526	20001
816.666	19746
816.807	19723
816.948	19791
817.089	19750
817.23	19727
817.371	19685
817.512	19578
817.653	19613
817.793	19643
817.934	19696
818.075	19689
818.216	19632
818.356	19537
818.497	19480
818.638	19202
818.778	19282
818.919	19320
819.06	19316
819.2	19419
819.341	19464
819.481	19411
819.622	19578
819.762	19784
819.903	19712
820.043	19624
820.184	19453
820.324	19655
820.465	19533
820.605	19658
820.746	19548
820.886	19510
821.026	19514
821.167	19521
821.307	19639
821.447	19518
821.588	19464
821.728	19198
821.868	19137
822.008	19000
822.149	18996
822.289	18897
822.429	18817
822.569	18726
822.709	18692
822.849	18391
822.99	18490
823.13	18525
823.27	18578
823.41	18361
823.55	18273
823.69	18410
823.83	18273
823.97	18117
824.11	17942
824.25	18095
824.389	18034
824.529	18102
824.669	18022
824.809	18152
824.949	18190
825.089	18129
825.228	18114
825.368	17897
825.508	17779
825.648	17908
825.787	17882
825.927	17927
826.067	17748
826.206	17828
826.346	17866
826.485	17954
826.625	17813
826.765	17942
826.904	17817
827.044	17691
827.183	17532
827.323	17520
827.462	17661
827.601	17562
827.741	17627
827.88	17547
828.02	17467
828.159	17425
828.298	17532
828.437	17570
828.577	17524
828.716	17630
828.855	17455
828.994	17330
829.134	17220
829.273	17273
829.412	17208
829.551	17227
829.69	17315
829.829	17197
829.968	17376
830.107	17345
830.246	17307
830.385	17132
830.524	17155
830.663	17185
830.802	17037
830.941	16934
831.08	16816
831.219	16965
831.357	16881
831.496	17147
831.635	16965
831.774	16740
831.913	16778
832.051	16702
832.19	16736
832.329	16725
832.467	16596
832.606	16569
832.744	16542
832.883	16546
833.022	16558
833.16	16687
833.299	16615
833.437	16656
833.576	16634
833.714	16554
833.852	16698
833.991	16577
834.129	16634
834.267	16626
834.406	16489
834.544	16641
834.682	16645
834.821	16569
834.959	16786
835.097	16634
835.235	16611
835.373	16577
835.511	16672
835.65	16584
835.788	16489
835.926	16352
836.064	16253
836.202	16371
836.34	16527
836.478	16634
836.615	16508
836.753	16508
836.891	16519
837.029	16584
837.167	16577
837.305	16424
837.443	16367
837.58	16367
837.718	16527
837.856	16417
837.993	16314
838.131	16333
838.269	16344
838.406	16337
838.544	16188
838.681	16124
838.819	16093
838.956	15945
839.094	15915
839.231	15983
839.369	16101
839.506	16371
839.643	16223
839.781	15941
839.918	15850
840.055	15972
840.193	15861
840.33	15892
840.467	16017
840.604	15884
840.742	16238
840.879	15857
841.016	15835
841.153	15854
841.29	16006
841.427	15960
841.564	15979
841.701	15888
841.838	15945
841.975	15808
842.112	15934
842.249	15873
842.385	15781
842.522	15945
842.659	15770
842.796	15785
842.933	15656
843.069	15736
843.206	15709
843.343	15888
843.479	15759
843.616	15797
843.752	15428
843.889	15599
844.025	15663
844.162	15523
844.298	15603
844.435	15580
844.571	15523
844.708	15534
844.844	15720
844.98	15618
845.117	15686
845.253	15420
845.389	15378
845.525	15443
845.661	15367
845.798	15359
845.934	15420
846.07	15332
846.206	15310
846.342	15488
846.478	15275
846.614	15173
846.75	15097
846.886	15013
847.022	15135
847.158	15070
847.294	15142
847.429	15157
847.565	15119
847.701	15294
847.837	14872
847.972	14781
848.108	14948
848.244	14971
848.379	14720
848.515	14636
848.65	14667
848.786	14781
848.921	14625
849.057	14796
849.192	14739
849.328	14727
849.463	14754
849.598	14651
849.734	14571
849.869	14549
850.004	14450
850.14	14412
850.275	14442
850.41	14377
850.545	14396
850.68	14446
850.815	14560
850.95	14415
851.085	14670
851.22	14602
851.355	14389
851.49	14385
851.625	14457
851.76	14434
851.895	14336
852.03	14347
852.165	14415
852.299	14415
852.434	14476
852.569	14533
852.703	14579
852.838	14469
852.973	14545
853.107	14602
853.242	14533
853.376	14370
853.511	14278
853.645	14313
853.78	14415
853.914	14278
854.048	14343
854.183	14202
854.317	14339
854.451	14507
854.585	14267
854.72	14229
854.854	14343
854.988	14142
855.122	14381
855.256	14199
855.39	14313
855.524	14320
855.658	14301
855.792	14305
855.926	14339
856.06	14412
856.194	14427
856.327	14309
856.461	14282
856.595	14221
856.729	14248
856.862	14442
856.996	14339
857.13	14412
857.263	14415
857.397	14381
857.53	14320
857.664	14393
857.797	14419
857.931	14469
858.064	14351
858.197	14358
858.331	14317
858.464	14328
858.597	14153
858.731	14404
858.864	14294
858.997	14282
859.13	14362
859.263	14282
859.396	14355
859.529	14385
859.662	14229
859.795	14271
859.928	14278
860.061	14476
860.194	14484
860.327	14301
860.46	14317
860.592	14389
860.725	14412
860.858	14488
860.99	14256
861.123	14199
861.256	14233
861.388	14309
861.521	14849
861.653	14214
861.786	14119
861.918	14180
862.05	14130
862.183	14377
862.315	14218
862.447	14347
862.58	14229
862.712	14142
862.844	14031
862.976	14221
863.108	14077
863.24	14385
863.372	13970
863.504	14050
863.636	14069
863.768	14191
863.9	14035
864.032	13932
864.164	14111
864.296	14065
864.428	14240
864.559	14176
864.691	14183
864.823	14103
864.954	14164
865.086	14088
865.217	14035
865.349	13951
865.48	14115
865.612	14111
865.743	14259
865.875	14115
866.006	13978
866.137	14092
866.269	14081
866.4	14092
866.531	14050
866.662	13936
866.793	13993
866.924	13986
867.055	14031
867.186	14062
867.317	14005
867.448	13970
867.579	13982
867.71	14043
867.841	13936
867.972	14103
868.103	14084
868.233	14100
868.364	14016
868.495	14180
868.625	14309
868.756	14358
868.886	14278
869.017	14275
869.147	14415
869.278	14427
869.408	14339
869.539	14298
869.669	14404
869.799	14434
869.929	14480
870.06	14484
870.19	14629
870.32	14552
870.45	14739
870.58	14701
870.71	14765
870.84	14864
870.97	14750
871.1	14678
871.23	14956
871.36	14921
871.489	14811
871.619	14880
871.749	14796
871.879	14941
872.008	15024
872.138	14948
872.267	14952
872.397	14754
872.526	14708
872.656	14689
872.785	14705
872.915	14899
873.044	14944
873.173	14838
873.303	15013
873.432	14960
873.561	15077
873.69	14941
873.819	14982
873.948	15119
874.077	14899
874.206	14952
874.335	14975
874.464	15161
874.593	15230
874.722	15222
874.851	15245
874.979	15294
875.108	15199
875.237	15108
875.365	15195
875.494	15184
875.623	15401
875.751	15218
875.88	15367
876.008	15443
876.136	15488
876.265	15633
876.393	15755
876.521	15819
876.65	15812
876.778	15690
876.906	15660
877.034	15618
877.162	15682
877.29	15568
877.418	15709
877.546	15739
877.674	15690
877.802	15644
877.93	15660
878.058	15679
878.185	15568
878.313	15717
878.441	15713
878.568	15538
878.696	15641
878.824	15663
878.951	15789
879.079	15766
879.206	15895
879.333	15915
879.461	15755
879.588	15804
879.715	15888
879.842	16082
879.97	15797
880.097	15549
880.224	15542
880.351	15591
880.478	15618
880.605	15504
880.732	15625
880.859	15789
880.986	15603
881.112	15519
881.239	15420
881.366	15260
881.493	15237
881.619	15176
881.746	15085
881.872	15226
881.999	15108
882.125	15192
882.252	15252
882.378	15146
882.505	15283
882.631	15146
882.757	15051
882.883	15058
883.01	14910
883.136	14990
883.262	14895
883.388	14895
883.514	14929
883.64	15199
883.766	14849
883.892	14807
884.018	14887
884.143	15043
884.269	15127
884.395	14762
884.52	14712
884.646	14712
884.772	14636
884.897	14651
885.023	14750
885.148	14883
885.274	14872
885.399	14804
885.524	14754
885.65	14731
885.775	14731
885.9	14689
886.025	14785
886.15	14754
886.275	14617
886.4	14674
886.525	14754
886.65	14712
886.775	14602
886.9	14792
887.025	14910
887.149	14720
887.274	14492
887.399	14568
887.523	14511
887.648	14385
887.773	14389
887.897	14629
888.021	14655
888.146	14495
888.27	14617
888.395	14655
888.519	14537
888.643	14549
888.767	14701
888.891	14450
889.015	14377
889.139	14415
889.263	14313
889.387	14495
889.511	14575
889.635	14571
889.759	14381
889.883	14305
890.006	14385
890.13	14492
890.254	14309
890.377	14370
890.501	14176
890.624	14142
890.748	14278
890.871	14180
890.995	14123
891.118	14111
891.241	14012
891.364	14115
891.488	14294
891.611	14062
891.734	14107
891.857	14149
891.98	14187
892.103	14237
892.226	14149
892.349	14145
892.471	13978
892.594	14180
892.717	14065
892.839	14016
892.962	14062
893.085	14134
893.207	14096
893.33	13967
893.452	14020
893.575	14107
893.697	14138
893.819	14271
893.941	14320
894.064	14248
894.186	14084
894.308	14046
894.43	14263
894.552	14347
894.674	14358
894.796	14054
894.918	14202
895.04	14138
895.161	14206
895.283	14195
895.405	14183
895.526	14244
895.648	14263
895.769	14278
895.891	14355
896.012	14309
896.134	14275
896.255	14278
896.376	14233
896.498	14240
896.619	14358
896.74	14248
896.861	14438
896.982	14644
897.103	14777
897.224	14579
897.345	14507
897.466	14454
897.587	14598
897.708	14754
897.828	14560
897.949	14499
898.07	14469
898.19	14549
898.311	14583
898.431	14499
898.552	14617
898.672	14613
898.792	14678
898.913	14716
899.033	14587
899.153	14488
899.273	14309
899.393	14465
899.513	14571
899.633	14549
899.753	14522
899.873	14530
899.993	14526
900.113	14446
900.232	14514
900.352	14488
900.472	14484
900.591	14237
900.711	14499
900.83	14332
900.95	14454
901.069	14530
901.189	14267
901.308	14107
901.427	14043
901.546	13928
901.665	14084
901.784	14077
901.904	14016
902.023	13917
902.141	13704
902.26	13616
902.379	13655
902.498	13605
902.617	13438
902.735	13643
902.854	13559
902.973	13506
903.091	13335
903.21	13308
903.328	13236
903.446	13251
903.565	13179
903.683	13183
903.801	13076
903.919	13152
904.038	13126
904.156	13046
904.274	13099
904.392	13038
904.51	12901
904.627	12996
904.745	13091
904.863	12981
904.981	12840
905.098	12681
905.216	12684
905.334	12635
905.451	12772
905.569	12662
905.686	12692
905.803	12658
905.921	12479
906.038	12589
906.155	12544
906.272	12429
906.389	12395
906.506	12262
906.623	12270
906.74	12213
906.857	12175
906.974	12178
907.091	12395
907.208	12380
907.324	12342
907.441	12178
907.557	12129
907.674	12015
907.79	11984
907.907	11954
908.023	11984
908.139	11923
908.256	12003
908.372	11840
908.488	12003
908.604	11840
908.72	11786
908.836	11813
908.952	11790
909.068	11756
909.184	11855
909.3	11748
909.415	11809
909.531	11809
909.647	11547
909.762	11562
909.878	11539
909.993	11516
910.108	11577
910.224	11535
910.339	11585
910.454	11478
910.57	11410
910.685	11227
910.8	11596
910.915	11543
911.03	11406
911.145	11254
911.259	11254
911.374	11242
911.489	11105
911.604	11098
911.718	11014
911.833	10930
911.947	10953
912.062	10850
912.176	10968
912.291	11006
912.405	10984
912.519	11201
912.633	11178
912.748	11006
912.862	10995
912.976	10854
913.09	10801
913.204	10854
913.318	10881
913.431	11045
913.545	10919
913.659	10930
913.772	10873
913.886	10710
914	10740
914.113	10809
914.226	10904
914.34	10877
914.453	10653
914.566	10847
914.68	10736
914.793	10687
914.906	10542
915.019	10413
915.132	10394
915.245	10535
915.358	10554
915.47	10512
915.583	10531
915.696	10462
915.809	10672
915.921	10599
916.034	10455
916.146	10363
916.259	10413
916.371	10561
916.483	10459
916.595	10402
916.708	10371
916.82	10451
916.932	10379
917.044	10436
917.156	10318
917.268	10367
917.38	10409
917.491	10352
917.603	10352
917.715	10382
917.826	10390
917.938	10356
918.049	10207
918.161	10268
918.272	10432
918.384	10542
918.495	10306
918.606	10261
918.717	10078
918.828	10166
918.939	10261
919.05	10051
919.161	10158
919.272	10006
919.383	10116
919.494	10291
919.604	10424
919.715	10185
919.826	10173
919.936	10166
920.047	10276
920.157	10303
920.267	10405
920.378	10299
920.488	10169
920.598	10371
920.708	10538
920.818	10436
920.928	10371
921.038	10588
921.148	10554
921.258	10253
921.368	10158
921.477	10124
921.587	10086
921.697	9911
921.806	10147
921.916	9930
922.025	9793
922.134	9831
922.244	9827
922.353	9793
922.462	9637
922.571	9587
922.68	9507
922.789	9492
922.898	9443
923.007	9466
923.116	9515
923.224	9488
923.333	9523
923.442	9363
923.55	9253
923.659	9382
923.767	9450
923.876	9355
923.984	9382
924.092	9298
924.201	9405
924.309	9363
924.417	9382
924.525	9313
924.633	9306
924.741	10230
924.849	9123
924.956	9218
925.064	9097
925.172	9020
925.279	9085
925.387	9154
925.494	9119
925.602	9348
925.709	9241
925.816	9127
925.924	9173
926.031	9173
926.138	9089
926.245	9222
926.352	9066
926.459	9116
926.566	9203
926.673	9154
926.779	8975
926.886	8937
926.993	8819
927.099	8834
927.206	8785
927.312	8800
927.419	8864
927.525	8891
927.631	8838
927.737	8750
927.843	8804
927.95	8606
928.056	8670
928.162	8746
928.267	8842
928.373	9447
928.479	8823
928.585	8594
928.69	8716
928.796	8735
928.901	8743
929.007	8495
929.112	8648
929.218	8579
929.323	8533
929.428	8571
929.533	8655
929.638	8442
929.743	8511
929.848	8541
929.953	8556
930.058	8442
930.163	8324
930.267	8400
930.372	8484
930.477	8286
930.581	8537
930.685	8377
930.79	8290
930.894	8351
930.998	8256
931.103	8408
931.207	8092
931.311	8020
931.415	7947
931.519	7712
931.623	7769
