Data from test_V78500241_1669.txt Node
Date: Fri Mar 25 14:45:20 CST 2022
User: usil
Spectrometer: V785-0024
Trigger mode: 0
Integration Time (sec): 4.000000E-1
Scans to average: 1
Nonlinearity correction enabled: false
Boxcar width: 0
Storing dark spectrum: false
XAxis mode: Wavelengths
Number of Pixels in Spectrum: 1024
>>>>>Begin Spectral Data<<<<<
801.071	22272
801.214	22177
801.356	21994
801.499	21854
801.641	21759
801.783	21641
801.926	21557
802.068	21606
802.211	21530
802.353	21431
802.496	21268
802.638	21112
802.78	21218
802.923	21119
803.065	20906
803.208	20956
803.35	20994
803.492	21032
803.635	21161
803.777	20963
803.919	21108
804.061	21317
804.204	21146
804.346	20880
804.488	20876
804.63	21005
804.773	20823
804.915	20895
805.057	21112
805.199	20849
805.341	20914
805.483	21070
805.626	21017
805.768	20941
805.91	20895
806.052	20868
806.194	20842
806.336	21096
806.478	20918
806.62	20887
806.762	20910
806.904	21135
807.046	21408
807.188	21211
807.33	21230
807.472	21230
807.614	21245
807.756	21203
807.898	20956
808.04	21047
808.182	20998
808.324	21017
808.465	21089
808.607	21310
808.749	21317
808.891	21447
809.033	21530
809.174	21485
809.316	21332
809.458	21370
809.6	21260
809.741	21393
809.883	21469
810.025	21424
810.166	21542
810.308	21519
810.45	21564
810.591	21291
810.733	21226
810.875	21119
811.016	20918
811.158	21062
811.299	21188
811.441	21275
811.582	21131
811.724	21123
811.865	21077
812.007	21066
812.148	21074
812.29	21161
812.431	21203
812.573	21435
812.714	21443
812.855	21553
812.997	21663
813.138	21918
813.279	21816
813.421	21538
813.562	21519
813.703	21348
813.845	21089
813.986	20994
814.127	20712
814.268	20655
814.41	20632
814.551	20701
814.692	20674
814.833	20503
814.974	20579
815.115	20663
815.256	20339
815.397	20461
815.539	20473
815.68	20366
815.821	20275
815.962	20305
816.103	20393
816.244	20206
816.385	20275
816.526	20043
816.666	19940
816.807	19761
816.948	19849
817.089	19864
817.23	19890
817.371	19715
817.512	19750
817.653	19765
817.793	19620
817.934	19860
818.075	19746
818.216	19723
818.356	19662
818.497	19613
818.638	19434
818.778	19419
818.919	19594
819.06	19510
819.2	19540
819.341	19677
819.481	19681
819.622	19803
819.762	20001
819.903	19970
820.043	19780
820.184	19849
820.324	19734
820.465	19818
820.605	19830
820.746	19742
820.886	19700
821.026	19674
821.167	19727
821.307	19894
821.447	19727
821.588	19521
821.728	19278
821.868	19415
822.008	19198
822.149	19179
822.289	19046
822.429	18958
822.569	18901
822.709	18829
822.849	18654
822.99	18623
823.13	18570
823.27	18563
823.41	18418
823.55	18357
823.69	18517
823.83	18452
823.97	18353
824.11	18220
824.25	18216
824.389	18197
824.529	18346
824.669	18254
824.809	18426
824.949	18232
825.089	18270
825.228	18209
825.368	17988
825.508	18057
825.648	17973
825.787	18163
825.927	18117
826.067	17897
826.206	17847
826.346	18057
826.485	18022
826.625	18015
826.765	18136
826.904	18007
827.044	17783
827.183	17707
827.323	17695
827.462	17630
827.601	17638
827.741	17714
827.88	17661
828.02	17509
828.159	17627
828.298	17707
828.437	17745
828.577	17524
828.716	17843
828.855	17657
828.994	17566
829.134	17395
829.273	17516
829.412	17417
829.551	17376
829.69	17414
829.829	17512
829.968	17516
830.107	17581
830.246	17501
830.385	17349
830.524	17341
830.663	17303
830.802	17117
830.941	17025
831.08	17090
831.219	17140
831.357	17121
831.496	17250
831.635	17033
831.774	16961
831.913	16889
832.051	16828
832.19	16748
832.329	16900
832.467	16725
832.606	16797
832.744	16717
832.883	16740
833.022	16584
833.16	16713
833.299	16809
833.437	16809
833.576	16805
833.714	16706
833.852	16892
833.991	16782
834.129	16831
834.267	16774
834.406	16729
834.544	16774
834.682	16752
834.821	16816
834.959	16930
835.097	16809
835.235	16908
835.373	16828
835.511	16782
835.65	16668
835.788	16580
835.926	16588
836.064	16462
836.202	16440
836.34	16664
836.478	16866
836.615	16698
836.753	16603
836.891	16812
837.029	16634
837.167	16634
837.305	16569
837.443	16519
837.58	16466
837.718	16531
837.856	16577
837.993	16443
838.131	16592
838.269	16546
838.406	16474
838.544	16451
838.681	16242
838.819	16219
838.956	16120
839.094	16128
839.231	16116
839.369	16280
839.506	16443
839.643	16344
839.781	16029
839.918	15987
840.055	16154
840.193	16010
840.33	16044
840.467	16196
840.604	16131
840.742	16379
840.879	15873
841.016	16002
841.153	15922
841.29	16116
841.427	16082
841.564	16238
841.701	15953
841.838	15949
841.975	16051
842.112	16063
842.249	15869
842.385	15823
842.522	16074
842.659	15861
842.796	15774
842.933	15831
843.069	15876
843.206	15701
843.343	15819
843.479	15930
843.616	15842
843.752	15679
843.889	15660
844.025	15812
844.162	15637
844.298	15808
844.435	15637
844.571	15606
844.708	15709
844.844	15804
844.98	15774
845.117	15781
845.253	15603
845.389	15557
845.525	15705
845.661	15610
845.798	15481
845.934	15500
846.07	15576
846.206	15660
846.342	15504
846.478	15515
846.614	15336
846.75	15188
846.886	15195
847.022	15207
847.158	15226
847.294	15275
847.429	15203
847.565	15138
847.701	15389
847.837	15005
847.972	14937
848.108	15017
848.244	15009
848.379	14785
848.515	14845
848.65	14785
848.786	14826
848.921	14750
849.057	14830
849.192	14918
849.328	14838
849.463	14845
849.598	14826
849.734	14712
849.869	14667
850.004	14537
850.14	14674
850.275	14636
850.41	14590
850.545	14492
850.68	14598
850.815	14644
850.95	14511
851.085	14758
851.22	14644
851.355	14587
851.49	14499
851.625	14533
851.76	14583
851.895	14419
852.03	14587
852.165	14522
852.299	14541
852.434	14674
852.569	14678
852.703	14594
852.838	14629
852.973	14693
853.107	14678
853.242	14571
853.376	14488
853.511	14358
853.645	14381
853.78	14556
853.914	14423
854.048	14469
854.183	14381
854.317	14434
854.451	14594
854.585	14419
854.72	14450
854.854	14545
854.988	14370
855.122	14381
855.256	14370
855.39	14408
855.524	14530
855.658	14476
855.792	14431
855.926	14484
856.06	14522
856.194	14488
856.327	14499
856.461	14377
856.595	14423
856.729	14427
856.862	14552
856.996	14465
857.13	14560
857.263	14526
857.397	14533
857.53	14480
857.664	14522
857.797	14511
857.931	14537
858.064	14465
858.197	14579
858.331	14457
858.464	14465
858.597	14263
858.731	14457
858.864	14385
858.997	14351
859.13	14450
859.263	14511
859.396	14598
859.529	14461
859.662	14415
859.795	14351
859.928	14514
860.061	14632
860.194	14640
860.327	14476
860.46	14427
860.592	14587
860.725	14590
860.858	14545
860.99	14450
861.123	14385
861.256	14370
861.388	14385
861.521	15005
861.653	14320
861.786	14324
861.918	14218
862.05	14343
862.183	14427
862.315	14533
862.447	14541
862.58	14351
862.712	14256
862.844	14252
862.976	14256
863.108	14199
863.24	14727
863.372	14210
863.504	14286
863.636	14237
863.768	14256
863.9	14210
864.032	14267
864.164	14157
864.296	14214
864.428	14404
864.559	14275
864.691	14347
864.823	14202
864.954	14370
865.086	14286
865.217	14252
865.349	14278
865.48	14035
865.612	14248
865.743	14328
865.875	14244
866.006	14244
866.137	14301
866.269	14145
866.4	14142
866.531	14115
866.662	14157
866.793	14259
866.924	14176
867.055	14210
867.186	14172
867.317	14145
867.448	14145
867.579	14180
867.71	14050
867.841	14161
867.972	14240
868.103	14214
868.233	14248
868.364	14271
868.495	14294
868.625	14476
868.756	14419
868.886	14377
869.017	14396
869.147	14579
869.278	14511
869.408	14476
869.539	14473
869.669	14712
869.799	14556
869.929	14473
870.06	14648
870.19	14765
870.32	14762
870.45	14762
870.58	14861
870.71	14971
870.84	14960
870.97	14819
871.1	14838
871.23	15085
871.36	15028
871.489	14925
871.619	15009
871.749	15001
871.879	15074
872.008	15138
872.138	15081
872.267	14941
872.397	14998
872.526	14883
872.656	14853
872.785	14864
872.915	15085
873.044	15142
873.173	15192
873.303	15097
873.432	15150
873.561	15192
873.69	15013
873.819	15119
873.948	15218
874.077	15169
874.206	15104
874.335	15089
874.464	15161
874.593	15302
874.722	15355
874.851	15389
874.979	15622
875.108	15473
875.237	15325
875.365	15176
875.494	15393
875.623	15435
875.751	15336
875.88	15435
876.008	15572
876.136	15530
876.265	15785
876.393	15930
876.521	15884
876.65	15892
876.778	15739
876.906	15804
877.034	15644
877.162	15838
877.29	15797
877.418	15857
877.546	15797
877.674	15945
877.802	15861
877.93	15793
878.058	15854
878.185	15762
878.313	15770
878.441	15766
878.568	15686
878.696	15778
878.824	15861
878.951	15842
879.079	15991
879.206	16074
879.333	15998
879.461	15934
879.588	15880
879.715	16032
879.842	16116
879.97	15964
880.097	15580
880.224	15724
880.351	15717
880.478	15743
880.605	15622
880.732	15709
880.859	15934
880.986	15648
881.112	15667
881.239	15618
881.366	15447
881.493	15325
881.619	15332
881.746	15340
881.872	15458
881.999	15348
882.125	15329
882.252	15424
882.378	15428
882.505	15504
882.631	15230
882.757	15214
882.883	15176
883.01	15161
883.136	15100
883.262	14990
883.388	14941
883.514	15135
883.64	15169
883.766	15097
883.892	15032
884.018	15066
884.143	15058
884.269	15302
884.395	14933
884.52	14823
884.646	14872
884.772	14819
884.897	14796
885.023	14842
885.148	14994
885.274	15074
885.399	14975
885.524	14785
885.65	14830
885.775	14868
885.9	14811
886.025	14914
886.15	14880
886.275	14750
886.4	14792
886.525	14777
886.65	14746
886.775	14887
886.9	15017
887.025	15104
887.149	14811
887.274	14617
887.399	14621
887.523	14678
887.648	14648
887.773	14610
887.897	14754
888.021	14724
888.146	14617
888.27	14788
888.395	14758
888.519	14785
888.643	14716
888.767	14800
888.891	14625
889.015	14492
889.139	14514
889.263	14473
889.387	14648
889.511	14769
889.635	14632
889.759	14408
889.883	14575
890.006	14571
890.13	14693
890.254	14423
890.377	14545
890.501	14282
890.624	14317
890.748	14473
890.871	14358
890.995	14187
891.118	14199
891.241	14259
891.364	14233
891.488	14336
891.611	14305
891.734	14153
891.857	14301
891.98	14218
892.103	14324
892.226	14221
892.349	14191
892.471	14081
892.594	14191
892.717	14233
892.839	14244
892.962	14210
893.085	14290
893.207	14153
893.33	14126
893.452	14126
893.575	14294
893.697	14168
893.819	14278
893.941	14503
894.064	14396
894.186	14214
894.308	14161
894.43	14336
894.552	14374
894.674	14324
894.796	14225
894.918	14332
895.04	14275
895.161	14431
895.283	14309
895.405	14271
895.526	14320
895.648	14336
895.769	14347
895.891	14415
896.012	14419
896.134	14385
896.255	14454
896.376	14336
896.498	14438
896.619	14412
896.74	14400
896.861	14552
896.982	14716
897.103	14921
897.224	14693
897.345	14625
897.466	14537
897.587	14750
897.708	14746
897.828	14727
897.949	14632
898.07	14552
898.19	14617
898.311	14762
898.431	14571
898.552	14792
898.672	14826
898.792	14762
898.913	14796
899.033	14716
899.153	14640
899.273	14408
899.393	14533
899.513	14617
899.633	14560
899.753	14655
899.873	14568
899.993	14701
900.113	14651
900.232	14667
900.352	14648
900.472	14526
900.591	14465
900.711	14469
900.83	14431
900.95	14537
901.069	14541
901.189	14419
901.308	14214
901.427	14103
901.546	14138
901.665	14130
901.784	14229
901.904	14065
902.023	13909
902.141	13788
902.26	13769
902.379	13712
902.498	13723
902.617	13643
902.735	13689
902.854	13715
902.973	13715
903.091	13388
903.21	13460
903.328	13411
903.446	13324
903.565	13285
903.683	13362
903.801	13164
903.919	13320
904.038	13244
904.156	13008
904.274	13149
904.392	13126
904.51	13053
904.627	13088
904.745	13160
904.863	13118
904.981	12852
905.098	12829
905.216	12905
905.334	12833
905.451	12703
905.569	12707
905.686	12776
905.803	12764
905.921	12597
906.038	12658
906.155	12623
906.272	12452
906.389	12506
906.506	12388
906.623	12422
906.74	12334
906.857	12384
906.974	12247
907.091	12391
907.208	12502
907.324	12407
907.441	12270
907.557	12121
907.674	12171
907.79	12064
907.907	11973
908.023	12095
908.139	12205
908.256	12087
908.372	12114
908.488	11969
908.604	11912
908.72	11961
908.836	11847
908.952	11824
909.068	11901
909.184	12030
909.3	11863
909.415	11958
909.531	11969
909.647	11710
909.762	11657
909.878	11649
909.993	11665
910.108	11703
910.224	11691
910.339	11577
910.454	11551
910.57	11551
910.685	11433
910.8	11680
910.915	11668
911.03	11532
911.145	11467
911.259	11379
911.374	11311
911.489	11242
911.604	11250
911.718	11155
911.833	11170
911.947	11064
912.062	10972
912.176	10999
912.291	11113
912.405	11121
912.519	11322
912.633	11273
912.748	11197
912.862	11162
912.976	11056
913.09	10873
913.204	10915
913.318	11022
913.431	11071
913.545	11113
913.659	11102
913.772	11109
913.886	10953
914	10862
914.113	11003
914.226	11018
914.34	10987
914.453	10763
914.566	10953
914.68	10854
914.793	10919
914.906	10702
915.019	10603
915.132	10588
915.245	10565
915.358	10714
915.47	10599
915.583	10630
915.696	10641
915.809	10820
915.921	10763
916.034	10645
916.146	10611
916.259	10542
916.371	10694
916.483	10637
916.595	10516
916.708	10580
916.82	10580
916.932	10580
917.044	10603
917.156	10523
917.268	10436
917.38	10493
917.491	10394
917.603	10485
917.715	10485
917.826	10592
917.938	10440
918.049	10310
918.161	10485
918.272	10641
918.384	10485
918.495	10440
918.606	10291
918.717	10253
918.828	10405
918.939	10394
919.05	10291
919.161	10360
919.272	10097
919.383	10204
919.494	10386
919.604	10618
919.715	10314
919.826	10268
919.936	10295
920.047	10367
920.157	10409
920.267	10531
920.378	10409
920.488	10291
920.598	10531
920.708	10634
920.818	10554
920.928	10584
921.038	10630
921.148	10550
921.258	10325
921.368	10402
921.477	10154
921.587	10124
921.697	10116
921.806	10154
921.916	10192
922.025	9953
922.134	9937
922.244	9823
922.353	9918
922.462	9762
922.571	9816
922.68	9580
922.789	9542
922.898	9549
923.007	9648
923.116	9637
923.224	9561
923.333	9595
923.442	9534
923.55	9393
923.659	9439
923.767	9500
923.876	9431
923.984	9564
924.092	9405
924.201	9408
924.309	9431
924.417	9485
924.525	9424
924.633	9443
924.741	10139
924.849	9256
924.956	9378
925.064	9260
925.172	9142
925.279	9313
925.387	9260
925.494	9268
925.602	9447
925.709	9382
925.816	9195
925.924	9264
926.031	9329
926.138	9230
926.245	9279
926.352	9157
926.459	9325
926.566	9287
926.673	9142
926.779	9077
926.886	9089
926.993	8990
927.099	8925
927.206	8883
927.312	8815
927.419	9017
927.525	8937
927.631	8982
927.737	8914
927.843	8864
927.95	8762
928.056	8845
928.162	8941
928.267	8948
928.373	9443
928.479	8895
928.585	8724
928.69	8834
928.796	8880
928.901	8777
929.007	8613
929.112	8796
929.218	8796
929.323	8667
929.428	8655
929.533	8804
929.638	8594
929.743	8689
929.848	8712
929.953	8750
930.058	8568
930.163	8473
930.267	8499
930.372	8617
930.477	8446
930.581	8564
930.685	8530
930.79	8434
930.894	8450
930.998	8404
931.103	8541
931.207	8153
931.311	8172
931.415	8012
931.519	7967
931.623	7902
