Data from test_V78500241_1908.txt Node
Date: Fri Mar 25 14:46:59 CST 2022
User: usil
Spectrometer: V785-0024
Trigger mode: 0
Integration Time (sec): 4.000000E-1
Scans to average: 1
Nonlinearity correction enabled: false
Boxcar width: 0
Storing dark spectrum: false
XAxis mode: Wavelengths
Number of Pixels in Spectrum: 1024
>>>>>Begin Spectral Data<<<<<
801.071	22067
801.214	21991
801.356	21618
801.499	21701
801.641	21462
801.783	21359
801.926	21450
802.068	21462
802.211	21294
802.353	21336
802.496	21009
802.638	21005
802.78	21005
802.923	20807
803.065	20819
803.208	20807
803.35	20853
803.492	20906
803.635	20864
803.777	20758
803.919	20769
804.061	21142
804.204	20925
804.346	20765
804.488	20678
804.63	20670
804.773	20739
804.915	20743
805.057	20830
805.199	20693
805.341	20781
805.483	20826
805.626	20731
805.768	20667
805.91	20826
806.052	20754
806.194	20609
806.336	20887
806.478	20769
806.62	20556
806.762	20632
806.904	20800
807.046	21230
807.188	21024
807.33	20975
807.472	21032
807.614	20952
807.756	20895
807.898	20948
808.04	20781
808.182	20689
808.324	20762
808.465	20762
808.607	20937
808.749	21138
808.891	21165
809.033	21211
809.174	21142
809.316	21131
809.458	21096
809.6	20979
809.741	21226
809.883	21169
810.025	21321
810.166	21249
810.308	21184
810.45	21241
810.591	21157
810.733	20952
810.875	20880
811.016	20769
811.158	20807
811.299	20914
811.441	20883
811.582	21036
811.724	20826
811.865	20834
812.007	20735
812.148	20834
812.29	20887
812.431	21112
812.573	21077
812.714	21199
812.855	21401
812.997	21363
813.138	21542
813.279	21481
813.421	21294
813.562	21256
813.703	21154
813.845	21077
813.986	20678
814.127	20644
814.268	20541
814.41	20465
814.551	20423
814.692	20511
814.833	20290
814.974	20271
815.115	20336
815.256	20271
815.397	20149
815.539	20336
815.68	20145
815.821	20054
815.962	20233
816.103	20157
816.244	19902
816.385	19833
816.526	19871
816.666	19715
816.807	19594
816.948	19651
817.089	19647
817.23	19605
817.371	19476
817.512	19529
817.653	19552
817.793	19419
817.934	19567
818.075	19521
818.216	19521
818.356	19502
818.497	19358
818.638	19148
818.778	19194
818.919	19255
819.06	19285
819.2	19426
819.341	19388
819.481	19301
819.622	19666
819.762	19651
819.903	19696
820.043	19620
820.184	19480
820.324	19491
820.465	19575
820.605	19540
820.746	19563
820.886	19453
821.026	19544
821.167	19449
821.307	19529
821.447	19316
821.588	19388
821.728	19213
821.868	19110
822.008	18825
822.149	18894
822.289	18920
822.429	18707
822.569	18734
822.709	18597
822.849	18418
822.99	18403
823.13	18414
823.27	18334
823.41	18209
823.55	18239
823.69	18224
823.83	18213
823.97	18174
824.11	17931
824.25	17946
824.389	18053
824.529	18125
824.669	18053
824.809	18163
824.949	18129
825.089	18057
825.228	18003
825.368	17821
825.508	17726
825.648	17798
825.787	17802
825.927	17794
826.067	17767
826.206	17714
826.346	17851
826.485	17733
826.625	17729
826.765	17889
826.904	17836
827.044	17653
827.183	17467
827.323	17577
827.462	17558
827.601	17417
827.741	17505
827.88	17383
828.02	17334
828.159	17406
828.298	17520
828.437	17672
828.577	17539
828.716	17661
828.855	17493
828.994	17322
829.134	17254
829.273	17239
829.412	17174
829.551	17121
829.69	17181
829.829	17258
829.968	17242
830.107	17296
830.246	17265
830.385	17220
830.524	17140
830.663	17090
830.802	16904
830.941	16809
831.08	16881
831.219	16942
831.357	16961
831.496	17056
831.635	16835
831.774	16653
831.913	16828
832.051	16710
832.19	16672
832.329	16675
832.467	16516
832.606	16565
832.744	16516
832.883	16550
833.022	16538
833.16	16565
833.299	16565
833.437	16607
833.576	16573
833.714	16615
833.852	16584
833.991	16558
834.129	16683
834.267	16668
834.406	16527
834.544	16630
834.682	16630
834.821	16542
834.959	16820
835.097	16668
835.235	16736
835.373	16660
835.511	16668
835.65	16451
835.788	16504
835.926	16432
836.064	16405
836.202	16299
836.34	16538
836.478	16550
836.615	16481
836.753	16500
836.891	16637
837.029	16512
837.167	16440
837.305	16459
837.443	16440
837.58	16371
837.718	16481
837.856	16276
837.993	16413
838.131	16375
838.269	16253
838.406	16360
838.544	16344
838.681	16249
838.819	16120
838.956	15949
839.094	15854
839.231	15972
839.369	16166
839.506	16287
839.643	16169
839.781	15960
839.918	15907
840.055	15884
840.193	15903
840.33	15903
840.467	15930
840.604	15915
840.742	16223
840.879	15899
841.016	15876
841.153	15816
841.29	16059
841.427	15956
841.564	15998
841.701	16013
841.838	15884
841.975	15812
842.112	15838
842.249	15781
842.385	15652
842.522	15960
842.659	15785
842.796	15644
842.933	15690
843.069	15701
843.206	15713
843.343	15789
843.479	15781
843.616	15793
843.752	15485
843.889	15530
844.025	15701
844.162	15515
844.298	15568
844.435	15496
844.571	15466
844.708	15572
844.844	15610
844.98	15648
845.117	15644
845.253	15530
845.389	15386
845.525	15393
845.661	15386
845.798	15401
845.934	15424
846.07	15256
846.206	15378
846.342	15431
846.478	15393
846.614	15268
846.75	15104
846.886	14971
847.022	15203
847.158	15055
847.294	15055
847.429	15161
847.565	15100
847.701	15264
847.837	14910
847.972	14823
848.108	14941
848.244	14952
848.379	14739
848.515	14701
848.65	14705
848.786	14693
848.921	14804
849.057	14773
849.192	14785
849.328	14868
849.463	14746
849.598	14716
849.734	14602
849.869	14560
850.004	14492
850.14	14526
850.275	14514
850.41	14313
850.545	14412
850.68	14427
850.815	14461
850.95	14556
851.085	14564
851.22	14640
851.355	14533
851.49	14488
851.625	14358
851.76	14465
851.895	14419
852.03	14408
852.165	14492
852.299	14533
852.434	14492
852.569	14541
852.703	14473
852.838	14533
852.973	14629
853.107	14678
853.242	14355
853.376	14381
853.511	14259
853.645	14339
853.78	14408
853.914	14393
854.048	14393
854.183	14282
854.317	14389
854.451	14541
854.585	14301
854.72	14298
854.854	14473
854.988	14195
855.122	14347
855.256	14142
855.39	14339
855.524	14393
855.658	14324
855.792	14324
855.926	14240
856.06	14408
856.194	14374
856.327	14374
856.461	14286
856.595	14252
856.729	14320
856.862	14324
856.996	14480
857.13	14396
857.263	14400
857.397	14393
857.53	14317
857.664	14393
857.797	14389
857.931	14415
858.064	14404
858.197	14374
858.331	14290
858.464	14206
858.597	14218
858.731	14400
858.864	14347
858.997	14252
859.13	14347
859.263	14370
859.396	14484
859.529	14282
859.662	14298
859.795	14218
859.928	14313
860.061	14469
860.194	14438
860.327	14423
860.46	14393
860.592	14434
860.725	14545
860.858	14442
860.99	14366
861.123	14157
861.256	14271
861.388	14347
861.521	15058
861.653	14248
861.786	14035
861.918	14199
862.05	14286
862.183	14271
862.315	14301
862.447	14408
862.58	14237
862.712	14210
862.844	14081
862.976	14176
863.108	14168
863.24	14431
863.372	14008
863.504	14062
863.636	14123
863.768	14183
863.9	14138
864.032	14088
864.164	14046
864.296	14168
864.428	14244
864.559	14161
864.691	14317
864.823	14176
864.954	14126
865.086	14115
865.217	14031
865.349	14050
865.48	14134
865.612	14027
865.743	14259
865.875	14069
866.006	14088
866.137	14145
866.269	14050
866.4	14183
866.531	14039
866.662	14020
866.793	14077
866.924	14084
867.055	14126
867.186	14119
867.317	13970
867.448	14046
867.579	14100
867.71	14134
867.841	14058
867.972	14119
868.103	14073
868.233	14027
868.364	14115
868.495	14161
868.625	14415
868.756	14355
868.886	14317
869.017	14317
869.147	14514
869.278	14473
869.408	14408
869.539	14347
869.669	14495
869.799	14381
869.929	14507
870.06	14434
870.19	14693
870.32	14659
870.45	14670
870.58	14712
870.71	14842
870.84	14906
870.97	14762
871.1	14712
871.23	14994
871.36	14979
871.489	14906
871.619	14941
871.749	14918
871.879	14902
872.008	14971
872.138	14956
872.267	14880
872.397	14918
872.526	14765
872.656	14804
872.785	14739
872.915	14979
873.044	15047
873.173	14967
873.303	15001
873.432	15077
873.561	15093
873.69	15074
873.819	15001
873.948	15047
874.077	14963
874.206	14948
874.335	15051
874.464	15230
874.593	15294
874.722	15203
874.851	15302
874.979	15310
875.108	15416
875.237	15306
875.365	15241
875.494	15302
875.623	15374
875.751	15378
875.88	15272
876.008	15435
876.136	15473
876.265	15759
876.393	15774
876.521	15816
876.65	15778
876.778	15717
876.906	15698
877.034	15709
877.162	15629
877.29	15530
877.418	15736
877.546	15705
877.674	15797
877.802	15819
877.93	15736
878.058	15663
878.185	15603
878.313	15709
878.441	15705
878.568	15519
878.696	15705
878.824	15778
878.951	15603
879.079	15911
879.206	15975
879.333	15930
879.461	15682
879.588	15831
879.715	15949
879.842	16105
879.97	15789
880.097	15557
880.224	15641
880.351	15591
880.478	15519
880.605	15515
880.732	15500
880.859	15865
880.986	15591
881.112	15614
881.239	15428
881.366	15256
881.493	15386
881.619	15245
881.746	15272
881.872	15268
881.999	15195
882.125	15157
882.252	15226
882.378	15264
882.505	15378
882.631	15192
882.757	15028
882.883	15142
883.01	15032
883.136	15001
883.262	14864
883.388	14883
883.514	15009
883.64	15203
883.766	14929
883.892	14872
884.018	14887
884.143	15116
884.269	15097
884.395	14762
884.52	14712
884.646	14724
884.772	14731
884.897	14655
885.023	14773
885.148	14906
885.274	14830
885.399	14830
885.524	14785
885.65	14727
885.775	14785
885.9	14644
886.025	14952
886.15	14693
886.275	14811
886.4	14556
886.525	14651
886.65	14667
886.775	14743
886.9	14921
887.025	15005
887.149	14758
887.274	14560
887.399	14476
887.523	14568
887.648	14461
887.773	14492
887.897	14621
888.021	14594
888.146	14526
888.27	14705
888.395	14735
888.519	14785
888.643	14651
888.767	14610
888.891	14526
889.015	14431
889.139	14415
889.263	14423
889.387	14518
889.511	14708
889.635	14602
889.759	14374
889.883	14404
890.006	14473
890.13	14488
890.254	14404
890.377	14450
890.501	14271
890.624	14294
890.748	14320
890.871	14168
890.995	14027
891.118	14008
891.241	14062
891.364	14157
891.488	14324
891.611	14103
891.734	14199
891.857	14187
891.98	14149
892.103	14259
892.226	14142
892.349	14103
892.471	13963
892.594	14180
892.717	14157
892.839	14142
892.962	14157
893.085	14210
893.207	14195
893.33	13986
893.452	14115
893.575	14206
893.697	13989
893.819	14271
893.941	14377
894.064	14298
894.186	14065
894.308	14214
894.43	14221
894.552	14374
894.674	14248
894.796	14092
894.918	14240
895.04	14092
895.161	14191
895.283	14339
895.405	14206
895.526	14252
895.648	14202
895.769	14256
895.891	14267
896.012	14351
896.134	14332
896.255	14267
896.376	14286
896.498	14320
896.619	14309
896.74	14366
896.861	14408
896.982	14636
897.103	14762
897.224	14583
897.345	14560
897.466	14507
897.587	14495
897.708	14689
897.828	14610
897.949	14552
898.07	14511
898.19	14396
898.311	14689
898.431	14663
898.552	14629
898.672	14708
898.792	14735
898.913	14663
899.033	14678
899.153	14560
899.273	14419
899.393	14492
899.513	14545
899.633	14552
899.753	14598
899.873	14484
899.993	14549
900.113	14415
900.232	14465
900.352	14503
900.472	14351
900.591	14400
900.711	14328
900.83	14237
900.95	14465
901.069	14575
901.189	14252
901.308	14103
901.427	14039
901.546	14024
901.665	14096
901.784	14111
901.904	13894
902.023	13852
902.141	13765
902.26	13632
902.379	13700
902.498	13613
902.617	13586
902.735	13647
902.854	13567
902.973	13616
903.091	13316
903.21	13312
903.328	13369
903.446	13354
903.565	13221
903.683	13091
903.801	13057
903.919	13095
904.038	13179
904.156	12989
904.274	13114
904.392	13046
904.51	12996
904.627	12993
904.745	12935
904.863	13046
904.981	12753
905.098	12654
905.216	12734
905.334	12681
905.451	12798
905.569	12639
905.686	12757
905.803	12669
905.921	12547
906.038	12620
906.155	12589
906.272	12407
906.389	12448
906.506	12277
906.623	12296
906.74	12319
906.857	12152
906.974	12216
907.091	12464
907.208	12517
907.324	12273
907.441	12243
907.557	12049
907.674	12053
907.79	11954
907.907	12030
908.023	12026
908.139	12091
908.256	11942
908.372	11958
908.488	11889
908.604	11908
908.72	11741
908.836	11802
908.952	11798
909.068	11832
909.184	11866
909.3	11760
909.415	11828
909.531	11866
909.647	11585
909.762	11562
909.878	11600
909.993	11585
910.108	11573
910.224	11547
910.339	11505
910.454	11562
910.57	11417
910.685	11280
910.8	11611
910.915	11463
911.03	11414
911.145	11288
911.259	11311
911.374	11250
911.489	11273
911.604	11105
911.718	11037
911.833	11079
911.947	11003
912.062	10767
912.176	11022
912.291	11083
912.405	11003
912.519	11181
912.633	11296
912.748	11162
912.862	11067
912.976	10889
913.09	10801
913.204	10873
913.318	10938
913.431	11041
913.545	10961
913.659	11037
913.772	10892
913.886	10862
914	10801
914.113	10850
914.226	10957
914.34	10812
914.453	10778
914.566	10801
914.68	10702
914.793	10675
914.906	10584
915.019	10466
915.132	10371
915.245	10497
915.358	10550
915.47	10538
915.583	10554
915.696	10577
915.809	10687
915.921	10664
916.034	10527
916.146	10546
916.259	10424
916.371	10577
916.483	10523
916.595	10405
916.708	10428
916.82	10466
916.932	10489
917.044	10379
917.156	10497
917.268	10367
917.38	10428
917.491	10352
917.603	10409
917.715	10440
917.826	10447
917.938	10371
918.049	10306
918.161	10348
918.272	10489
918.384	10443
918.495	10375
918.606	10303
918.717	10090
918.828	10284
918.939	10291
919.05	10181
919.161	10227
919.272	10131
919.383	10078
919.494	10253
919.604	10451
919.715	10276
919.826	10147
919.936	10177
920.047	10405
920.157	10265
920.267	10405
920.378	10234
920.488	10207
920.598	10466
920.708	10504
920.818	10497
920.928	10512
921.038	10653
921.148	10565
921.258	10303
921.368	10268
921.477	10185
921.587	10120
921.697	9983
921.806	10059
921.916	9987
922.025	9755
922.134	9816
922.244	9812
922.353	9880
922.462	9717
922.571	9656
922.68	9439
922.789	9458
922.898	9549
923.007	9412
923.116	9530
923.224	9576
923.333	9504
923.442	9336
923.55	9378
923.659	9435
923.767	9450
923.876	9340
923.984	9332
924.092	9287
924.201	9386
924.309	9393
924.417	9332
924.525	9332
924.633	9249
924.741	10162
924.849	9169
924.956	9329
925.064	9192
925.172	9051
925.279	9077
925.387	9138
925.494	9214
925.602	9283
925.709	9241
925.816	9085
925.924	9142
926.031	9245
926.138	9192
926.245	9135
926.352	9085
926.459	9264
926.566	9260
926.673	9081
926.779	9032
926.886	9089
926.993	8830
927.099	8902
927.206	8815
927.312	8819
927.419	8937
927.525	8807
927.631	8929
927.737	8815
927.843	8712
927.95	8587
928.056	8746
928.162	8735
928.267	8788
928.373	9332
928.479	8849
928.585	8610
928.69	8769
928.796	8758
928.901	8670
929.007	8522
929.112	8720
929.218	8682
929.323	8617
929.428	8579
929.533	8693
929.638	8549
929.743	8579
929.848	8625
929.953	8530
930.058	8552
930.163	8351
930.267	8347
930.372	8549
930.477	8385
930.581	8511
930.685	8473
930.79	8298
930.894	8343
930.998	8225
931.103	8412
931.207	8065
931.311	8039
931.415	8043
931.519	7871
931.623	7776
