Data from test_V78500241_3130.txt Node
Date: Fri Mar 25 14:55:30 CST 2022
User: usil
Spectrometer: V785-0024
Trigger mode: 0
Integration Time (sec): 4.000000E-1
Scans to average: 1
Nonlinearity correction enabled: false
Boxcar width: 0
Storing dark spectrum: false
XAxis mode: Wavelengths
Number of Pixels in Spectrum: 1024
>>>>>Begin Spectral Data<<<<<
801.071	22090
801.214	21941
801.356	21701
801.499	21549
801.641	21553
801.783	21473
801.926	21367
802.068	21363
802.211	21294
802.353	21252
802.496	20921
802.638	21081
802.78	20902
802.923	20819
803.065	20682
803.208	20678
803.35	20636
803.492	20807
803.635	20796
803.777	20724
803.919	20815
804.061	21127
804.204	20815
804.346	20598
804.488	20693
804.63	20674
804.773	20606
804.915	20689
805.057	20609
805.199	20686
805.341	20708
805.483	20792
805.626	20686
805.768	20590
805.91	20617
806.052	20678
806.194	20545
806.336	20727
806.478	20598
806.62	20621
806.762	20739
806.904	20967
807.046	21085
807.188	21055
807.33	20986
807.472	21017
807.614	20857
807.756	20910
807.898	20891
808.04	20743
808.182	20823
808.324	20705
808.465	20781
808.607	20971
808.749	21039
808.891	21096
809.033	21256
809.174	21142
809.316	20929
809.458	21055
809.6	20986
809.741	21093
809.883	21131
810.025	21188
810.166	21230
810.308	21154
810.45	21127
810.591	21161
810.733	20944
810.875	20876
811.016	20727
811.158	20830
811.299	20864
811.441	20948
811.582	20921
811.724	20868
811.865	20701
812.007	20781
812.148	20937
812.29	20910
812.431	20979
812.573	21077
812.714	21180
812.855	21313
812.997	21462
813.138	21401
813.279	21488
813.421	21313
813.562	21279
813.703	21047
813.845	20990
813.986	20667
814.127	20552
814.268	20480
814.41	20278
814.551	20263
814.692	20434
814.833	20275
814.974	20252
815.115	20358
815.256	20096
815.397	20278
815.539	20176
815.68	20024
815.821	19909
815.962	20065
816.103	20065
816.244	19875
816.385	19776
816.526	19742
816.666	19635
816.807	19460
816.948	19597
817.089	19457
817.23	19506
817.371	19559
817.512	19552
817.653	19434
817.793	19362
817.934	19449
818.075	19548
818.216	19400
818.356	19411
818.497	19373
818.638	19175
818.778	19114
818.919	19152
819.06	19213
819.2	19312
819.341	19274
819.481	19350
819.622	19521
819.762	19811
819.903	19693
820.043	19457
820.184	19415
820.324	19468
820.465	19445
820.605	19548
820.746	19457
820.886	19259
821.026	19396
821.167	19430
821.307	19499
821.447	19274
821.588	19190
821.728	19148
821.868	19042
822.008	18928
822.149	18757
822.289	18825
822.429	18627
822.569	18536
822.709	18563
822.849	18338
822.99	18448
823.13	18311
823.27	18327
823.41	18197
823.55	18068
823.69	18182
823.83	18106
823.97	18095
824.11	17916
824.25	17897
824.389	17973
824.529	18030
824.669	17843
824.809	18060
824.949	18079
825.089	18038
825.228	17958
825.368	17756
825.508	17813
825.648	17802
825.787	17684
825.927	17707
826.067	17676
826.206	17699
826.346	17756
826.485	17752
826.625	17630
826.765	17794
826.904	17783
827.044	17455
827.183	17524
827.323	17429
827.462	17493
827.601	17376
827.741	17337
827.88	17410
828.02	17227
828.159	17376
828.298	17353
828.437	17433
828.577	17334
828.716	17585
828.855	17254
828.994	17326
829.134	17239
829.273	17117
829.412	17189
829.551	17075
829.69	17090
829.829	16976
829.968	17147
830.107	17140
830.246	17174
830.385	17132
830.524	17010
830.663	17117
830.802	16843
830.941	16797
831.08	16767
831.219	16869
831.357	16862
831.496	17094
831.635	16691
831.774	16729
831.913	16542
832.051	16523
832.19	16474
832.329	16569
832.467	16519
832.606	16341
832.744	16512
832.883	16367
833.022	16440
833.16	16428
833.299	16417
833.437	16500
833.576	16390
833.714	16500
833.852	16546
833.991	16535
834.129	16630
834.267	16538
834.406	16466
834.544	16546
834.682	16485
834.821	16531
834.959	16687
835.097	16519
835.235	16596
835.373	16531
835.511	16497
835.65	16413
835.788	16337
835.926	16337
836.064	16246
836.202	16287
836.34	16375
836.478	16512
836.615	16375
836.753	16382
836.891	16436
837.029	16455
837.167	16409
837.305	16352
837.443	16295
837.58	16306
837.718	16337
837.856	16200
837.993	16230
838.131	16291
838.269	16181
838.406	16242
838.544	16097
838.681	15991
838.819	15918
838.956	15907
839.094	15827
839.231	15804
839.369	16067
839.506	16188
839.643	16116
839.781	15827
839.918	15660
840.055	15892
840.193	15797
840.33	15743
840.467	15819
840.604	15915
840.742	16071
840.879	15713
841.016	15717
841.153	15743
841.29	15907
841.427	15797
841.564	15899
841.701	15854
841.838	15732
841.975	15713
842.112	15800
842.249	15663
842.385	15603
842.522	15743
842.659	15652
842.796	15530
842.933	15545
843.069	15644
843.206	15553
843.343	15667
843.479	15561
843.616	15561
843.752	15469
843.889	15431
844.025	15595
844.162	15321
844.298	15405
844.435	15378
844.571	15355
844.708	15321
844.844	15473
844.98	15504
845.117	15332
845.253	15332
845.389	15203
845.525	15336
845.661	15199
845.798	15150
845.934	15226
846.07	15154
846.206	15233
846.342	15268
846.478	15188
846.614	14994
846.75	14982
846.886	14887
847.022	15001
847.158	14952
847.294	14960
847.429	14941
847.565	15028
847.701	15154
847.837	14701
847.972	14663
848.108	14842
848.244	14781
848.379	14617
848.515	14537
848.65	14526
848.786	14594
848.921	14610
849.057	14583
849.192	14610
849.328	14594
849.463	14594
849.598	14454
849.734	14415
849.869	14381
850.004	14237
850.14	14313
850.275	14298
850.41	14199
850.545	14218
850.68	14271
850.815	14374
850.95	14313
851.085	14541
851.22	14427
851.355	14412
851.49	14271
851.625	14225
851.76	14286
851.895	14256
852.03	14256
852.165	14328
852.299	14370
852.434	14396
852.569	14301
852.703	14309
852.838	14358
852.973	14503
853.107	14465
853.242	14282
853.376	14187
853.511	14016
853.645	14195
853.78	14328
853.914	14199
854.048	14172
854.183	14206
854.317	14282
854.451	14358
854.585	14298
854.72	14149
854.854	14290
854.988	14054
855.122	14199
855.256	14103
855.39	14161
855.524	14271
855.658	14218
855.792	14237
855.926	14225
856.06	14191
856.194	14286
856.327	14145
856.461	14164
856.595	14073
856.729	14176
856.862	14225
856.996	14240
857.13	14240
857.263	14298
857.397	14271
857.53	14263
857.664	14278
857.797	14233
857.931	14358
858.064	14278
858.197	14320
858.331	14214
858.464	14134
858.597	14046
858.731	14054
858.864	14176
858.997	14153
859.13	14244
859.263	14164
859.396	14263
859.529	14199
859.662	14157
859.795	14123
859.928	14221
860.061	14317
860.194	14294
860.327	14145
860.46	14180
860.592	14438
860.725	14244
860.858	14362
860.99	14172
861.123	14077
861.256	14107
861.388	14233
861.521	14864
861.653	14100
861.786	13959
861.918	14107
862.05	14153
862.183	14157
862.315	14180
862.447	14191
862.58	14069
862.712	13906
862.844	13909
862.976	14035
863.108	14005
863.24	14366
863.372	13940
863.504	13989
863.636	13940
863.768	14096
863.9	13963
864.032	13940
864.164	13826
864.296	14027
864.428	14123
864.559	14081
864.691	13974
864.823	14054
864.954	13955
865.086	13970
865.217	13925
865.349	13963
865.48	13947
865.612	13982
865.743	14065
865.875	13917
866.006	13932
866.137	13841
866.269	13963
866.4	13986
866.531	13917
866.662	13906
866.793	13944
866.924	13951
867.055	13970
867.186	13921
867.317	13906
867.448	13841
867.579	13837
867.71	13826
867.841	13799
867.972	13955
868.103	13940
868.233	13993
868.364	13959
868.495	14035
868.625	14153
868.756	14214
868.886	14100
869.017	14263
869.147	14377
869.278	14252
869.408	14339
869.539	14267
869.669	14301
869.799	14195
869.929	14377
870.06	14263
870.19	14560
870.32	14530
870.45	14465
870.58	14651
870.71	14697
870.84	14674
870.97	14632
871.1	14499
871.23	14845
871.36	14792
871.489	14754
871.619	14845
871.749	14819
871.879	14826
872.008	14842
872.138	14872
872.267	14788
872.397	14663
872.526	14636
872.656	14610
872.785	14705
872.915	14705
873.044	14887
873.173	14902
873.303	14883
873.432	14880
873.561	14925
873.69	14891
873.819	14849
873.948	14952
874.077	14914
874.206	14826
874.335	14956
874.464	15013
874.593	15081
874.722	14956
874.851	15211
874.979	15230
875.108	15150
875.237	15005
875.365	15051
875.494	15127
875.623	15230
875.751	15150
875.88	15298
876.008	15389
876.136	15298
876.265	15614
876.393	15663
876.521	15618
876.65	15720
876.778	15618
876.906	15545
877.034	15549
877.162	15660
877.29	15584
877.418	15568
877.546	15553
877.674	15534
877.802	15580
877.93	15671
878.058	15564
878.185	15424
878.313	15515
878.441	15622
878.568	15443
878.696	15454
878.824	15717
878.951	15656
879.079	15816
879.206	15827
879.333	15827
879.461	15641
879.588	15743
879.715	15713
879.842	15846
879.97	15561
880.097	15504
880.224	15477
880.351	15401
880.478	15447
880.605	15389
880.732	15401
880.859	15629
880.986	15435
881.112	15523
881.239	15344
881.366	15222
881.493	15108
881.619	15116
881.746	15062
881.872	15093
881.999	15089
882.125	15074
882.252	15226
882.378	15112
882.505	15268
882.631	15017
882.757	14887
882.883	14937
883.01	14902
883.136	14891
883.262	14750
883.388	14754
883.514	14895
883.64	15017
883.766	14899
883.892	14705
884.018	14716
884.143	14948
884.269	14952
884.395	14594
884.52	14533
884.646	14636
884.772	14541
884.897	14549
885.023	14549
885.148	14731
885.274	14773
885.399	14659
885.524	14606
885.65	14659
885.775	14602
885.9	14579
886.025	14697
886.15	14594
886.275	14404
886.4	14511
886.525	14674
886.65	14617
886.775	14625
886.9	14670
887.025	14864
887.149	14549
887.274	14396
887.399	14385
887.523	14408
887.648	14404
887.773	14275
887.897	14488
888.021	14484
888.146	14385
888.27	14511
888.395	14522
888.519	14537
888.643	14518
888.767	14484
888.891	14366
889.015	14290
889.139	14351
889.263	14259
889.387	14412
889.511	14518
889.635	14362
889.759	14252
889.883	14282
890.006	14317
890.13	14423
890.254	14259
890.377	14244
890.501	14107
890.624	14092
890.748	14221
890.871	13978
890.995	13890
891.118	13860
891.241	14088
891.364	13993
891.488	14229
891.611	14069
891.734	13989
891.857	14081
891.98	13925
892.103	14039
892.226	14069
892.349	14096
892.471	13818
892.594	13940
892.717	14016
892.839	13989
892.962	14062
893.085	14027
893.207	13993
893.33	13852
893.452	13947
893.575	14031
893.697	13944
893.819	14183
893.941	14157
894.064	14134
894.186	13997
894.308	13936
894.43	14126
894.552	14168
894.674	14176
894.796	13913
894.918	14008
895.04	14077
895.161	14115
895.283	14191
895.405	14069
895.526	13967
895.648	14149
895.769	14259
895.891	14221
896.012	14301
896.134	14187
896.255	14233
896.376	14138
896.498	14092
896.619	14233
896.74	14130
896.861	14263
896.982	14552
897.103	14693
897.224	14549
897.345	14461
897.466	14377
897.587	14427
897.708	14499
897.828	14514
897.949	14374
898.07	14290
898.19	14415
898.311	14522
898.431	14511
898.552	14549
898.672	14549
898.792	14625
898.913	14545
899.033	14419
899.153	14347
899.273	14317
899.393	14381
899.513	14393
899.633	14374
899.753	14465
899.873	14339
899.993	14423
900.113	14419
900.232	14385
900.352	14408
900.472	14294
900.591	14248
900.711	14275
900.83	14195
900.95	14336
901.069	14374
901.189	14206
901.308	13909
901.427	13883
901.546	13898
901.665	13955
901.784	13967
901.904	13875
902.023	13788
902.141	13510
902.26	13476
902.379	13689
902.498	13594
902.617	13476
902.735	13563
902.854	13502
902.973	13346
903.091	13213
903.21	13202
903.328	13190
903.446	13095
903.565	13095
903.683	13122
903.801	13076
903.919	13076
904.038	13038
904.156	12848
904.274	12928
904.392	12856
904.51	12821
904.627	12821
904.745	12928
904.863	12871
904.981	12631
905.098	12445
905.216	12528
905.334	12574
905.451	12604
905.569	12578
905.686	12646
905.803	12570
905.921	12384
906.038	12448
906.155	12486
906.272	12304
906.389	12315
906.506	12148
906.623	12121
906.74	12102
906.857	12167
906.974	12098
907.091	12235
907.208	12258
907.324	12266
907.441	12121
907.557	11878
907.674	11912
907.79	11893
907.907	11904
908.023	12034
908.139	11931
908.256	11897
908.372	11855
908.488	11817
908.604	11703
908.72	11668
908.836	11657
908.952	11767
909.068	11707
909.184	11680
909.3	11699
909.415	11737
909.531	11668
909.647	11509
909.762	11471
909.878	11410
909.993	11414
910.108	11501
910.224	11421
910.339	11490
910.454	11353
910.57	11273
910.685	11235
910.8	11493
910.915	11524
911.03	11261
911.145	11147
911.259	11159
911.374	11143
911.489	11056
911.604	11041
911.718	10847
911.833	10896
911.947	10828
912.062	10809
912.176	10900
912.291	10946
912.405	10900
912.519	11094
912.633	11185
912.748	11014
912.862	10862
912.976	10812
913.09	10649
913.204	10748
913.318	10786
913.431	10850
913.545	10850
913.659	10892
913.772	10778
913.886	10641
914	10607
914.113	10748
914.226	10717
914.34	10740
914.453	10569
914.566	10698
914.68	10584
914.793	10622
914.906	10436
915.019	10341
915.132	10337
915.245	10382
915.358	10386
915.47	10478
915.583	10500
915.696	10474
915.809	10527
915.921	10535
916.034	10314
916.146	10375
916.259	10402
916.371	10462
916.483	10451
916.595	10295
916.708	10318
916.82	10375
916.932	10299
917.044	10379
917.156	10367
917.268	10215
917.38	10261
917.491	10192
917.603	10204
917.715	10284
917.826	10352
917.938	10280
918.049	10128
918.161	10287
918.272	10405
918.384	10352
918.495	10188
918.606	10204
918.717	10063
918.828	10120
918.939	10139
919.05	10048
919.161	10128
919.272	9953
919.383	9991
919.494	10166
919.604	10394
919.715	10097
919.826	10120
919.936	10090
920.047	10207
920.157	10200
920.267	10443
920.378	10173
920.488	10105
920.598	10325
920.708	10462
920.818	10421
920.928	10329
921.038	10443
921.148	10497
921.258	10185
921.368	10051
921.477	10010
921.587	9968
921.697	9918
921.806	10013
921.916	9945
922.025	9819
922.134	9667
922.244	9663
922.353	9747
922.462	9545
922.571	9519
922.68	9378
922.789	9416
922.898	9367
923.007	9389
923.116	9412
923.224	9386
923.333	9374
923.442	9253
923.55	9306
923.659	9306
923.767	9359
923.876	9260
923.984	9325
924.092	9230
924.201	9188
924.309	9325
924.417	9317
924.525	9188
924.633	9116
924.741	10173
924.849	9020
924.956	9138
925.064	9074
925.172	8971
925.279	9055
925.387	9017
925.494	9085
925.602	9241
925.709	9169
925.816	8979
925.924	9131
926.031	9161
926.138	9138
926.245	9116
926.352	8963
926.459	9131
926.566	9173
926.673	8982
926.779	8899
926.886	8967
926.993	8769
927.099	8769
927.206	8701
927.312	8724
927.419	8826
927.525	8819
927.631	8815
927.737	8697
927.843	8678
927.95	8579
928.056	8689
928.162	8655
928.267	8674
928.373	9249
928.479	8804
928.585	8522
928.69	8712
928.796	8678
928.901	8579
929.007	8454
929.112	8625
929.218	8537
929.323	8560
929.428	8454
929.533	8579
929.638	8450
929.743	8446
929.848	8503
929.953	8457
930.058	8366
930.163	8275
930.267	8309
930.372	8355
930.477	8202
930.581	8480
930.685	8332
930.79	8218
930.894	8271
930.998	8199
931.103	8400
931.207	7993
931.311	7978
931.415	7871
931.519	7719
931.623	7734
