Data from test_V78500241_1225.txt Node
Date: Fri Mar 25 14:42:14 CST 2022
User: usil
Spectrometer: V785-0024
Trigger mode: 0
Integration Time (sec): 4.000000E-1
Scans to average: 1
Nonlinearity correction enabled: false
Boxcar width: 0
Storing dark spectrum: false
XAxis mode: Wavelengths
Number of Pixels in Spectrum: 1024
>>>>>Begin Spectral Data<<<<<
801.071	22413
801.214	22390
801.356	21987
801.499	21998
801.641	21755
801.783	21698
801.926	21835
802.068	21736
802.211	21682
802.353	21557
802.496	21321
802.638	21283
802.78	21294
802.923	21077
803.065	21142
803.208	20967
803.35	21176
803.492	21214
803.635	21397
803.777	21131
803.919	21252
804.061	21393
804.204	21142
804.346	21036
804.488	20925
804.63	21096
804.773	20929
804.915	21051
805.057	21256
805.199	21028
805.341	21077
805.483	21036
805.626	21112
805.768	20914
805.91	21001
806.052	20971
806.194	20918
806.336	21138
806.478	20994
806.62	21001
806.762	21135
806.904	21184
807.046	21454
807.188	21363
807.33	21386
807.472	21386
807.614	21321
807.756	21351
807.898	21283
808.04	21112
808.182	21184
808.324	21123
808.465	21184
808.607	21374
808.749	21393
808.891	21610
809.033	21542
809.174	21549
809.316	21519
809.458	21420
809.6	21473
809.741	21454
809.883	21466
810.025	21694
810.166	21530
810.308	21519
810.45	21477
810.591	21488
810.733	21313
810.875	21062
811.016	21165
811.158	21074
811.299	21192
811.441	21275
811.582	21454
811.724	21150
811.865	21112
812.007	21161
812.148	21176
812.29	21336
812.431	21336
812.573	21629
812.714	21637
812.855	21720
812.997	21755
813.138	21876
813.279	21774
813.421	21660
813.562	21667
813.703	21420
813.845	21237
813.986	21154
814.127	20998
814.268	20796
814.41	20826
814.551	20682
814.692	20910
814.833	20651
814.974	20663
815.115	20720
815.256	20606
815.397	20549
815.539	20636
815.68	20549
815.821	20423
815.962	20454
816.103	20317
816.244	20263
816.385	20278
816.526	20229
816.666	20020
816.807	19913
816.948	19917
817.089	20027
817.23	19970
817.371	19947
817.512	19925
817.653	19727
817.793	19742
817.934	19978
818.075	19913
818.216	19875
818.356	19860
818.497	19696
818.638	19571
818.778	19635
818.919	19586
819.06	19586
819.2	19685
819.341	19693
819.481	19780
819.622	19890
819.762	20092
819.903	19959
820.043	19940
820.184	19818
820.324	19864
820.465	19997
820.605	19860
820.746	19913
820.886	19609
821.026	19868
821.167	19822
821.307	19913
821.447	19795
821.588	19677
821.728	19590
821.868	19373
822.008	19304
822.149	19278
822.289	19331
822.429	19038
822.569	18928
822.709	18977
822.849	18741
822.99	18722
823.13	18768
823.27	18776
823.41	18547
823.55	18566
823.69	18559
823.83	18684
823.97	18441
824.11	18422
824.25	18456
824.389	18357
824.529	18330
824.669	18395
824.809	18494
824.949	18445
825.089	18498
825.228	18285
825.368	18186
825.508	18144
825.648	18190
825.787	18159
825.927	18262
826.067	18121
826.206	18060
826.346	18182
826.485	18224
826.625	18194
826.765	18251
826.904	18182
827.044	18038
827.183	17935
827.323	17821
827.462	17927
827.601	17805
827.741	17836
827.88	17946
828.02	17714
828.159	17775
828.298	17821
828.437	17847
828.577	17802
828.716	17901
828.855	17809
828.994	17566
829.134	17570
829.273	17729
829.412	17493
829.551	17532
829.69	17600
829.829	17570
829.968	17733
830.107	17680
830.246	17627
830.385	17581
830.524	17512
830.663	17448
830.802	17242
830.941	17265
831.08	17311
831.219	17235
831.357	17353
831.496	17376
831.635	17159
831.774	17235
831.913	17208
832.051	16995
832.19	17079
832.329	17056
832.467	16862
832.606	16850
832.744	16896
832.883	16911
833.022	16919
833.16	16984
833.299	17025
833.437	16965
833.576	17037
833.714	17056
833.852	17003
833.991	17048
834.129	17128
834.267	16987
834.406	17037
834.544	16919
834.682	17014
834.821	17003
834.959	17216
835.097	16972
835.235	17067
835.373	16908
835.511	16949
835.65	16824
835.788	16942
835.926	16843
836.064	16752
836.202	16729
836.34	16889
836.478	16961
836.615	16790
836.753	16915
836.891	17014
837.029	16987
837.167	16828
837.305	16854
837.443	16755
837.58	16729
837.718	16828
837.856	16835
837.993	16694
838.131	16767
838.269	16710
838.406	16721
838.544	16596
838.681	16508
838.819	16481
838.956	16257
839.094	16249
839.231	16356
839.369	16413
839.506	16706
839.643	16527
839.781	16287
839.918	16303
840.055	16268
840.193	16318
840.33	16150
840.467	16257
840.604	16421
840.742	16519
840.879	16200
841.016	16166
841.153	16177
841.29	16398
841.427	16348
841.564	16306
841.701	16173
841.838	16310
841.975	16150
842.112	16188
842.249	16166
842.385	16071
842.522	16280
842.659	16101
842.796	16055
842.933	16029
843.069	16120
843.206	16147
843.343	16071
843.479	16173
843.616	16120
843.752	15915
843.889	15960
844.025	16067
844.162	15835
844.298	15991
844.435	15892
844.571	15903
844.708	16029
844.844	15975
844.98	16097
845.117	15972
845.253	15781
845.389	15743
845.525	15899
845.661	15819
845.798	15720
845.934	15812
846.07	15785
846.206	15778
846.342	15873
846.478	15690
846.614	15534
846.75	15473
846.886	15382
847.022	15496
847.158	15405
847.294	15496
847.429	15492
847.565	15496
847.701	15648
847.837	15161
847.972	15116
848.108	15283
848.244	15199
848.379	15047
848.515	15051
848.65	15024
848.786	15081
848.921	15058
849.057	15230
849.192	15085
849.328	14952
849.463	15024
849.598	15062
849.734	14967
849.869	14891
850.004	14842
850.14	14853
850.275	14868
850.41	14720
850.545	14743
850.68	14796
850.815	14800
850.95	14777
851.085	14925
851.22	14963
851.355	14727
851.49	14716
851.625	14815
851.76	14705
851.895	14727
852.03	14682
852.165	14777
852.299	14842
852.434	14792
852.569	14872
852.703	14861
852.838	14910
852.973	14937
853.107	14868
853.242	14796
853.376	14640
853.511	14636
853.645	14705
853.78	14762
853.914	14785
854.048	14613
854.183	14583
854.317	14686
854.451	14838
854.585	14682
854.72	14674
854.854	14720
854.988	14571
855.122	14651
855.256	14632
855.39	14720
855.524	14788
855.658	14731
855.792	14727
855.926	14731
856.06	14762
856.194	14807
856.327	14724
856.461	14617
856.595	14587
856.729	14522
856.862	14750
856.996	14629
857.13	14674
857.263	14769
857.397	14811
857.53	14693
857.664	14750
857.797	14872
857.931	14697
858.064	14773
858.197	14777
858.331	14651
858.464	14625
858.597	14518
858.731	14571
858.864	14682
858.997	14659
859.13	14739
859.263	14739
859.396	14724
859.529	14651
859.662	14587
859.795	14587
859.928	14670
860.061	14796
860.194	14929
860.327	14644
860.46	14659
860.592	14705
860.725	14826
860.858	14811
860.99	14701
861.123	14686
861.256	14598
861.388	14667
861.521	15310
861.653	14708
861.786	14503
861.918	14564
862.05	14583
862.183	14571
862.315	14674
862.447	14701
862.58	14568
862.712	14415
862.844	14355
862.976	14476
863.108	14492
863.24	14906
863.372	14347
863.504	14427
863.636	14404
863.768	14427
863.9	14511
864.032	14313
864.164	14374
864.296	14476
864.428	14530
864.559	14564
864.691	14457
864.823	14469
864.954	14412
865.086	14530
865.217	14385
865.349	14404
865.48	14461
865.612	14457
865.743	14625
865.875	14427
866.006	14339
866.137	14533
866.269	14317
866.4	14476
866.531	14366
866.662	14427
866.793	14423
866.924	14294
867.055	14412
867.186	14419
867.317	14446
867.448	14248
867.579	14339
867.71	14313
867.841	14336
867.972	14522
868.103	14442
868.233	14396
868.364	14457
868.495	14431
868.625	14670
868.756	14773
868.886	14571
869.017	14648
869.147	14777
869.278	14815
869.408	14648
869.539	14762
869.669	14830
869.799	14807
869.929	14872
870.06	14815
870.19	15043
870.32	14921
870.45	14967
870.58	15039
870.71	15192
870.84	15097
870.97	15074
871.1	15017
871.23	15264
871.36	15245
871.489	15199
871.619	15066
871.749	15260
871.879	15287
872.008	15378
872.138	15173
872.267	15192
872.397	15089
872.526	15074
872.656	15077
872.785	15032
872.915	15348
873.044	15389
873.173	15298
873.303	15287
873.432	15340
873.561	15378
873.69	15291
873.819	15310
873.948	15397
874.077	15275
874.206	15298
874.335	15401
874.464	15504
874.593	15690
874.722	15584
874.851	15679
874.979	15682
875.108	15732
875.237	15652
875.365	15564
875.494	15542
875.623	15629
875.751	15633
875.88	15606
876.008	15785
876.136	15800
876.265	16017
876.393	16211
876.521	16223
876.65	16097
876.778	16067
876.906	16013
877.034	15987
877.162	16040
877.29	15930
877.418	15911
877.546	16002
877.674	16002
877.802	16048
877.93	16112
878.058	16067
878.185	15926
878.313	16044
878.441	16101
878.568	15861
878.696	15953
878.824	15968
878.951	16128
879.079	16268
879.206	16303
879.333	16261
879.461	16124
879.588	16200
879.715	16360
879.842	16306
879.97	16169
880.097	15941
880.224	15831
880.351	15945
880.478	15873
880.605	15869
880.732	15804
880.859	16162
880.986	15835
881.112	15892
881.239	15831
881.366	15736
881.493	15622
881.619	15504
881.746	15496
881.872	15538
881.999	15568
882.125	15663
882.252	15644
882.378	15599
882.505	15675
882.631	15454
882.757	15389
882.883	15454
883.01	15363
883.136	15230
883.262	15272
883.388	15291
883.514	15431
883.64	15374
883.766	15348
883.892	15112
884.018	15226
884.143	15298
884.269	15435
884.395	15142
884.52	15081
884.646	15081
884.772	14971
884.897	15081
885.023	15055
885.148	15264
885.274	15188
885.399	15127
885.524	15017
885.65	15150
885.775	15154
885.9	15017
886.025	15237
886.15	15184
886.275	15074
886.4	15032
886.525	14960
886.65	14986
886.775	14994
886.9	15176
887.025	15336
887.149	15032
887.274	14948
887.399	14868
887.523	14910
887.648	14918
887.773	14765
887.897	14998
888.021	14994
888.146	14895
888.27	14925
888.395	14956
888.519	14941
888.643	14967
888.767	14887
888.891	14830
889.015	14701
889.139	14845
889.263	14773
889.387	14853
889.511	14929
889.635	14880
889.759	14678
889.883	14693
890.006	14788
890.13	14800
890.254	14602
890.377	14758
890.501	14549
890.624	14518
890.748	14606
890.871	14431
890.995	14404
891.118	14278
891.241	14412
891.364	14541
891.488	14537
891.611	14336
891.734	14446
891.857	14476
891.98	14423
892.103	14530
892.226	14507
892.349	14408
892.471	14248
892.594	14442
892.717	14396
892.839	14362
892.962	14343
893.085	14469
893.207	14351
893.33	14301
893.452	14358
893.575	14507
893.697	14404
893.819	14640
893.941	14674
894.064	14594
894.186	14412
894.308	14351
894.43	14511
894.552	14629
894.674	14716
894.796	14488
894.918	14476
895.04	14415
895.161	14583
895.283	14492
895.405	14404
895.526	14476
895.648	14556
895.769	14575
895.891	14552
896.012	14606
896.134	14667
896.255	14594
896.376	14579
896.498	14533
896.619	14602
896.74	14568
896.861	14640
896.982	14998
897.103	15074
897.224	14971
897.345	14807
897.466	14826
897.587	14921
897.708	15100
897.828	14853
897.949	14883
898.07	14765
898.19	14842
898.311	14967
898.431	14887
898.552	14994
898.672	15013
898.792	14990
898.913	14925
899.033	14944
899.153	14785
899.273	14750
899.393	14644
899.513	14720
899.633	14712
899.753	14826
899.873	14804
899.993	14902
900.113	14731
900.232	14727
900.352	14731
900.472	14629
900.591	14655
900.711	14590
900.83	14560
900.95	14651
901.069	14678
901.189	14564
901.308	14442
901.427	14351
901.546	14248
901.665	14385
901.784	14301
901.904	14233
902.023	14027
902.141	13837
902.26	13871
902.379	13940
902.498	13791
902.617	13818
902.735	13959
902.854	13860
902.973	13879
903.091	13681
903.21	13521
903.328	13647
903.446	13445
903.565	13468
903.683	13514
903.801	13327
903.919	13430
904.038	13445
904.156	13187
904.274	13324
904.392	13198
904.51	13187
904.627	13377
904.745	13297
904.863	13327
904.981	13118
905.098	12882
905.216	12852
905.334	13065
905.451	12920
905.569	12844
905.686	12973
905.803	13008
905.921	12715
906.038	12833
906.155	12757
906.272	12604
906.389	12696
906.506	12563
906.623	12566
906.74	12433
906.857	12365
906.974	12441
907.091	12574
907.208	12658
907.324	12585
907.441	12490
907.557	12338
907.674	12323
907.79	12254
907.907	12281
908.023	12285
908.139	12289
908.256	12216
908.372	12121
908.488	12186
908.604	11992
908.72	12079
908.836	12060
908.952	11996
909.068	12057
909.184	12144
909.3	12026
909.415	12072
909.531	12057
909.647	11840
909.762	11863
909.878	11828
909.993	11809
910.108	11764
910.224	11752
910.339	11733
910.454	11638
910.57	11661
910.685	11566
910.8	11863
910.915	11798
911.03	11634
911.145	11509
911.259	11478
911.374	11524
911.489	11429
911.604	11326
911.718	11280
911.833	11360
911.947	11208
912.062	11121
912.176	11265
912.291	11303
912.405	11197
912.519	11459
912.633	11501
912.748	11330
912.862	11258
912.976	11124
913.09	11018
913.204	11029
913.318	11204
913.431	11204
913.545	11162
913.659	11265
913.772	11136
913.886	11079
914	10980
914.113	11136
914.226	11075
914.34	11052
914.453	10953
914.566	11098
914.68	10896
914.793	10984
914.906	10763
915.019	10649
915.132	10653
915.245	10767
915.358	10805
915.47	10733
915.583	10790
915.696	10843
915.809	10900
915.921	10850
916.034	10618
916.146	10717
916.259	10683
916.371	10736
916.483	10729
916.595	10687
916.708	10702
916.82	10649
916.932	10641
917.044	10592
917.156	10573
917.268	10573
917.38	10580
917.491	10535
917.603	10565
917.715	10706
917.826	10664
917.938	10512
918.049	10447
918.161	10622
918.272	10691
918.384	10698
918.495	10519
918.606	10451
918.717	10386
918.828	10417
918.939	10474
919.05	10382
919.161	10428
919.272	10173
919.383	10341
919.494	10455
919.604	10706
919.715	10424
919.826	10360
919.936	10409
920.047	10455
920.157	10470
920.267	10618
920.378	10462
920.488	10428
920.598	10641
920.708	10828
920.818	10714
920.928	10653
921.038	10843
921.148	10736
921.258	10497
921.368	10417
921.477	10337
921.587	10242
921.697	10211
921.806	10337
921.916	10143
922.025	10002
922.134	10013
922.244	10013
922.353	10055
922.462	9835
922.571	9789
922.68	9774
922.789	9740
922.898	9675
923.007	9667
923.116	9740
923.224	9701
923.333	9690
923.442	9557
923.55	9488
923.659	9538
923.767	9618
923.876	9492
923.984	9663
924.092	9416
924.201	9534
924.309	9580
924.417	9534
924.525	9485
924.633	9526
924.741	10303
924.849	9355
924.956	9420
925.064	9344
925.172	9302
925.279	9272
925.387	9359
925.494	9374
925.602	9389
925.709	9458
925.816	9207
925.924	9291
926.031	9393
926.138	9351
926.245	9367
926.352	9287
926.459	9389
926.566	9424
926.673	9264
926.779	9142
926.886	9157
926.993	9089
927.099	8967
927.206	9001
927.312	8994
927.419	9108
927.525	9070
927.631	9081
927.737	8990
927.843	8864
927.95	8777
928.056	8792
928.162	8895
928.267	8952
928.373	9599
928.479	9051
928.585	8773
928.69	8956
928.796	8960
928.901	8781
929.007	8667
929.112	8849
929.218	8838
929.323	8743
929.428	8727
929.533	8807
929.638	8621
929.743	8720
929.848	8743
929.953	8727
930.058	8651
930.163	8522
930.267	8556
930.372	8636
930.477	8514
930.581	8727
930.685	8629
930.79	8423
930.894	8465
930.998	8488
931.103	8590
931.207	8290
931.311	8172
931.415	8088
931.519	7978
931.623	7947
