Data from test_V78500241_755.txt Node
Date: Fri Mar 25 14:38:58 CST 2022
User: usil
Spectrometer: V785-0024
Trigger mode: 0
Integration Time (sec): 4.000000E-1
Scans to average: 1
Nonlinearity correction enabled: false
Boxcar width: 0
Storing dark spectrum: false
XAxis mode: Wavelengths
Number of Pixels in Spectrum: 1024
>>>>>Begin Spectral Data<<<<<
801.071	26864
801.214	27036
801.356	26667
801.499	26674
801.641	26492
801.783	26377
801.926	26450
802.068	26267
802.211	26153
802.353	26130
802.496	25921
802.638	25860
802.78	25921
802.923	25780
803.065	25803
803.208	25822
803.35	25833
803.492	25963
803.635	26069
803.777	25887
803.919	25963
804.061	26366
804.204	26202
804.346	26054
804.488	25940
804.63	26138
804.773	26107
804.915	26180
805.057	26362
805.199	26229
805.341	26374
805.483	26473
805.626	26518
805.768	26556
805.91	26785
806.052	26781
806.194	26864
806.336	27302
806.478	27511
806.62	27298
806.762	27747
806.904	28135
807.046	28748
807.188	28930
807.33	29452
807.472	30057
807.614	30753
807.756	31742
807.898	32522
808.04	34253
808.182	36243
808.324	38864
808.465	41965
808.607	45150
808.749	48163
808.891	50035
809.033	50248
809.174	48479
809.316	45686
809.458	42220
809.6	38724
809.741	35874
809.883	33644
810.025	32195
810.166	31038
810.308	30346
810.45	29535
810.591	29041
810.733	28538
810.875	28070
811.016	27800
811.158	27492
811.299	27485
811.441	27481
811.582	27344
811.724	26998
811.865	26910
812.007	26754
812.148	26670
812.29	26796
812.431	26739
812.573	26872
812.714	26781
812.855	26830
812.997	26979
813.138	27165
813.279	26952
813.421	26720
813.562	26446
813.703	26347
813.845	26275
813.986	26027
814.127	25788
814.268	25575
814.41	25658
814.551	25708
814.692	25624
814.833	25407
814.974	25213
815.115	25384
815.256	25209
815.397	25320
815.539	25103
815.68	24973
815.821	24932
815.962	25080
816.103	24947
816.244	24878
816.385	24734
816.526	24757
816.666	24551
816.807	24270
816.948	24528
817.089	24498
817.23	24456
817.371	24407
817.512	24380
817.653	24414
817.793	24232
817.934	24315
818.075	24422
818.216	24186
818.356	24190
818.497	24148
818.638	24003
818.778	23935
818.919	24045
819.06	23954
819.2	24167
819.341	24251
819.481	24121
819.622	24311
819.762	24357
819.903	24426
820.043	24300
820.184	24285
820.324	24178
820.465	24262
820.605	24140
820.746	24087
820.886	23950
821.026	24007
821.167	23935
821.307	24209
821.447	23946
821.588	23824
821.728	23699
821.868	23562
822.008	23524
822.149	23337
822.289	23303
822.429	23056
822.569	22953
822.709	23140
822.849	22835
822.99	22831
823.13	22843
823.27	22763
823.41	22691
823.55	22596
823.69	22596
823.83	22538
823.97	22459
824.11	22386
824.25	22348
824.389	22325
824.529	22322
824.669	22348
824.809	22478
824.949	22497
825.089	22455
825.228	22402
825.368	22188
825.508	22215
825.648	22185
825.787	22284
825.927	22268
826.067	22128
826.206	22109
826.346	22143
826.485	22219
826.625	22196
826.765	22287
826.904	22166
827.044	21899
827.183	21880
827.323	21747
827.462	21869
827.601	21800
827.741	21770
827.88	21819
828.02	21679
828.159	21724
828.298	21762
828.437	21895
828.577	21812
828.716	21797
828.855	21728
828.994	21496
829.134	21568
829.273	21572
829.412	21439
829.551	21408
829.69	21473
829.829	21538
829.968	21530
830.107	21572
830.246	21504
830.385	21469
830.524	21359
830.663	21340
830.802	21226
830.941	21142
831.08	21100
831.219	21283
831.357	21233
831.496	21332
831.635	21154
831.774	21039
831.913	21077
832.051	20952
832.19	20895
832.329	21138
832.467	20910
832.606	21013
832.744	21036
832.883	21108
833.022	21131
833.16	21157
833.299	21336
833.437	21454
833.576	21557
833.714	21770
833.852	21937
833.991	22025
834.129	22211
834.267	22204
834.406	21934
834.544	21994
834.682	21842
834.821	21686
834.959	21854
835.097	21447
835.235	21557
835.373	21351
835.511	21264
835.65	20960
835.788	20880
835.926	20792
836.064	20526
836.202	20632
836.34	20762
836.478	20785
836.615	20705
836.753	20689
836.891	20765
837.029	20678
837.167	20640
837.305	20587
837.443	20473
837.58	20514
837.718	20564
837.856	20492
837.993	20336
838.131	20526
838.269	20328
838.406	20438
838.544	20199
838.681	20111
838.819	20077
838.956	19970
839.094	19875
839.231	19982
839.369	20073
839.506	20256
839.643	20176
839.781	19841
839.918	19795
840.055	19864
840.193	19932
840.33	19883
840.467	19852
840.604	19909
840.742	20161
840.879	19696
841.016	19894
841.153	19879
841.29	20027
841.427	19830
841.564	19906
841.701	19791
841.838	19742
841.975	19731
842.112	19860
842.249	19719
842.385	19704
842.522	19856
842.659	19712
842.796	19772
842.933	19791
843.069	19765
843.206	19837
843.343	19913
843.479	19856
843.616	19849
843.752	19727
843.889	19719
844.025	19845
844.162	19879
844.298	20088
844.435	20039
844.571	20332
844.708	20530
844.844	21135
844.98	21519
845.117	22249
845.253	23029
845.389	24992
845.525	28603
845.661	34656
845.798	41604
845.934	46668
846.07	48738
846.206	47117
846.342	42095
846.478	35235
846.614	29410
846.75	25635
846.886	23178
847.022	22025
847.158	21028
847.294	20290
847.429	20126
847.565	19803
847.701	19849
847.837	19388
847.972	19129
848.108	19194
848.244	19103
848.379	18837
848.515	18764
848.65	18707
848.786	18776
848.921	18745
849.057	18760
849.192	18783
849.328	18700
849.463	18559
849.598	18681
849.734	18532
849.869	18547
850.004	18395
850.14	18441
850.275	18273
850.41	18281
850.545	18357
850.68	18311
850.815	18270
850.95	18224
851.085	18464
851.22	18300
851.355	18350
851.49	18323
851.625	18319
851.76	18216
851.895	18281
852.03	18243
852.165	18311
852.299	18357
852.434	18334
852.569	18296
852.703	18437
852.838	18452
852.973	18570
853.107	18448
853.242	18380
853.376	18376
853.511	18346
853.645	18448
853.78	18642
853.914	18532
854.048	18547
854.183	18578
854.317	18498
854.451	18715
854.585	18521
854.72	18620
854.854	18608
854.988	18456
855.122	18380
855.256	18289
855.39	18403
855.524	18395
855.658	18460
855.792	18300
855.926	18277
856.06	18410
856.194	18254
856.327	18152
856.461	18201
856.595	18140
856.729	18136
856.862	18304
856.996	18148
857.13	18300
857.263	18182
857.397	18213
857.53	17999
857.664	18114
857.797	18201
857.931	18273
858.064	18098
858.197	18159
858.331	18079
858.464	18030
858.597	18019
858.731	18098
858.864	17958
858.997	18053
859.13	18053
859.263	18060
859.396	18129
859.529	17904
859.662	17969
859.795	17977
859.928	17999
860.061	18060
860.194	18068
860.327	17927
860.46	17942
860.592	18114
860.725	18102
860.858	18091
860.99	17893
861.123	17832
861.256	17851
861.388	17790
861.521	18627
861.653	17790
861.786	17760
861.918	17832
862.05	17893
862.183	17885
862.315	17840
862.447	17977
862.58	17920
862.712	17661
862.844	17608
862.976	17729
863.108	17737
863.24	18171
863.372	17611
863.504	17581
863.636	17722
863.768	17661
863.9	17562
864.032	17528
864.164	17581
864.296	17649
864.428	17771
864.559	17665
864.691	17714
864.823	17520
864.954	17665
865.086	17630
865.217	17497
865.349	17528
865.48	17501
865.612	17486
865.743	17680
865.875	17562
866.006	17493
866.137	17646
866.269	17570
866.4	17589
866.531	17535
866.662	17505
866.793	17410
866.924	17379
867.055	17463
867.186	17581
867.317	17425
867.448	17414
867.579	17512
867.71	17467
867.841	17448
867.972	17577
868.103	17387
868.233	17592
868.364	17558
868.495	17676
868.625	17676
868.756	17805
868.886	17707
869.017	17748
869.147	17882
869.278	17904
869.408	17832
869.539	17882
869.669	17855
869.799	17821
869.929	17912
870.06	17977
870.19	18076
870.32	18095
870.45	18140
870.58	18266
870.71	18361
870.84	18414
870.97	18251
871.1	18270
871.23	18467
871.36	18429
871.489	18395
871.619	18525
871.749	18517
871.879	18555
872.008	18604
872.138	18544
872.267	18563
872.397	18502
872.526	18471
872.656	18441
872.785	18536
872.915	18627
873.044	18722
873.173	18658
873.303	18757
873.432	18684
873.561	18989
873.69	18741
873.819	18753
873.948	19023
874.077	18867
874.206	18856
874.335	18897
874.464	19057
874.593	19232
874.722	19232
874.851	19316
874.979	19331
875.108	19411
875.237	19438
875.365	19377
875.494	19304
875.623	19613
875.751	19559
875.88	19624
876.008	19704
876.136	19852
876.265	20096
876.393	20244
876.521	20263
876.65	20454
876.778	20332
876.906	20259
877.034	20351
877.162	20621
877.29	20537
877.418	20640
877.546	20765
877.674	20963
877.802	20925
877.93	21093
878.058	21264
878.185	21393
878.313	21797
878.441	22063
878.568	22470
878.696	22968
878.824	23824
878.951	24939
879.079	26590
879.206	28717
879.333	30730
879.461	32560
879.588	33534
879.715	33587
879.842	32769
879.97	30684
880.097	28584
880.224	26956
880.351	25788
880.478	24878
880.605	24323
880.732	23931
880.859	23973
880.986	23543
881.112	23402
881.239	23140
881.366	23048
881.493	23029
881.619	22877
881.746	23033
881.872	22984
881.999	23041
882.125	23022
882.252	23155
882.378	23189
882.505	23261
882.631	23136
882.757	23033
882.883	23071
883.01	23128
883.136	22961
883.262	22881
883.388	22782
883.514	23037
883.64	23041
883.766	22919
883.892	22759
884.018	22679
884.143	22942
884.269	23048
884.395	22675
884.52	22771
884.646	22786
884.772	22656
884.897	22512
885.023	22637
885.148	22740
885.274	22793
885.399	22561
885.524	22504
885.65	22246
885.775	22147
885.9	22090
886.025	22006
886.15	21918
886.275	21618
886.4	21374
886.525	21428
886.65	21119
886.775	21017
886.9	21096
887.025	21093
887.149	20762
887.274	20503
887.399	20507
887.523	20275
887.648	20278
887.773	20027
887.897	20187
888.021	20046
888.146	19833
888.27	20005
888.395	19978
888.519	19791
888.643	19807
888.767	19864
888.891	19597
889.015	19499
889.139	19491
889.263	19445
889.387	19502
889.511	19540
889.635	19472
889.759	19160
889.883	19187
890.006	19145
890.13	19266
890.254	18985
890.377	19038
890.501	18821
890.624	18749
890.748	18814
890.871	18738
890.995	18502
891.118	18532
891.241	18448
891.364	18498
891.488	18631
891.611	18448
891.734	18460
891.857	18479
891.98	18399
892.103	18414
892.226	18258
892.349	18216
892.471	17996
892.594	18205
892.717	18205
892.839	18148
892.962	18228
893.085	18159
893.207	18068
893.33	17889
893.452	17878
893.575	18053
893.697	17828
893.819	18072
893.941	18053
894.064	17942
894.186	17756
894.308	17726
894.43	17859
894.552	17904
894.674	17912
894.796	17714
894.918	17722
895.04	17630
895.161	17733
895.283	17805
895.405	17585
895.526	17649
895.648	17726
895.769	17668
895.891	17783
896.012	17649
896.134	17672
896.255	17623
896.376	17627
896.498	17638
896.619	17608
896.74	17623
896.861	17619
896.982	17916
897.103	18057
897.224	17783
897.345	17741
897.466	17703
897.587	17790
897.708	17866
897.828	17783
897.949	17805
898.07	17672
898.19	17710
898.311	17817
898.431	17718
898.552	17718
898.672	17855
898.792	17889
898.913	17767
899.033	17707
899.153	17596
899.273	17509
899.393	17535
899.513	17589
899.633	17543
899.753	17585
899.873	17478
899.993	17532
900.113	17562
900.232	17455
900.352	17539
900.472	17459
900.591	17376
900.711	17463
900.83	17341
900.95	17528
901.069	17395
901.189	17277
901.308	17022
901.427	16930
901.546	16968
901.665	17025
901.784	16984
901.904	16793
902.023	16725
902.141	16504
902.26	16409
902.379	16569
902.498	16367
902.617	16424
902.735	16421
902.854	16310
902.973	16325
903.091	16044
903.21	16048
903.328	15945
903.446	16002
903.565	15850
903.683	15755
903.801	15667
903.919	15835
904.038	15778
904.156	15584
904.274	15686
904.392	15462
904.51	15469
904.627	15538
904.745	15549
904.863	15705
904.981	15325
905.098	15287
905.216	15207
905.334	15241
905.451	15275
905.569	15169
905.686	15226
905.803	15173
905.921	15032
906.038	15112
906.155	15020
906.272	14842
906.389	14921
906.506	14823
906.623	14826
906.74	14769
906.857	14663
906.974	14625
907.091	14746
907.208	14895
907.324	14769
907.441	14769
907.557	14564
907.674	14518
907.79	14434
907.907	14366
908.023	14469
908.139	14484
908.256	14381
908.372	14339
908.488	14385
908.604	14240
908.72	14142
908.836	14244
908.952	14142
909.068	14229
909.184	14210
909.3	14221
909.415	14206
909.531	14172
909.647	13913
909.762	13871
909.878	13826
909.993	14031
910.108	13944
910.224	13871
910.339	13917
910.454	13788
910.57	13780
910.685	13655
910.8	14115
910.915	13940
911.03	13772
911.145	13590
911.259	13495
911.374	13480
911.489	13521
911.604	13464
911.718	13282
911.833	13282
911.947	13168
912.062	13156
912.176	13293
912.291	13293
912.405	13274
912.519	13491
912.633	13441
912.748	13419
912.862	13316
912.976	13160
913.09	13118
913.204	13099
913.318	13228
913.431	13225
913.545	13244
913.659	13259
913.772	13107
913.886	13008
914	12973
914.113	13137
914.226	13168
914.34	13118
914.453	12981
914.566	13076
914.68	13008
914.793	12886
914.906	12764
915.019	12681
915.132	12734
915.245	12688
915.358	12715
915.47	12772
915.583	12673
915.696	12814
915.809	12787
915.921	12821
916.034	12658
916.146	12700
916.259	12585
916.371	12753
916.483	12760
916.595	12642
916.708	12753
916.82	12658
916.932	12719
917.044	12578
917.156	12555
917.268	12536
917.38	12509
917.491	12498
917.603	12475
917.715	12582
917.826	12597
917.938	12464
918.049	12388
918.161	12433
918.272	12494
918.384	12555
918.495	12422
918.606	12292
918.717	12216
918.828	12330
918.939	12304
919.05	12140
919.161	12311
919.272	12091
919.383	12110
919.494	12338
919.604	12441
919.715	12285
919.826	12057
919.936	12175
920.047	12384
920.157	12167
920.267	12490
920.378	12178
920.488	12228
920.598	12422
920.708	12544
920.818	12391
920.928	12433
921.038	12540
921.148	12456
921.258	12224
921.368	12155
921.477	12007
921.587	12019
921.697	11923
921.806	12022
921.916	11855
922.025	11707
922.134	11691
922.244	11573
922.353	11775
922.462	11577
922.571	11490
922.68	11334
922.789	11345
922.898	11421
923.007	11372
923.116	11341
923.224	11368
923.333	11303
923.442	11185
923.55	11159
923.659	11216
923.767	11223
923.876	11185
923.984	11307
924.092	11056
924.201	11094
924.309	11056
924.417	11105
924.525	11056
924.633	11113
924.741	11840
924.849	10885
924.956	10984
925.064	10889
925.172	10873
925.279	10965
925.387	10889
925.494	10812
925.602	11033
925.709	10949
925.816	10797
925.924	10896
926.031	10946
926.138	10911
926.245	10843
926.352	10755
926.459	10885
926.566	10942
926.673	10824
926.779	10698
926.886	10721
926.993	10535
927.099	10481
927.206	10390
927.312	10497
927.419	10569
927.525	10508
927.631	10603
927.737	10432
927.843	10356
927.95	10291
928.056	10417
928.162	10443
928.267	10352
928.373	11014
928.479	10481
928.585	10299
928.69	10325
928.796	10284
928.901	10318
929.007	10059
929.112	10188
929.218	10230
929.323	10173
929.428	10207
929.533	10261
929.638	10063
929.743	10139
929.848	10116
929.953	10169
930.058	10051
930.163	9941
930.267	9960
930.372	9991
930.477	9865
930.581	10040
930.685	10025
930.79	9861
930.894	9827
930.998	9789
931.103	9876
931.207	9580
931.311	9481
931.415	9401
931.519	9180
931.623	9214
