Data from test_V78500241_118.txt Node
Date: Fri Mar 25 14:34:32 CST 2022
User: usil
Spectrometer: V785-0024
Trigger mode: 0
Integration Time (sec): 4.000000E-1
Scans to average: 1
Nonlinearity correction enabled: false
Boxcar width: 0
Storing dark spectrum: false
XAxis mode: Wavelengths
Number of Pixels in Spectrum: 1024
>>>>>Begin Spectral Data<<<<<
801.071	29687
801.214	29573
801.356	29429
801.499	29246
801.641	29090
801.783	29113
801.926	29105
802.068	29208
802.211	29029
802.353	29143
802.496	28980
802.638	28908
802.78	28843
802.923	28691
803.065	28767
803.208	28771
803.35	29044
803.492	29025
803.635	29124
803.777	28999
803.919	29102
804.061	29349
804.204	29159
804.346	29109
804.488	29033
804.63	28987
804.773	28999
804.915	29121
805.057	29402
805.199	29261
805.341	29372
805.483	29668
805.626	29516
805.768	29463
805.91	29600
806.052	29729
806.194	29722
806.336	30068
806.478	30117
806.62	30110
806.762	30323
806.904	30616
807.046	31099
807.188	31251
807.33	31502
807.472	31993
807.614	32503
807.756	32864
807.898	33625
808.04	34531
808.182	35939
808.324	37639
808.465	39553
808.607	41680
808.749	43426
808.891	44754
809.033	44743
809.174	43772
809.316	41802
809.458	39420
809.6	37343
809.741	35691
809.883	34367
810.025	33427
810.166	32720
810.308	32248
810.45	31723
810.591	31548
810.733	31107
810.875	30970
811.016	30479
811.158	30422
811.299	30418
811.441	30270
811.582	30353
811.724	30152
811.865	30133
812.007	29961
812.148	29958
812.29	30041
812.431	30068
812.573	30182
812.714	30136
812.855	30338
812.997	30197
813.138	30418
813.279	30171
813.421	30015
813.562	29920
813.703	29764
813.845	29649
813.986	29421
814.127	29204
814.268	29052
814.41	29064
814.551	29033
814.692	29079
814.833	28984
814.974	28797
815.115	28881
815.256	28839
815.397	28744
815.539	28694
815.68	28512
815.821	28618
815.962	28664
816.103	28523
816.244	28535
816.385	28363
816.526	28249
816.666	28226
816.807	27888
816.948	27987
817.089	27998
817.23	27972
817.371	27880
817.512	27907
817.653	27808
817.793	27865
817.934	27865
818.075	27873
818.216	27831
818.356	27914
818.497	27831
818.638	27625
818.778	27671
818.919	27553
819.06	27606
819.2	27709
819.341	27728
819.481	27846
819.622	28169
819.762	28032
819.903	27953
820.043	27941
820.184	27941
820.324	27842
820.465	27895
820.605	27739
820.746	27724
820.886	27576
821.026	27732
821.167	27580
821.307	27698
821.447	27557
821.588	27538
821.728	27473
821.868	27192
822.008	27077
822.149	27013
822.289	27036
822.429	26746
822.569	26724
822.709	26792
822.849	26602
822.99	26507
823.13	26324
823.27	26339
823.41	26355
823.55	26092
823.69	26263
823.83	26145
823.97	26191
824.11	25986
824.25	25993
824.389	26005
824.529	26103
824.669	26103
824.809	26153
824.949	26062
825.089	26180
825.228	26005
825.368	25795
825.508	25890
825.648	25887
825.787	25868
825.927	25871
826.067	25734
826.206	25765
826.346	25906
826.485	25715
826.625	25871
826.765	25986
826.904	25864
827.044	25540
827.183	25559
827.323	25400
827.462	25529
827.601	25392
827.741	25476
827.88	25457
828.02	25441
828.159	25388
828.298	25449
828.437	25575
828.577	25381
828.716	25605
828.855	25518
828.994	25221
829.134	25232
829.273	25255
829.412	25187
829.551	25198
829.69	25126
829.829	25240
829.968	25099
830.107	25251
830.246	25057
830.385	24962
830.524	24966
830.663	25019
830.802	24947
830.941	24608
831.08	24597
831.219	24768
831.357	24829
831.496	24856
831.635	24646
831.774	24700
831.913	24650
832.051	24612
832.19	24544
832.329	24445
832.467	24544
832.606	24384
832.744	24494
832.883	24555
833.022	24608
833.16	24597
833.299	24738
833.437	24741
833.576	24833
833.714	24977
833.852	25072
833.991	25091
834.129	25080
834.267	25194
834.406	25187
834.544	25065
834.682	25129
834.821	24897
834.959	24951
835.097	24627
835.235	24707
835.373	24795
835.511	24578
835.65	24365
835.788	24448
835.926	24102
836.064	24057
836.202	24171
836.34	24243
836.478	24220
836.615	24106
836.753	24197
836.891	24239
837.029	24106
837.167	24079
837.305	24076
837.443	24026
837.58	23756
837.718	24018
837.856	24064
837.993	23870
838.131	24060
838.269	23828
838.406	23817
838.544	23741
838.681	23707
838.819	23509
838.956	23372
839.094	23349
839.231	23372
839.369	23516
839.506	23699
839.643	23627
839.781	23261
839.918	23216
840.055	23322
840.193	23231
840.33	23250
840.467	23303
840.604	23398
840.742	23391
840.879	23147
841.016	23151
841.153	23227
841.29	23341
841.427	23299
841.564	23216
841.701	23315
841.838	23143
841.975	23079
842.112	23216
842.249	23124
842.385	23010
842.522	23326
842.659	23079
842.796	23025
842.933	23033
843.069	23204
843.206	23185
843.343	23079
843.479	23132
843.616	23166
843.752	22911
843.889	22976
844.025	23086
844.162	23033
844.298	23368
844.435	23185
844.571	23296
844.708	23490
844.844	23752
844.98	24114
845.117	24467
845.253	24970
845.389	26206
845.525	28390
845.661	31966
845.798	36517
845.934	39751
846.07	41341
846.206	40405
846.342	37327
846.478	33020
846.614	29025
846.75	26488
846.886	24951
847.022	24087
847.158	23562
847.294	23109
847.429	22919
847.565	22717
847.701	22953
847.837	22306
847.972	22181
848.108	22303
848.244	22135
848.379	22036
848.515	22006
848.65	21903
848.786	21949
848.921	21861
849.057	22036
849.192	21915
849.328	21926
849.463	21846
849.598	21755
849.734	21682
849.869	21694
850.004	21614
850.14	21561
850.275	21526
850.41	21561
850.545	21507
850.68	21405
850.815	21671
850.95	21545
851.085	21724
851.22	21603
851.355	21507
851.49	21507
851.625	21492
851.76	21469
851.895	21454
852.03	21405
852.165	21523
852.299	21500
852.434	21671
852.569	21778
852.703	21572
852.838	21671
852.973	21793
853.107	21720
853.242	21622
853.376	21462
853.511	21389
853.645	21397
853.78	21728
853.914	21682
854.048	21549
854.183	21583
854.317	21568
854.451	21709
854.585	21595
854.72	21625
854.854	21663
854.988	21526
855.122	21523
855.256	21458
855.39	21515
855.524	21519
855.658	21583
855.792	21473
855.926	21454
856.06	21332
856.194	21462
856.327	21367
856.461	21428
856.595	21374
856.729	21340
856.862	21370
856.996	21329
857.13	21287
857.263	21443
857.397	21351
857.53	21195
857.664	21287
857.797	21355
857.931	21325
858.064	21233
858.197	21408
858.331	21203
858.464	21245
858.597	21150
858.731	21154
858.864	21211
858.997	21127
859.13	21397
859.263	21218
859.396	21351
859.529	21218
859.662	21203
859.795	21123
859.928	21199
860.061	21351
860.194	21310
860.327	21207
860.46	21169
860.592	21275
860.725	21310
860.858	21207
860.99	21146
861.123	20990
861.256	21077
861.388	21127
861.521	21816
861.653	21157
861.786	21070
861.918	20956
862.05	21047
862.183	21104
862.315	21207
862.447	21306
862.58	21192
862.712	21077
862.844	20777
862.976	20998
863.108	20956
863.24	21165
863.372	20872
863.504	20785
863.636	20826
863.768	20921
863.9	20765
864.032	20800
864.164	20838
864.296	20735
864.428	20960
864.559	20933
864.691	20880
864.823	20849
864.954	20758
865.086	20674
865.217	20712
865.349	20606
865.48	20689
865.612	20781
865.743	20785
865.875	20667
866.006	20686
866.137	20716
866.269	20727
866.4	20693
866.531	20632
866.662	20568
866.793	20556
866.924	20724
867.055	20667
867.186	20564
867.317	20625
867.448	20533
867.579	20575
867.71	20629
867.841	20617
867.972	20617
868.103	20602
868.233	20587
868.364	20617
868.495	20785
868.625	20807
868.756	20994
868.886	20815
869.017	20906
869.147	21058
869.278	20982
869.408	20971
869.539	20796
869.669	20952
869.799	20998
869.929	20967
870.06	21093
870.19	21161
870.32	21287
870.45	21211
870.58	21173
870.71	21370
870.84	21313
870.97	21344
871.1	21428
871.23	21500
871.36	21568
871.489	21492
871.619	21591
871.749	21603
871.879	21454
872.008	21675
872.138	21599
872.267	21595
872.397	21469
872.526	21466
872.656	21393
872.785	21488
872.915	21633
873.044	21739
873.173	21648
873.303	21713
873.432	21759
873.561	21819
873.69	21774
873.819	21671
873.948	21869
874.077	21831
874.206	21816
874.335	21850
874.464	22010
874.593	21987
874.722	22078
874.851	22147
874.979	22169
875.108	22238
875.237	22173
875.365	22116
875.494	22181
875.623	22485
875.751	22242
875.88	22390
876.008	22497
876.136	22592
876.265	22748
876.393	22965
876.521	22873
876.65	22904
876.778	22957
876.906	22980
877.034	23056
877.162	23090
877.29	22965
877.418	23083
877.546	23189
877.674	23212
877.802	23341
877.93	23334
878.058	23421
878.185	23581
878.313	23752
878.441	24003
878.568	24273
878.696	24555
878.824	25065
878.951	25963
879.079	26868
879.206	28356
879.333	29638
879.461	30585
879.588	31339
879.715	31411
879.842	30989
879.97	29619
880.097	28112
880.224	27161
880.351	26412
880.478	25864
880.605	25388
880.732	25050
880.859	25137
880.986	24856
881.112	24844
881.239	24635
881.366	24563
881.493	24486
881.619	24342
881.746	24414
881.872	24334
881.999	24433
882.125	24429
882.252	24441
882.378	24407
882.505	24684
882.631	24422
882.757	24342
882.883	24403
883.01	24171
883.136	24296
883.262	24155
883.388	24125
883.514	24228
883.64	24213
883.766	24251
883.892	24015
884.018	24197
884.143	24144
884.269	24194
884.395	24072
884.52	24003
884.646	24087
884.772	23935
884.897	23760
885.023	23863
885.148	23950
885.274	23946
885.399	23923
885.524	23684
885.65	23691
885.775	23672
885.9	23440
886.025	23353
886.15	23265
886.275	23117
886.4	22904
886.525	23022
886.65	22816
886.775	22919
886.9	22801
887.025	22923
887.149	22630
887.274	22478
887.399	22405
887.523	22325
887.648	22188
887.773	22196
887.897	22143
888.021	22070
888.146	21956
888.27	22135
888.395	22116
888.519	22090
888.643	22002
888.767	21907
888.891	21812
889.015	21671
889.139	21717
889.263	21572
889.387	21644
889.511	21644
889.635	21660
889.759	21466
889.883	21568
890.006	21306
890.13	21454
890.254	21249
890.377	21367
890.501	21104
890.624	21013
890.748	21226
890.871	20937
890.995	20929
891.118	20777
891.241	20906
891.364	20750
891.488	20842
891.611	20842
891.734	20777
891.857	20750
891.98	20826
892.103	20659
892.226	20731
892.349	20594
892.471	20347
892.594	20541
892.717	20640
892.839	20571
892.962	20549
893.085	20469
893.207	20552
893.33	20336
893.452	20248
893.575	20431
893.697	20309
893.819	20469
893.941	20545
894.064	20385
894.186	20290
894.308	20191
894.43	20313
894.552	20339
894.674	20355
894.796	20168
894.918	20145
895.04	20126
895.161	20225
895.283	20073
895.405	20100
895.526	20172
895.648	20100
895.769	20130
895.891	20142
896.012	20187
896.134	20134
896.255	20202
896.376	20035
896.498	19970
896.619	20084
896.74	20111
896.861	20214
896.982	20358
897.103	20427
897.224	20278
897.345	20355
897.466	20244
897.587	20396
897.708	20393
897.828	20332
897.949	20172
898.07	20027
898.19	20077
898.311	20271
898.431	20176
898.552	20164
898.672	20309
898.792	20267
898.913	20073
899.033	20027
899.153	19993
899.273	19799
899.393	19799
899.513	19852
899.633	19868
899.753	19906
899.873	19708
899.993	19890
900.113	19807
900.232	19803
900.352	19788
900.472	19746
900.591	19666
900.711	19620
900.83	19700
900.95	19655
901.069	19704
901.189	19563
901.308	19335
901.427	19190
901.546	19156
901.665	19251
901.784	19213
901.904	19091
902.023	18909
902.141	18738
902.26	18620
902.379	18711
902.498	18753
902.617	18642
902.735	18730
902.854	18623
902.973	18578
903.091	18365
903.21	18270
903.328	18369
903.446	18194
903.565	18224
903.683	18060
903.801	17958
903.919	18117
904.038	18049
904.156	17958
904.274	17927
904.392	17756
904.51	17893
904.627	17885
904.745	17908
904.863	17931
904.981	17630
905.098	17490
905.216	17547
905.334	17611
905.451	17554
905.569	17440
905.686	17543
905.803	17505
905.921	17353
906.038	17436
906.155	17364
906.272	17102
906.389	17178
906.506	17067
906.623	16987
906.74	17018
906.857	16984
906.974	16995
907.091	17041
907.208	17220
907.324	17083
907.441	16877
907.557	16725
907.674	16858
907.79	16721
907.907	16698
908.023	16736
908.139	16675
908.256	16622
908.372	16508
908.488	16565
908.604	16546
908.72	16440
908.836	16455
908.952	16379
909.068	16386
909.184	16569
909.3	16421
909.415	16424
909.531	16447
909.647	16162
909.762	16192
909.878	16063
909.993	16192
910.108	16101
910.224	16044
910.339	16192
910.454	16055
910.57	15945
910.685	15922
910.8	16211
910.915	16162
911.03	15869
911.145	15762
911.259	15724
911.374	15701
911.489	15656
911.604	15660
911.718	15466
911.833	15515
911.947	15393
912.062	15310
912.176	15511
912.291	15526
912.405	15477
912.519	15576
912.633	15625
912.748	15469
912.862	15519
912.976	15291
913.09	15260
913.204	15195
913.318	15317
913.431	15405
913.545	15294
913.659	15431
913.772	15237
913.886	15233
914	15036
914.113	15135
914.226	15245
914.34	15180
914.453	14967
914.566	15112
914.68	15036
914.793	14986
914.906	14765
915.019	14735
915.132	14765
915.245	14781
915.358	14804
915.47	14807
915.583	14815
915.696	14765
915.809	14861
915.921	14880
916.034	14667
916.146	14697
916.259	14678
916.371	14750
916.483	14705
916.595	14663
916.708	14522
916.82	14651
916.932	14587
917.044	14560
917.156	14575
917.268	14393
917.38	14511
917.491	14450
917.603	14301
917.715	14454
917.826	14530
917.938	14404
918.049	14214
918.161	14320
918.272	14503
918.384	14377
918.495	14336
918.606	14229
918.717	14081
918.828	14199
918.939	14168
919.05	14050
919.161	14187
919.272	13788
919.383	13883
919.494	14100
919.604	14336
919.715	14092
919.826	14043
919.936	14031
920.047	14088
920.157	14020
920.267	14275
920.378	14035
920.488	14027
920.598	14172
920.708	14415
920.818	14282
920.928	14161
921.038	14336
921.148	14237
921.258	14027
921.368	13940
921.477	13761
921.587	13799
921.697	13636
921.806	13738
921.916	13651
922.025	13575
922.134	13377
922.244	13365
922.353	13460
922.462	13350
922.571	13274
922.68	13129
922.789	13050
922.898	13175
923.007	12996
923.116	13103
923.224	13046
923.333	13133
923.442	12852
923.55	12932
923.659	12840
923.767	12928
923.876	12768
923.984	12897
924.092	12665
924.201	12951
924.309	12738
924.417	12806
924.525	12696
924.633	12741
924.741	13696
924.849	12521
924.956	12730
925.064	12563
925.172	12418
925.279	12494
925.387	12490
925.494	12540
925.602	12608
925.709	12578
925.816	12350
925.924	12437
926.031	12540
926.138	12422
926.245	12517
926.352	12270
926.459	12551
926.566	12456
926.673	12422
926.779	12315
926.886	12292
926.993	12235
927.099	12133
927.206	12087
927.312	12026
927.419	12186
927.525	12045
927.631	12159
927.737	11916
927.843	11828
927.95	11847
928.056	11817
928.162	11893
928.267	11988
928.373	12410
928.479	11931
928.585	11726
928.69	11840
928.796	11882
928.901	11703
929.007	11653
929.112	11676
929.218	11718
929.323	11604
929.428	11577
929.533	11802
929.638	11478
929.743	11524
929.848	11623
929.953	11543
930.058	11497
930.163	11395
930.267	11337
930.372	11467
930.477	11235
930.581	11459
930.685	11277
930.79	11250
930.894	11117
930.998	11204
931.103	11311
931.207	10968
931.311	10854
931.415	10843
931.519	10683
931.623	10554
