Data from test_V78500241_197.txt Node
Date: Fri Mar 25 14:35:05 CST 2022
User: usil
Spectrometer: V785-0024
Trigger mode: 0
Integration Time (sec): 4.000000E-1
Scans to average: 1
Nonlinearity correction enabled: false
Boxcar width: 0
Storing dark spectrum: false
XAxis mode: Wavelengths
Number of Pixels in Spectrum: 1024
>>>>>Begin Spectral Data<<<<<
801.071	28238
801.214	28017
801.356	27816
801.499	27770
801.641	27728
801.783	27652
801.926	27759
802.068	27534
802.211	27492
802.353	27515
802.496	27214
802.638	27169
802.78	27272
802.923	27104
803.065	27100
803.208	27150
803.35	27104
803.492	27180
803.635	27230
803.777	27112
803.919	27279
804.061	27523
804.204	27218
804.346	27146
804.488	27028
804.63	27009
804.773	26849
804.915	27089
805.057	27279
805.199	27135
805.341	27146
805.483	27260
805.626	27283
805.768	27009
805.91	27252
806.052	27203
806.194	27180
806.336	27443
806.478	27329
806.62	27245
806.762	27382
806.904	27469
807.046	27732
807.188	27629
807.33	27599
807.472	27819
807.614	27587
807.756	27743
807.898	27595
808.04	27603
808.182	27648
808.324	27892
808.465	27934
808.607	28162
808.749	28664
808.891	28481
809.033	28717
809.174	28516
809.316	28455
809.458	28333
809.6	28200
809.741	28101
809.883	27888
810.025	28181
810.166	28006
810.308	28002
810.45	27983
810.591	27778
810.733	27838
810.875	27610
811.016	27450
811.158	27507
811.299	27603
811.441	27667
811.582	27625
811.724	27515
811.865	27473
812.007	27523
812.148	27549
812.29	27606
812.431	27774
812.573	27835
812.714	27895
812.855	27991
812.997	28177
813.138	28181
813.279	28226
813.421	28067
813.562	27823
813.703	27774
813.845	27892
813.986	27488
814.127	27291
814.268	27199
814.41	27032
814.551	27058
814.692	27241
814.833	27127
814.974	27100
815.115	27100
815.256	26986
815.397	26979
815.539	26986
815.68	26914
815.821	26819
815.962	26929
816.103	26746
816.244	26746
816.385	26571
816.526	26560
816.666	26320
816.807	26130
816.948	26450
817.089	26404
817.23	26286
817.371	26145
817.512	26317
817.653	26161
817.793	26183
817.934	26050
818.075	26183
818.216	26130
818.356	26221
818.497	26119
818.638	25890
818.778	25868
818.919	25944
819.06	25955
819.2	25959
819.341	26138
819.481	25978
819.622	26237
819.762	26431
819.903	26309
820.043	26103
820.184	26043
820.324	26031
820.465	26252
820.605	26176
820.746	26081
820.886	26046
821.026	26122
821.167	26065
821.307	26267
821.447	26081
821.588	25906
821.728	25696
821.868	25700
822.008	25495
822.149	25586
822.289	25487
822.429	25350
822.569	25156
822.709	25202
822.849	24920
822.99	24932
823.13	24829
823.27	24798
823.41	24776
823.55	24669
823.69	24905
823.83	24738
823.97	24726
824.11	24483
824.25	24445
824.389	24574
824.529	24627
824.669	24467
824.809	24627
824.949	24597
825.089	24612
825.228	24384
825.368	24422
825.508	24418
825.648	24467
825.787	24399
825.927	24403
826.067	24350
826.206	24228
826.346	24437
826.485	24308
826.625	24308
826.765	24300
826.904	24342
827.044	24034
827.183	24076
827.323	23859
827.462	23942
827.601	23866
827.741	23863
827.88	23999
828.02	23809
828.159	23973
828.298	24038
828.437	23923
828.577	23958
828.716	23977
828.855	23821
828.994	23668
829.134	23615
829.273	23638
829.412	23589
829.551	23554
829.69	23592
829.829	23619
829.968	23627
830.107	23714
830.246	23535
830.385	23642
830.524	23600
830.663	23391
830.802	23299
830.941	23094
831.08	23193
831.219	23166
831.357	23250
831.496	23360
831.635	23216
831.774	23136
831.913	23102
832.051	22896
832.19	23052
832.329	22934
832.467	22968
832.606	22820
832.744	22869
832.883	22946
833.022	22820
833.16	22805
833.299	23006
833.437	23025
833.576	22881
833.714	22984
833.852	23014
833.991	23041
834.129	22953
834.267	22923
834.406	22843
834.544	22987
834.682	22968
834.821	22862
834.959	23003
835.097	22850
835.235	22759
835.373	22911
835.511	22835
835.65	22675
835.788	22607
835.926	22550
836.064	22554
836.202	22485
836.34	22675
836.478	22793
836.615	22611
836.753	22679
836.891	22656
837.029	22710
837.167	22603
837.305	22493
837.443	22508
837.58	22527
837.718	22622
837.856	22527
837.993	22295
838.131	22478
838.269	22352
838.406	22299
838.544	22314
838.681	22086
838.819	22143
838.956	22051
839.094	21956
839.231	21991
839.369	22105
839.506	22348
839.643	22276
839.781	22013
839.918	21854
840.055	21960
840.193	21865
840.33	21720
840.467	21743
840.604	21774
840.742	22044
840.879	21599
841.016	21629
841.153	21762
841.29	21804
841.427	21823
841.564	21774
841.701	21842
841.838	21667
841.975	21701
842.112	21637
842.249	21538
842.385	21431
842.522	21778
842.659	21637
842.796	21519
842.933	21553
843.069	21283
843.206	21412
843.343	21587
843.479	21595
843.616	21519
843.752	21393
843.889	21173
844.025	21424
844.162	21298
844.298	21378
844.435	21291
844.571	21268
844.708	21310
844.844	21447
844.98	21420
845.117	21462
845.253	21233
845.389	21408
845.525	21507
845.661	21629
845.798	21808
845.934	22150
846.07	22196
846.206	22143
846.342	22013
846.478	21682
846.614	21291
846.75	20902
846.886	20937
847.022	20895
847.158	20921
847.294	20823
847.429	20651
847.565	20746
847.701	20807
847.837	20469
847.972	20541
848.108	20606
848.244	20499
848.379	20244
848.515	20313
848.65	20256
848.786	20176
848.921	20351
849.057	20301
849.192	20446
849.328	20377
849.463	20172
849.598	20168
849.734	20180
849.869	20157
850.004	20050
850.14	20046
850.275	19955
850.41	19818
850.545	19955
850.68	19955
850.815	19993
850.95	19902
851.085	20256
851.22	20046
851.355	20050
851.49	19951
851.625	19932
851.76	19917
851.895	19875
852.03	19833
852.165	19913
852.299	19925
852.434	19940
852.569	20016
852.703	20054
852.838	19989
852.973	20077
853.107	20084
853.242	19860
853.376	19811
853.511	19696
853.645	19791
853.78	19940
853.914	19864
854.048	19856
854.183	19875
854.317	19902
854.451	20001
854.585	19811
854.72	19826
854.854	19788
854.988	19639
855.122	19795
855.256	19670
855.39	19757
855.524	19799
855.658	19795
855.792	19685
855.926	19788
856.06	19856
856.194	19902
856.327	19818
856.461	19647
856.595	19704
856.729	19677
856.862	19830
856.996	19685
857.13	19871
857.263	19788
857.397	19856
857.53	19693
857.664	19753
857.797	19875
857.931	19967
858.064	19757
858.197	19856
858.331	19784
858.464	19643
858.597	19727
858.731	19693
858.864	19719
858.997	19666
859.13	19852
859.263	19731
859.396	19803
859.529	19696
859.662	19628
859.795	19651
859.928	19723
860.061	19849
860.194	19803
860.327	19685
860.46	19731
860.592	19791
860.725	19791
860.858	19833
860.99	19769
861.123	19533
861.256	19575
861.388	19540
861.521	20267
861.653	19506
861.786	19597
861.918	19601
862.05	19723
862.183	19772
862.315	19811
862.447	19788
862.58	19715
862.712	19495
862.844	19476
862.976	19476
863.108	19457
863.24	19712
863.372	19304
863.504	19388
863.636	19430
863.768	19422
863.9	19506
864.032	19236
864.164	19407
864.296	19396
864.428	19419
864.559	19392
864.691	19438
864.823	19346
864.954	19426
865.086	19354
865.217	19343
865.349	19289
865.48	19373
865.612	19255
865.743	19468
865.875	19289
866.006	19285
866.137	19384
866.269	19175
866.4	19213
866.531	19183
866.662	19228
866.793	19152
866.924	19240
867.055	19232
867.186	19255
867.317	19152
867.448	19126
867.579	19202
867.71	19110
867.841	19171
867.972	19282
868.103	19266
868.233	19339
868.364	19316
868.495	19263
868.625	19365
868.756	19468
868.886	19285
869.017	19502
869.147	19495
869.278	19647
869.408	19499
869.539	19472
869.669	19506
869.799	19487
869.929	19480
870.06	19434
870.19	19811
870.32	19719
870.45	19757
870.58	19936
870.71	19993
870.84	19993
870.97	19833
871.1	19913
871.23	20077
871.36	20122
871.489	19925
871.619	19967
871.749	20016
871.879	19986
872.008	20092
872.138	20168
872.267	20176
872.397	19955
872.526	19822
872.656	19898
872.785	19898
872.915	20043
873.044	20081
873.173	20134
873.303	20107
873.432	20096
873.561	20282
873.69	20058
873.819	20100
873.948	20195
874.077	20138
874.206	20016
874.335	20043
874.464	20187
874.593	20324
874.722	20355
874.851	20370
874.979	20358
875.108	20305
875.237	20385
875.365	20370
875.494	20324
875.623	20476
875.751	20275
875.88	20389
876.008	20583
876.136	20488
876.265	20746
876.393	20929
876.521	20804
876.65	20838
876.778	20731
876.906	20864
877.034	20834
877.162	20754
877.29	20853
877.418	20800
877.546	20701
877.674	20743
877.802	20750
877.93	20834
878.058	20773
878.185	20667
878.313	20815
878.441	20861
878.568	20689
878.696	20746
878.824	20910
878.951	21119
879.079	21036
879.206	21382
879.333	21344
879.461	21397
879.588	21393
879.715	21580
879.842	21504
879.97	21252
880.097	20895
880.224	20819
880.351	20910
880.478	20819
880.605	20693
880.732	20750
880.859	21001
880.986	20674
881.112	20746
881.239	20640
881.366	20412
881.493	20442
881.619	20275
881.746	20259
881.872	20301
881.999	20419
882.125	20252
882.252	20469
882.378	20313
882.505	20415
882.631	20202
882.757	20168
882.883	20195
883.01	20149
883.136	20043
883.262	20039
883.388	19928
883.514	20020
883.64	20096
883.766	19982
883.892	19887
884.018	20005
884.143	20107
884.269	20069
884.395	19727
884.52	19723
884.646	19632
884.772	19620
884.897	19719
885.023	19826
885.148	19738
885.274	19890
885.399	19799
885.524	19658
885.65	19685
885.775	19753
885.9	19757
886.025	19833
886.15	19738
886.275	19518
886.4	19460
886.525	19605
886.65	19719
886.775	19460
886.9	19772
887.025	19780
887.149	19658
887.274	19525
887.399	19373
887.523	19388
887.648	19365
887.773	19358
887.897	19457
888.021	19434
888.146	19308
888.27	19525
888.395	19544
888.519	19407
888.643	19468
888.767	19343
888.891	19308
889.015	19190
889.139	19194
889.263	19160
889.387	19236
889.511	19335
889.635	19183
889.759	19179
889.883	19209
890.006	19168
890.13	19198
890.254	18970
890.377	19099
890.501	18848
890.624	18947
890.748	18935
890.871	18848
890.995	18745
891.118	18741
891.241	18768
891.364	18897
891.488	18829
891.611	18734
891.734	18681
891.857	18760
891.98	18886
892.103	18817
892.226	18795
892.349	18692
892.471	18563
892.594	18616
892.717	18692
892.839	18627
892.962	18707
893.085	18722
893.207	18661
893.33	18502
893.452	18597
893.575	18688
893.697	18623
893.819	18802
893.941	18886
894.064	18848
894.186	18635
894.308	18593
894.43	18749
894.552	18783
894.674	18837
894.796	18525
894.918	18525
895.04	18574
895.161	18677
895.283	18719
895.405	18642
895.526	18601
895.648	18738
895.769	18757
895.891	18646
896.012	18840
896.134	18802
896.255	18753
896.376	18802
896.498	18764
896.619	18798
896.74	18738
896.861	18783
896.982	19110
897.103	19247
897.224	19053
897.345	18920
897.466	18928
897.587	19012
897.708	19050
897.828	18943
897.949	18935
898.07	18802
898.19	18890
898.311	19046
898.431	18905
898.552	18939
898.672	19000
898.792	19057
898.913	18924
899.033	18776
899.153	18795
899.273	18665
899.393	18719
899.513	18798
899.633	18726
899.753	18772
899.873	18650
899.993	18791
900.113	18692
900.232	18726
900.352	18677
900.472	18509
900.591	18551
900.711	18673
900.83	18483
900.95	18650
901.069	18730
901.189	18384
901.308	18285
901.427	18091
901.546	18190
901.665	18232
901.784	18220
901.904	18022
902.023	17996
902.141	17805
902.26	17638
902.379	17836
902.498	17668
902.617	17657
902.735	17627
902.854	17551
902.973	17627
903.091	17326
903.21	17391
903.328	17334
903.446	17223
903.565	17113
903.683	17151
903.801	17025
903.919	17029
904.038	17155
904.156	16927
904.274	16961
904.392	16843
904.51	16835
904.627	16854
904.745	16911
904.863	16938
904.981	16622
905.098	16588
905.216	16527
905.334	16561
905.451	16554
905.569	16447
905.686	16569
905.803	16478
905.921	16329
906.038	16382
906.155	16303
906.272	16314
906.389	16128
906.506	16074
906.623	16036
906.74	15987
906.857	15941
906.974	15972
907.091	16082
907.208	16067
907.324	16135
907.441	15998
907.557	15770
907.674	15751
907.79	15641
907.907	15671
908.023	15793
908.139	15736
908.256	15671
908.372	15622
908.488	15530
908.604	15401
908.72	15401
908.836	15473
908.952	15363
909.068	15549
909.184	15515
909.3	15359
909.415	15424
909.531	15443
909.647	15093
909.762	15157
909.878	15119
909.993	15176
910.108	15047
910.224	15097
910.339	15123
910.454	15013
910.57	15020
910.685	14933
910.8	15222
910.915	15055
911.03	15013
911.145	14758
911.259	14777
911.374	14750
911.489	14632
911.604	14575
911.718	14446
911.833	14469
911.947	14393
912.062	14366
912.176	14579
912.291	14499
912.405	14511
912.519	14594
912.633	14610
912.748	14552
912.862	14514
912.976	14362
913.09	14153
913.204	14256
913.318	14290
913.431	14427
913.545	14396
913.659	14336
913.772	14229
913.886	14111
914	14008
914.113	14237
914.226	14221
914.34	14244
914.453	14005
914.566	14138
914.68	14115
914.793	13947
914.906	13879
915.019	13727
915.132	13788
915.245	13727
915.358	13791
915.47	13833
915.583	13909
915.696	13887
915.809	13898
915.921	13947
916.034	13780
916.146	13742
916.259	13742
916.371	13765
916.483	13693
916.595	13647
916.708	13594
916.82	13643
916.932	13624
917.044	13594
917.156	13628
917.268	13434
917.38	13476
917.491	13449
917.603	13506
917.715	13518
917.826	13548
917.938	13453
918.049	13236
918.161	13434
918.272	13582
918.384	13567
918.495	13377
918.606	13282
918.717	13236
918.828	13263
918.939	13297
919.05	13187
919.161	13274
919.272	13023
919.383	13091
919.494	13293
919.604	13388
919.715	13255
919.826	13179
919.936	13187
920.047	13304
920.157	13244
920.267	13460
920.378	13259
920.488	13217
920.598	13373
920.708	13495
920.818	13331
920.928	13403
921.038	13552
921.148	13491
921.258	13175
921.368	13103
921.477	13023
921.587	12970
921.697	12916
921.806	12993
921.916	12821
922.025	12719
922.134	12642
922.244	12681
922.353	12711
922.462	12589
922.571	12471
922.68	12266
922.789	12247
922.898	12361
923.007	12273
923.116	12422
923.224	12327
923.333	12190
923.442	12175
923.55	12106
923.659	12129
923.767	12224
923.876	12114
923.984	12152
924.092	12038
924.201	12057
924.309	12076
924.417	12087
924.525	12083
924.633	11973
924.741	12935
924.849	11878
924.956	12041
925.064	11828
925.172	11771
925.279	11840
925.387	11840
925.494	11794
925.602	11859
925.709	11901
925.816	11726
925.924	11771
926.031	11798
926.138	11745
926.245	11859
926.352	11733
926.459	11897
926.566	11786
926.673	11703
926.779	11623
926.886	11509
926.993	11444
927.099	11452
927.206	11395
927.312	11280
927.419	11452
927.525	11368
927.631	11421
927.737	11334
927.843	11242
927.95	11052
928.056	11231
928.162	11307
928.267	11391
928.373	11893
928.479	11379
928.585	11128
928.69	11277
928.796	11269
928.901	11117
929.007	10957
929.112	11094
929.218	11025
929.323	11083
929.428	10995
929.533	11064
929.638	10900
929.743	10942
929.848	10911
929.953	10957
930.058	10908
930.163	10767
930.267	10706
930.372	10862
930.477	10603
930.581	10942
930.685	10839
930.79	10630
930.894	10626
930.998	10527
931.103	10679
931.207	10352
931.311	10261
931.415	10223
931.519	10040
931.623	9975
