Data from test_V78500241_2391.txt Node
Date: Fri Mar 25 14:50:21 CST 2022
User: usil
Spectrometer: V785-0024
Trigger mode: 0
Integration Time (sec): 4.000000E-1
Scans to average: 1
Nonlinearity correction enabled: false
Boxcar width: 0
Storing dark spectrum: false
XAxis mode: Wavelengths
Number of Pixels in Spectrum: 1024
>>>>>Begin Spectral Data<<<<<
801.071	22105
801.214	21953
801.356	21785
801.499	21656
801.641	21591
801.783	21500
801.926	21561
802.068	21515
802.211	21401
802.353	21386
802.496	21036
802.638	21005
802.78	20998
802.923	20861
803.065	20876
803.208	20842
803.35	20902
803.492	21036
803.635	20982
803.777	20845
803.919	20929
804.061	21135
804.204	20788
804.346	20765
804.488	20765
804.63	20811
804.773	20659
804.915	20739
805.057	20765
805.199	20750
805.341	20868
805.483	20788
805.626	20746
805.768	20769
805.91	20815
806.052	20785
806.194	20765
806.336	20849
806.478	20686
806.62	20629
806.762	20804
806.904	21036
807.046	21237
807.188	21089
807.33	21176
807.472	21173
807.614	20982
807.756	20944
807.898	20921
808.04	20868
808.182	20743
808.324	20918
808.465	20758
808.607	21058
808.749	21180
808.891	21237
809.033	21302
809.174	21313
809.316	21184
809.458	21142
809.6	21043
809.741	21157
809.883	21211
810.025	21306
810.166	21245
810.308	21351
810.45	21252
810.591	21093
810.733	21077
810.875	21043
811.016	20792
811.158	20849
811.299	20902
811.441	21051
811.582	20925
811.724	20921
811.865	20891
812.007	20876
812.148	20754
812.29	20876
812.431	21142
812.573	21252
812.714	21264
812.855	21428
812.997	21389
813.138	21618
813.279	21549
813.421	21439
813.562	21279
813.703	21161
813.845	21089
813.986	20800
814.127	20632
814.268	20476
814.41	20507
814.551	20427
814.692	20484
814.833	20377
814.974	20442
815.115	20434
815.256	20362
815.397	20404
815.539	20286
815.68	20225
815.821	20176
815.962	20225
816.103	20161
816.244	20043
816.385	19959
816.526	19974
816.666	19780
816.807	19571
816.948	19830
817.089	19826
817.23	19601
817.371	19609
817.512	19708
817.653	19472
817.793	19586
817.934	19609
818.075	19590
818.216	19594
818.356	19594
818.497	19441
818.638	19312
818.778	19236
818.919	19240
819.06	19362
819.2	19407
819.341	19438
819.481	19377
819.622	19635
819.762	19700
819.903	19628
820.043	19624
820.184	19563
820.324	19632
820.465	19609
820.605	19666
820.746	19632
820.886	19369
821.026	19670
821.167	19582
821.307	19521
821.447	19453
821.588	19308
821.728	19270
821.868	19198
822.008	18920
822.149	19046
822.289	18939
822.429	18749
822.569	18650
822.709	18646
822.849	18540
822.99	18517
823.13	18490
823.27	18422
823.41	18224
823.55	18296
823.69	18243
823.83	18251
823.97	18152
824.11	18106
824.25	18076
824.389	18106
824.529	18140
824.669	18083
824.809	18068
824.949	18098
825.089	18053
825.228	18041
825.368	17828
825.508	17939
825.648	17771
825.787	17901
825.927	17904
826.067	17824
826.206	17836
826.346	17908
826.485	18003
826.625	17809
826.765	17878
826.904	17828
827.044	17608
827.183	17627
827.323	17452
827.462	17611
827.601	17398
827.741	17490
827.88	17516
828.02	17429
828.159	17611
828.298	17486
828.437	17570
828.577	17528
828.716	17676
828.855	17379
828.994	17223
829.134	17246
829.273	17425
829.412	17159
829.551	17105
829.69	17208
829.829	17299
829.968	17334
830.107	17258
830.246	17284
830.385	17140
830.524	17124
830.663	17075
830.802	16858
830.941	16778
831.08	16797
831.219	16900
831.357	16976
831.496	17147
831.635	16824
831.774	16809
831.913	16820
832.051	16729
832.19	16660
832.329	16748
832.467	16603
832.606	16554
832.744	16466
832.883	16474
833.022	16546
833.16	16519
833.299	16462
833.437	16508
833.576	16538
833.714	16489
833.852	16637
833.991	16558
834.129	16664
834.267	16630
834.406	16599
834.544	16637
834.682	16596
834.821	16618
834.959	16767
835.097	16500
835.235	16713
835.373	16546
835.511	16618
835.65	16516
835.788	16523
835.926	16341
836.064	16310
836.202	16287
836.34	16618
836.478	16489
836.615	16417
836.753	16504
836.891	16519
837.029	16584
837.167	16318
837.305	16508
837.443	16322
837.58	16322
837.718	16421
837.856	16310
837.993	16303
838.131	16253
838.269	16299
838.406	16344
838.544	16341
838.681	16082
838.819	15930
838.956	15926
839.094	15907
839.231	15941
839.369	15918
839.506	16352
839.643	16097
839.781	15915
839.918	15781
840.055	15842
840.193	15774
840.33	15873
840.467	15911
840.604	15975
840.742	16246
840.879	15816
841.016	15785
841.153	15880
841.29	15873
841.427	15964
841.564	15998
841.701	16063
841.838	15861
841.975	15747
842.112	15857
842.249	15804
842.385	15694
842.522	15835
842.659	15644
842.796	15652
842.933	15686
843.069	15625
843.206	15648
843.343	15694
843.479	15660
843.616	15701
843.752	15435
843.889	15557
844.025	15728
844.162	15496
844.298	15492
844.435	15538
844.571	15416
844.708	15507
844.844	15610
844.98	15542
845.117	15584
845.253	15481
845.389	15344
845.525	15424
845.661	15329
845.798	15241
845.934	15374
846.07	15085
846.206	15302
846.342	15344
846.478	15245
846.614	15036
846.75	14967
846.886	14967
847.022	15161
847.158	15062
847.294	15074
847.429	15165
847.565	15089
847.701	15287
847.837	14785
847.972	14655
848.108	14937
848.244	14815
848.379	14625
848.515	14674
848.65	14716
848.786	14693
848.921	14606
849.057	14720
849.192	14674
849.328	14583
849.463	14678
849.598	14533
849.734	14568
849.869	14507
850.004	14446
850.14	14488
850.275	14469
850.41	14286
850.545	14374
850.68	14434
850.815	14423
850.95	14362
851.085	14640
851.22	14415
851.355	14374
851.49	14351
851.625	14404
851.76	14355
851.895	14275
852.03	14324
852.165	14404
852.299	14374
852.434	14415
852.569	14499
852.703	14415
852.838	14450
852.973	14556
853.107	14507
853.242	14355
853.376	14248
853.511	14130
853.645	14221
853.78	14324
853.914	14381
854.048	14252
854.183	14336
854.317	14324
854.451	14415
854.585	14313
854.72	14142
854.854	14370
854.988	14180
855.122	14282
855.256	14088
855.39	14233
855.524	14366
855.658	14309
855.792	14267
855.926	14309
856.06	14271
856.194	14336
856.327	14320
856.461	14271
856.595	14244
856.729	14267
856.862	14374
856.996	14377
857.13	14370
857.263	14381
857.397	14465
857.53	14248
857.664	14320
857.797	14275
857.931	14457
858.064	14301
858.197	14404
858.331	14286
858.464	14271
858.597	14244
858.731	14202
858.864	14214
858.997	14298
859.13	14294
859.263	14320
859.396	14347
859.529	14195
859.662	14282
859.795	14199
859.928	14370
860.061	14358
860.194	14393
860.327	14396
860.46	14244
860.592	14404
860.725	14328
860.858	14366
860.99	14172
861.123	14259
861.256	14180
861.388	14240
861.521	14845
861.653	14065
861.786	14103
861.918	14138
862.05	14218
862.183	14210
862.315	14214
862.447	14290
862.58	14221
862.712	14103
862.844	14046
862.976	14096
863.108	14081
863.24	14343
863.372	13982
863.504	14084
863.636	14073
863.768	14100
863.9	14031
864.032	13913
864.164	13928
864.296	14043
864.428	14157
864.559	14172
864.691	14149
864.823	14111
864.954	14069
865.086	14157
865.217	14111
865.349	13997
865.48	14084
865.612	14172
865.743	14153
865.875	14054
866.006	13951
866.137	13982
866.269	14161
866.4	14031
866.531	13970
866.662	13970
866.793	13898
866.924	13978
867.055	13997
867.186	14073
867.317	13978
867.448	13963
867.579	14008
867.71	13974
867.841	14001
867.972	14058
868.103	13986
868.233	14005
868.364	14092
868.495	14126
868.625	14355
868.756	14332
868.886	14161
869.017	14237
869.147	14332
869.278	14362
869.408	14290
869.539	14332
869.669	14461
869.799	14278
869.929	14495
870.06	14442
870.19	14629
870.32	14583
870.45	14674
870.58	14621
870.71	14705
870.84	14758
870.97	14731
871.1	14739
871.23	14758
871.36	14845
871.489	14880
871.619	14788
871.749	14823
871.879	14937
872.008	15028
872.138	14933
872.267	14750
872.397	14750
872.526	14773
872.656	14682
872.785	14651
872.915	14921
873.044	14975
873.173	14906
873.303	14937
873.432	14994
873.561	15017
873.69	15043
873.819	14857
873.948	15104
874.077	14941
874.206	14823
874.335	14876
874.464	15112
874.593	15287
874.722	15218
874.851	15294
874.979	15199
875.108	15211
875.237	15195
875.365	15195
875.494	15260
875.623	15317
875.751	15245
875.88	15332
876.008	15279
876.136	15458
876.265	15641
876.393	15827
876.521	15789
876.65	15614
876.778	15686
876.906	15610
877.034	15572
877.162	15633
877.29	15545
877.418	15530
877.546	15622
877.674	15682
877.802	15675
877.93	15614
878.058	15568
878.185	15591
878.313	15728
878.441	15656
878.568	15530
878.696	15656
878.824	15549
878.951	15701
879.079	15899
879.206	16032
879.333	15800
879.461	15675
879.588	15751
879.715	15861
879.842	15953
879.97	15701
880.097	15504
880.224	15496
880.351	15485
880.478	15507
880.605	15473
880.732	15519
880.859	15766
880.986	15530
881.112	15519
881.239	15386
881.366	15408
881.493	15123
881.619	15062
881.746	15252
881.872	15123
881.999	15173
882.125	15176
882.252	15310
882.378	15173
882.505	15355
882.631	15070
882.757	14963
882.883	15020
883.01	14998
883.136	14956
883.262	14887
883.388	14819
883.514	14998
883.64	14982
883.766	14887
883.892	14743
884.018	14887
884.143	15032
884.269	14960
884.395	14693
884.52	14670
884.646	14735
884.772	14640
884.897	14541
885.023	14716
885.148	14819
885.274	14853
885.399	14762
885.524	14735
885.65	14743
885.775	14739
885.9	14629
886.025	14861
886.15	14689
886.275	14716
886.4	14629
886.525	14587
886.65	14621
886.775	14541
886.9	14750
887.025	14845
887.149	14674
887.274	14537
887.399	14636
887.523	14492
887.648	14419
887.773	14408
887.897	14682
888.021	14651
888.146	14511
888.27	14602
888.395	14697
888.519	14571
888.643	14621
888.767	14579
888.891	14442
889.015	14355
889.139	14370
889.263	14400
889.387	14514
889.511	14610
889.635	14545
889.759	14374
889.883	14362
890.006	14419
890.13	14461
890.254	14423
890.377	14309
890.501	14183
890.624	14233
890.748	14180
890.871	14123
890.995	14050
891.118	13940
891.241	14103
891.364	14088
891.488	14164
891.611	13993
891.734	14107
891.857	14043
891.98	14107
892.103	14221
892.226	14183
892.349	14164
892.471	14005
892.594	13993
892.717	14046
892.839	14054
892.962	14016
893.085	14142
893.207	14046
893.33	14058
893.452	14016
893.575	14153
893.697	14138
893.819	14218
893.941	14389
894.064	14256
894.186	14130
894.308	14062
894.43	14069
894.552	14259
894.674	14298
894.796	14043
894.918	14103
895.04	14069
895.161	14164
895.283	14271
895.405	14111
895.526	14126
895.648	14199
895.769	14202
895.891	14248
896.012	14404
896.134	14305
896.255	14256
896.376	14187
896.498	14263
896.619	14290
896.74	14263
896.861	14305
896.982	14556
897.103	14655
897.224	14568
897.345	14480
897.466	14442
897.587	14446
897.708	14648
897.828	14530
897.949	14484
898.07	14374
898.19	14423
898.311	14735
898.431	14617
898.552	14594
898.672	14750
898.792	14754
898.913	14686
899.033	14473
899.153	14507
899.273	14415
899.393	14389
899.513	14518
899.633	14396
899.753	14457
899.873	14484
899.993	14552
900.113	14488
900.232	14511
900.352	14370
900.472	14377
900.591	14267
900.711	14362
900.83	14309
900.95	14457
901.069	14450
901.189	14377
901.308	14115
901.427	13974
901.546	13967
901.665	14016
901.784	14027
901.904	13947
902.023	13746
902.141	13636
902.26	13616
902.379	13636
902.498	13460
902.617	13453
902.735	13708
902.854	13609
902.973	13495
903.091	13278
903.21	13213
903.328	13308
903.446	13263
903.565	13152
903.683	13187
903.801	13050
903.919	13072
904.038	12977
904.156	12928
904.274	13012
904.392	13000
904.51	12981
904.627	12935
904.745	12958
904.863	13015
904.981	12677
905.098	12646
905.216	12658
905.334	12646
905.451	12665
905.569	12673
905.686	12703
905.803	12681
905.921	12494
906.038	12551
906.155	12551
906.272	12296
906.389	12414
906.506	12235
906.623	12319
906.74	12258
906.857	12114
906.974	12258
907.091	12296
907.208	12338
907.324	12216
907.441	12110
907.557	11927
907.674	11897
907.79	11931
907.907	12007
908.023	12041
908.139	12030
908.256	11999
908.372	11874
908.488	11855
908.604	11752
908.72	11661
908.836	11752
908.952	11733
909.068	11775
909.184	11821
909.3	11790
909.415	11786
909.531	11684
909.647	11615
909.762	11554
909.878	11539
909.993	11497
910.108	11452
910.224	11345
910.339	11474
910.454	11372
910.57	11341
910.685	11311
910.8	11581
910.915	11505
911.03	11448
911.145	11250
911.259	11220
911.374	11246
911.489	11124
911.604	11083
911.718	10942
911.833	10984
911.947	10904
912.062	10759
912.176	10946
912.291	11006
912.405	11006
912.519	11151
912.633	11128
912.748	10999
912.862	10934
912.976	10809
913.09	10702
913.204	10797
913.318	10816
913.431	10976
913.545	10946
913.659	10961
913.772	10873
913.886	10675
914	10702
914.113	10873
914.226	10889
914.34	10805
914.453	10603
914.566	10805
914.68	10694
914.793	10649
914.906	10493
915.019	10447
915.132	10382
915.245	10512
915.358	10500
915.47	10440
915.583	10478
915.696	10485
915.809	10607
915.921	10611
916.034	10394
916.146	10428
916.259	10409
916.371	10577
916.483	10542
916.595	10367
916.708	10428
916.82	10386
916.932	10394
917.044	10390
917.156	10352
917.268	10303
917.38	10352
917.491	10299
917.603	10257
917.715	10360
917.826	10455
917.938	10337
918.049	10207
918.161	10379
918.272	10462
918.384	10493
918.495	10310
918.606	10230
918.717	10139
918.828	10223
918.939	10215
919.05	10173
919.161	10162
919.272	9972
919.383	10051
919.494	10219
919.604	10386
919.715	10162
919.826	10120
919.936	10169
920.047	10291
920.157	10215
920.267	10413
920.378	10268
920.488	10246
920.598	10371
920.708	10443
920.818	10394
920.928	10402
921.038	10519
921.148	10462
921.258	10299
921.368	10074
921.477	10116
921.587	10093
921.697	9922
921.806	10059
921.916	9937
922.025	9789
922.134	9740
922.244	9713
922.353	9819
922.462	9682
922.571	9606
922.68	9477
922.789	9504
922.898	9538
923.007	9439
923.116	9507
923.224	9530
923.333	9450
923.442	9291
923.55	9344
923.659	9359
923.767	9469
923.876	9386
923.984	9435
924.092	9298
924.201	9348
924.309	9260
924.417	9431
924.525	9195
924.633	9340
924.741	9998
924.849	9116
924.956	9298
925.064	9119
925.172	9055
925.279	9104
925.387	9161
925.494	9142
925.602	9253
925.709	9199
925.816	9047
925.924	9104
926.031	9218
926.138	9142
926.245	9176
926.352	9085
926.459	9142
926.566	9211
926.673	9058
926.779	8944
926.886	8952
926.993	8807
927.099	8811
927.206	8811
927.312	8758
927.419	8948
927.525	8823
927.631	8868
927.737	8727
927.843	8735
927.95	8686
928.056	8720
928.162	8712
928.267	8750
928.373	9348
928.479	8838
928.585	8648
928.69	8701
928.796	8792
928.901	8693
929.007	8518
929.112	8644
929.218	8617
929.323	8495
929.428	8533
929.533	8640
929.638	8476
929.743	8492
929.848	8610
929.953	8541
930.058	8404
930.163	8290
930.267	8282
930.372	8476
930.477	8305
930.581	8564
930.685	8446
930.79	8256
930.894	8320
930.998	8298
931.103	8431
931.207	8031
931.311	8054
931.415	7932
931.519	7750
931.623	7761
