Data from test_V78500241_2241.txt Node
Date: Fri Mar 25 14:49:19 CST 2022
User: usil
Spectrometer: V785-0024
Trigger mode: 0
Integration Time (sec): 4.000000E-1
Scans to average: 1
Nonlinearity correction enabled: false
Boxcar width: 0
Storing dark spectrum: false
XAxis mode: Wavelengths
Number of Pixels in Spectrum: 1024
>>>>>Begin Spectral Data<<<<<
801.071	22166
801.214	22013
801.356	21629
801.499	21701
801.641	21545
801.783	21599
801.926	21469
802.068	21420
802.211	21462
802.353	21298
802.496	21154
802.638	21043
802.78	20902
802.923	20952
803.065	20891
803.208	20834
803.35	20880
803.492	20918
803.635	21028
803.777	20876
803.919	20948
804.061	21169
804.204	20895
804.346	20883
804.488	20651
804.63	20785
804.773	20769
804.915	20716
805.057	20853
805.199	20773
805.341	20834
805.483	20857
805.626	20883
805.768	20686
805.91	20689
806.052	20796
806.194	20712
806.336	20899
806.478	20743
806.62	20739
806.762	20921
806.904	20933
807.046	21146
807.188	21017
807.33	21058
807.472	21074
807.614	21055
807.756	20918
807.898	20975
808.04	20990
808.182	20811
808.324	20823
808.465	20868
808.607	21233
808.749	21142
808.891	21294
809.033	21443
809.174	21252
809.316	21169
809.458	21192
809.6	21176
809.741	21188
809.883	21138
810.025	21283
810.166	21412
810.308	21317
810.45	21329
810.591	21154
810.733	21017
810.875	20914
811.016	20849
811.158	20868
811.299	20986
811.441	20960
811.582	21047
811.724	20902
811.865	20845
812.007	20853
812.148	21039
812.29	20971
812.431	21024
812.573	21313
812.714	21321
812.855	21545
812.997	21572
813.138	21606
813.279	21557
813.421	21272
813.562	21363
813.703	21154
813.845	21096
813.986	20861
814.127	20552
814.268	20518
814.41	20560
814.551	20393
814.692	20476
814.833	20396
814.974	20366
815.115	20511
815.256	20351
815.397	20324
815.539	20256
815.68	20180
815.821	20126
815.962	20252
816.103	20103
816.244	20024
816.385	19989
816.526	19849
816.666	19814
816.807	19693
816.948	19738
817.089	19731
817.23	19590
817.371	19597
817.512	19582
817.653	19605
817.793	19597
817.934	19510
818.075	19525
818.216	19632
818.356	19464
818.497	19529
818.638	19304
818.778	19350
818.919	19247
819.06	19304
819.2	19301
819.341	19529
819.481	19491
819.622	19499
819.762	19833
819.903	19677
820.043	19635
820.184	19563
820.324	19643
820.465	19681
820.605	19605
820.746	19445
820.886	19487
821.026	19453
821.167	19434
821.307	19590
821.447	19407
821.588	19422
821.728	19297
821.868	19209
822.008	18897
822.149	18958
822.289	19038
822.429	18779
822.569	18669
822.709	18540
822.849	18536
822.99	18429
823.13	18437
823.27	18445
823.41	18315
823.55	18224
823.69	18304
823.83	18346
823.97	18201
824.11	18072
824.25	18049
824.389	18102
824.529	18144
824.669	18068
824.809	18148
824.949	18038
825.089	18121
825.228	18098
825.368	17954
825.508	17802
825.648	17832
825.787	17843
825.927	17904
826.067	17824
826.206	17809
826.346	17840
826.485	17866
826.625	17771
826.765	17813
826.904	17817
827.044	17623
827.183	17547
827.323	17535
827.462	17528
827.601	17452
827.741	17558
827.88	17611
828.02	17471
828.159	17535
828.298	17501
828.437	17532
828.577	17532
828.716	17619
828.855	17535
828.994	17326
829.134	17250
829.273	17376
829.412	17345
829.551	17124
829.69	17212
829.829	17299
829.968	17383
830.107	17376
830.246	17261
830.385	17204
830.524	17132
830.663	17117
830.802	16968
830.941	16797
831.08	16816
831.219	16991
831.357	16911
831.496	17025
831.635	16771
831.774	16793
831.913	16694
832.051	16637
832.19	16596
832.329	16675
832.467	16504
832.606	16462
832.744	16630
832.883	16538
833.022	16459
833.16	16569
833.299	16561
833.437	16588
833.576	16535
833.714	16618
833.852	16641
833.991	16561
834.129	16687
834.267	16618
834.406	16599
834.544	16774
834.682	16630
834.821	16607
834.959	16729
835.097	16512
835.235	16630
835.373	16588
835.511	16527
835.65	16432
835.788	16504
835.926	16344
836.064	16348
836.202	16284
836.34	16489
836.478	16523
836.615	16573
836.753	16493
836.891	16527
837.029	16451
837.167	16500
837.305	16459
837.443	16394
837.58	16363
837.718	16398
837.856	16409
837.993	16314
838.131	16424
838.269	16181
838.406	16268
838.544	16322
838.681	16063
838.819	16071
838.956	15972
839.094	15854
839.231	15975
839.369	16078
839.506	16314
839.643	16101
839.781	16021
839.918	15953
840.055	15930
840.193	15956
840.33	15679
840.467	15892
840.604	15899
840.742	16223
840.879	15736
841.016	15713
841.153	15755
841.29	15972
841.427	15949
841.564	15934
841.701	15937
841.838	15789
841.975	15720
842.112	15766
842.249	15743
842.385	15610
842.522	15915
842.659	15766
842.796	15713
842.933	15644
843.069	15629
843.206	15656
843.343	15705
843.479	15701
843.616	15701
843.752	15526
843.889	15469
844.025	15625
844.162	15348
844.298	15614
844.435	15416
844.571	15488
844.708	15507
844.844	15641
844.98	15584
845.117	15534
845.253	15428
845.389	15332
845.525	15447
845.661	15382
845.798	15245
845.934	15298
846.07	15150
846.206	15344
846.342	15439
846.478	15294
846.614	15154
846.75	15066
846.886	15024
847.022	15138
847.158	15112
847.294	15089
847.429	15074
847.565	14971
847.701	15329
847.837	14849
847.972	14826
848.108	14785
848.244	14815
848.379	14800
848.515	14651
848.65	14625
848.786	14640
848.921	14693
849.057	14708
849.192	14701
849.328	14686
849.463	14701
849.598	14712
849.734	14556
849.869	14610
850.004	14423
850.14	14450
850.275	14393
850.41	14385
850.545	14473
850.68	14339
850.815	14412
850.95	14473
851.085	14613
851.22	14541
851.355	14469
851.49	14351
851.625	14374
851.76	14294
851.895	14298
852.03	14225
852.165	14362
852.299	14442
852.434	14393
852.569	14454
852.703	14549
852.838	14484
852.973	14606
853.107	14549
853.242	14317
853.376	14366
853.511	14107
853.645	14294
853.78	14358
853.914	14358
854.048	14263
854.183	14267
854.317	14210
854.451	14522
854.585	14248
854.72	14275
854.854	14396
854.988	14210
855.122	14240
855.256	14161
855.39	14229
855.524	14298
855.658	14278
855.792	14328
855.926	14434
856.06	14336
856.194	14396
856.327	14286
856.461	14290
856.595	14195
856.729	14168
856.862	14374
856.996	14317
857.13	14389
857.263	14404
857.397	14408
857.53	14313
857.664	14301
857.797	14351
857.931	14343
858.064	14370
858.197	14408
858.331	14313
858.464	14229
858.597	14111
858.731	14275
858.864	14214
858.997	14206
859.13	14298
859.263	14240
859.396	14339
859.529	14267
859.662	14263
859.795	14263
859.928	14244
860.061	14366
860.194	14438
860.327	14328
860.46	14172
860.592	14412
860.725	14324
860.858	14431
860.99	14278
861.123	14267
861.256	14282
861.388	14298
861.521	14975
861.653	14168
861.786	14206
861.918	14111
862.05	14138
862.183	14252
862.315	14256
862.447	14248
862.58	14229
862.712	14058
862.844	14012
862.976	14176
863.108	14062
863.24	14404
863.372	13921
863.504	14172
863.636	14107
863.768	14138
863.9	14012
864.032	14065
864.164	14012
864.296	14092
864.428	14103
864.559	14248
864.691	14187
864.823	14062
864.954	14107
865.086	14103
865.217	14024
865.349	13989
865.48	14092
865.612	14077
865.743	14225
865.875	14039
866.006	13967
866.137	14039
866.269	14031
866.4	14046
866.531	13936
866.662	13921
866.793	13944
866.924	13997
867.055	14103
867.186	14062
867.317	14012
867.448	13982
867.579	13932
867.71	13974
867.841	13986
867.972	14130
868.103	14039
868.233	14088
868.364	14092
868.495	14229
868.625	14263
868.756	14385
868.886	14294
869.017	14377
869.147	14389
869.278	14454
869.408	14328
869.539	14298
869.669	14415
869.799	14404
869.929	14469
870.06	14507
870.19	14625
870.32	14644
870.45	14762
870.58	14705
870.71	14834
870.84	14781
870.97	14712
871.1	14739
871.23	14899
871.36	14941
871.489	14842
871.619	14948
871.749	14868
871.879	14941
872.008	15062
872.138	14971
872.267	15017
872.397	14746
872.526	14739
872.656	14693
872.785	14823
872.915	14853
873.044	15028
873.173	15047
873.303	15085
873.432	14982
873.561	15013
873.69	14963
873.819	15017
873.948	15070
874.077	15108
874.206	14929
874.335	14967
874.464	15207
874.593	15203
874.722	15169
874.851	15325
874.979	15348
875.108	15340
875.237	15272
875.365	15218
875.494	15317
875.623	15378
875.751	15222
875.88	15252
876.008	15428
876.136	15473
876.265	15743
876.393	15812
876.521	15720
876.65	15736
876.778	15789
876.906	15713
877.034	15717
877.162	15656
877.29	15648
877.418	15671
877.546	15724
877.674	15667
877.802	15899
877.93	15705
878.058	15709
878.185	15549
878.313	15667
878.441	15778
878.568	15576
878.696	15595
878.824	15762
878.951	15831
879.079	15869
879.206	15991
879.333	15873
879.461	15724
879.588	15816
879.715	15831
879.842	15949
879.97	15755
880.097	15557
880.224	15507
880.351	15557
880.478	15519
880.605	15553
880.732	15534
880.859	15747
880.986	15511
881.112	15462
881.239	15469
881.366	15355
881.493	15218
881.619	15279
881.746	15142
881.872	15249
881.999	15203
882.125	15222
882.252	15173
882.378	15161
882.505	15401
882.631	15081
882.757	15055
882.883	15142
883.01	14994
883.136	14933
883.262	14861
883.388	14861
883.514	14990
883.64	15093
883.766	14956
883.892	14800
884.018	14845
884.143	14986
884.269	15089
884.395	14811
884.52	14644
884.646	14746
884.772	14674
884.897	14530
885.023	14777
885.148	14838
885.274	14872
885.399	14720
885.524	14716
885.65	14765
885.775	14762
885.9	14686
886.025	14857
886.15	14785
886.275	14750
886.4	14526
886.525	14750
886.65	14640
886.775	14682
886.9	14788
887.025	14899
887.149	14849
887.274	14492
887.399	14522
887.523	14545
887.648	14488
887.773	14454
887.897	14644
888.021	14636
888.146	14526
888.27	14625
888.395	14735
888.519	14590
888.643	14522
888.767	14587
888.891	14499
889.015	14408
889.139	14419
889.263	14446
889.387	14514
889.511	14621
889.635	14598
889.759	14412
889.883	14412
890.006	14438
890.13	14518
890.254	14412
890.377	14431
890.501	14298
890.624	14191
890.748	14240
890.871	14157
890.995	14043
891.118	13993
891.241	14123
891.364	14183
891.488	14271
891.611	14103
891.734	14130
891.857	14187
891.98	14092
892.103	14149
892.226	14195
892.349	14096
892.471	14005
892.594	14069
892.717	14096
892.839	14123
892.962	14107
893.085	14103
893.207	14195
893.33	13978
893.452	14043
893.575	14168
893.697	14073
893.819	14195
893.941	14347
894.064	14256
894.186	14084
894.308	14077
894.43	14252
894.552	14362
894.674	14343
894.796	14134
894.918	14240
895.04	14191
895.161	14282
895.283	14351
895.405	14164
895.526	14218
895.648	14256
895.769	14317
895.891	14320
896.012	14393
896.134	14358
896.255	14332
896.376	14320
896.498	14263
896.619	14374
896.74	14366
896.861	14313
896.982	14583
897.103	14811
897.224	14670
897.345	14587
897.466	14438
897.587	14507
897.708	14636
897.828	14587
897.949	14568
898.07	14465
898.19	14640
898.311	14686
898.431	14587
898.552	14667
898.672	14689
898.792	14667
898.913	14758
899.033	14602
899.153	14499
899.273	14351
899.393	14442
899.513	14522
899.633	14488
899.753	14495
899.873	14522
899.993	14492
900.113	14545
900.232	14518
900.352	14450
900.472	14442
900.591	14370
900.711	14404
900.83	14309
900.95	14370
901.069	14495
901.189	14309
901.308	14145
901.427	13959
901.546	14035
901.665	14024
901.784	14065
901.904	13890
902.023	13833
902.141	13655
902.26	13651
902.379	13677
902.498	13605
902.617	13578
902.735	13685
902.854	13552
902.973	13594
903.091	13320
903.21	13343
903.328	13339
903.446	13320
903.565	13160
903.683	13149
903.801	13076
903.919	13156
904.038	13145
904.156	13012
904.274	13023
904.392	13008
904.51	12996
904.627	12985
904.745	13000
904.863	13076
904.981	12935
905.098	12601
905.216	12639
905.334	12673
905.451	12650
905.569	12597
905.686	12673
905.803	12673
905.921	12490
906.038	12620
906.155	12490
906.272	12361
906.389	12448
906.506	12258
906.623	12319
906.74	12323
906.857	12136
906.974	12213
907.091	12243
907.208	12407
907.324	12235
907.441	12209
907.557	12022
907.674	11980
907.79	11908
907.907	12019
908.023	12114
908.139	11961
908.256	12049
908.372	11893
908.488	11927
908.604	11870
908.72	11764
908.836	11828
908.952	11752
909.068	11737
909.184	11916
909.3	11733
909.415	11809
909.531	11790
909.647	11512
909.762	11638
909.878	11630
909.993	11577
910.108	11554
910.224	11535
910.339	11566
910.454	11402
910.57	11414
910.685	11368
910.8	11551
910.915	11714
911.03	11421
911.145	11315
911.259	11303
911.374	11166
911.489	11185
911.604	11140
911.718	10987
911.833	11014
911.947	10976
912.062	10896
912.176	10949
912.291	10957
912.405	11037
912.519	11227
912.633	11227
912.748	11098
912.862	10949
912.976	10866
913.09	10782
913.204	10797
913.318	10809
913.431	10904
913.545	10987
913.659	10976
913.772	10866
913.886	10786
914	10778
914.113	10904
914.226	10923
914.34	10786
914.453	10687
914.566	10900
914.68	10683
914.793	10755
914.906	10558
915.019	10451
915.132	10390
915.245	10459
915.358	10497
915.47	10443
915.583	10622
915.696	10504
915.809	10596
915.921	10622
916.034	10421
916.146	10459
916.259	10455
916.371	10554
916.483	10565
916.595	10470
916.708	10447
916.82	10462
916.932	10402
917.044	10402
917.156	10405
917.268	10280
917.38	10341
917.491	10299
917.603	10348
917.715	10276
917.826	10413
917.938	10360
918.049	10173
918.161	10337
918.272	10432
918.384	10436
918.495	10402
918.606	10162
918.717	10158
918.828	10238
918.939	10318
919.05	10188
919.161	10124
919.272	10071
919.383	10192
919.494	10242
919.604	10455
919.715	10261
919.826	10143
919.936	10211
920.047	10382
920.157	10227
920.267	10440
920.378	10375
920.488	10173
920.598	10409
920.708	10569
920.818	10382
920.928	10481
921.038	10592
921.148	10443
921.258	10287
921.368	10147
921.477	10090
921.587	10082
921.697	9994
921.806	10120
921.916	9983
922.025	9785
922.134	9793
922.244	9728
922.353	9766
922.462	9728
922.571	9595
922.68	9492
922.789	9386
922.898	9507
923.007	9435
923.116	9538
923.224	9481
923.333	9504
923.442	9393
923.55	9310
923.659	9386
923.767	9389
923.876	9370
923.984	9454
924.092	9279
924.201	9367
924.309	9325
924.417	9397
924.525	9279
924.633	9275
924.741	10173
924.849	9123
924.956	9275
925.064	9112
925.172	9081
925.279	9085
925.387	9222
925.494	9135
925.602	9279
925.709	9253
925.816	9123
925.924	9108
926.031	9218
926.138	9081
926.245	9154
926.352	9093
926.459	9169
926.566	9279
926.673	9093
926.779	9077
926.886	8979
926.993	8842
927.099	8845
927.206	8758
927.312	8838
927.419	8921
927.525	8883
927.631	8986
927.737	8796
927.843	8697
927.95	8594
928.056	8697
928.162	8758
928.267	8781
928.373	9420
928.479	8876
928.585	8667
928.69	8758
928.796	8746
928.901	8663
929.007	8533
929.112	8640
929.218	8598
929.323	8571
929.428	8610
929.533	8697
929.638	8473
929.743	8541
929.848	8617
929.953	8522
930.058	8461
930.163	8313
930.267	8317
930.372	8530
930.477	8320
930.581	8568
930.685	8377
930.79	8286
930.894	8286
930.998	8233
931.103	8336
931.207	8103
931.311	8020
931.415	7997
931.519	7727
931.623	7814
