Data from test_V78500241_2944.txt Node
Date: Fri Mar 25 14:54:12 CST 2022
User: usil
Spectrometer: V785-0024
Trigger mode: 0
Integration Time (sec): 4.000000E-1
Scans to average: 1
Nonlinearity correction enabled: false
Boxcar width: 0
Storing dark spectrum: false
XAxis mode: Wavelengths
Number of Pixels in Spectrum: 1024
>>>>>Begin Spectral Data<<<<<
801.071	22051
801.214	22032
801.356	21827
801.499	21580
801.641	21606
801.783	21431
801.926	21477
802.068	21504
802.211	21496
802.353	21302
802.496	21036
802.638	21043
802.78	20906
802.923	20891
803.065	20739
803.208	20815
803.35	20823
803.492	20891
803.635	21017
803.777	20777
803.919	20868
804.061	21199
804.204	20956
804.346	20754
804.488	20625
804.63	20861
804.773	20701
804.915	20693
805.057	20804
805.199	20735
805.341	20670
805.483	20876
805.626	20826
805.768	20716
805.91	20743
806.052	20705
806.194	20609
806.336	20872
806.478	20655
806.62	20663
806.762	20792
806.904	20891
807.046	21173
807.188	21024
807.33	21081
807.472	21074
807.614	20967
807.756	21001
807.898	20952
808.04	20880
808.182	20773
808.324	20906
808.465	20918
808.607	21001
808.749	21142
808.891	21180
809.033	21195
809.174	21150
809.316	21085
809.458	21096
809.6	21039
809.741	21135
809.883	21180
810.025	21321
810.166	21252
810.308	21211
810.45	21298
810.591	21119
810.733	21009
810.875	20899
811.016	20693
811.158	20735
811.299	20925
811.441	20998
811.582	20979
811.724	20788
811.865	20826
812.007	20800
812.148	20906
812.29	20785
812.431	21058
812.573	21127
812.714	21169
812.855	21408
812.997	21481
813.138	21595
813.279	21534
813.421	21401
813.562	21294
813.703	21119
813.845	20971
813.986	20861
814.127	20598
814.268	20431
814.41	20488
814.551	20362
814.692	20465
814.833	20358
814.974	20381
815.115	20495
815.256	20229
815.397	20134
815.539	20206
815.68	19993
815.821	20164
815.962	20142
816.103	20062
816.244	19868
816.385	19890
816.526	19757
816.666	19757
816.807	19586
816.948	19586
817.089	19613
817.23	19480
817.371	19575
817.512	19548
817.653	19499
817.793	19476
817.934	19529
818.075	19590
818.216	19480
818.356	19422
818.497	19403
818.638	19247
818.778	19175
818.919	19244
819.06	19251
819.2	19438
819.341	19365
819.481	19426
819.622	19514
819.762	19681
819.903	19639
820.043	19540
820.184	19438
820.324	19518
820.465	19445
820.605	19472
820.746	19460
820.886	19259
821.026	19400
821.167	19464
821.307	19552
821.447	19563
821.588	19297
821.728	19103
821.868	18996
822.008	18954
822.149	18852
822.289	18840
822.429	18688
822.569	18635
822.709	18684
822.849	18456
822.99	18399
823.13	18289
823.27	18350
823.41	18239
823.55	18121
823.69	18243
823.83	18220
823.97	18076
824.11	18034
824.25	17939
824.389	17939
824.529	18087
824.669	17878
824.809	17996
824.949	17996
825.089	18102
825.228	18026
825.368	17775
825.508	17840
825.648	17764
825.787	17756
825.927	17760
826.067	17691
826.206	17665
826.346	17779
826.485	17756
826.625	17665
826.765	17783
826.904	17794
827.044	17474
827.183	17516
827.323	17410
827.462	17459
827.601	17414
827.741	17398
827.88	17459
828.02	17216
828.159	17341
828.298	17497
828.437	17471
828.577	17284
828.716	17490
828.855	17330
828.994	17090
829.134	17174
829.273	17151
829.412	17181
829.551	17136
829.69	17197
829.829	17151
829.968	17277
830.107	17341
830.246	17128
830.385	17067
830.524	17056
830.663	16930
830.802	16904
830.941	16854
831.08	16710
831.219	16866
831.357	16816
831.496	17067
831.635	16649
831.774	16660
831.913	16618
832.051	16615
832.19	16546
832.329	16649
832.467	16481
832.606	16481
832.744	16455
832.883	16497
833.022	16462
833.16	16447
833.299	16394
833.437	16523
833.576	16618
833.714	16531
833.852	16489
833.991	16546
834.129	16558
834.267	16588
834.406	16554
834.544	16668
834.682	16466
834.821	16371
834.959	16664
835.097	16459
835.235	16341
835.373	16535
835.511	16504
835.65	16504
835.788	16455
835.926	16234
836.064	16185
836.202	16303
836.34	16478
836.478	16436
836.615	16481
836.753	16432
836.891	16516
837.029	16481
837.167	16360
837.305	16360
837.443	16287
837.58	16169
837.718	16352
837.856	16325
837.993	16295
838.131	16329
838.269	16230
838.406	16109
838.544	16192
838.681	16017
838.819	15915
838.956	15842
839.094	15850
839.231	15861
839.369	15892
839.506	16166
839.643	16048
839.781	15789
839.918	15816
840.055	15766
840.193	15854
840.33	15793
840.467	15800
840.604	15899
840.742	16002
840.879	15637
841.016	15686
841.153	15709
841.29	15911
841.427	15793
841.564	15911
841.701	15842
841.838	15759
841.975	15819
842.112	15800
842.249	15648
842.385	15534
842.522	15797
842.659	15637
842.796	15496
842.933	15603
843.069	15576
843.206	15526
843.343	15606
843.479	15667
843.616	15720
843.752	15397
843.889	15310
844.025	15473
844.162	15481
844.298	15595
844.435	15325
844.571	15329
844.708	15485
844.844	15564
844.98	15549
845.117	15507
845.253	15359
845.389	15233
845.525	15332
845.661	15321
845.798	15237
845.934	15207
846.07	15157
846.206	15199
846.342	15211
846.478	15211
846.614	15077
846.75	14906
846.886	14986
847.022	15039
847.158	14986
847.294	14963
847.429	14948
847.565	14861
847.701	15169
847.837	14720
847.972	14682
848.108	14811
848.244	14785
848.379	14629
848.515	14556
848.65	14499
848.786	14579
848.921	14476
849.057	14621
849.192	14682
849.328	14617
849.463	14552
849.598	14602
849.734	14423
849.869	14393
850.004	14377
850.14	14324
850.275	14347
850.41	14282
850.545	14298
850.68	14282
850.815	14339
850.95	14237
851.085	14393
851.22	14339
851.355	14267
851.49	14278
851.625	14324
851.76	14214
851.895	14168
852.03	14183
852.165	14332
852.299	14339
852.434	14343
852.569	14377
852.703	14275
852.838	14396
852.973	14560
853.107	14503
853.242	14339
853.376	14237
853.511	14161
853.645	14134
853.78	14271
853.914	14275
854.048	14229
854.183	14058
854.317	14164
854.451	14267
854.585	14172
854.72	14134
854.854	14256
854.988	14103
855.122	14237
855.256	14092
855.39	14252
855.524	14263
855.658	14210
855.792	14134
855.926	14275
856.06	14298
856.194	14218
856.327	14157
856.461	14172
856.595	14130
856.729	14176
856.862	14339
856.996	14332
857.13	14218
857.263	14301
857.397	14191
857.53	14187
857.664	14214
857.797	14153
857.931	14286
858.064	14233
858.197	14301
858.331	14084
858.464	14187
858.597	14168
858.731	14123
858.864	14237
858.997	14183
859.13	14123
859.263	14183
859.396	14317
859.529	14195
859.662	14218
859.795	14123
859.928	14168
860.061	14332
860.194	14370
860.327	14191
860.46	14240
860.592	14305
860.725	14286
860.858	14286
860.99	14142
861.123	14126
861.256	14130
861.388	14183
861.521	14910
861.653	14084
861.786	14107
861.918	14096
862.05	14092
862.183	14126
862.315	14092
862.447	14286
862.58	14180
862.712	14001
862.844	13814
862.976	14142
863.108	13944
863.24	14275
863.372	13868
863.504	13887
863.636	14103
863.768	14027
863.9	13974
864.032	13906
864.164	13959
864.296	14008
864.428	14081
864.559	14145
864.691	14130
864.823	14001
864.954	14012
865.086	14008
865.217	13913
865.349	13947
865.48	13978
865.612	13974
865.743	14054
865.875	13947
866.006	13864
866.137	13997
866.269	13963
866.4	14046
866.531	13811
866.662	13871
866.793	13822
866.924	13906
867.055	13902
867.186	13959
867.317	13879
867.448	13784
867.579	13959
867.71	13944
867.841	13849
867.972	14012
868.103	13928
868.233	13963
868.364	14001
868.495	14031
868.625	14172
868.756	14320
868.886	14153
869.017	14157
869.147	14290
869.278	14282
869.408	14187
869.539	14168
869.669	14286
869.799	14161
869.929	14240
870.06	14347
870.19	14587
870.32	14488
870.45	14511
870.58	14636
870.71	14773
870.84	14644
870.97	14590
871.1	14590
871.23	14800
871.36	14857
871.489	14708
871.619	14769
871.749	14750
871.879	14777
872.008	14918
872.138	14853
872.267	14777
872.397	14708
872.526	14610
872.656	14556
872.785	14712
872.915	14868
873.044	14933
873.173	14834
873.303	14899
873.432	14937
873.561	14895
873.69	14838
873.819	14887
873.948	14948
874.077	14887
874.206	14887
874.335	14845
874.464	14963
874.593	15150
874.722	15036
874.851	15192
874.979	15203
875.108	15230
875.237	15020
875.365	15097
875.494	15188
875.623	15241
875.751	15176
875.88	15154
876.008	15241
876.136	15298
876.265	15644
876.393	15671
876.521	15603
876.65	15679
876.778	15564
876.906	15462
877.034	15511
877.162	15538
877.29	15458
877.418	15633
877.546	15614
877.674	15538
877.802	15606
877.93	15587
878.058	15637
878.185	15511
878.313	15530
878.441	15595
878.568	15458
878.696	15534
878.824	15629
878.951	15648
879.079	15785
879.206	15800
879.333	15739
879.461	15576
879.588	15694
879.715	15812
879.842	15850
879.97	15724
880.097	15374
880.224	15325
880.351	15557
880.478	15408
880.605	15496
880.732	15393
880.859	15561
880.986	15504
881.112	15500
881.239	15294
881.366	15260
881.493	15161
881.619	15085
881.746	15138
881.872	15047
881.999	15135
882.125	15039
882.252	15135
882.378	15192
882.505	15283
882.631	14956
882.757	14956
882.883	14902
883.01	14937
883.136	14857
883.262	14830
883.388	14724
883.514	15024
883.64	15020
883.766	14910
883.892	14830
884.018	14765
884.143	14941
884.269	14937
884.395	14655
884.52	14590
884.646	14640
884.772	14644
884.897	14495
885.023	14602
885.148	14701
885.274	14807
885.399	14636
885.524	14590
885.65	14598
885.775	14613
885.9	14606
886.025	14724
886.15	14663
886.275	14480
886.4	14495
886.525	14587
886.65	14590
886.775	14450
886.9	14712
887.025	14796
887.149	14511
887.274	14408
887.399	14446
887.523	14385
887.648	14389
887.773	14355
887.897	14396
888.021	14526
888.146	14374
888.27	14492
888.395	14499
888.519	14480
888.643	14518
888.767	14526
888.891	14298
889.015	14328
889.139	14358
889.263	14187
889.387	14438
889.511	14484
889.635	14412
889.759	14225
889.883	14347
890.006	14301
890.13	14442
890.254	14237
890.377	14313
890.501	14248
890.624	14016
890.748	14149
890.871	14123
890.995	13997
891.118	13925
891.241	13993
891.364	14065
891.488	14199
891.611	14069
891.734	13932
891.857	14069
891.98	14035
892.103	14153
892.226	14050
892.349	13970
892.471	13814
892.594	14065
892.717	13993
892.839	14001
892.962	13974
893.085	14100
893.207	13970
893.33	14005
893.452	13944
893.575	14016
893.697	13951
893.819	14187
893.941	14237
894.064	14195
894.186	14012
894.308	13875
894.43	14126
894.552	14145
894.674	14153
894.796	13940
894.918	14092
895.04	14062
895.161	14164
895.283	14157
895.405	14008
895.526	14111
895.648	14084
895.769	14195
895.891	14252
896.012	14301
896.134	14195
896.255	14187
896.376	14088
896.498	14164
896.619	14252
896.74	14142
896.861	14237
896.982	14621
897.103	14606
897.224	14499
897.345	14396
897.466	14419
897.587	14415
897.708	14530
897.828	14537
897.949	14488
898.07	14317
898.19	14351
898.311	14678
898.431	14530
898.552	14556
898.672	14560
898.792	14659
898.913	14594
899.033	14583
899.153	14389
899.273	14351
899.393	14317
899.513	14320
899.633	14393
899.753	14457
899.873	14381
899.993	14404
900.113	14381
900.232	14347
900.352	14396
900.472	14393
900.591	14248
900.711	14282
900.83	14115
900.95	14393
901.069	14343
901.189	14183
901.308	14016
901.427	13982
901.546	13906
901.665	14054
901.784	14062
901.904	13894
902.023	13864
902.141	13601
902.26	13548
902.379	13567
902.498	13567
902.617	13460
902.735	13556
902.854	13411
902.973	13441
903.091	13259
903.21	13285
903.328	13331
903.446	13129
903.565	13088
903.683	13065
903.801	13042
903.919	13091
904.038	13004
904.156	12890
904.274	12981
904.392	12863
904.51	12833
904.627	12958
904.745	12939
904.863	12920
904.981	12703
905.098	12616
905.216	12566
905.334	12612
905.451	12570
905.569	12585
905.686	12612
905.803	12585
905.921	12357
906.038	12555
906.155	12407
906.272	12300
906.389	12353
906.506	12106
906.623	12247
906.74	12117
906.857	12053
906.974	12053
907.091	12216
907.208	12327
907.324	12182
907.441	12148
907.557	11946
907.674	11882
907.79	11851
907.907	11897
908.023	11912
908.139	11859
908.256	11809
908.372	11889
908.488	11836
908.604	11699
908.72	11657
908.836	11684
908.952	11699
909.068	11726
909.184	11672
909.3	11627
909.415	11611
909.531	11653
909.647	11547
909.762	11448
909.878	11406
909.993	11425
910.108	11528
910.224	11463
910.339	11486
910.454	11383
910.57	11269
910.685	11246
910.8	11573
910.915	11360
911.03	11372
911.145	11140
911.259	11090
911.374	11189
911.489	11098
911.604	11045
911.718	10877
911.833	10885
911.947	10858
912.062	10755
912.176	10896
912.291	10919
912.405	10919
912.519	11086
912.633	11124
912.748	11014
912.862	10824
912.976	10805
913.09	10660
913.204	10778
913.318	10782
913.431	10847
913.545	10908
913.659	10892
913.772	10869
913.886	10675
914	10679
914.113	10866
914.226	10835
914.34	10809
914.453	10611
914.566	10797
914.68	10679
914.793	10645
914.906	10519
915.019	10405
915.132	10447
915.245	10390
915.358	10394
915.47	10504
915.583	10485
915.696	10527
915.809	10535
915.921	10596
916.034	10409
916.146	10402
916.259	10344
916.371	10497
916.483	10417
916.595	10352
916.708	10382
916.82	10337
916.932	10295
917.044	10310
917.156	10284
917.268	10211
917.38	10249
917.491	10253
917.603	10246
917.715	10363
917.826	10413
917.938	10337
918.049	10185
918.161	10246
918.272	10386
918.384	10394
918.495	10234
918.606	10143
918.717	10139
918.828	10128
918.939	10185
919.05	10082
919.161	10139
919.272	9888
919.383	10025
919.494	10192
919.604	10413
919.715	10131
919.826	10025
919.936	10097
920.047	10192
920.157	10230
920.267	10367
920.378	10154
920.488	10215
920.598	10348
920.708	10500
920.818	10356
920.928	10470
921.038	10580
921.148	10504
921.258	10268
921.368	10032
921.477	10032
921.587	10101
921.697	9934
921.806	9964
921.916	9960
922.025	9732
922.134	9740
922.244	9667
922.353	9800
922.462	9671
922.571	9526
922.68	9420
922.789	9416
922.898	9466
923.007	9378
923.116	9485
923.224	9397
923.333	9389
923.442	9306
923.55	9306
923.659	9348
923.767	9344
923.876	9310
923.984	9367
924.092	9233
924.201	9325
924.309	9291
924.417	9233
924.525	9249
924.633	9249
924.741	10082
924.849	9097
924.956	9302
925.064	9032
925.172	8960
925.279	9020
925.387	9154
925.494	9108
925.602	9154
925.709	9154
925.816	8937
925.924	9028
926.031	9142
926.138	9157
926.245	9154
926.352	9020
926.459	9100
926.566	9226
926.673	9055
926.779	8956
926.886	8895
926.993	8804
927.099	8800
927.206	8754
927.312	8750
927.419	8861
927.525	8849
927.631	8796
927.737	8659
927.843	8663
927.95	8556
928.056	8663
928.162	8636
928.267	8746
928.373	9336
928.479	8762
928.585	8530
928.69	8724
928.796	8689
928.901	8640
929.007	8530
929.112	8629
929.218	8636
929.323	8530
929.428	8446
929.533	8621
929.638	8511
929.743	8473
929.848	8545
929.953	8450
930.058	8461
930.163	8202
930.267	8320
930.372	8446
930.477	8233
930.581	8476
930.685	8309
930.79	8221
930.894	8218
930.998	8183
931.103	8332
931.207	8031
931.311	7982
931.415	7913
931.519	7727
931.623	7719
