Data from test_V78500241_451.txt Node
Date: Fri Mar 25 14:36:51 CST 2022
User: usil
Spectrometer: V785-0024
Trigger mode: 0
Integration Time (sec): 4.000000E-1
Scans to average: 1
Nonlinearity correction enabled: false
Boxcar width: 0
Storing dark spectrum: false
XAxis mode: Wavelengths
Number of Pixels in Spectrum: 1024
>>>>>Begin Spectral Data<<<<<
801.071	26465
801.214	26446
801.356	26294
801.499	26214
801.641	26157
801.783	25868
801.926	26092
802.068	25723
802.211	25772
802.353	25723
802.496	25578
802.638	25514
802.78	25544
802.923	25525
803.065	25460
803.208	25495
803.35	25426
803.492	25639
803.635	25582
803.777	25537
803.919	25613
804.061	25856
804.204	25556
804.346	25396
804.488	25217
804.63	25487
804.773	25308
804.915	25506
805.057	25495
805.199	25537
805.341	25548
805.483	25655
805.626	25582
805.768	25415
805.91	25658
806.052	25540
806.194	25335
806.336	25670
806.478	25468
806.62	25483
806.762	25670
806.904	25822
807.046	25932
807.188	25769
807.33	25909
807.472	25890
807.614	25879
807.756	25803
807.898	25814
808.04	25548
808.182	25662
808.324	25639
808.465	25811
808.607	25803
808.749	26005
808.891	26206
809.033	26092
809.174	26164
809.316	25986
809.458	26001
809.6	26016
809.741	26088
809.883	26062
810.025	26237
810.166	26122
810.308	26145
810.45	26096
810.591	25978
810.733	25913
810.875	26008
811.016	25860
811.158	25681
811.299	25841
811.441	25902
811.582	25841
811.724	25955
811.865	25685
812.007	25909
812.148	25818
812.29	25860
812.431	25902
812.573	26088
812.714	26191
812.855	26381
812.997	26484
813.138	26499
813.279	26309
813.421	26267
813.562	26290
813.703	26122
813.845	25993
813.986	25761
814.127	25540
814.268	25350
814.41	25479
814.551	25331
814.692	25438
814.833	25422
814.974	25304
815.115	25343
815.256	25202
815.397	25228
815.539	25088
815.68	25179
815.821	25095
815.962	25179
816.103	25103
816.244	24966
816.385	24806
816.526	24749
816.666	24483
816.807	24452
816.948	24730
817.089	24574
817.23	24563
817.371	24445
817.512	24494
817.653	24460
817.793	24475
817.934	24467
818.075	24528
818.216	24311
818.356	24490
818.497	24262
818.638	24155
818.778	24102
818.919	24194
819.06	24190
819.2	24232
819.341	24391
819.481	24346
819.622	24441
819.762	24650
819.903	24623
820.043	24540
820.184	24574
820.324	24502
820.465	24639
820.605	24460
820.746	24498
820.886	24266
821.026	24460
821.167	24490
821.307	24418
821.447	24308
821.588	24102
821.728	24121
821.868	24041
822.008	23984
822.149	23805
822.289	23737
822.429	23592
822.569	23585
822.709	23429
822.849	23303
822.99	23440
823.13	23269
823.27	23159
823.41	23048
823.55	22976
823.69	23052
823.83	22934
823.97	22847
824.11	22820
824.25	22736
824.389	22843
824.529	22793
824.669	22850
824.809	22927
824.949	22911
825.089	22961
825.228	22984
825.368	22786
825.508	22634
825.648	22706
825.787	22630
825.927	22771
826.067	22542
826.206	22645
826.346	22664
826.485	22752
826.625	22653
826.765	22839
826.904	22641
827.044	22497
827.183	22325
827.323	22150
827.462	22451
827.601	22405
827.741	22303
827.88	22402
828.02	22143
828.159	22325
828.298	22348
828.437	22352
828.577	22276
828.716	22440
828.855	22181
828.994	22166
829.134	22021
829.273	22135
829.412	22131
829.551	22059
829.69	21960
829.829	22128
829.968	22162
830.107	22051
830.246	22051
830.385	21972
830.524	21865
830.663	21956
830.802	21682
830.941	21606
831.08	21572
831.219	21622
831.357	21656
831.496	21895
831.635	21561
831.774	21507
831.913	21435
832.051	21260
832.19	21370
832.329	21317
832.467	21336
832.606	21275
832.744	21226
832.883	21230
833.022	21252
833.16	21252
833.299	21386
833.437	21298
833.576	21348
833.714	21233
833.852	21370
833.991	21317
834.129	21450
834.267	21340
834.406	21329
834.544	21302
834.682	21264
834.821	21184
834.959	21439
835.097	21184
835.235	21336
835.373	21230
835.511	21203
835.65	21142
835.788	21214
835.926	20864
836.064	20937
836.202	20982
836.34	21108
836.478	21260
836.615	21104
836.753	21146
836.891	21294
837.029	21161
837.167	21142
837.305	20990
837.443	20979
837.58	20880
837.718	21135
837.856	21001
837.993	20853
838.131	21036
838.269	20929
838.406	20883
838.544	20830
838.681	20682
838.819	20594
838.956	20442
839.094	20465
839.231	20469
839.369	20602
839.506	20861
839.643	20735
839.781	20461
839.918	20393
840.055	20442
840.193	20381
840.33	20336
840.467	20347
840.604	20400
840.742	20518
840.879	20290
841.016	20377
841.153	20252
841.29	20408
841.427	20343
841.564	20317
841.701	20206
841.838	20294
841.975	20244
842.112	20248
842.249	20157
842.385	20187
842.522	20370
842.659	20096
842.796	19951
842.933	20073
843.069	20103
843.206	20001
843.343	20138
843.479	19925
843.616	20054
843.752	19818
843.889	19791
844.025	20012
844.162	19826
844.298	19921
844.435	19788
844.571	19750
844.708	19845
844.844	19970
844.98	19925
845.117	19986
845.253	19750
845.389	19582
845.525	19765
845.661	19643
845.798	19552
845.934	19757
846.07	19693
846.206	19632
846.342	19594
846.478	19575
846.614	19460
846.75	19156
846.886	19289
847.022	19308
847.158	19339
847.294	19289
847.429	19320
847.565	19274
847.701	19586
847.837	19019
847.972	18932
848.108	19088
848.244	19179
848.379	18894
848.515	18924
848.65	18741
848.786	18684
848.921	18871
849.057	18871
849.192	18905
849.328	18924
849.463	18875
849.598	18890
849.734	18779
849.869	18654
850.004	18741
850.14	18703
850.275	18555
850.41	18544
850.545	18604
850.68	18547
850.815	18658
850.95	18551
851.085	18798
851.22	18635
851.355	18612
851.49	18525
851.625	18551
851.76	18464
851.895	18536
852.03	18448
852.165	18452
852.299	18631
852.434	18601
852.569	18669
852.703	18604
852.838	18650
852.973	18658
853.107	18753
853.242	18551
853.376	18380
853.511	18281
853.645	18388
853.78	18555
853.914	18445
854.048	18399
854.183	18391
854.317	18422
854.451	18585
854.585	18384
854.72	18403
854.854	18418
854.988	18353
855.122	18479
855.256	18232
855.39	18475
855.524	18441
855.658	18399
855.792	18490
855.926	18388
856.06	18486
856.194	18460
856.327	18300
856.461	18361
856.595	18452
856.729	18380
856.862	18467
856.996	18369
857.13	18410
857.263	18418
857.397	18490
857.53	18376
857.664	18433
857.797	18445
857.931	18483
858.064	18403
858.197	18555
858.331	18270
858.464	18235
858.597	18201
858.731	18365
858.864	18418
858.997	18190
859.13	18422
859.263	18380
859.396	18391
859.529	18426
859.662	18369
859.795	18190
859.928	18410
860.061	18388
860.194	18509
860.327	18327
860.46	18300
860.592	18498
860.725	18467
860.858	18414
860.99	18350
861.123	18258
861.256	18178
861.388	18327
861.521	19091
861.653	18098
861.786	18224
861.918	18216
862.05	18315
862.183	18361
862.315	18308
862.447	18437
862.58	18220
862.712	18064
862.844	18091
862.976	18186
863.108	18087
863.24	18486
863.372	17954
863.504	18114
863.636	17958
863.768	18125
863.9	17999
864.032	17950
864.164	17965
864.296	18106
864.428	18140
864.559	18079
864.691	18144
864.823	18026
864.954	18125
865.086	18102
865.217	17961
865.349	17942
865.48	18076
865.612	17996
865.743	18087
865.875	18038
866.006	17878
866.137	18087
866.269	18045
866.4	17988
866.531	18022
866.662	17855
866.793	17954
866.924	17984
867.055	17935
867.186	17958
867.317	17798
867.448	17923
867.579	17935
867.71	17786
867.841	17847
867.972	17904
868.103	17878
868.233	18007
868.364	18045
868.495	18057
868.625	18186
868.756	18194
868.886	18148
869.017	18209
869.147	18330
869.278	18266
869.408	18209
869.539	18201
869.669	18311
869.799	18194
869.929	18247
870.06	18289
870.19	18547
870.32	18509
870.45	18414
870.58	18574
870.71	18673
870.84	18703
870.97	18578
871.1	18738
871.23	18741
871.36	18741
871.489	18696
871.619	18753
871.749	18776
871.879	18829
872.008	18844
872.138	18760
872.267	18711
872.397	18696
872.526	18559
872.656	18658
872.785	18513
872.915	18730
873.044	18745
873.173	18886
873.303	18882
873.432	18890
873.561	18859
873.69	18749
873.819	18696
873.948	18913
874.077	18776
874.206	18795
874.335	18730
874.464	18817
874.593	19019
874.722	18985
874.851	19099
874.979	19145
875.108	19107
875.237	19065
875.365	19034
875.494	19072
875.623	19259
875.751	19088
875.88	19103
876.008	19236
876.136	19240
876.265	19578
876.393	19594
876.521	19487
876.65	19582
876.778	19346
876.906	19445
877.034	19430
877.162	19476
877.29	19514
877.418	19411
877.546	19411
877.674	19582
877.802	19441
877.93	19491
878.058	19396
878.185	19297
878.313	19392
878.441	19540
878.568	19263
878.696	19426
878.824	19472
878.951	19426
879.079	19639
879.206	19708
879.333	19575
879.461	19525
879.588	19472
879.715	19639
879.842	19708
879.97	19548
880.097	19422
880.224	19301
880.351	19331
880.478	19274
880.605	19236
880.732	19228
880.859	19510
880.986	19362
881.112	19320
881.239	19202
881.366	19004
881.493	19038
881.619	18886
881.746	18954
881.872	18947
881.999	18829
882.125	18932
882.252	18897
882.378	18943
882.505	19015
882.631	18764
882.757	18825
882.883	18798
883.01	18620
883.136	18612
883.262	18525
883.388	18494
883.514	18684
883.64	18730
883.766	18692
883.892	18437
884.018	18517
884.143	18642
884.269	18719
884.395	18525
884.52	18334
884.646	18403
884.772	18258
884.897	18258
885.023	18342
885.148	18353
885.274	18445
885.399	18327
885.524	18308
885.65	18342
885.775	18350
885.9	18319
886.025	18403
886.15	18456
886.275	18232
886.4	18270
886.525	18330
886.65	18262
886.775	18262
886.9	18475
887.025	18623
887.149	18323
887.274	18216
887.399	18140
887.523	18026
887.648	18076
887.773	17999
887.897	18117
888.021	18197
888.146	18026
888.27	18194
888.395	18243
888.519	18239
888.643	18232
888.767	18117
888.891	18068
889.015	17912
889.139	17939
889.263	17885
889.387	17920
889.511	18076
889.635	17996
889.759	17874
889.883	17885
890.006	17942
890.13	18011
890.254	17779
890.377	17889
890.501	17687
890.624	17718
890.748	17695
890.871	17551
890.995	17501
891.118	17372
891.241	17615
891.364	17535
891.488	17619
891.611	17672
891.734	17539
891.857	17627
891.98	17577
892.103	17543
892.226	17486
892.349	17478
892.471	17326
892.594	17459
892.717	17455
892.839	17535
892.962	17551
893.085	17638
893.207	17467
893.33	17334
893.452	17402
893.575	17520
893.697	17417
893.819	17672
893.941	17691
894.064	17646
894.186	17471
894.308	17353
894.43	17634
894.552	17729
894.674	17425
894.796	17353
894.918	17509
895.04	17532
895.161	17524
895.283	17459
895.405	17463
895.526	17577
895.648	17516
895.769	17577
895.891	17668
896.012	17657
896.134	17657
896.255	17600
896.376	17539
896.498	17653
896.619	17589
896.74	17581
896.861	17604
896.982	17843
897.103	18114
897.224	17870
897.345	17824
897.466	17653
897.587	17783
897.708	17893
897.828	17809
897.949	17805
898.07	17657
898.19	17668
898.311	17878
898.431	17760
898.552	17767
898.672	17874
898.792	17863
898.913	17790
899.033	17638
899.153	17665
899.273	17608
899.393	17585
899.513	17463
899.633	17703
899.753	17634
899.873	17516
899.993	17646
900.113	17539
900.232	17638
900.352	17539
900.472	17501
900.591	17429
900.711	17364
900.83	17368
900.95	17505
901.069	17478
901.189	17337
901.308	17170
901.427	17083
901.546	17025
901.665	17079
901.784	17090
901.904	16961
902.023	16774
902.141	16565
902.26	16592
902.379	16626
902.498	16622
902.617	16500
902.735	16523
902.854	16592
902.973	16390
903.091	16268
903.21	16223
903.328	16299
903.446	16234
903.565	16063
903.683	16185
903.801	16013
903.919	16040
904.038	16090
904.156	15964
904.274	15854
904.392	15911
904.51	15915
904.627	15922
904.745	15892
904.863	15831
904.981	15701
905.098	15591
905.216	15587
905.334	15561
905.451	15584
905.569	15526
905.686	15568
905.803	15511
905.921	15382
906.038	15355
906.155	15397
906.272	15279
906.389	15256
906.506	15146
906.623	15093
906.74	15097
906.857	14944
906.974	15055
907.091	15199
907.208	15275
907.324	15131
907.441	14990
907.557	14910
907.674	14720
907.79	14754
907.907	14765
908.023	14830
908.139	14853
908.256	14697
908.372	14651
908.488	14644
908.604	14606
908.72	14469
908.836	14564
908.952	14461
909.068	14533
909.184	14492
909.3	14415
909.415	14480
909.531	14537
909.647	14248
909.762	14259
909.878	14176
909.993	14248
910.108	14214
910.224	14149
910.339	14233
910.454	14043
910.57	14035
910.685	13951
910.8	14221
910.915	14206
911.03	13997
911.145	13894
911.259	13879
911.374	13864
911.489	13887
911.604	13624
911.718	13559
911.833	13628
911.947	13521
912.062	13331
912.176	13658
912.291	13502
912.405	13586
912.519	13841
912.633	13704
912.748	13601
912.862	13609
912.976	13468
913.09	13350
913.204	13476
913.318	13415
913.431	13544
913.545	13552
913.659	13597
913.772	13487
913.886	13190
914	13293
914.113	13468
914.226	13514
914.34	13320
914.453	13187
914.566	13415
914.68	13289
914.793	13175
914.906	12867
915.019	12951
915.132	12905
915.245	12939
915.358	12966
915.47	12913
915.583	12947
915.696	12996
915.809	13012
915.921	13061
916.034	12928
916.146	12825
916.259	12848
916.371	12890
916.483	12943
916.595	12821
916.708	12764
916.82	12840
916.932	12901
917.044	12719
917.156	12738
917.268	12612
917.38	12684
917.491	12555
917.603	12700
917.715	12711
917.826	12833
917.938	12540
918.049	12467
918.161	12589
918.272	12738
918.384	12745
918.495	12662
918.606	12521
918.717	12467
918.828	12418
918.939	12506
919.05	12399
919.161	12403
919.272	12232
919.383	12338
919.494	12475
919.604	12620
919.715	12448
919.826	12361
919.936	12452
920.047	12502
920.157	12506
920.267	12658
920.378	12555
920.488	12486
920.598	12616
920.708	12620
920.818	12608
920.928	12528
921.038	12810
921.148	12726
921.258	12403
921.368	12422
921.477	12289
921.587	12209
921.697	12171
921.806	12277
921.916	12106
922.025	11969
922.134	11851
922.244	11786
922.353	11874
922.462	11813
922.571	11638
922.68	11615
922.789	11627
922.898	11596
923.007	11490
923.116	11490
923.224	11577
923.333	11429
923.442	11486
923.55	11334
923.659	11471
923.767	11463
923.876	11315
923.984	11490
924.092	11292
924.201	11364
924.309	11364
924.417	11368
924.525	11258
924.633	11277
924.741	12281
924.849	11143
924.956	11273
925.064	11117
925.172	11029
925.279	11079
925.387	11140
925.494	11128
925.602	11212
925.709	11208
925.816	10991
925.924	11056
926.031	11045
926.138	11033
926.245	11067
926.352	10953
926.459	11098
926.566	11132
926.673	10942
926.779	10942
926.886	10889
926.993	10691
927.099	10752
927.206	10717
927.312	10672
927.419	10839
927.525	10668
927.631	10714
927.737	10710
927.843	10607
927.95	10474
928.056	10596
928.162	10580
928.267	10596
928.373	11288
928.479	10649
928.585	10436
928.69	10603
928.796	10565
928.901	10459
929.007	10341
929.112	10405
929.218	10379
929.323	10436
929.428	10299
929.533	10367
929.638	10257
929.743	10272
929.848	10318
929.953	10325
930.058	10173
930.163	9994
930.267	10048
930.372	10276
930.477	10029
930.581	10227
930.685	10116
930.79	10048
930.894	9922
930.998	9937
931.103	10051
931.207	9762
931.311	9663
931.415	9553
931.519	9363
931.623	9416
