Data from test_V78500241_100.txt Node
Date: Fri Mar 25 14:34:25 CST 2022
User: usil
Spectrometer: V785-0024
Trigger mode: 0
Integration Time (sec): 4.000000E-1
Scans to average: 1
Nonlinearity correction enabled: false
Boxcar width: 0
Storing dark spectrum: false
XAxis mode: Wavelengths
Number of Pixels in Spectrum: 1024
>>>>>Begin Spectral Data<<<<<
801.071	29178
801.214	29181
801.356	28854
801.499	28816
801.641	28717
801.783	28759
801.926	28664
802.068	28710
802.211	28687
802.353	28710
802.496	28440
802.638	28363
802.78	28253
802.923	28379
803.065	28226
803.208	28226
803.35	28280
803.492	28337
803.635	28622
803.777	28394
803.919	28417
804.061	28778
804.204	28409
804.346	28367
804.488	28360
804.63	28398
804.773	28135
804.915	28382
805.057	28573
805.199	28527
805.341	28538
805.483	28607
805.626	28580
805.768	28421
805.91	28512
806.052	28599
806.194	28634
806.336	28930
806.478	28733
806.62	28767
806.762	28892
806.904	29128
807.046	29398
807.188	29417
807.33	29410
807.472	29619
807.614	29668
807.756	29893
807.898	29794
808.04	30110
808.182	30559
808.324	30913
808.465	31449
808.607	32054
808.749	32655
808.891	32963
809.033	32906
809.174	32419
809.316	31993
809.458	31521
809.6	30909
809.741	30658
809.883	30152
810.025	30125
810.166	29935
810.308	29882
810.45	29764
810.591	29581
810.733	29375
810.875	29292
811.016	29208
811.158	29044
811.299	29151
811.441	29250
811.582	29090
811.724	29155
811.865	29014
812.007	29037
812.148	29025
812.29	28915
812.431	29189
812.573	29242
812.714	29261
812.855	29596
812.997	29528
813.138	29710
813.279	29585
813.421	29524
813.562	29341
813.703	29231
813.845	29155
813.986	28736
814.127	28565
814.268	28645
814.41	28531
814.551	28447
814.692	28561
814.833	28344
814.974	28352
815.115	28462
815.256	28204
815.397	28238
815.539	28272
815.68	28265
815.821	28059
815.962	28128
816.103	28143
816.244	28188
816.385	27789
816.526	27846
816.666	27557
816.807	27549
816.948	27545
817.089	27679
817.23	27507
817.371	27397
817.512	27515
817.653	27496
817.793	27481
817.934	27500
818.075	27595
818.216	27450
818.356	27370
818.497	27272
818.638	27180
818.778	27188
818.919	27306
819.06	27184
819.2	27473
819.341	27340
819.481	27408
819.622	27671
819.762	27751
819.903	27686
820.043	27603
820.184	27466
820.324	27462
820.465	27542
820.605	27439
820.746	27420
820.886	27226
821.026	27462
821.167	27363
821.307	27500
821.447	27275
821.588	27283
821.728	27077
821.868	26758
822.008	26545
822.149	26788
822.289	26682
822.429	26488
822.569	26393
822.709	26438
822.849	26309
822.99	26237
823.13	26157
823.27	26134
823.41	26043
823.55	26046
823.69	26005
823.83	25966
823.97	25978
824.11	25696
824.25	25704
824.389	25742
824.529	25799
824.669	25761
824.809	25814
824.949	25765
825.089	25738
825.228	25856
825.368	25548
825.508	25689
825.648	25586
825.787	25655
825.927	25670
826.067	25422
826.206	25628
826.346	25502
826.485	25552
826.625	25575
826.765	25628
826.904	25632
827.044	25308
827.183	25327
827.323	25179
827.462	25331
827.601	25278
827.741	25297
827.88	25312
828.02	25118
828.159	25126
828.298	25183
828.437	25213
828.577	25160
828.716	25187
828.855	25072
828.994	24817
829.134	24837
829.273	24981
829.412	24878
829.551	24795
829.69	24806
829.829	24951
829.968	24890
830.107	24757
830.246	24760
830.385	24715
830.524	24711
830.663	24658
830.802	24521
830.941	24399
831.08	24517
831.219	24460
831.357	24563
831.496	24631
831.635	24441
831.774	24270
831.913	24369
832.051	24239
832.19	24273
832.329	24201
832.467	24068
832.606	24098
832.744	23961
832.883	24076
833.022	24102
833.16	24205
833.299	23984
833.437	24152
833.576	24201
833.714	24140
833.852	24323
833.991	24174
834.129	24429
834.267	24296
834.406	24174
834.544	24232
834.682	24270
834.821	24125
834.959	24300
835.097	24114
835.235	24144
835.373	24136
835.511	24015
835.65	23828
835.788	23958
835.926	23790
836.064	23691
836.202	23695
836.34	23802
836.478	23980
836.615	23836
836.753	23851
836.891	23931
837.029	23931
837.167	23843
837.305	23790
837.443	23786
837.58	23691
837.718	23771
837.856	23699
837.993	23627
838.131	23630
838.269	23512
838.406	23543
838.544	23528
838.681	23356
838.819	23178
838.956	23166
839.094	23010
839.231	23170
839.369	23197
839.506	23467
839.643	23383
839.781	23044
839.918	23022
840.055	23090
840.193	23064
840.33	22965
840.467	23010
840.604	22900
840.742	23102
840.879	22786
841.016	22923
841.153	22710
841.29	23086
841.427	23064
841.564	23094
841.701	22953
841.838	22771
841.975	22809
842.112	22622
842.249	22805
842.385	22626
842.522	22869
842.659	22698
842.796	22527
842.933	22733
843.069	22710
843.206	22622
843.343	22672
843.479	22713
843.616	22683
843.752	22493
843.889	22516
844.025	22687
844.162	22535
844.298	22599
844.435	22462
844.571	22516
844.708	22672
844.844	22786
844.98	22790
845.117	22949
845.253	23018
845.389	23064
845.525	23714
845.661	24532
845.798	25533
845.934	26621
846.07	26925
846.206	26876
846.342	26317
846.478	25042
846.614	23745
846.75	23018
846.886	22588
847.022	22504
847.158	22268
847.294	22048
847.429	22029
847.565	21968
847.701	22234
847.837	21759
847.972	21599
848.108	21717
848.244	21637
848.379	21416
848.515	21313
848.65	21500
848.786	21329
848.921	21576
849.057	21492
849.192	21435
849.328	21450
849.463	21412
849.598	21401
849.734	21325
849.869	21230
850.004	21294
850.14	21180
850.275	21226
850.41	21001
850.545	21039
850.68	21085
850.815	21157
850.95	21024
851.085	21325
851.22	21150
851.355	21161
851.49	21051
851.625	21131
851.76	21070
851.895	20979
852.03	21089
852.165	20990
852.299	21112
852.434	21188
852.569	21119
852.703	21108
852.838	21169
852.973	21252
853.107	21256
853.242	21062
853.376	20887
853.511	20830
853.645	20967
853.78	21009
853.914	20979
854.048	20914
854.183	20864
854.317	21066
854.451	21157
854.585	20967
854.72	20902
854.854	20910
854.988	20872
855.122	20952
855.256	20800
855.39	20975
855.524	20918
855.658	20986
855.792	20952
855.926	20880
856.06	20891
856.194	20952
856.327	20914
856.461	20804
856.595	20956
856.729	20826
856.862	20979
856.996	20845
857.13	20941
857.263	20941
857.397	20944
857.53	20819
857.664	20876
857.797	20864
857.931	20914
858.064	20823
858.197	21013
858.331	20849
858.464	20765
858.597	20648
858.731	20815
858.864	20914
858.997	20769
859.13	20758
859.263	20712
859.396	20880
859.529	20731
859.662	20781
859.795	20758
859.928	20906
860.061	20979
860.194	20937
860.327	20796
860.46	20712
860.592	20971
860.725	20967
860.858	20948
860.99	20857
861.123	20682
861.256	20716
861.388	20743
861.521	21412
861.653	20693
861.786	20575
861.918	20727
862.05	20769
862.183	20830
862.315	20826
862.447	20868
862.58	20720
862.712	20602
862.844	20636
862.976	20625
863.108	20568
863.24	20849
863.372	20454
863.504	20385
863.636	20370
863.768	20492
863.9	20522
864.032	20473
864.164	20412
864.296	20400
864.428	20476
864.559	20434
864.691	20476
864.823	20450
864.954	20438
865.086	20396
865.217	20267
865.349	20294
865.48	20526
865.612	20313
865.743	20438
865.875	20434
866.006	20324
866.137	20324
866.269	20495
866.4	20275
866.531	20294
866.662	20229
866.793	20351
866.924	20256
867.055	20252
867.186	20355
867.317	20233
867.448	20202
867.579	20275
867.71	20065
867.841	20195
867.972	20278
868.103	20092
868.233	20282
868.364	20301
868.495	20271
868.625	20469
868.756	20632
868.886	20438
869.017	20533
869.147	20594
869.278	20629
869.408	20670
869.539	20454
869.669	20587
869.799	20598
869.929	20667
870.06	20659
870.19	20800
870.32	20765
870.45	20785
870.58	20842
870.71	21123
870.84	21020
870.97	20857
871.1	20906
871.23	21104
871.36	20967
871.489	21020
871.619	21116
871.749	21195
871.879	21230
872.008	21321
872.138	21264
872.267	21077
872.397	21013
872.526	20910
872.656	20876
872.785	20979
872.915	21123
873.044	21233
873.173	21214
873.303	21241
873.432	21176
873.561	21351
873.69	21321
873.819	21199
873.948	21420
874.077	21222
874.206	21096
874.335	21317
874.464	21321
874.593	21473
874.722	21397
874.851	21523
874.979	21545
875.108	21542
875.237	21367
875.365	21420
875.494	21507
875.623	21523
875.751	21530
875.88	21576
876.008	21686
876.136	21880
876.265	21895
876.393	22044
876.521	22101
876.65	22109
876.778	22013
876.906	22074
877.034	21911
877.162	21975
877.29	21880
877.418	22097
877.546	22040
877.674	22032
877.802	21915
877.93	22162
878.058	22082
878.185	21876
878.313	22192
878.441	22325
878.568	22097
878.696	22242
878.824	22550
878.951	22687
879.079	23121
879.206	23524
879.333	23668
879.461	23992
879.588	24323
879.715	24369
879.842	24270
879.97	23786
880.097	23231
880.224	22820
880.351	22755
880.478	22607
880.605	22485
880.732	22360
880.859	22538
880.986	22299
881.112	22485
881.239	22131
881.366	22036
881.493	22048
881.619	21953
881.746	21937
881.872	21972
881.999	21797
882.125	21903
882.252	21873
882.378	21903
882.505	21991
882.631	21873
882.757	21705
882.883	21797
883.01	21812
883.136	21755
883.262	21496
883.388	21424
883.514	21580
883.64	21682
883.766	21606
883.892	21389
884.018	21530
884.143	21572
884.269	21747
884.395	21431
884.52	21370
884.646	21378
884.772	21325
884.897	21272
885.023	21370
885.148	21382
885.274	21443
885.399	21355
885.524	21291
885.65	21214
885.775	21222
885.9	21237
886.025	21306
886.15	21169
886.275	21062
886.4	20998
886.525	21184
886.65	20891
886.775	20986
886.9	20982
887.025	21230
887.149	20994
887.274	20937
887.399	20579
887.523	20609
887.648	20560
887.773	20568
887.897	20754
888.021	20682
888.146	20564
888.27	20674
888.395	20762
888.519	20606
888.643	20625
888.767	20579
888.891	20514
889.015	20446
889.139	20412
889.263	20301
889.387	20549
889.511	20636
889.635	20400
889.759	20263
889.883	20320
890.006	20366
890.13	20332
890.254	20180
890.377	20305
890.501	20012
890.624	20081
890.748	20050
890.871	19997
890.995	19822
891.118	19715
891.241	19879
891.364	19986
891.488	19883
891.611	19955
891.734	19887
891.857	19917
891.98	19788
892.103	19757
892.226	19845
892.349	19704
892.471	19624
892.594	19731
892.717	19715
892.839	19685
892.962	19689
893.085	19875
893.207	19811
893.33	19590
893.452	19613
893.575	19674
893.697	19597
893.819	19772
893.941	19776
894.064	19822
894.186	19620
894.308	19544
894.43	19776
894.552	19765
894.674	19666
894.796	19514
894.918	19609
895.04	19438
895.161	19620
895.283	19624
895.405	19670
895.526	19563
895.648	19548
895.769	19620
895.891	19693
896.012	19708
896.134	19738
896.255	19658
896.376	19586
896.498	19525
896.619	19765
896.74	19674
896.861	19746
896.982	20005
897.103	20081
897.224	20096
897.345	19913
897.466	19731
897.587	19917
897.708	19982
897.828	19826
897.949	19776
898.07	19685
898.19	19727
898.311	19826
898.431	19712
898.552	19811
898.672	19871
898.792	19871
898.913	19822
899.033	19734
899.153	19575
899.273	19518
899.393	19571
899.513	19586
899.633	19491
899.753	19628
899.873	19476
899.993	19537
900.113	19620
900.232	19597
900.352	19449
900.472	19415
900.591	19324
900.711	19232
900.83	19236
900.95	19365
901.069	19415
901.189	19285
901.308	19091
901.427	18928
901.546	18856
901.665	19019
901.784	18894
901.904	18829
902.023	18764
902.141	18502
902.26	18422
902.379	18509
902.498	18486
902.617	18361
902.735	18445
902.854	18441
902.973	18308
903.091	18102
903.21	17969
903.328	17999
903.446	17916
903.565	17855
903.683	17977
903.801	17828
903.919	17855
904.038	17783
904.156	17676
904.274	17703
904.392	17680
904.51	17615
904.627	17684
904.745	17573
904.863	17703
904.981	17471
905.098	17345
905.216	17318
905.334	17265
905.451	17227
905.569	17197
905.686	17246
905.803	17170
905.921	17124
906.038	17204
906.155	16911
906.272	16984
906.389	16972
906.506	16733
906.623	16900
906.74	16774
906.857	16706
906.974	16733
907.091	16812
907.208	16946
907.324	16809
907.441	16755
907.557	16577
907.674	16409
907.79	16394
907.907	16485
908.023	16527
908.139	16512
908.256	16432
908.372	16318
908.488	16398
908.604	16181
908.72	16086
908.836	16200
908.952	16173
909.068	16219
909.184	16280
909.3	16105
909.415	16131
909.531	16177
909.647	15941
909.762	15785
909.878	15808
909.993	15972
910.108	15797
910.224	15819
910.339	15816
910.454	15747
910.57	15568
910.685	15614
910.8	15880
910.915	15876
911.03	15629
911.145	15542
911.259	15454
911.374	15572
911.489	15519
911.604	15260
911.718	15195
911.833	15150
911.947	15100
912.062	14986
912.176	15119
912.291	15154
912.405	15214
912.519	15336
912.633	15454
912.748	15195
912.862	15097
912.976	14998
913.09	14864
913.204	15036
913.318	14979
913.431	15058
913.545	15089
913.659	15154
913.772	15036
913.886	14891
914	14845
914.113	14948
914.226	14971
914.34	14895
914.453	14811
914.566	14796
914.68	14720
914.793	14670
914.906	14571
915.019	14457
915.132	14415
915.245	14480
915.358	14446
915.47	14533
915.583	14568
915.696	14556
915.809	14533
915.921	14632
916.034	14408
916.146	14328
916.259	14385
916.371	14503
916.483	14381
916.595	14195
916.708	14339
916.82	14332
916.932	14210
917.044	14301
917.156	14202
917.268	14225
917.38	14107
917.491	14107
917.603	14180
917.715	14153
917.826	14088
917.938	14149
918.049	13993
918.161	14031
918.272	14176
918.384	14153
918.495	14027
918.606	13986
918.717	13932
918.828	13947
918.939	13940
919.05	13769
919.161	13814
919.272	13636
919.383	13769
919.494	13921
919.604	14001
919.715	13841
919.826	13776
919.936	13822
920.047	13803
920.157	13761
920.267	14035
920.378	13772
920.488	13750
920.598	14005
920.708	14046
920.818	13871
920.928	13925
921.038	14062
921.148	14005
921.258	13738
921.368	13696
921.477	13601
921.587	13628
921.697	13502
921.806	13552
921.916	13472
922.025	13221
922.134	13198
922.244	13129
922.353	13213
922.462	13099
922.571	13107
922.68	12901
922.789	12901
922.898	12916
923.007	12806
923.116	12943
923.224	12840
923.333	12806
923.442	12677
923.55	12642
923.659	12684
923.767	12753
923.876	12601
923.984	12707
924.092	12566
924.201	12639
924.309	12604
924.417	12585
924.525	12498
924.633	12563
924.741	13441
924.849	12315
924.956	12445
925.064	12403
925.172	12289
925.279	12251
925.387	12292
925.494	12330
925.602	12327
925.709	12300
925.816	12239
925.924	12232
926.031	12418
926.138	12186
926.245	12273
926.352	12205
926.459	12171
926.566	12361
926.673	12194
926.779	12030
926.886	12091
926.993	11916
927.099	11935
927.206	11863
927.312	11828
927.419	11893
927.525	11927
927.631	11908
927.737	11748
927.843	11756
927.95	11688
928.056	11722
928.162	11684
928.267	11756
928.373	12243
928.479	11737
928.585	11543
928.69	11634
928.796	11722
928.901	11577
929.007	11425
929.112	11486
929.218	11414
929.323	11433
929.428	11322
929.533	11570
929.638	11433
929.743	11345
929.848	11455
929.953	11360
930.058	11204
930.163	11147
930.267	11185
930.372	11258
930.477	11162
930.581	11292
930.685	11181
930.79	10984
930.894	11064
930.998	11045
931.103	11128
931.207	10752
931.311	10672
931.415	10546
931.519	10417
931.623	10417
