Data from test_V78500241_2405.txt Node
Date: Fri Mar 25 14:50:27 CST 2022
User: usil
Spectrometer: V785-0024
Trigger mode: 0
Integration Time (sec): 4.000000E-1
Scans to average: 1
Nonlinearity correction enabled: false
Boxcar width: 0
Storing dark spectrum: false
XAxis mode: Wavelengths
Number of Pixels in Spectrum: 1024
>>>>>Begin Spectral Data<<<<<
801.071	22116
801.214	22044
801.356	21766
801.499	21679
801.641	21572
801.783	21496
801.926	21641
802.068	21397
802.211	21412
802.353	21310
802.496	21138
802.638	21043
802.78	20971
802.923	21009
803.065	20708
803.208	20781
803.35	20918
803.492	21043
803.635	21036
803.777	20838
803.919	20899
804.061	21222
804.204	20963
804.346	20746
804.488	20887
804.63	20914
804.773	20670
804.915	20667
805.057	20853
805.199	20758
805.341	20773
805.483	20849
805.626	20910
805.768	20735
805.91	20800
806.052	20648
806.194	20613
806.336	20868
806.478	20724
806.62	20667
806.762	20864
806.904	20944
807.046	21241
807.188	21104
807.33	21119
807.472	21195
807.614	21093
807.756	21051
807.898	20705
808.04	20720
808.182	20921
808.324	20857
808.465	20902
808.607	21085
808.749	21093
808.891	21252
809.033	21298
809.174	21188
809.316	21142
809.458	21100
809.6	21039
809.741	21138
809.883	21245
810.025	21317
810.166	21298
810.308	21412
810.45	21363
810.591	21165
810.733	21070
810.875	20815
811.016	20811
811.158	20777
811.299	20906
811.441	20994
811.582	21036
811.724	20994
811.865	20914
812.007	20857
812.148	20834
812.29	20937
812.431	20956
812.573	21214
812.714	21325
812.855	21355
812.997	21523
813.138	21629
813.279	21580
813.421	21313
813.562	21351
813.703	21207
813.845	21036
813.986	20796
814.127	20541
814.268	20480
814.41	20545
814.551	20545
814.692	20530
814.833	20412
814.974	20434
815.115	20526
815.256	20370
815.397	20199
815.539	20298
815.68	20221
815.821	20039
815.962	20244
816.103	20115
816.244	20031
816.385	19959
816.526	19993
816.666	19738
816.807	19674
816.948	19643
817.089	19677
817.23	19620
817.371	19586
817.512	19476
817.653	19548
817.793	19571
817.934	19670
818.075	19571
818.216	19628
818.356	19502
818.497	19388
818.638	19270
818.778	19327
818.919	19183
819.06	19324
819.2	19396
819.341	19350
819.481	19441
819.622	19582
819.762	19719
819.903	19734
820.043	19540
820.184	19590
820.324	19518
820.465	19681
820.605	19594
820.746	19563
820.886	19548
821.026	19540
821.167	19472
821.307	19685
821.447	19567
821.588	19358
821.728	19282
821.868	19103
822.008	19023
822.149	18943
822.289	18973
822.429	18681
822.569	18608
822.709	18574
822.849	18551
822.99	18452
823.13	18517
823.27	18376
823.41	18353
823.55	18178
823.69	18243
823.83	18201
823.97	18060
824.11	18076
824.25	17973
824.389	18041
824.529	18171
824.669	18121
824.809	18117
824.949	18083
825.089	18098
825.228	18022
825.368	17843
825.508	17855
825.648	17840
825.787	17923
825.927	17745
826.067	17832
826.206	17794
826.346	17805
826.485	17851
826.625	17809
826.765	17916
826.904	17802
827.044	17566
827.183	17562
827.323	17551
827.462	17566
827.601	17471
827.741	17486
827.88	17581
828.02	17265
828.159	17402
828.298	17501
828.437	17592
828.577	17490
828.716	17455
828.855	17501
828.994	17364
829.134	17364
829.273	17322
829.412	17284
829.551	17242
829.69	17231
829.829	17216
829.968	17227
830.107	17395
830.246	17318
830.385	17223
830.524	17197
830.663	16980
830.802	17037
830.941	16771
831.08	16858
831.219	16919
831.357	16908
831.496	17166
831.635	16889
831.774	16778
831.913	16755
832.051	16679
832.19	16645
832.329	16710
832.467	16573
832.606	16641
832.744	16451
832.883	16527
833.022	16440
833.16	16573
833.299	16485
833.437	16592
833.576	16664
833.714	16558
833.852	16630
833.991	16668
834.129	16668
834.267	16656
834.406	16577
834.544	16550
834.682	16599
834.821	16542
834.959	16782
835.097	16504
835.235	16805
835.373	16603
835.511	16668
835.65	16493
835.788	16409
835.926	16455
836.064	16360
836.202	16379
836.34	16386
836.478	16645
836.615	16500
836.753	16538
836.891	16618
837.029	16489
837.167	16382
837.305	16462
837.443	16390
837.58	16272
837.718	16459
837.856	16272
837.993	16246
838.131	16352
838.269	16215
838.406	16280
838.544	16219
838.681	15937
838.819	16074
838.956	15865
839.094	15876
839.231	15979
839.369	16067
839.506	16284
839.643	16139
839.781	15979
839.918	15915
840.055	15854
840.193	15884
840.33	15812
840.467	15876
840.604	15930
840.742	16128
840.879	15781
841.016	15869
841.153	15781
841.29	16078
841.427	15941
841.564	16021
841.701	15915
841.838	15895
841.975	15831
842.112	15838
842.249	15713
842.385	15690
842.522	15835
842.659	15686
842.796	15614
842.933	15785
843.069	15679
843.206	15603
843.343	15739
843.479	15804
843.616	15728
843.752	15477
843.889	15473
844.025	15606
844.162	15515
844.298	15584
844.435	15526
844.571	15420
844.708	15622
844.844	15690
844.98	15686
845.117	15580
845.253	15557
845.389	15317
845.525	15412
845.661	15359
845.798	15302
845.934	15310
846.07	15252
846.206	15344
846.342	15351
846.478	15256
846.614	15116
846.75	15009
846.886	14967
847.022	15157
847.158	15093
847.294	15051
847.429	15157
847.565	15005
847.701	15241
847.837	14826
847.972	14815
848.108	14876
848.244	14887
848.379	14659
848.515	14640
848.65	14568
848.786	14590
848.921	14602
849.057	14758
849.192	14773
849.328	14594
849.463	14785
849.598	14621
849.734	14427
849.869	14549
850.004	14423
850.14	14507
850.275	14389
850.41	14324
850.545	14465
850.68	14370
850.815	14419
850.95	14404
851.085	14610
851.22	14522
851.355	14393
851.49	14332
851.625	14290
851.76	14275
851.895	14240
852.03	14275
852.165	14465
852.299	14434
852.434	14495
852.569	14465
852.703	14408
852.838	14476
852.973	14530
853.107	14545
853.242	14404
853.376	14301
853.511	14225
853.645	14180
853.78	14259
853.914	14313
854.048	14256
854.183	14180
854.317	14320
854.451	14454
854.585	14263
854.72	14282
854.854	14309
854.988	14168
855.122	14301
855.256	14073
855.39	14317
855.524	14404
855.658	14259
855.792	14305
855.926	14313
856.06	14256
856.194	14343
856.327	14195
856.461	14278
856.595	14210
856.729	14180
856.862	14320
856.996	14366
857.13	14187
857.263	14336
857.397	14393
857.53	14187
857.664	14377
857.797	14351
857.931	14431
858.064	14385
858.197	14404
858.331	14237
858.464	14176
858.597	14130
858.731	14339
858.864	14252
858.997	14271
859.13	14347
859.263	14336
859.396	14381
859.529	14267
859.662	14267
859.795	14286
859.928	14202
860.061	14476
860.194	14469
860.327	14358
860.46	14301
860.592	14317
860.725	14450
860.858	14431
860.99	14339
861.123	14161
861.256	14145
861.388	14256
861.521	14937
861.653	14221
861.786	14115
861.918	14092
862.05	14134
862.183	14202
862.315	14191
862.447	14221
862.58	14271
862.712	14031
862.844	13925
862.976	14058
863.108	14096
863.24	14423
863.372	14005
863.504	14039
863.636	14058
863.768	14058
863.9	14077
864.032	13932
864.164	14123
864.296	14084
864.428	14191
864.559	14096
864.691	14191
864.823	14096
864.954	14024
865.086	14046
865.217	14077
865.349	14050
865.48	13959
865.612	14176
865.743	14172
865.875	14031
866.006	13986
866.137	14073
866.269	14020
866.4	14001
866.531	14016
866.662	13906
866.793	14012
866.924	14012
867.055	13982
867.186	14027
867.317	13989
867.448	14001
867.579	13970
867.71	13978
867.841	13936
867.972	14084
868.103	14077
868.233	14069
868.364	14016
868.495	14073
868.625	14282
868.756	14366
868.886	14172
869.017	14259
869.147	14442
869.278	14374
869.408	14267
869.539	14199
869.669	14358
869.799	14377
869.929	14332
870.06	14434
870.19	14644
870.32	14579
870.45	14617
870.58	14689
870.71	14743
870.84	14735
870.97	14701
871.1	14648
871.23	14864
871.36	14906
871.489	14842
871.619	14819
871.749	14815
871.879	14883
872.008	14929
872.138	15020
872.267	14845
872.397	14796
872.526	14697
872.656	14712
872.785	14762
872.915	14925
873.044	14990
873.173	15017
873.303	15074
873.432	14921
873.561	14979
873.69	14925
873.819	14830
873.948	15020
874.077	14902
874.206	14826
874.335	14967
874.464	15058
874.593	15226
874.722	15116
874.851	15283
874.979	15272
875.108	15363
875.237	15230
875.365	15058
875.494	15222
875.623	15325
875.751	15287
875.88	15344
876.008	15443
876.136	15424
876.265	15633
876.393	15766
876.521	15751
876.65	15762
876.778	15622
876.906	15663
877.034	15606
877.162	15641
877.29	15682
877.418	15732
877.546	15675
877.674	15679
877.802	15599
877.93	15633
878.058	15538
878.185	15561
878.313	15644
878.441	15610
878.568	15435
878.696	15603
878.824	15618
878.951	15736
879.079	15865
879.206	16086
879.333	15827
879.461	15671
879.588	15819
879.715	15762
879.842	15930
879.97	15747
880.097	15580
880.224	15549
880.351	15500
880.478	15504
880.605	15428
880.732	15564
880.859	15701
880.986	15584
881.112	15485
881.239	15435
881.366	15241
881.493	15211
881.619	15077
881.746	15199
881.872	15207
881.999	15127
882.125	15146
882.252	15214
882.378	15275
882.505	15291
882.631	15119
882.757	14982
882.883	15089
883.01	14998
883.136	14883
883.262	14883
883.388	14910
883.514	15077
883.64	15055
883.766	14960
883.892	14792
884.018	14796
884.143	15051
884.269	15047
884.395	14693
884.52	14682
884.646	14712
884.772	14670
884.897	14571
885.023	14701
885.148	14708
885.274	14842
885.399	14727
885.524	14701
885.65	14705
885.775	14663
885.9	14678
886.025	14731
886.15	14746
886.275	14617
886.4	14541
886.525	14629
886.65	14598
886.775	14530
886.9	14754
887.025	14868
887.149	14735
887.274	14442
887.399	14575
887.523	14469
887.648	14408
887.773	14511
887.897	14663
888.021	14549
888.146	14434
888.27	14579
888.395	14678
888.519	14613
888.643	14632
888.767	14594
888.891	14374
889.015	14400
889.139	14374
889.263	14374
889.387	14514
889.511	14526
889.635	14446
889.759	14393
889.883	14252
890.006	14450
890.13	14514
890.254	14328
890.377	14278
890.501	14157
890.624	14229
890.748	14218
890.871	14153
890.995	14096
891.118	14008
891.241	14054
891.364	14058
891.488	14107
891.611	14031
891.734	14103
891.857	14119
891.98	14081
892.103	14164
892.226	14145
892.349	14084
892.471	13917
892.594	14096
892.717	14164
892.839	14012
892.962	14103
893.085	14024
893.207	14176
893.33	14050
893.452	13959
893.575	14145
893.697	14050
893.819	14225
893.941	14324
894.064	14290
894.186	14012
894.308	14008
894.43	14187
894.552	14362
894.674	14176
894.796	14123
894.918	14096
895.04	14142
895.161	14153
895.283	14199
895.405	14058
895.526	14180
895.648	14126
895.769	14263
895.891	14286
896.012	14313
896.134	14210
896.255	14271
896.376	14225
896.498	14225
896.619	14317
896.74	14172
896.861	14256
896.982	14705
897.103	14781
897.224	14537
897.345	14533
897.466	14552
897.587	14488
897.708	14678
897.828	14606
897.949	14526
898.07	14374
898.19	14545
898.311	14625
898.431	14503
898.552	14632
898.672	14640
898.792	14678
898.913	14663
899.033	14473
899.153	14473
899.273	14339
899.393	14389
899.513	14469
899.633	14434
899.753	14476
899.873	14404
899.993	14507
900.113	14396
900.232	14465
900.352	14476
900.472	14336
900.591	14290
900.711	14377
900.83	14317
900.95	14461
901.069	14533
901.189	14187
901.308	14123
901.427	13928
901.546	14020
901.665	13974
901.784	14073
901.904	13917
902.023	13875
902.141	13575
902.26	13571
902.379	13704
902.498	13582
902.617	13499
902.735	13655
902.854	13582
902.973	13476
903.091	13350
903.21	13255
903.328	13369
903.446	13247
903.565	13053
903.683	13072
903.801	13065
903.919	13160
904.038	13126
904.156	13015
904.274	12958
904.392	12962
904.51	12886
904.627	12886
904.745	12996
904.863	12928
904.981	12700
905.098	12650
905.216	12627
905.334	12715
905.451	12673
905.569	12703
905.686	12684
905.803	12566
905.921	12422
906.038	12521
906.155	12460
906.272	12437
906.389	12342
906.506	12182
906.623	12254
906.74	12209
906.857	12190
906.974	12125
907.091	12304
907.208	12292
907.324	12266
907.441	12133
907.557	11946
907.674	11999
907.79	11923
907.907	11969
908.023	11969
908.139	12022
908.256	11847
908.372	11965
908.488	11908
908.604	11714
908.72	11783
908.836	11760
908.952	11722
909.068	11798
909.184	11802
909.3	11775
909.415	11775
909.531	11680
909.647	11566
909.762	11539
909.878	11452
909.993	11520
910.108	11516
910.224	11471
910.339	11467
910.454	11440
910.57	11417
910.685	11337
910.8	11512
910.915	11558
911.03	11402
911.145	11296
911.259	11159
911.374	11311
911.489	11029
911.604	11060
911.718	10976
911.833	10923
911.947	10831
912.062	10824
912.176	10915
912.291	10976
912.405	10942
912.519	11147
912.633	11174
912.748	11048
912.862	10957
912.976	10854
913.09	10679
913.204	10847
913.318	10831
913.431	10938
913.545	10904
913.659	11010
913.772	10805
913.886	10714
914	10714
914.113	10828
914.226	10934
914.34	10774
914.453	10569
914.566	10797
914.68	10698
914.793	10675
914.906	10470
915.019	10459
915.132	10428
915.245	10497
915.358	10531
915.47	10443
915.583	10405
915.696	10527
915.809	10588
915.921	10546
916.034	10424
916.146	10443
916.259	10451
916.371	10565
916.483	10531
916.595	10379
916.708	10329
916.82	10417
916.932	10325
917.044	10390
917.156	10451
917.268	10341
917.38	10295
917.491	10265
917.603	10337
917.715	10379
917.826	10409
917.938	10280
918.049	10169
918.161	10348
918.272	10485
918.384	10470
918.495	10325
918.606	10234
918.717	10055
918.828	10131
918.939	10242
919.05	10112
919.161	10177
919.272	9987
919.383	10040
919.494	10207
919.604	10379
919.715	10223
919.826	10105
919.936	10200
920.047	10291
920.157	10200
920.267	10382
920.378	10207
920.488	10139
920.598	10485
920.708	10462
920.818	10478
920.928	10394
921.038	10580
921.148	10504
921.258	10234
921.368	10116
921.477	10090
921.587	9991
921.697	9987
921.806	10124
921.916	10017
922.025	9762
922.134	9778
922.244	9701
922.353	9808
922.462	9599
922.571	9618
922.68	9408
922.789	9408
922.898	9462
923.007	9473
923.116	9488
923.224	9534
923.333	9492
923.442	9367
923.55	9332
923.659	9359
923.767	9420
923.876	9233
923.984	9363
924.092	9245
924.201	9332
924.309	9351
924.417	9279
924.525	9256
924.633	9260
924.741	10029
924.849	9077
924.956	9245
925.064	9116
925.172	8982
925.279	9051
925.387	9116
925.494	9055
925.602	9188
925.709	9207
925.816	9116
925.924	9123
926.031	9165
926.138	9062
926.245	9066
926.352	8979
926.459	9165
926.566	9256
926.673	8975
926.779	8941
926.886	8963
926.993	8838
927.099	8819
927.206	8708
927.312	8743
927.419	8918
927.525	8845
927.631	8861
927.737	8781
927.843	8693
927.95	8617
928.056	8739
928.162	8663
928.267	8842
928.373	9325
928.479	8788
928.585	8617
928.69	8667
928.796	8716
928.901	8587
929.007	8503
929.112	8621
929.218	8621
929.323	8549
929.428	8533
929.533	8659
929.638	8533
929.743	8461
929.848	8568
929.953	8537
930.058	8396
930.163	8248
930.267	8351
930.372	8503
930.477	8267
930.581	8537
930.685	8412
930.79	8256
930.894	8339
930.998	8233
931.103	8385
931.207	8065
931.311	8039
931.415	7890
931.519	7761
931.623	7696
