Data from test_V78500241_1812.txt Node
Date: Fri Mar 25 14:46:19 CST 2022
User: usil
Spectrometer: V785-0024
Trigger mode: 0
Integration Time (sec): 4.000000E-1
Scans to average: 1
Nonlinearity correction enabled: false
Boxcar width: 0
Storing dark spectrum: false
XAxis mode: Wavelengths
Number of Pixels in Spectrum: 1024
>>>>>Begin Spectral Data<<<<<
801.071	22215
801.214	22044
801.356	21781
801.499	21682
801.641	21515
801.783	21534
801.926	21622
802.068	21523
802.211	21363
802.353	21252
802.496	21272
802.638	21116
802.78	21085
802.923	20929
803.065	20708
803.208	20967
803.35	20937
803.492	20960
803.635	21043
803.777	20891
803.919	20979
804.061	21363
804.204	20975
804.346	20682
804.488	20743
804.63	20899
804.773	20712
804.915	20887
805.057	20956
805.199	20842
805.341	20906
805.483	20883
805.626	20891
805.768	20769
805.91	20758
806.052	20815
806.194	20708
806.336	20906
806.478	20746
806.62	20648
806.762	20796
806.904	21005
807.046	21256
807.188	21165
807.33	21077
807.472	21123
807.614	21017
807.756	20967
807.898	20960
808.04	20864
808.182	20773
808.324	20823
808.465	20792
808.607	21081
808.749	21142
808.891	21302
809.033	21344
809.174	21264
809.316	21104
809.458	21184
809.6	21116
809.741	21222
809.883	21173
810.025	21313
810.166	21302
810.308	21389
810.45	21283
810.591	21203
810.733	21157
810.875	20963
811.016	20883
811.158	20876
811.299	20982
811.441	21036
811.582	20986
811.724	20918
811.865	20872
812.007	20952
812.148	20868
812.29	20967
812.431	21226
812.573	21321
812.714	21294
812.855	21382
812.997	21572
813.138	21698
813.279	21557
813.421	21431
813.562	21428
813.703	21264
813.845	21081
813.986	20807
814.127	20594
814.268	20537
814.41	20568
814.551	20480
814.692	20720
814.833	20381
814.974	20370
815.115	20476
815.256	20438
815.397	20385
815.539	20396
815.68	20320
815.821	20142
815.962	20278
816.103	20172
816.244	20062
816.385	19940
816.526	19909
816.666	19864
816.807	19681
816.948	19700
817.089	19811
817.23	19791
817.371	19734
817.512	19639
817.653	19685
817.793	19449
817.934	19616
818.075	19769
818.216	19674
818.356	19689
818.497	19544
818.638	19324
818.778	19289
818.919	19343
819.06	19415
819.2	19453
819.341	19533
819.481	19529
819.622	19700
819.762	19769
819.903	19799
820.043	19689
820.184	19639
820.324	19552
820.465	19681
820.605	19662
820.746	19613
820.886	19476
821.026	19632
821.167	19567
821.307	19696
821.447	19556
821.588	19434
821.728	19301
821.868	19312
822.008	19057
822.149	19012
822.289	19031
822.429	18787
822.569	18658
822.709	18715
822.849	18483
822.99	18540
823.13	18506
823.27	18376
823.41	18399
823.55	18273
823.69	18346
823.83	18350
823.97	18285
824.11	18136
824.25	18019
824.389	18163
824.529	18106
824.669	18125
824.809	18197
824.949	18117
825.089	18144
825.228	18060
825.368	18045
825.508	17927
825.648	17821
825.787	17912
825.927	17904
826.067	17870
826.206	17828
826.346	17901
826.485	17786
826.625	17767
826.765	18003
826.904	17855
827.044	17714
827.183	17737
827.323	17528
827.462	17611
827.601	17543
827.741	17455
827.88	17551
828.02	17398
828.159	17463
828.298	17539
828.437	17570
828.577	17558
828.716	17676
828.855	17524
828.994	17391
829.134	17360
829.273	17265
829.412	17334
829.551	17334
829.69	17235
829.829	17326
829.968	17425
830.107	17364
830.246	17322
830.385	17288
830.524	17288
830.663	17258
830.802	17071
830.941	17022
831.08	16976
831.219	16991
831.357	16976
831.496	17140
831.635	16938
831.774	16885
831.913	16820
832.051	16755
832.19	16755
832.329	16740
832.467	16679
832.606	16588
832.744	16656
832.883	16554
833.022	16630
833.16	16584
833.299	16656
833.437	16748
833.576	16618
833.714	16687
833.852	16698
833.991	16729
834.129	16744
834.267	16771
834.406	16615
834.544	16759
834.682	16694
834.821	16641
834.959	16767
835.097	16618
835.235	16752
835.373	16778
835.511	16725
835.65	16653
835.788	16546
835.926	16470
836.064	16398
836.202	16379
836.34	16584
836.478	16713
836.615	16558
836.753	16603
836.891	16668
837.029	16542
837.167	16550
837.305	16592
837.443	16535
837.58	16405
837.718	16493
837.856	16523
837.993	16367
838.131	16447
838.269	16371
838.406	16462
838.544	16257
838.681	16112
838.819	16120
838.956	15945
839.094	15956
839.231	16116
839.369	16109
839.506	16447
839.643	16253
839.781	16150
839.918	15987
840.055	16097
840.193	16071
840.33	15964
840.467	16040
840.604	16025
840.742	16284
840.879	15903
841.016	15926
841.153	15949
841.29	16169
841.427	15899
841.564	15930
841.701	15941
841.838	15869
841.975	15895
842.112	15789
842.249	15755
842.385	15724
842.522	15975
842.659	15842
842.796	15751
842.933	15789
843.069	15736
843.206	15789
843.343	15774
843.479	15812
843.616	15857
843.752	15591
843.889	15572
844.025	15743
844.162	15587
844.298	15698
844.435	15557
844.571	15504
844.708	15629
844.844	15603
844.98	15720
845.117	15682
845.253	15618
845.389	15561
845.525	15530
845.661	15439
845.798	15412
845.934	15469
846.07	15291
846.206	15492
846.342	15534
846.478	15336
846.614	15150
846.75	15070
846.886	15017
847.022	15230
847.158	15214
847.294	15066
847.429	15237
847.565	15093
847.701	15416
847.837	14933
847.972	14910
848.108	15100
848.244	15009
848.379	14746
848.515	14785
848.65	14769
848.786	14785
848.921	14765
849.057	14842
849.192	14746
849.328	14739
849.463	14773
849.598	14670
849.734	14621
849.869	14552
850.004	14457
850.14	14579
850.275	14469
850.41	14332
850.545	14427
850.68	14495
850.815	14488
850.95	14514
851.085	14746
851.22	14587
851.355	14503
851.49	14438
851.625	14503
851.76	14473
851.895	14370
852.03	14408
852.165	14446
852.299	14617
852.434	14530
852.569	14587
852.703	14499
852.838	14602
852.973	14674
853.107	14613
853.242	14393
853.376	14366
853.511	14317
853.645	14278
853.78	14507
853.914	14396
854.048	14294
854.183	14339
854.317	14393
854.451	14518
854.585	14324
854.72	14305
854.854	14434
854.988	14336
855.122	14290
855.256	14225
855.39	14278
855.524	14461
855.658	14465
855.792	14393
855.926	14461
856.06	14389
856.194	14473
856.327	14347
856.461	14370
856.595	14328
856.729	14374
856.862	14503
856.996	14370
857.13	14351
857.263	14556
857.397	14530
857.53	14385
857.664	14457
857.797	14404
857.931	14499
858.064	14377
858.197	14476
858.331	14400
858.464	14374
858.597	14309
858.731	14362
858.864	14419
858.997	14339
859.13	14427
859.263	14358
859.396	14415
859.529	14221
859.662	14313
859.795	14290
859.928	14336
860.061	14530
860.194	14613
860.327	14377
860.46	14351
860.592	14457
860.725	14465
860.858	14518
860.99	14362
861.123	14328
861.256	14423
861.388	14381
861.521	14925
861.653	14229
861.786	14252
861.918	14180
862.05	14290
862.183	14313
862.315	14358
862.447	14381
862.58	14290
862.712	14134
862.844	14046
862.976	14298
863.108	14202
863.24	14492
863.372	14039
863.504	14164
863.636	14130
863.768	14134
863.9	14202
864.032	14084
864.164	14142
864.296	14149
864.428	14229
864.559	14248
864.691	14305
864.823	14233
864.954	14229
865.086	14149
865.217	14088
865.349	14157
865.48	14100
865.612	14229
865.743	14263
865.875	14145
866.006	14092
866.137	14157
866.269	14103
866.4	14088
866.531	14054
866.662	14096
866.793	14145
866.924	14065
867.055	14161
867.186	14145
867.317	14103
867.448	14058
867.579	14092
867.71	13967
867.841	14008
867.972	14202
868.103	14142
868.233	14233
868.364	14172
868.495	14298
868.625	14423
868.756	14438
868.886	14301
869.017	14434
869.147	14454
869.278	14522
869.408	14442
869.539	14389
869.669	14514
869.799	14412
869.929	14446
870.06	14503
870.19	14754
870.32	14708
870.45	14674
870.58	14743
870.71	14876
870.84	14838
870.97	14792
871.1	14864
871.23	14963
871.36	15001
871.489	14849
871.619	14937
871.749	14967
871.879	15001
872.008	15100
872.138	14929
872.267	14952
872.397	14826
872.526	14807
872.656	14746
872.785	14792
872.915	15123
873.044	15043
873.173	14994
873.303	15024
873.432	15058
873.561	15142
873.69	15001
873.819	14998
873.948	15112
874.077	15024
874.206	14971
874.335	15055
874.464	15131
874.593	15355
874.722	15279
874.851	15405
874.979	15359
875.108	15389
875.237	15336
875.365	15245
875.494	15370
875.623	15325
875.751	15287
875.88	15420
876.008	15443
876.136	15606
876.265	15743
876.393	15850
876.521	15736
876.65	15785
876.778	15739
876.906	15774
877.034	15686
877.162	15819
877.29	15625
877.418	15739
877.546	15755
877.674	15766
877.802	15789
877.93	15709
878.058	15679
878.185	15637
878.313	15675
878.441	15766
878.568	15637
878.696	15637
878.824	15854
878.951	15774
879.079	15903
879.206	16078
879.333	16002
879.461	15831
879.588	15857
879.715	15983
879.842	16025
879.97	15865
880.097	15614
880.224	15576
880.351	15679
880.478	15606
880.605	15572
880.732	15576
880.859	15797
880.986	15618
881.112	15698
881.239	15488
881.366	15401
881.493	15351
881.619	15283
881.746	15230
881.872	15230
881.999	15241
882.125	15157
882.252	15355
882.378	15325
882.505	15504
882.631	15192
882.757	15131
882.883	15214
883.01	15116
883.136	15009
883.262	14952
883.388	14941
883.514	14982
883.64	15138
883.766	14986
883.892	14933
884.018	14895
884.143	15112
884.269	15036
884.395	14819
884.52	14769
884.646	14834
884.772	14777
884.897	14674
885.023	14811
885.148	14918
885.274	14895
885.399	14823
885.524	14868
885.65	14815
885.775	14811
885.9	14773
886.025	14880
886.15	14864
886.275	14792
886.4	14648
886.525	14724
886.65	14785
886.775	14750
886.9	14861
887.025	14982
887.149	14750
887.274	14545
887.399	14610
887.523	14610
887.648	14526
887.773	14450
887.897	14701
888.021	14682
888.146	14556
888.27	14644
888.395	14731
888.519	14686
888.643	14613
888.767	14678
888.891	14556
889.015	14358
889.139	14480
889.263	14431
889.387	14556
889.511	14689
889.635	14651
889.759	14457
889.883	14419
890.006	14648
890.13	14663
890.254	14370
890.377	14393
890.501	14298
890.624	14317
890.748	14362
890.871	14252
890.995	14187
891.118	14058
891.241	14240
891.364	14153
891.488	14225
891.611	14077
891.734	14168
891.857	14145
891.98	14267
892.103	14271
892.226	14153
892.349	14123
892.471	13993
892.594	14111
892.717	14149
892.839	14142
892.962	14176
893.085	14336
893.207	14149
893.33	14039
893.452	14221
893.575	14244
893.697	14153
893.819	14400
893.941	14339
894.064	14351
894.186	14149
894.308	14126
894.43	14431
894.552	14320
894.674	14446
894.796	14084
894.918	14176
895.04	14237
895.161	14332
895.283	14305
895.405	14145
895.526	14298
895.648	14240
895.769	14404
895.891	14313
896.012	14438
896.134	14271
896.255	14313
896.376	14415
896.498	14263
896.619	14400
896.74	14336
896.861	14370
896.982	14682
897.103	14777
897.224	14674
897.345	14598
897.466	14530
897.587	14640
897.708	14739
897.828	14724
897.949	14590
898.07	14480
898.19	14590
898.311	14880
898.431	14636
898.552	14693
898.672	14750
898.792	14815
898.913	14735
899.033	14697
899.153	14473
899.273	14374
899.393	14461
899.513	14579
899.633	14644
899.753	14484
899.873	14511
899.993	14590
900.113	14480
900.232	14552
900.352	14469
900.472	14492
900.591	14336
900.711	14427
900.83	14362
900.95	14446
901.069	14549
901.189	14396
901.308	14062
901.427	14073
901.546	13986
901.665	14123
901.784	14126
901.904	13826
902.023	13974
902.141	13647
902.26	13655
902.379	13757
902.498	13662
902.617	13571
902.735	13658
902.854	13689
902.973	13491
903.091	13339
903.21	13354
903.328	13331
903.446	13362
903.565	13270
903.683	13255
903.801	13156
903.919	13312
904.038	13152
904.156	13091
904.274	13164
904.392	13050
904.51	13046
904.627	13019
904.745	13057
904.863	13034
904.981	12798
905.098	12772
905.216	12757
905.334	12776
905.451	12760
905.569	12764
905.686	12829
905.803	12711
905.921	12616
906.038	12726
906.155	12559
906.272	12464
906.389	12448
906.506	12319
906.623	12429
906.74	12342
906.857	12247
906.974	12205
907.091	12357
907.208	12506
907.324	12384
907.441	12239
907.557	12117
907.674	12125
907.79	11950
907.907	12019
908.023	12098
908.139	11992
908.256	12053
908.372	12022
908.488	11920
908.604	11805
908.72	11802
908.836	11901
908.952	11718
909.068	11817
909.184	11946
909.3	11805
909.415	11802
909.531	11805
909.647	11665
909.762	11600
909.878	11577
909.993	11581
910.108	11505
910.224	11528
910.339	11611
910.454	11509
910.57	11410
910.685	11406
910.8	11718
910.915	11596
911.03	11353
911.145	11299
911.259	11250
911.374	11315
911.489	11246
911.604	11208
911.718	11075
911.833	11022
911.947	10995
912.062	10843
912.176	11029
912.291	11056
912.405	11014
912.519	11216
912.633	11204
912.748	11056
912.862	11037
912.976	10904
913.09	10839
913.204	10911
913.318	10965
913.431	10957
913.545	11029
913.659	11109
913.772	10949
913.886	10843
914	10835
914.113	10915
914.226	10938
914.34	10885
914.453	10729
914.566	10824
914.68	10721
914.793	10710
914.906	10569
915.019	10535
915.132	10390
915.245	10459
915.358	10584
915.47	10519
915.583	10603
915.696	10596
915.809	10660
915.921	10691
916.034	10451
916.146	10527
916.259	10459
916.371	10596
916.483	10554
916.595	10478
916.708	10546
916.82	10432
916.932	10493
917.044	10455
917.156	10440
917.268	10405
917.38	10379
917.491	10318
917.603	10337
917.715	10447
917.826	10417
917.938	10375
918.049	10227
918.161	10363
918.272	10542
918.384	10421
918.495	10367
918.606	10268
918.717	10162
918.828	10215
918.939	10341
919.05	10230
919.161	10276
919.272	10025
919.383	10112
919.494	10379
919.604	10512
919.715	10291
919.826	10196
919.936	10227
920.047	10337
920.157	10272
920.267	10451
920.378	10322
920.488	10230
920.598	10451
920.708	10577
920.818	10489
920.928	10451
921.038	10615
921.148	10531
921.258	10287
921.368	10207
921.477	10021
921.587	10078
921.697	10006
921.806	10207
921.916	10029
922.025	9857
922.134	9861
922.244	9835
922.353	9903
922.462	9667
922.571	9644
922.68	9496
922.789	9397
922.898	9549
923.007	9538
923.116	9576
923.224	9473
923.333	9496
923.442	9504
923.55	9405
923.659	9443
923.767	9378
923.876	9374
923.984	9443
924.092	9287
924.201	9382
924.309	9435
924.417	9370
924.525	9313
924.633	9344
924.741	10246
924.849	9138
924.956	9325
925.064	9173
925.172	9157
925.279	9192
925.387	9146
925.494	9173
925.602	9298
925.709	9222
925.816	9123
925.924	9097
926.031	9218
926.138	9176
926.245	9180
926.352	9093
926.459	9192
926.566	9310
926.673	9062
926.779	9028
926.886	9039
926.993	8861
927.099	8906
927.206	8853
927.312	8845
927.419	8925
927.525	8914
927.631	8880
927.737	8811
927.843	8819
927.95	8610
928.056	8712
928.162	8773
928.267	8887
928.373	9469
928.479	8826
928.585	8655
928.69	8788
928.796	8811
928.901	8689
929.007	8587
929.112	8693
929.218	8644
929.323	8625
929.428	8568
929.533	8777
929.638	8518
929.743	8530
929.848	8712
929.953	8537
930.058	8495
930.163	8362
930.267	8393
930.372	8541
930.477	8339
930.581	8514
930.685	8442
930.79	8282
930.894	8298
930.998	8267
931.103	8522
931.207	8043
931.311	8119
931.415	7982
931.519	7875
931.623	7784
