Data from test_V78500241_3482.txt Node
Date: Fri Mar 25 14:57:57 CST 2022
User: usil
Spectrometer: V785-0024
Trigger mode: 0
Integration Time (sec): 4.000000E-1
Scans to average: 1
Nonlinearity correction enabled: false
Boxcar width: 0
Storing dark spectrum: false
XAxis mode: Wavelengths
Number of Pixels in Spectrum: 1024
>>>>>Begin Spectral Data<<<<<
801.071	21930
801.214	21838
801.356	21492
801.499	21488
801.641	21298
801.783	21317
801.926	21291
802.068	21329
802.211	21127
802.353	21047
802.496	20910
802.638	20785
802.78	20701
802.923	20724
803.065	20575
803.208	20606
803.35	20644
803.492	20754
803.635	20758
803.777	20571
803.919	20705
804.061	20853
804.204	20644
804.346	20598
804.488	20495
804.63	20674
804.773	20408
804.915	20507
805.057	20556
805.199	20594
805.341	20492
805.483	20575
805.626	20587
805.768	20480
805.91	20427
806.052	20412
806.194	20427
806.336	20609
806.478	20400
806.62	20454
806.762	20537
806.904	20716
807.046	21036
807.188	20842
807.33	20895
807.472	20853
807.614	20746
807.756	20804
807.898	20708
808.04	20556
808.182	20530
808.324	20609
808.465	20606
808.607	20800
808.749	20788
808.891	20986
809.033	21074
809.174	20918
809.316	20876
809.458	20807
809.6	20800
809.741	20864
809.883	20933
810.025	21024
810.166	21009
810.308	20963
810.45	20910
810.591	20819
810.733	20765
810.875	20613
811.016	20530
811.158	20617
811.299	20708
811.441	20769
811.582	20682
811.724	20701
811.865	20632
812.007	20514
812.148	20708
812.29	20629
812.431	20872
812.573	20998
812.714	20998
812.855	21161
812.997	21169
813.138	21420
813.279	21176
813.421	21051
813.562	21089
813.703	20819
813.845	20739
813.986	20488
814.127	20267
814.268	20267
814.41	20214
814.551	20286
814.692	20183
814.833	20225
814.974	20122
815.115	20214
815.256	20164
815.397	19955
815.539	20073
815.68	19940
815.821	19833
815.962	20024
816.103	19902
816.244	19715
816.385	19578
816.526	19666
816.666	19434
816.807	19301
816.948	19354
817.089	19480
817.23	19297
817.371	19285
817.512	19221
817.653	19362
817.793	19221
817.934	19278
818.075	19297
818.216	19301
818.356	19198
818.497	19168
818.638	18871
818.778	18989
818.919	18901
819.06	19042
819.2	19038
819.341	19148
819.481	19168
819.622	19354
819.762	19445
819.903	19392
820.043	19400
820.184	19221
820.324	19293
820.465	19266
820.605	19316
820.746	19293
820.886	19046
821.026	19301
821.167	19285
821.307	19335
821.447	19270
821.588	19145
821.728	18996
821.868	18871
822.008	18722
822.149	18681
822.289	18654
822.429	18475
822.569	18380
822.709	18376
822.849	18251
822.99	18133
823.13	18159
823.27	18171
823.41	18068
823.55	17954
823.69	17977
823.83	18034
823.97	17961
824.11	17798
824.25	17718
824.389	17939
824.529	17859
824.669	17741
824.809	17847
824.949	17889
825.089	17870
825.228	17912
825.368	17699
825.508	17630
825.648	17676
825.787	17589
825.927	17665
826.067	17551
826.206	17596
826.346	17562
826.485	17570
826.625	17547
826.765	17649
826.904	17596
827.044	17334
827.183	17239
827.323	17166
827.462	17250
827.601	17235
827.741	17200
827.88	17284
828.02	17174
828.159	17174
828.298	17330
828.437	17414
828.577	17284
828.716	17353
828.855	17170
828.994	17025
829.134	17052
829.273	17117
829.412	17006
829.551	16965
829.69	17018
829.829	17060
829.968	17121
830.107	17037
830.246	17071
830.385	17018
830.524	17003
830.663	16858
830.802	16687
830.941	16679
831.08	16569
831.219	16717
831.357	16725
831.496	16877
831.635	16630
831.774	16607
831.913	16561
832.051	16504
832.19	16470
832.329	16489
832.467	16413
832.606	16306
832.744	16325
832.883	16382
833.022	16306
833.16	16413
833.299	16390
833.437	16344
833.576	16443
833.714	16497
833.852	16379
833.991	16462
834.129	16493
834.267	16466
834.406	16462
834.544	16447
834.682	16493
834.821	16519
834.959	16596
835.097	16398
835.235	16493
835.373	16470
835.511	16363
835.65	16382
835.788	16234
835.926	16257
836.064	16128
836.202	16192
836.34	16371
836.478	16413
836.615	16318
836.753	16360
836.891	16318
837.029	16352
837.167	16280
837.305	16215
837.443	16196
837.58	16223
837.718	16268
837.856	16284
837.993	16086
838.131	16120
838.269	16048
838.406	16055
838.544	16025
838.681	16055
838.819	15907
838.956	15728
839.094	15679
839.231	15785
839.369	15838
839.506	16234
839.643	16093
839.781	15751
839.918	15717
840.055	15774
840.193	15724
840.33	15759
840.467	15800
840.604	15774
840.742	15979
840.879	15622
841.016	15705
841.153	15667
841.29	15937
841.427	15770
841.564	15895
841.701	15766
841.838	15724
841.975	15690
842.112	15656
842.249	15576
842.385	15462
842.522	15785
842.659	15606
842.796	15507
842.933	15603
843.069	15587
843.206	15378
843.343	15561
843.479	15530
843.616	15526
843.752	15336
843.889	15374
844.025	15530
844.162	15317
844.298	15477
844.435	15291
844.571	15378
844.708	15340
844.844	15450
844.98	15431
845.117	15458
845.253	15226
845.389	15233
845.525	15256
845.661	15199
845.798	15135
845.934	15211
846.07	15226
846.206	15199
846.342	15264
846.478	15135
846.614	14998
846.75	14785
846.886	15036
847.022	14979
847.158	14902
847.294	14990
847.429	14933
847.565	14914
847.701	15173
847.837	14598
847.972	14629
848.108	14743
848.244	14804
848.379	14533
848.515	14568
848.65	14438
848.786	14590
848.921	14499
849.057	14667
849.192	14651
849.328	14545
849.463	14507
849.598	14545
849.734	14389
849.869	14396
850.004	14294
850.14	14396
850.275	14240
850.41	14202
850.545	14286
850.68	14199
850.815	14202
850.95	14248
851.085	14438
851.22	14301
851.355	14385
851.49	14286
851.625	14233
851.76	14275
851.895	14195
852.03	14240
852.165	14263
852.299	14328
852.434	14328
852.569	14237
852.703	14317
852.838	14328
852.973	14343
853.107	14404
853.242	14267
853.376	14218
853.511	14088
853.645	14046
853.78	14214
853.914	14157
854.048	14145
854.183	14100
854.317	14168
854.451	14324
854.585	14111
854.72	14153
854.854	14157
854.988	13928
855.122	14107
855.256	14024
855.39	14126
855.524	14225
855.658	14164
855.792	14199
855.926	14172
856.06	14134
856.194	14183
856.327	14130
856.461	14134
856.595	14134
856.729	14115
856.862	14202
856.996	14145
857.13	14252
857.263	14134
857.397	14328
857.53	14256
857.664	14210
857.797	14244
857.931	14351
858.064	14187
858.197	14202
858.331	14126
858.464	14164
858.597	13993
858.731	14172
858.864	14218
858.997	14180
859.13	14180
859.263	14164
859.396	14320
859.529	14161
859.662	14088
859.795	14073
859.928	14168
860.061	14305
860.194	14320
860.327	14229
860.46	14161
860.592	14298
860.725	14282
860.858	14252
860.99	14024
861.123	14043
861.256	14134
861.388	14282
861.521	14918
861.653	14039
861.786	14035
861.918	14005
862.05	14069
862.183	14012
862.315	14081
862.447	14172
862.58	14149
862.712	13928
862.844	13902
862.976	14020
863.108	13974
863.24	14339
863.372	13795
863.504	13917
863.636	13868
863.768	13982
863.9	13936
864.032	13894
864.164	13963
864.296	14020
864.428	14107
864.559	14012
864.691	14005
864.823	13982
864.954	13997
865.086	14024
865.217	13959
865.349	13837
865.48	13936
865.612	13982
865.743	14039
865.875	13955
866.006	13845
866.137	13879
866.269	13887
866.4	14005
866.531	13978
866.662	13807
866.793	13879
866.924	13879
867.055	13974
867.186	13928
867.317	13826
867.448	13917
867.579	13833
867.71	13750
867.841	13894
867.972	13894
868.103	13940
868.233	13925
868.364	13959
868.495	14020
868.625	14191
868.756	14244
868.886	14058
869.017	14206
869.147	14290
869.278	14290
869.408	14168
869.539	14240
869.669	14187
869.799	14275
869.929	14294
870.06	14351
870.19	14530
870.32	14434
870.45	14571
870.58	14469
870.71	14705
870.84	14727
870.97	14511
871.1	14522
871.23	14708
871.36	14678
871.489	14659
871.619	14705
871.749	14765
871.879	14800
872.008	14750
872.138	14925
872.267	14762
872.397	14640
872.526	14552
872.656	14610
872.785	14583
872.915	14849
873.044	14891
873.173	14826
873.303	14861
873.432	14872
873.561	14880
873.69	14853
873.819	14815
873.948	14952
874.077	14880
874.206	14811
874.335	14895
874.464	14982
874.593	15112
874.722	15074
874.851	15176
874.979	15093
875.108	15157
875.237	15085
875.365	15146
875.494	15024
875.623	15256
875.751	15169
875.88	15112
876.008	15386
876.136	15344
876.265	15530
876.393	15652
876.521	15629
876.65	15648
876.778	15595
876.906	15576
877.034	15389
877.162	15511
877.29	15507
877.418	15466
877.546	15447
877.674	15576
877.802	15561
877.93	15622
878.058	15572
878.185	15481
878.313	15603
878.441	15534
878.568	15405
878.696	15405
878.824	15587
878.951	15641
879.079	15778
879.206	15873
879.333	15823
879.461	15542
879.588	15705
879.715	15701
879.842	15899
879.97	15580
880.097	15477
880.224	15416
880.351	15401
880.478	15431
880.605	15386
880.732	15439
880.859	15625
880.986	15466
881.112	15469
881.239	15325
881.366	15256
881.493	15081
881.619	15051
881.746	15089
881.872	15055
881.999	15100
882.125	15024
882.252	15085
882.378	15154
882.505	15142
882.631	15089
882.757	14864
882.883	14899
883.01	14883
883.136	14796
883.262	14746
883.388	14727
883.514	14933
883.64	14979
883.766	14807
883.892	14697
884.018	14651
884.143	14887
884.269	14906
884.395	14716
884.52	14610
884.646	14610
884.772	14541
884.897	14537
885.023	14663
885.148	14670
885.274	14731
885.399	14651
885.524	14571
885.65	14537
885.775	14552
885.9	14556
886.025	14746
886.15	14621
886.275	14575
886.4	14469
886.525	14556
886.65	14446
886.775	14507
886.9	14792
887.025	14830
887.149	14564
887.274	14442
887.399	14374
887.523	14427
887.648	14336
887.773	14324
887.897	14454
888.021	14415
888.146	14412
888.27	14438
888.395	14568
888.519	14541
888.643	14518
888.767	14511
888.891	14396
889.015	14347
889.139	14317
889.263	14343
889.387	14457
889.511	14419
889.635	14431
889.759	14210
889.883	14263
890.006	14305
890.13	14347
890.254	14263
890.377	14214
890.501	14115
890.624	14016
890.748	14187
890.871	14054
890.995	13841
891.118	13925
891.241	13993
891.364	13955
891.488	14031
891.611	13925
891.734	14039
891.857	14016
891.98	14069
892.103	14054
892.226	14024
892.349	13982
892.471	13826
892.594	13989
892.717	13974
892.839	13989
892.962	13997
893.085	14054
893.207	13982
893.33	13917
893.452	13883
893.575	14107
893.697	14001
893.819	14214
893.941	14248
894.064	14096
894.186	14008
894.308	14050
894.43	14088
894.552	14210
894.674	14161
894.796	13978
894.918	14062
895.04	13951
895.161	14119
895.283	14062
895.405	13978
895.526	14119
895.648	14183
895.769	14081
895.891	14096
896.012	14214
896.134	14161
896.255	14225
896.376	14092
896.498	14237
896.619	14282
896.74	14161
896.861	14240
896.982	14499
897.103	14610
897.224	14541
897.345	14370
897.466	14305
897.587	14351
897.708	14560
897.828	14461
897.949	14332
898.07	14168
898.19	14362
898.311	14507
898.431	14473
898.552	14473
898.672	14492
898.792	14503
898.913	14545
899.033	14476
899.153	14412
899.273	14309
899.393	14351
899.513	14396
899.633	14412
899.753	14446
899.873	14366
899.993	14450
900.113	14290
900.232	14442
900.352	14366
900.472	14225
900.591	14157
900.711	14294
900.83	14157
900.95	14271
901.069	14358
901.189	14111
901.308	13970
901.427	13814
901.546	13894
901.665	13959
901.784	13902
901.904	13700
902.023	13639
902.141	13616
902.26	13453
902.379	13518
902.498	13533
902.617	13274
902.735	13499
902.854	13430
902.973	13422
903.091	13190
903.21	13152
903.328	13225
903.446	13080
903.565	13080
903.683	13107
903.801	12928
903.919	13110
904.038	13038
904.156	12802
904.274	12958
904.392	12840
904.51	12867
904.627	12867
904.745	12920
904.863	12901
904.981	12658
905.098	12551
905.216	12582
905.334	12601
905.451	12559
905.569	12563
905.686	12585
905.803	12582
905.921	12388
906.038	12517
906.155	12399
906.272	12235
906.389	12323
906.506	12175
906.623	12159
906.74	12140
906.857	12072
906.974	12068
907.091	12327
907.208	12281
907.324	12171
907.441	12129
907.557	11893
907.674	11946
907.79	11813
907.907	11760
908.023	11939
908.139	11863
908.256	11836
908.372	11821
908.488	11729
908.604	11703
908.72	11543
908.836	11657
908.952	11646
909.068	11661
909.184	11752
909.3	11676
909.415	11646
909.531	11703
909.647	11448
909.762	11455
909.878	11440
909.993	11429
910.108	11414
910.224	11402
910.339	11501
910.454	11299
910.57	11258
910.685	11261
910.8	11528
910.915	11421
911.03	11296
911.145	11181
911.259	11079
911.374	11132
911.489	11105
911.604	10999
911.718	10919
911.833	10942
911.947	10771
912.062	10729
912.176	10866
912.291	10850
912.405	10858
912.519	11090
912.633	11067
912.748	10972
912.862	10850
912.976	10812
913.09	10683
913.204	10790
913.318	10736
913.431	10850
913.545	10927
913.659	10854
913.772	10687
913.886	10634
914	10573
914.113	10710
914.226	10763
914.34	10740
914.453	10645
914.566	10698
914.68	10546
914.793	10626
914.906	10402
915.019	10382
915.132	10405
915.245	10424
915.358	10375
915.47	10428
915.583	10443
915.696	10363
915.809	10542
915.921	10622
916.034	10402
916.146	10322
916.259	10367
916.371	10413
916.483	10443
916.595	10284
916.708	10325
916.82	10360
916.932	10291
917.044	10344
917.156	10322
917.268	10223
917.38	10238
917.491	10261
917.603	10291
917.715	10348
917.826	10363
917.938	10265
918.049	10097
918.161	10211
918.272	10356
918.384	10329
918.495	10276
918.606	10139
918.717	10048
918.828	10063
918.939	10188
919.05	10059
919.161	10139
919.272	9937
919.383	9907
919.494	10116
919.604	10306
919.715	10078
919.826	10112
919.936	10013
920.047	10223
920.157	10181
920.267	10390
920.378	10158
920.488	10166
920.598	10303
920.708	10470
920.818	10341
920.928	10284
921.038	10554
921.148	10478
921.258	10162
921.368	10105
921.477	9945
921.587	10010
921.697	9915
921.806	9994
921.916	9838
922.025	9720
922.134	9694
922.244	9686
922.353	9740
922.462	9587
922.571	9610
922.68	9439
922.789	9287
922.898	9458
923.007	9386
923.116	9340
923.224	9359
923.333	9424
923.442	9283
923.55	9321
923.659	9279
923.767	9393
923.876	9211
923.984	9313
924.092	9112
924.201	9237
924.309	9241
924.417	9207
924.525	9222
924.633	9283
924.741	10116
924.849	8986
924.956	9230
925.064	9017
925.172	8891
925.279	8990
925.387	9062
925.494	8982
925.602	9138
925.709	9116
925.816	8967
925.924	9017
926.031	9199
926.138	9089
926.245	9104
926.352	8971
926.459	9169
926.566	9131
926.673	9005
926.779	8883
926.886	8925
926.993	8792
927.099	8724
927.206	8800
927.312	8670
927.419	8807
927.525	8777
927.631	8743
927.737	8762
927.843	8667
927.95	8568
928.056	8667
928.162	8724
928.267	8800
928.373	9298
928.479	8788
928.585	8533
928.69	8667
928.796	8785
928.901	8575
929.007	8385
929.112	8610
929.218	8587
929.323	8434
929.428	8537
929.533	8632
929.638	8454
929.743	8423
929.848	8564
929.953	8450
930.058	8370
930.163	8320
930.267	8229
930.372	8385
930.477	8214
930.581	8438
930.685	8298
930.79	8183
930.894	8199
930.998	8282
931.103	8343
931.207	8043
931.311	7997
931.415	7932
931.519	7670
931.623	7677
