Data from test_V78500241_219.txt Node
Date: Fri Mar 25 14:35:14 CST 2022
User: usil
Spectrometer: V785-0024
Trigger mode: 0
Integration Time (sec): 4.000000E-1
Scans to average: 1
Nonlinearity correction enabled: false
Boxcar width: 0
Storing dark spectrum: false
XAxis mode: Wavelengths
Number of Pixels in Spectrum: 1024
>>>>>Begin Spectral Data<<<<<
801.071	27884
801.214	27774
801.356	27507
801.499	27408
801.641	27382
801.783	27233
801.926	27408
802.068	27283
802.211	27100
802.353	27070
802.496	26971
802.638	26861
802.78	26743
802.923	26716
803.065	26800
803.208	26670
803.35	26781
803.492	26838
803.635	26891
803.777	26853
803.919	26880
804.061	27199
804.204	26899
804.346	26815
804.488	26636
804.63	26621
804.773	26606
804.915	26876
805.057	26842
805.199	26811
805.341	26785
805.483	26883
805.626	26906
805.768	26811
805.91	26899
806.052	26956
806.194	26807
806.336	27066
806.478	26853
806.62	26921
806.762	26933
806.904	27169
807.046	27363
807.188	27279
807.33	27249
807.472	27310
807.614	27241
807.756	27313
807.898	27074
808.04	27104
808.182	27173
808.324	27298
808.465	27264
808.607	27568
808.749	27789
808.891	27918
809.033	27991
809.174	27759
809.316	27720
809.458	27587
809.6	27576
809.741	27545
809.883	27458
810.025	27663
810.166	27580
810.308	27682
810.45	27622
810.591	27412
810.733	27412
810.875	27374
811.016	27112
811.158	27093
811.299	27298
811.441	27348
811.582	27317
811.724	27165
811.865	27146
812.007	27207
812.148	27142
812.29	27344
812.431	27378
812.573	27405
812.714	27542
812.855	27713
812.997	27694
813.138	27854
813.279	27770
813.421	27698
813.562	27717
813.703	27310
813.845	27195
813.986	27055
814.127	26944
814.268	26777
814.41	26880
814.551	26769
814.692	26792
814.833	26663
814.974	26823
815.115	26804
815.256	26469
815.397	26667
815.539	26492
815.68	26552
815.821	26404
815.962	26587
816.103	26374
816.244	26320
816.385	26210
816.526	26084
816.666	26005
816.807	25947
816.948	25966
817.089	26103
817.23	25951
817.371	25890
817.512	25845
817.653	25822
817.793	25894
817.934	25921
818.075	25887
818.216	25799
818.356	25826
818.497	25712
818.638	25552
818.778	25613
818.919	25666
819.06	25597
819.2	25685
819.341	25727
819.481	25776
819.622	25997
819.762	25982
819.903	25871
820.043	26065
820.184	25894
820.324	25670
820.465	25978
820.605	25841
820.746	25681
820.886	25776
821.026	25780
821.167	25757
821.307	25845
821.447	25799
821.588	25780
821.728	25483
821.868	25236
822.008	25114
822.149	25190
822.289	25110
822.429	24943
822.569	24882
822.709	24821
822.849	24684
822.99	24650
823.13	24566
823.27	24631
823.41	24414
823.55	24323
823.69	24532
823.83	24456
823.97	24327
824.11	24114
824.25	24262
824.389	24361
824.529	24429
824.669	24148
824.809	24201
824.949	24292
825.089	24239
825.228	24239
825.368	24106
825.508	24095
825.648	23965
825.787	24087
825.927	24038
826.067	23836
826.206	24003
826.346	23988
826.485	24133
826.625	23912
826.765	24091
826.904	23878
827.044	23695
827.183	23726
827.323	23638
827.462	23608
827.601	23649
827.741	23710
827.88	23627
828.02	23611
828.159	23596
828.298	23676
828.437	23573
828.577	23577
828.716	23760
828.855	23592
828.994	23345
829.134	23417
829.273	23303
829.412	23322
829.551	23189
829.69	23322
829.829	23452
829.968	23402
830.107	23467
830.246	23360
830.385	23204
830.524	23246
830.663	23037
830.802	23117
830.941	22881
831.08	22839
831.219	23033
831.357	22942
831.496	23155
831.635	22824
831.774	22694
831.913	22717
832.051	22687
832.19	22660
832.329	22649
832.467	22516
832.606	22516
832.744	22470
832.883	22580
833.022	22504
833.16	22489
833.299	22493
833.437	22546
833.576	22504
833.714	22649
833.852	22596
833.991	22542
834.129	22565
834.267	22733
834.406	22557
834.544	22470
834.682	22618
834.821	22592
834.959	22729
835.097	22523
835.235	22611
835.373	22512
835.511	22504
835.65	22394
835.788	22478
835.926	22192
836.064	22211
836.202	22242
836.34	22325
836.478	22447
836.615	22402
836.753	22299
836.891	22409
837.029	22402
837.167	22325
837.305	22299
837.443	22162
837.58	22128
837.718	22280
837.856	22086
837.993	22181
838.131	22204
838.269	22010
838.406	22150
838.544	22032
838.681	21854
838.819	21846
838.956	21667
839.094	21542
839.231	21709
839.369	21770
839.506	21953
839.643	21945
839.781	21523
839.918	21599
840.055	21576
840.193	21526
840.33	21515
840.467	21603
840.604	21545
840.742	21774
840.879	21363
841.016	21450
841.153	21348
841.29	21720
841.427	21469
841.564	21530
841.701	21431
841.838	21481
841.975	21496
842.112	21351
842.249	21226
842.385	21184
842.522	21523
842.659	21275
842.796	21150
842.933	21275
843.069	21275
843.206	21070
843.343	21359
843.479	21283
843.616	21256
843.752	20982
843.889	20975
844.025	21104
844.162	20979
844.298	21138
844.435	21036
844.571	20880
844.708	20948
844.844	21165
844.98	21062
845.117	21081
845.253	21005
845.389	20921
845.525	20982
845.661	21039
845.798	21165
845.934	21344
846.07	21192
846.206	21332
846.342	21313
846.478	21119
846.614	20716
846.75	20613
846.886	20427
847.022	20663
847.158	20530
847.294	20480
847.429	20400
847.565	20412
847.701	20648
847.837	20134
847.972	20122
848.108	20309
848.244	20282
848.379	20130
848.515	20107
848.65	19932
848.786	20058
848.921	20054
849.057	19959
849.192	20157
849.328	19970
849.463	19894
849.598	19879
849.734	19917
849.869	19925
850.004	19681
850.14	19818
850.275	19704
850.41	19662
850.545	19712
850.68	19696
850.815	19666
850.95	19689
851.085	19746
851.22	19814
851.355	19689
851.49	19632
851.625	19757
851.76	19662
851.895	19635
852.03	19567
852.165	19571
852.299	19677
852.434	19784
852.569	19708
852.703	19742
852.838	19845
852.973	19822
853.107	19742
853.242	19681
853.376	19563
853.511	19483
853.645	19468
853.78	19696
853.914	19525
854.048	19575
854.183	19544
854.317	19506
854.451	19613
854.585	19521
854.72	19453
854.854	19594
854.988	19426
855.122	19597
855.256	19468
855.39	19480
855.524	19609
855.658	19537
855.792	19567
855.926	19525
856.06	19521
856.194	19647
856.327	19430
856.461	19441
856.595	19350
856.729	19415
856.862	19582
856.996	19540
857.13	19460
857.263	19575
857.397	19632
857.53	19441
857.664	19510
857.797	19483
857.931	19597
858.064	19590
858.197	19643
858.331	19464
858.464	19339
858.597	19320
858.731	19472
858.864	19327
858.997	19491
859.13	19415
859.263	19434
859.396	19457
859.529	19388
859.662	19369
859.795	19403
859.928	19480
860.061	19575
860.194	19586
860.327	19407
860.46	19411
860.592	19438
860.725	19586
860.858	19582
860.99	19407
861.123	19316
861.256	19282
861.388	19434
861.521	19982
861.653	19301
861.786	19217
861.918	19324
862.05	19297
862.183	19377
862.315	19499
862.447	19582
862.58	19400
862.712	19232
862.844	19187
862.976	19278
863.108	19293
863.24	19453
863.372	19107
863.504	19244
863.636	19099
863.768	19164
863.9	19164
864.032	19004
864.164	19171
864.296	19133
864.428	19141
864.559	19164
864.691	19168
864.823	19194
864.954	18985
865.086	19156
865.217	19133
865.349	18909
865.48	18928
865.612	18951
865.743	19126
865.875	19076
866.006	18909
866.137	19053
866.269	19088
866.4	19000
866.531	19023
866.662	18897
866.793	18954
866.924	18954
867.055	19000
867.186	18943
867.317	18859
867.448	18878
867.579	18901
867.71	18913
867.841	18810
867.972	19023
868.103	18882
868.233	19023
868.364	19000
868.495	19080
868.625	19179
868.756	19419
868.886	19133
869.017	19190
869.147	19365
869.278	19293
869.408	19316
869.539	19354
869.669	19285
869.799	19217
869.929	19339
870.06	19365
870.19	19487
870.32	19438
870.45	19563
870.58	19628
870.71	19655
870.84	19674
870.97	19655
871.1	19616
871.23	19852
871.36	19727
871.489	19651
871.619	19715
871.749	19852
871.879	19826
872.008	19959
872.138	19833
872.267	19765
872.397	19670
872.526	19609
872.656	19723
872.785	19620
872.915	19849
873.044	19826
873.173	19772
873.303	19921
873.432	19807
873.561	19936
873.69	19845
873.819	19791
873.948	19765
874.077	19974
874.206	19791
874.335	19928
874.464	20043
874.593	20008
874.722	19864
874.851	20073
874.979	20145
875.108	20103
875.237	19997
875.365	19993
875.494	20054
875.623	20195
875.751	20134
875.88	20130
876.008	20328
876.136	20324
876.265	20351
876.393	20659
876.521	20743
876.65	20632
876.778	20518
876.906	20530
877.034	20408
877.162	20587
877.29	20480
877.418	20537
877.546	20366
877.674	20465
877.802	20514
877.93	20454
878.058	20488
878.185	20480
878.313	20396
878.441	20522
878.568	20332
878.696	20404
878.824	20632
878.951	20670
879.079	20800
879.206	20982
879.333	20914
879.461	20693
879.588	20990
879.715	20925
879.842	20998
879.97	20746
880.097	20552
880.224	20442
880.351	20503
880.478	20400
880.605	20442
880.732	20370
880.859	20625
880.986	20434
881.112	20362
881.239	20275
881.366	20145
881.493	20100
881.619	20081
881.746	19989
881.872	20062
881.999	20058
882.125	19875
882.252	20046
882.378	20027
882.505	20088
882.631	19826
882.757	19769
882.883	19852
883.01	19742
883.136	19700
883.262	19681
883.388	19662
883.514	19715
883.64	19909
883.766	19799
883.892	19563
884.018	19655
884.143	19708
884.269	19841
884.395	19529
884.52	19422
884.646	19449
884.772	19419
884.897	19301
885.023	19339
885.148	19491
885.274	19460
885.399	19464
885.524	19377
885.65	19362
885.775	19392
885.9	19339
886.025	19502
886.15	19449
886.275	19293
886.4	19194
886.525	19293
886.65	19209
886.775	19232
886.9	19499
887.025	19582
887.149	19350
887.274	19126
887.399	19122
887.523	19076
887.648	19042
887.773	18993
887.897	19187
888.021	19137
888.146	19050
888.27	19148
888.395	19175
888.519	19069
888.643	19118
888.767	19110
888.891	19008
889.015	18920
889.139	18882
889.263	18875
889.387	18951
889.511	19175
889.635	18981
889.759	18916
889.883	18951
890.006	18970
890.13	19088
890.254	18768
890.377	18817
890.501	18646
890.624	18566
890.748	18787
890.871	18654
890.995	18418
891.118	18479
891.241	18448
891.364	18532
891.488	18509
891.611	18506
891.734	18445
891.857	18547
891.98	18540
892.103	18494
892.226	18627
892.349	18475
892.471	18391
892.594	18422
892.717	18494
892.839	18448
892.962	18517
893.085	18407
893.207	18441
893.33	18239
893.452	18418
893.575	18483
893.697	18426
893.819	18502
893.941	18585
894.064	18608
894.186	18445
894.308	18353
894.43	18521
894.552	18612
894.674	18483
894.796	18448
894.918	18369
895.04	18296
895.161	18551
895.283	18414
895.405	18426
895.526	18422
895.648	18391
895.769	18437
895.891	18403
896.012	18490
896.134	18452
896.255	18544
896.376	18365
896.498	18399
896.619	18486
896.74	18509
896.861	18623
896.982	18844
897.103	18863
897.224	18814
897.345	18669
897.466	18722
897.587	18719
897.708	18871
897.828	18772
897.949	18631
898.07	18585
898.19	18650
898.311	18821
898.431	18749
898.552	18787
898.672	18783
898.792	18890
898.913	18711
899.033	18608
899.153	18559
899.273	18384
899.393	18365
899.513	18509
899.633	18467
899.753	18357
899.873	18407
899.993	18471
900.113	18437
900.232	18433
900.352	18399
900.472	18350
900.591	18247
900.711	18376
900.83	18262
900.95	18334
901.069	18319
901.189	18213
901.308	17958
901.427	17996
901.546	17977
901.665	17908
901.784	17897
901.904	17745
902.023	17665
902.141	17395
902.26	17570
902.379	17547
902.498	17315
902.617	17383
902.735	17417
902.854	17421
902.973	17429
903.091	17132
903.21	16957
903.328	17109
903.446	16987
903.565	16919
903.683	16908
903.801	16824
903.919	16953
904.038	16835
904.156	16733
904.274	16828
904.392	16683
904.51	16694
904.627	16618
904.745	16831
904.863	16763
904.981	16538
905.098	16390
905.216	16295
905.334	16382
905.451	16428
905.569	16303
905.686	16390
905.803	16379
905.921	16116
906.038	16204
906.155	16063
906.272	15994
906.389	15964
906.506	15907
906.623	15808
906.74	15846
906.857	15739
906.974	15819
907.091	16021
907.208	15915
907.324	15922
907.441	15724
907.557	15603
907.674	15431
907.79	15568
907.907	15526
908.023	15534
908.139	15511
908.256	15504
908.372	15485
908.488	15454
908.604	15344
908.72	15214
908.836	15298
908.952	15161
909.068	15245
909.184	15291
909.3	15230
909.415	15218
909.531	15222
909.647	14979
909.762	15005
909.878	14994
909.993	14971
910.108	14975
910.224	14929
910.339	14929
910.454	14777
910.57	14830
910.685	14667
910.8	14895
910.915	14853
911.03	14762
911.145	14629
911.259	14587
911.374	14533
911.489	14488
911.604	14488
911.718	14305
911.833	14278
911.947	14233
912.062	14153
912.176	14320
912.291	14370
912.405	14275
912.519	14484
912.633	14408
912.748	14324
912.862	14286
912.976	14077
913.09	14039
913.204	14123
913.318	14138
913.431	14263
913.545	14263
913.659	14161
913.772	14119
913.886	14035
914	13951
914.113	14031
914.226	14081
914.34	14069
914.453	13818
914.566	13967
914.68	13887
914.793	13799
914.906	13696
915.019	13639
915.132	13601
915.245	13575
915.358	13677
915.47	13567
915.583	13651
915.696	13757
915.809	13727
915.921	13750
916.034	13499
916.146	13521
916.259	13491
916.371	13639
916.483	13502
916.595	13449
916.708	13426
916.82	13438
916.932	13472
917.044	13373
917.156	13403
917.268	13350
917.38	13320
917.491	13255
917.603	13350
917.715	13460
917.826	13384
917.938	13187
918.049	13187
918.161	13316
918.272	13365
918.384	13422
918.495	13346
918.606	13225
918.717	12993
918.828	13137
918.939	13141
919.05	12993
919.161	13076
919.272	12871
919.383	12905
919.494	13164
919.604	13278
919.715	13088
919.826	12894
919.936	13080
920.047	13129
920.157	13027
920.267	13255
920.378	13099
920.488	13050
920.598	13266
920.708	13369
920.818	13171
920.928	13175
921.038	13301
921.148	13198
921.258	12962
921.368	12905
921.477	12848
921.587	12768
921.697	12662
921.806	12798
921.916	12646
922.025	12532
922.134	12452
922.244	12414
922.353	12475
922.462	12483
922.571	12323
922.68	12095
922.789	12011
922.898	12163
923.007	12110
923.116	12159
923.224	12057
923.333	12129
923.442	11980
923.55	11988
923.659	12041
923.767	12057
923.876	11965
923.984	11992
924.092	11805
924.201	11893
924.309	11843
924.417	11954
924.525	11855
924.633	11817
924.741	12802
924.849	11726
924.956	11779
925.064	11657
925.172	11592
925.279	11630
925.387	11688
925.494	11646
925.602	11779
925.709	11726
925.816	11486
925.924	11600
926.031	11733
926.138	11608
926.245	11596
926.352	11554
926.459	11604
926.566	11589
926.673	11505
926.779	11414
926.886	11356
926.993	11254
927.099	11345
927.206	11235
927.312	11208
927.419	11189
927.525	11261
927.631	11235
927.737	11166
927.843	11181
927.95	11052
928.056	11064
928.162	11064
928.267	11174
928.373	11722
928.479	11193
928.585	10904
928.69	11105
928.796	11052
928.901	10972
929.007	10782
929.112	10976
929.218	10915
929.323	10721
929.428	10763
929.533	10984
929.638	10759
929.743	10793
929.848	10900
929.953	10786
930.058	10691
930.163	10546
930.267	10573
930.372	10683
930.477	10542
930.581	10736
930.685	10603
930.79	10462
930.894	10504
930.998	10382
931.103	10577
931.207	10147
931.311	10181
931.415	9991
931.519	9854
931.623	9819
