Data from test_V78500241_2529.txt Node
Date: Fri Mar 25 14:51:19 CST 2022
User: usil
Spectrometer: V785-0024
Trigger mode: 0
Integration Time (sec): 4.000000E-1
Scans to average: 1
Nonlinearity correction enabled: false
Boxcar width: 0
Storing dark spectrum: false
XAxis mode: Wavelengths
Number of Pixels in Spectrum: 1024
>>>>>Begin Spectral Data<<<<<
801.071	22135
801.214	21960
801.356	21694
801.499	21530
801.641	21431
801.783	21291
801.926	21504
802.068	21272
802.211	21302
802.353	21169
802.496	21032
802.638	20765
802.78	20914
802.923	20754
803.065	20598
803.208	20765
803.35	20811
803.492	20785
803.635	20845
803.777	20819
803.919	20807
804.061	21112
804.204	20857
804.346	20609
804.488	20594
804.63	20663
804.773	20552
804.915	20655
805.057	20674
805.199	20602
805.341	20701
805.483	20823
805.626	20838
805.768	20644
805.91	20712
806.052	20648
806.194	20602
806.336	20720
806.478	20716
806.62	20625
806.762	20674
806.904	20800
807.046	20994
807.188	21066
807.33	20948
807.472	21123
807.614	20811
807.756	20963
807.898	20838
808.04	20621
808.182	20815
808.324	20720
808.465	20834
808.607	20944
808.749	20944
808.891	21066
809.033	21188
809.174	21077
809.316	20971
809.458	21032
809.6	20868
809.741	20975
809.883	20990
810.025	21245
810.166	21116
810.308	21066
810.45	21055
810.591	21001
810.733	20891
810.875	20811
811.016	20674
811.158	20537
811.299	20811
811.441	20880
811.582	20929
811.724	20849
811.865	20750
812.007	20823
812.148	20651
812.29	20762
812.431	21028
812.573	21142
812.714	21089
812.855	21218
812.997	21397
813.138	21515
813.279	21287
813.421	21306
813.562	21180
813.703	21058
813.845	20731
813.986	20579
814.127	20575
814.268	20377
814.41	20404
814.551	20320
814.692	20366
814.833	20149
814.974	20218
815.115	20237
815.256	20183
815.397	20199
815.539	20149
815.68	20050
815.821	20069
815.962	20069
816.103	20027
816.244	20088
816.385	19826
816.526	19830
816.666	19731
816.807	19460
816.948	19537
817.089	19506
817.23	19552
817.371	19430
817.512	19457
817.653	19552
817.793	19514
817.934	19403
818.075	19533
818.216	19407
818.356	19487
818.497	19316
818.638	19187
818.778	19042
818.919	19190
819.06	19232
819.2	19213
819.341	19206
819.481	19343
819.622	19518
819.762	19685
819.903	19544
820.043	19460
820.184	19533
820.324	19415
820.465	19483
820.605	19392
820.746	19457
820.886	19194
821.026	19308
821.167	19422
821.307	19445
821.447	19445
821.588	19343
821.728	19194
821.868	19015
822.008	18920
822.149	18901
822.289	18833
822.429	18563
822.569	18585
822.709	18528
822.849	18334
822.99	18399
823.13	18369
823.27	18209
823.41	18155
823.55	18155
823.69	18076
823.83	18152
823.97	18045
824.11	17920
824.25	17771
824.389	17897
824.529	18038
824.669	17961
824.809	18068
824.949	17961
825.089	18007
825.228	17882
825.368	17786
825.508	17714
825.648	17741
825.787	17695
825.927	17722
826.067	17668
826.206	17596
826.346	17699
826.485	17752
826.625	17642
826.765	17786
826.904	17729
827.044	17570
827.183	17577
827.323	17345
827.462	17398
827.601	17345
827.741	17311
827.88	17482
828.02	17318
828.159	17349
828.298	17433
828.437	17467
828.577	17315
828.716	17512
828.855	17261
828.994	17151
829.134	17147
829.273	17193
829.412	17159
829.551	17056
829.69	17212
829.829	17075
829.968	17162
830.107	17181
830.246	17204
830.385	17010
830.524	17041
830.663	16987
830.802	16820
830.941	16805
831.08	16774
831.219	16873
831.357	16850
831.496	17041
831.635	16687
831.774	16641
831.913	16706
832.051	16660
832.19	16580
832.329	16523
832.467	16447
832.606	16451
832.744	16459
832.883	16478
833.022	16424
833.16	16447
833.299	16462
833.437	16615
833.576	16596
833.714	16542
833.852	16577
833.991	16611
834.129	16504
834.267	16698
834.406	16436
834.544	16599
834.682	16504
834.821	16573
834.959	16634
835.097	16558
835.235	16672
835.373	16550
835.511	16592
835.65	16546
835.788	16455
835.926	16242
836.064	16188
836.202	16348
836.34	16603
836.478	16607
836.615	16500
836.753	16394
836.891	16516
837.029	16493
837.167	16398
837.305	16337
837.443	16299
837.58	16261
837.718	16409
837.856	16371
837.993	16219
838.131	16485
838.269	16295
838.406	16246
838.544	16215
838.681	16124
838.819	16036
838.956	15899
839.094	15953
839.231	16029
839.369	15895
839.506	16306
839.643	16154
839.781	15880
839.918	15865
840.055	15956
840.193	15899
840.33	15892
840.467	15861
840.604	16044
840.742	16173
840.879	15850
841.016	15808
841.153	15861
841.29	15998
841.427	15964
841.564	15888
841.701	15994
841.838	15854
841.975	15797
842.112	15781
842.249	15667
842.385	15671
842.522	15854
842.659	15751
842.796	15732
842.933	15713
843.069	15671
843.206	15603
843.343	15747
843.479	15755
843.616	15778
843.752	15496
843.889	15443
844.025	15701
844.162	15397
844.298	15637
844.435	15435
844.571	15450
844.708	15496
844.844	15561
844.98	15698
845.117	15584
845.253	15447
845.389	15291
845.525	15405
845.661	15450
845.798	15275
845.934	15336
846.07	15192
846.206	15332
846.342	15428
846.478	15275
846.614	15043
846.75	14982
846.886	15001
847.022	15131
847.158	15017
847.294	15032
847.429	15138
847.565	15062
847.701	15199
847.837	14804
847.972	14796
848.108	14807
848.244	14800
848.379	14727
848.515	14507
848.65	14602
848.786	14678
848.921	14689
849.057	14727
849.192	14746
849.328	14674
849.463	14606
849.598	14670
849.734	14545
849.869	14568
850.004	14389
850.14	14400
850.275	14454
850.41	14317
850.545	14374
850.68	14317
850.815	14320
850.95	14358
851.085	14488
851.22	14473
851.355	14507
851.49	14358
851.625	14454
851.76	14324
851.895	14282
852.03	14218
852.165	14313
852.299	14404
852.434	14423
852.569	14457
852.703	14412
852.838	14495
852.973	14450
853.107	14446
853.242	14423
853.376	14252
853.511	14237
853.645	14153
853.78	14355
853.914	14286
854.048	14229
854.183	14199
854.317	14317
854.451	14503
854.585	14324
854.72	14237
854.854	14366
854.988	14221
855.122	14275
855.256	14103
855.39	14298
855.524	14301
855.658	14332
855.792	14214
855.926	14286
856.06	14396
856.194	14339
856.327	14195
856.461	14263
856.595	14138
856.729	14313
856.862	14282
856.996	14286
857.13	14351
857.263	14457
857.397	14419
857.53	14256
857.664	14355
857.797	14385
857.931	14522
858.064	14427
858.197	14385
858.331	14324
858.464	14244
858.597	14172
858.731	14244
858.864	14259
858.997	14199
859.13	14336
859.263	14259
859.396	14298
859.529	14244
859.662	14332
859.795	14240
859.928	14290
860.061	14370
860.194	14457
860.327	14282
860.46	14298
860.592	14377
860.725	14343
860.858	14495
860.99	14275
861.123	14214
861.256	14134
861.388	14275
861.521	14895
861.653	14123
861.786	14096
861.918	14164
862.05	14199
862.183	14248
862.315	14252
862.447	14275
862.58	14183
862.712	14138
862.844	14001
862.976	14008
863.108	14103
863.24	14412
863.372	13955
863.504	14046
863.636	14096
863.768	14035
863.9	14092
864.032	13906
864.164	14065
864.296	14134
864.428	14077
864.559	14111
864.691	14126
864.823	14195
864.954	14092
865.086	14008
865.217	14012
865.349	14031
865.48	13944
865.612	14123
865.743	14153
865.875	14107
866.006	13894
866.137	14016
866.269	13997
866.4	14024
866.531	13970
866.662	13860
866.793	13993
866.924	14039
867.055	14027
867.186	14024
867.317	14020
867.448	14031
867.579	13970
867.71	13963
867.841	13902
867.972	13932
868.103	14153
868.233	14020
868.364	14050
868.495	14145
868.625	14248
868.756	14404
868.886	14256
869.017	14225
869.147	14415
869.278	14328
869.408	14202
869.539	14290
869.669	14389
869.799	14320
869.929	14415
870.06	14385
870.19	14598
870.32	14659
870.45	14705
870.58	14670
870.71	14826
870.84	14735
870.97	14674
871.1	14655
871.23	14941
871.36	14861
871.489	14758
871.619	14872
871.749	14853
871.879	14823
872.008	14963
872.138	14910
872.267	14876
872.397	14769
872.526	14720
872.656	14682
872.785	14762
872.915	14891
873.044	14910
873.173	14895
873.303	14933
873.432	14910
873.561	14963
873.69	14925
873.819	14918
873.948	15032
874.077	15024
874.206	14781
874.335	14979
874.464	15028
874.593	15135
874.722	15157
874.851	15275
874.979	15275
875.108	15268
875.237	15264
875.365	15154
875.494	15192
875.623	15252
875.751	15279
875.88	15351
876.008	15275
876.136	15492
876.265	15633
876.393	15705
876.521	15762
876.65	15698
876.778	15591
876.906	15591
877.034	15675
877.162	15614
877.29	15576
877.418	15682
877.546	15724
877.674	15679
877.802	15648
877.93	15603
878.058	15584
878.185	15553
878.313	15625
878.441	15698
878.568	15477
878.696	15622
878.824	15614
878.951	15705
879.079	15793
879.206	16021
879.333	15842
879.461	15778
879.588	15675
879.715	15842
879.842	15991
879.97	15679
880.097	15431
880.224	15511
880.351	15549
880.478	15584
880.605	15443
880.732	15519
880.859	15690
880.986	15606
881.112	15504
881.239	15466
881.366	15294
881.493	15127
881.619	15161
881.746	15192
881.872	15108
881.999	15104
882.125	15138
882.252	15199
882.378	15226
882.505	15329
882.631	15165
882.757	14933
882.883	15135
883.01	15024
883.136	14887
883.262	14781
883.388	14792
883.514	15043
883.64	14994
883.766	14937
883.892	14872
884.018	14861
884.143	15043
884.269	15024
884.395	14804
884.52	14670
884.646	14590
884.772	14697
884.897	14617
885.023	14758
885.148	14785
885.274	14811
885.399	14739
885.524	14629
885.65	14712
885.775	14670
885.9	14655
886.025	14807
886.15	14731
886.275	14610
886.4	14549
886.525	14636
886.65	14640
886.775	14651
886.9	14834
887.025	14807
887.149	14686
887.274	14587
887.399	14503
887.523	14473
887.648	14541
887.773	14450
887.897	14511
888.021	14663
888.146	14473
888.27	14610
888.395	14598
888.519	14568
888.643	14575
888.767	14533
888.891	14476
889.015	14377
889.139	14465
889.263	14404
889.387	14533
889.511	14659
889.635	14503
889.759	14377
889.883	14358
890.006	14317
890.13	14423
890.254	14202
890.377	14298
890.501	14233
890.624	14267
890.748	14248
890.871	14103
890.995	14046
891.118	13967
891.241	14035
891.364	14123
891.488	14195
891.611	14024
891.734	14069
891.857	14016
891.98	14069
892.103	14149
892.226	14142
892.349	14134
892.471	13967
892.594	14088
892.717	14119
892.839	14119
892.962	14073
893.085	14244
893.207	14096
893.33	14005
893.452	14027
893.575	14119
893.697	14180
893.819	14275
893.941	14229
894.064	14210
894.186	14069
894.308	14001
894.43	14237
894.552	14442
894.674	14168
894.796	14027
894.918	14130
895.04	14161
895.161	14229
895.283	14240
895.405	14062
895.526	14134
895.648	14149
895.769	14381
895.891	14206
896.012	14343
896.134	14271
896.255	14290
896.376	14191
896.498	14214
896.619	14320
896.74	14191
896.861	14275
896.982	14625
897.103	14792
897.224	14575
897.345	14583
897.466	14518
897.587	14526
897.708	14663
897.828	14610
897.949	14541
898.07	14381
898.19	14450
898.311	14735
898.431	14495
898.552	14625
898.672	14705
898.792	14621
898.913	14636
899.033	14465
899.153	14396
899.273	14362
899.393	14415
899.513	14454
899.633	14473
899.753	14503
899.873	14442
899.993	14507
900.113	14446
900.232	14522
900.352	14454
900.472	14385
900.591	14275
900.711	14381
900.83	14237
900.95	14381
901.069	14480
901.189	14252
901.308	13978
901.427	13986
901.546	14073
901.665	13978
901.784	14027
901.904	13887
902.023	13700
902.141	13677
902.26	13582
902.379	13639
902.498	13586
902.617	13559
902.735	13544
902.854	13518
902.973	13438
903.091	13289
903.21	13289
903.328	13339
903.446	13187
903.565	13046
903.683	13141
903.801	13107
903.919	13156
904.038	13088
904.156	12935
904.274	12943
904.392	12985
904.51	13099
904.627	12897
904.745	13027
904.863	13038
904.981	12753
905.098	12604
905.216	12631
905.334	12669
905.451	12585
905.569	12578
905.686	12650
905.803	12684
905.921	12460
906.038	12566
906.155	12490
906.272	12372
906.389	12403
906.506	12224
906.623	12182
906.74	12235
906.857	12079
906.974	12140
907.091	12289
907.208	12429
907.324	12315
907.441	12178
907.557	12057
907.674	12034
907.79	11950
907.907	11954
908.023	12087
908.139	12045
908.256	11958
908.372	11969
908.488	11863
908.604	11794
908.72	11722
908.836	11779
908.952	11710
909.068	11809
909.184	11954
909.3	11779
909.415	11847
909.531	11756
909.647	11547
909.762	11638
909.878	11410
909.993	11547
910.108	11497
910.224	11474
910.339	11520
910.454	11478
910.57	11474
910.685	11330
910.8	11581
910.915	11570
911.03	11379
911.145	11258
911.259	11208
911.374	11189
911.489	11284
911.604	11105
911.718	11048
911.833	10953
911.947	10862
912.062	10809
912.176	10957
912.291	10968
912.405	11014
912.519	11212
912.633	11197
912.748	11086
912.862	11071
912.976	10816
913.09	10786
913.204	10801
913.318	10889
913.431	10999
913.545	10995
913.659	10957
913.772	10915
913.886	10805
914	10763
914.113	10892
914.226	10839
914.34	10831
914.453	10592
914.566	10831
914.68	10702
914.793	10736
914.906	10523
915.019	10474
915.132	10348
915.245	10523
915.358	10603
915.47	10493
915.583	10485
915.696	10527
915.809	10649
915.921	10611
916.034	10527
916.146	10428
916.259	10519
916.371	10577
916.483	10478
916.595	10470
916.708	10455
916.82	10436
916.932	10390
917.044	10447
917.156	10436
917.268	10280
917.38	10360
917.491	10310
917.603	10424
917.715	10379
917.826	10436
917.938	10413
918.049	10097
918.161	10329
918.272	10424
918.384	10462
918.495	10428
918.606	10223
918.717	10173
918.828	10181
918.939	10257
919.05	10131
919.161	10207
919.272	10010
919.383	10067
919.494	10295
919.604	10428
919.715	10257
919.826	10166
919.936	10242
920.047	10207
920.157	10268
920.267	10447
920.378	10306
920.488	10166
920.598	10440
920.708	10569
920.818	10428
920.928	10386
921.038	10550
921.148	10561
921.258	10246
921.368	10188
921.477	10147
921.587	10006
921.697	9941
921.806	10086
921.916	9968
922.025	9816
922.134	9751
922.244	9709
922.353	9797
922.462	9675
922.571	9576
922.68	9496
922.789	9492
922.898	9485
923.007	9462
923.116	9538
923.224	9492
923.333	9477
923.442	9405
923.55	9313
923.659	9355
923.767	9393
923.876	9313
923.984	9363
924.092	9253
924.201	9332
924.309	9336
924.417	9389
924.525	9283
924.633	9325
924.741	10234
924.849	9131
924.956	9260
925.064	9173
925.172	9070
925.279	9077
925.387	9154
925.494	9138
925.602	9249
925.709	9222
925.816	9051
925.924	9214
926.031	9260
926.138	9100
926.245	9211
926.352	9039
926.459	9112
926.566	9142
926.673	9077
926.779	8948
926.886	8982
926.993	8906
927.099	8887
927.206	8842
927.312	8800
927.419	8918
927.525	8830
927.631	8876
927.737	8758
927.843	8785
927.95	8640
928.056	8663
928.162	8777
928.267	8819
928.373	9466
928.479	8823
928.585	8629
928.69	8750
928.796	8781
928.901	8697
929.007	8503
929.112	8716
929.218	8667
929.323	8594
929.428	8579
929.533	8708
929.638	8480
929.743	8541
929.848	8655
929.953	8594
930.058	8442
930.163	8298
930.267	8389
930.372	8427
930.477	8320
930.581	8583
930.685	8381
930.79	8267
930.894	8301
930.998	8244
931.103	8446
931.207	8058
931.311	7951
931.415	7970
931.519	7715
931.623	7818
