Data from test_V78500241_716.txt Node
Date: Fri Mar 25 14:38:42 CST 2022
User: usil
Spectrometer: V785-0024
Trigger mode: 0
Integration Time (sec): 4.000000E-1
Scans to average: 1
Nonlinearity correction enabled: false
Boxcar width: 0
Storing dark spectrum: false
XAxis mode: Wavelengths
Number of Pixels in Spectrum: 1024
>>>>>Begin Spectral Data<<<<<
801.071	27526
801.214	27424
801.356	27275
801.499	27146
801.641	26906
801.783	26906
801.926	26967
802.068	26876
802.211	26678
802.353	26629
802.496	26526
802.638	26587
802.78	26328
802.923	26438
803.065	26423
803.208	26267
803.35	26442
803.492	26583
803.635	26575
803.777	26484
803.919	26735
804.061	26963
804.204	26826
804.346	26602
804.488	26613
804.63	26720
804.773	26632
804.915	26750
805.057	26963
805.199	26990
805.341	27077
805.483	27119
805.626	27127
805.768	27203
805.91	27218
806.052	27595
806.194	27614
806.336	27880
806.478	27994
806.62	28021
806.762	28417
806.904	28866
807.046	29383
807.188	29680
807.33	30083
807.472	30555
807.614	31282
807.756	32221
807.898	33481
808.04	34824
808.182	36970
808.324	39641
808.465	42574
808.607	46017
808.749	48844
808.891	50796
809.033	50872
809.174	49327
809.316	46367
809.458	42882
809.6	39260
809.741	36464
809.883	34295
810.025	32876
810.166	31689
810.308	30966
810.45	30266
810.591	29653
810.733	29212
810.875	28706
811.016	28409
811.158	28158
811.299	28265
811.441	27960
811.582	27846
811.724	27717
811.865	27610
812.007	27450
812.148	27336
812.29	27386
812.431	27405
812.573	27439
812.714	27622
812.855	27599
812.997	27496
813.138	27778
813.279	27663
813.421	27359
813.562	27302
813.703	27028
813.845	26918
813.986	26640
814.127	26492
814.268	26252
814.41	26240
814.551	26134
814.692	26218
814.833	26039
814.974	26062
815.115	26122
815.256	25788
815.397	25750
815.539	25822
815.68	25643
815.821	25647
815.962	25628
816.103	25670
816.244	25628
816.385	25358
816.526	25384
816.666	25236
816.807	25137
816.948	25080
817.089	25129
817.23	24981
817.371	25110
817.512	24989
817.653	24875
817.793	24970
817.934	24909
818.075	24966
818.216	24996
818.356	24867
818.497	24772
818.638	24612
818.778	24715
818.919	24703
819.06	24563
819.2	24536
819.341	24871
819.481	24901
819.622	24916
819.762	25160
819.903	25042
820.043	24894
820.184	24833
820.324	24867
820.465	24871
820.605	24544
820.746	24783
820.886	24566
821.026	24646
821.167	24563
821.307	24738
821.447	24661
821.588	24521
821.728	24319
821.868	24129
822.008	24060
822.149	23954
822.289	23992
822.429	23790
822.569	23611
822.709	23596
822.849	23486
822.99	23410
823.13	23391
823.27	23383
823.41	23250
823.55	23155
823.69	23185
823.83	23200
823.97	23181
824.11	23102
824.25	23090
824.389	22957
824.529	23037
824.669	23102
824.809	23124
824.949	23037
825.089	23037
825.228	23022
825.368	22850
825.508	22782
825.648	22793
825.787	22763
825.927	22892
826.067	22687
826.206	22687
826.346	22744
826.485	22786
826.625	22683
826.765	22858
826.904	22812
827.044	22485
827.183	22504
827.323	22318
827.462	22440
827.601	22428
827.741	22398
827.88	22459
828.02	22318
828.159	22329
828.298	22390
828.437	22485
828.577	22246
828.716	22474
828.855	22204
828.994	22177
829.134	22067
829.273	22044
829.412	22048
829.551	22128
829.69	21994
829.829	22010
829.968	22219
830.107	22116
830.246	22169
830.385	21994
830.524	21960
830.663	21873
830.802	21652
830.941	21572
831.08	21591
831.219	21694
831.357	21743
831.496	22002
831.635	21686
831.774	21751
831.913	21587
832.051	21572
832.19	21591
832.329	21694
832.467	21408
832.606	21473
832.744	21595
832.883	21618
833.022	21644
833.16	21759
833.299	21945
833.437	22017
833.576	22093
833.714	22481
833.852	22615
833.991	22527
834.129	22698
834.267	22660
834.406	22641
834.544	22649
834.682	22455
834.821	22363
834.959	22325
835.097	22006
835.235	22032
835.373	21781
835.511	21713
835.65	21572
835.788	21496
835.926	21367
836.064	21272
836.202	21184
836.34	21306
836.478	21359
836.615	21336
836.753	21313
836.891	21298
837.029	21283
837.167	21237
837.305	21066
837.443	21077
837.58	20967
837.718	21233
837.856	21077
837.993	21024
838.131	21051
838.269	20773
838.406	20887
838.544	20819
838.681	20792
838.819	20667
838.956	20526
839.094	20419
839.231	20503
839.369	20712
839.506	20762
839.643	20682
839.781	20564
839.918	20343
840.055	20450
840.193	20271
840.33	20305
840.467	20351
840.604	20457
840.742	20629
840.879	20328
841.016	20518
841.153	20298
841.29	20507
841.427	20404
841.564	20537
841.701	20454
841.838	20381
841.975	20320
842.112	20336
842.249	20259
842.385	20172
842.522	20507
842.659	20320
842.796	20233
842.933	20233
843.069	20229
843.206	20263
843.343	20351
843.479	20313
843.616	20492
843.752	20400
843.889	20282
844.025	20476
844.162	20328
844.298	20640
844.435	20716
844.571	20811
844.708	21135
844.844	21686
844.98	22006
845.117	22622
845.253	23657
845.389	25582
845.525	29239
845.661	35353
845.798	42098
845.934	47250
846.07	49293
846.206	47881
846.342	42958
846.478	35961
846.614	29927
846.75	25982
846.886	23699
847.022	22527
847.158	21542
847.294	20918
847.429	20716
847.565	20336
847.701	20446
847.837	19868
847.972	19639
848.108	19738
848.244	19681
848.379	19499
848.515	19327
848.65	19282
848.786	19213
848.921	19301
849.057	19263
849.192	19282
849.328	19301
849.463	19069
849.598	19168
849.734	19107
849.869	19114
850.004	18840
850.14	18859
850.275	18916
850.41	18791
850.545	18688
850.68	18897
850.815	18916
850.95	18848
851.085	18970
851.22	18909
851.355	18757
851.49	18688
851.625	18821
851.76	18840
851.895	18673
852.03	18871
852.165	18871
852.299	19012
852.434	18996
852.569	18913
852.703	19012
852.838	19015
852.973	18996
853.107	19122
853.242	18935
853.376	18966
853.511	18852
853.645	18962
853.78	19099
853.914	19069
854.048	18958
854.183	19046
854.317	19175
854.451	19285
854.585	19148
854.72	19114
854.854	19156
854.988	18970
855.122	19031
855.256	18795
855.39	18966
855.524	18935
855.658	18829
855.792	18875
855.926	18852
856.06	18897
856.194	18787
856.327	18620
856.461	18604
856.595	18696
856.729	18601
856.862	18688
856.996	18707
857.13	18696
857.263	18779
857.397	18802
857.53	18601
857.664	18734
857.797	18635
857.931	18688
858.064	18513
858.197	18639
858.331	18631
858.464	18528
858.597	18551
858.731	18525
858.864	18547
858.997	18544
859.13	18467
859.263	18597
859.396	18692
859.529	18365
859.662	18498
859.795	18410
859.928	18437
860.061	18616
860.194	18635
860.327	18437
860.46	18559
860.592	18544
860.725	18559
860.858	18604
860.99	18475
861.123	18456
861.256	18483
861.388	18502
861.521	19244
861.653	18285
861.786	18266
861.918	18372
862.05	18357
862.183	18391
862.315	18410
862.447	18426
862.58	18429
862.712	18292
862.844	18057
862.976	18304
863.108	18353
863.24	18601
863.372	18030
863.504	18098
863.636	18114
863.768	18125
863.9	18060
864.032	18072
864.164	18098
864.296	18136
864.428	18224
864.559	18140
864.691	18133
864.823	18133
864.954	18015
865.086	18148
865.217	17958
865.349	18030
865.48	18057
865.612	18045
865.743	18197
865.875	18167
866.006	18015
866.137	18155
866.269	18110
866.4	18087
866.531	18053
866.662	18091
866.793	17923
866.924	17904
867.055	18072
867.186	18045
867.317	17923
867.448	17935
867.579	17942
867.71	17882
867.841	17935
867.972	17999
868.103	18038
868.233	18022
868.364	18022
868.495	18110
868.625	18292
868.756	18407
868.886	18216
869.017	18243
869.147	18334
869.278	18521
869.408	18418
869.539	18369
869.669	18376
869.799	18422
869.929	18388
870.06	18414
870.19	18623
870.32	18604
870.45	18570
870.58	18741
870.71	18875
870.84	18859
870.97	18639
871.1	18791
871.23	18878
871.36	19046
871.489	18878
871.619	19012
871.749	19061
871.879	19114
872.008	19148
872.138	19019
872.267	19179
872.397	18886
872.526	18928
872.656	18924
872.785	18943
872.915	19133
873.044	19107
873.173	19148
873.303	19179
873.432	19324
873.561	19308
873.69	19304
873.819	19369
873.948	19312
874.077	19430
874.206	19400
874.335	19297
874.464	19495
874.593	19788
874.722	19677
874.851	19727
874.979	19860
875.108	19944
875.237	19898
875.365	19830
875.494	19902
875.623	19993
875.751	19909
875.88	20134
876.008	20252
876.136	20374
876.265	20587
876.393	20845
876.521	20743
876.65	20899
876.778	20910
876.906	20842
877.034	20979
877.162	20929
877.29	20933
877.418	21203
877.546	21279
877.674	21462
877.802	21458
877.93	21530
878.058	21789
878.185	21987
878.313	22249
878.441	22561
878.568	22900
878.696	23493
878.824	24380
878.951	25449
879.079	27272
879.206	29174
879.333	31175
879.461	33081
879.588	34234
879.715	34242
879.842	33306
879.97	31327
880.097	29250
880.224	27408
880.351	26138
880.478	25312
880.605	24844
880.732	24330
880.859	24353
880.986	23931
881.112	23942
881.239	23741
881.366	23539
881.493	23429
881.619	23356
881.746	23326
881.872	23558
881.999	23474
882.125	23516
882.252	23646
882.378	23722
882.505	23824
882.631	23531
882.757	23436
882.883	23592
883.01	23478
883.136	23528
883.262	23383
883.388	23356
883.514	23402
883.64	23634
883.766	23345
883.892	23181
884.018	23231
884.143	23353
884.269	23615
884.395	23284
884.52	23311
884.646	23235
884.772	23090
884.897	23227
885.023	23170
885.148	23288
885.274	23311
885.399	23132
885.524	22972
885.65	22843
885.775	22744
885.9	22550
886.025	22512
886.15	22272
886.275	22177
886.4	21953
886.525	21774
886.65	21778
886.775	21496
886.9	21526
887.025	21675
887.149	21294
887.274	21089
887.399	20963
887.523	20727
887.648	20602
887.773	20579
887.897	20583
888.021	20545
888.146	20400
888.27	20495
888.395	20385
888.519	20419
888.643	20199
888.767	20206
888.891	19951
889.015	19928
889.139	20031
889.263	19849
889.387	19883
889.511	19955
889.635	19841
889.759	19719
889.883	19685
890.006	19639
890.13	19590
890.254	19529
890.377	19441
890.501	19274
890.624	19255
890.748	19251
890.871	19156
890.995	19072
891.118	18913
891.241	18970
891.364	18985
891.488	19008
891.611	18840
891.734	18787
891.857	18825
891.98	18833
892.103	18852
892.226	18700
892.349	18722
892.471	18547
892.594	18620
892.717	18650
892.839	18544
892.962	18582
893.085	18589
893.207	18460
893.33	18323
893.452	18292
893.575	18521
893.697	18350
893.819	18490
893.941	18410
894.064	18380
894.186	18300
894.308	18030
894.43	18213
894.552	18346
894.674	18224
894.796	18129
894.918	18194
895.04	18072
895.161	18144
895.283	17992
895.405	18140
895.526	18083
895.648	18019
895.769	18057
895.891	18095
896.012	18129
896.134	18140
896.255	17935
896.376	17923
896.498	18091
896.619	18053
896.74	18011
896.861	18163
896.982	18357
897.103	18369
897.224	18224
897.345	18140
897.466	18133
897.587	18194
897.708	18361
897.828	18171
897.949	18171
898.07	18060
898.19	18133
898.311	18178
898.431	18220
898.552	18270
898.672	18289
898.792	18270
898.913	18186
899.033	18136
899.153	17988
899.273	17840
899.393	17916
899.513	17988
899.633	17965
899.753	17996
899.873	17847
899.993	17980
900.113	17931
900.232	17958
900.352	17916
900.472	17870
900.591	17729
900.711	17889
900.83	17748
900.95	17729
901.069	17851
901.189	17722
901.308	17360
901.427	17376
901.546	17334
901.665	17379
901.784	17269
901.904	17197
902.023	17018
902.141	16889
902.26	16873
902.379	16919
902.498	16824
902.617	16740
902.735	16752
902.854	16702
902.973	16630
903.091	16459
903.21	16390
903.328	16398
903.446	16352
903.565	16226
903.683	16230
903.801	16036
903.919	16109
904.038	16101
904.156	15953
904.274	16093
904.392	15994
904.51	15949
904.627	15846
904.745	16074
904.863	15930
904.981	15705
905.098	15519
905.216	15603
905.334	15637
905.451	15603
905.569	15526
905.686	15538
905.803	15614
905.921	15447
906.038	15500
906.155	15401
906.272	15237
906.389	15370
906.506	15142
906.623	15036
906.74	15024
906.857	15005
906.974	15013
907.091	15207
907.208	15173
907.324	15138
907.441	15043
907.557	14834
907.674	14830
907.79	14735
907.907	14663
908.023	14777
908.139	14853
908.256	14678
908.372	14697
908.488	14625
908.604	14549
908.72	14518
908.836	14457
908.952	14560
909.068	14629
909.184	14636
909.3	14419
909.415	14602
909.531	14495
909.647	14290
909.762	14317
909.878	14256
909.993	14259
910.108	14263
910.224	14229
910.339	14343
910.454	14043
910.57	14119
910.685	14119
910.8	14301
910.915	14267
911.03	13997
911.145	13898
911.259	13955
911.374	13970
911.489	13887
911.604	13712
911.718	13712
911.833	13632
911.947	13525
912.062	13483
912.176	13639
912.291	13681
912.405	13567
912.519	13776
912.633	13818
912.748	13769
912.862	13655
912.976	13582
913.09	13403
913.204	13396
913.318	13449
913.431	13601
913.545	13594
913.659	13628
913.772	13491
913.886	13362
914	13362
914.113	13525
914.226	13392
914.34	13396
914.453	13232
914.566	13438
914.68	13308
914.793	13228
914.906	13080
915.019	13000
915.132	12985
915.245	13031
915.358	13053
915.47	13088
915.583	13065
915.696	13103
915.809	13088
915.921	13149
916.034	12962
916.146	13015
916.259	13031
916.371	13088
916.483	13095
916.595	13008
916.708	13061
916.82	12935
916.932	12871
917.044	12951
917.156	12939
917.268	12825
917.38	12806
917.491	12867
917.603	12844
917.715	12859
917.826	12894
917.938	12814
918.049	12631
918.161	12772
918.272	12783
918.384	12859
918.495	12711
918.606	12555
918.717	12410
918.828	12620
918.939	12555
919.05	12525
919.161	12498
919.272	12365
919.383	12384
919.494	12642
919.604	12703
919.715	12608
919.826	12388
919.936	12525
920.047	12559
920.157	12525
920.267	12684
920.378	12635
920.488	12528
920.598	12665
920.708	12837
920.818	12623
920.928	12601
921.038	12814
921.148	12757
921.258	12589
921.368	12330
921.477	12350
921.587	12254
921.697	12125
921.806	12300
921.916	12136
922.025	12011
922.134	11893
922.244	11973
922.353	12049
922.462	11760
922.571	11722
922.68	11581
922.789	11535
922.898	11592
923.007	11551
923.116	11577
923.224	11596
923.333	11554
923.442	11520
923.55	11410
923.659	11421
923.767	11482
923.876	11490
923.984	11493
924.092	11311
924.201	11433
924.309	11356
924.417	11486
924.525	11341
924.633	11349
924.741	12243
924.849	11109
924.956	11360
925.064	11159
925.172	11121
925.279	11147
925.387	11155
925.494	11204
925.602	11239
925.709	11143
925.816	11071
925.924	11113
926.031	11136
926.138	11140
926.245	11117
926.352	10999
926.459	11090
926.566	11235
926.673	11033
926.779	10885
926.886	10843
926.993	10809
927.099	10694
927.206	10706
927.312	10675
927.419	10820
927.525	10786
927.631	10820
927.737	10618
927.843	10523
927.95	10538
928.056	10554
928.162	10637
928.267	10599
928.373	11166
928.479	10736
928.585	10508
928.69	10592
928.796	10561
928.901	10516
929.007	10398
929.112	10500
929.218	10493
929.323	10424
929.428	10459
929.533	10455
929.638	10360
929.743	10470
929.848	10360
929.953	10386
930.058	10280
930.163	10059
930.267	10147
930.372	10230
930.477	10082
930.581	10291
930.685	10147
930.79	10006
930.894	10063
930.998	10002
931.103	10139
931.207	9808
931.311	9819
931.415	9637
931.519	9488
931.623	9435
