Data from test_V78500241_3586.txt Node
Date: Fri Mar 25 14:58:41 CST 2022
User: usil
Spectrometer: V785-0024
Trigger mode: 0
Integration Time (sec): 4.000000E-1
Scans to average: 1
Nonlinearity correction enabled: false
Boxcar width: 0
Storing dark spectrum: false
XAxis mode: Wavelengths
Number of Pixels in Spectrum: 1024
>>>>>Begin Spectral Data<<<<<
801.071	21903
801.214	21846
801.356	21504
801.499	21348
801.641	21272
801.783	21291
801.926	21332
802.068	21310
802.211	21226
802.353	21058
802.496	20826
802.638	20758
802.78	20750
802.923	20636
803.065	20564
803.208	20442
803.35	20583
803.492	20644
803.635	20769
803.777	20507
803.919	20598
804.061	20899
804.204	20613
804.346	20579
804.488	20465
804.63	20617
804.773	20351
804.915	20560
805.057	20480
805.199	20476
805.341	20629
805.483	20571
805.626	20579
805.768	20370
805.91	20419
806.052	20495
806.194	20385
806.336	20549
806.478	20480
806.62	20351
806.762	20533
806.904	20674
807.046	20853
807.188	20796
807.33	20762
807.472	20834
807.614	20701
807.756	20678
807.898	20598
808.04	20549
808.182	20507
808.324	20541
808.465	20625
808.607	20762
808.749	20708
808.891	20807
809.033	20925
809.174	20883
809.316	20739
809.458	20689
809.6	20785
809.741	20937
809.883	20845
810.025	21036
810.166	20925
810.308	20963
810.45	20906
810.591	20914
810.733	20602
810.875	20705
811.016	20545
811.158	20511
811.299	20632
811.441	20823
811.582	20674
811.724	20613
811.865	20556
812.007	20621
812.148	20537
812.29	20648
812.431	20697
812.573	20906
812.714	21039
812.855	21085
812.997	21264
813.138	21348
813.279	21195
813.421	21074
813.562	21009
813.703	20864
813.845	20762
813.986	20537
814.127	20305
814.268	20199
814.41	20168
814.551	20164
814.692	20218
814.833	20172
814.974	20081
815.115	20145
815.256	20046
815.397	19974
815.539	19883
815.68	19947
815.821	19681
815.962	19833
816.103	19795
816.244	19666
816.385	19586
816.526	19689
816.666	19426
816.807	19308
816.948	19419
817.089	19365
817.23	19320
817.371	19198
817.512	19137
817.653	19259
817.793	19114
817.934	19198
818.075	19362
818.216	19255
818.356	19266
818.497	19038
818.638	18905
818.778	18966
818.919	18875
819.06	19088
819.2	19042
819.341	19255
819.481	19152
819.622	19244
819.762	19388
819.903	19381
820.043	19373
820.184	19293
820.324	19202
820.465	19312
820.605	19365
820.746	19255
820.886	19118
821.026	19316
821.167	19141
821.307	19289
821.447	19133
821.588	19168
821.728	18996
821.868	18776
822.008	18753
822.149	18688
822.289	18593
822.429	18315
822.569	18330
822.709	18292
822.849	18136
822.99	18197
823.13	18091
823.27	18114
823.41	17984
823.55	17950
823.69	18053
823.83	17988
823.97	17927
824.11	17646
824.25	17653
824.389	17630
824.529	17687
824.669	17676
824.809	17817
824.949	17855
825.089	17741
825.228	17748
825.368	17493
825.508	17524
825.648	17440
825.787	17657
825.927	17596
826.067	17471
826.206	17379
826.346	17573
826.485	17497
826.625	17406
826.765	17528
826.904	17570
827.044	17322
827.183	17212
827.323	17193
827.462	17318
827.601	17246
827.741	17147
827.88	17128
828.02	17067
828.159	17197
828.298	17299
828.437	17242
828.577	17254
828.716	17284
828.855	17140
828.994	16957
829.134	16904
829.273	17083
829.412	16927
829.551	16904
829.69	16942
829.829	16984
829.968	17185
830.107	17056
830.246	17006
830.385	16953
830.524	16858
830.663	16820
830.802	16691
830.941	16577
831.08	16607
831.219	16664
831.357	16672
831.496	16774
831.635	16542
831.774	16561
831.913	16542
832.051	16478
832.19	16344
832.329	16421
832.467	16295
832.606	16169
832.744	16310
832.883	16299
833.022	16287
833.16	16287
833.299	16287
833.437	16360
833.576	16329
833.714	16246
833.852	16291
833.991	16409
834.129	16436
834.267	16318
834.406	16398
834.544	16451
834.682	16394
834.821	16303
834.959	16493
835.097	16261
835.235	16440
835.373	16478
835.511	16367
835.65	16291
835.788	16265
835.926	16097
836.064	16074
836.202	16143
836.34	16318
836.478	16413
836.615	16291
836.753	16261
836.891	16249
837.029	16139
837.167	16246
837.305	16120
837.443	16181
837.58	16055
837.718	16135
837.856	16162
837.993	16192
838.131	16242
838.269	16071
838.406	16135
838.544	16017
838.681	15934
838.819	15774
838.956	15572
839.094	15762
839.231	15770
839.369	15762
839.506	16071
839.643	16143
839.781	15701
839.918	15625
840.055	15743
840.193	15827
840.33	15713
840.467	15633
840.604	15679
840.742	16006
840.879	15595
841.016	15698
841.153	15549
841.29	15819
841.427	15781
841.564	15709
841.701	15755
841.838	15660
841.975	15599
842.112	15614
842.249	15523
842.385	15435
842.522	15747
842.659	15549
842.796	15458
842.933	15450
843.069	15492
843.206	15431
843.343	15435
843.479	15488
843.616	15477
843.752	15279
843.889	15256
844.025	15500
844.162	15279
844.298	15306
844.435	15203
844.571	15112
844.708	15344
844.844	15458
844.98	15447
845.117	15344
845.253	15298
845.389	15161
845.525	15173
845.661	15237
845.798	15112
845.934	15089
846.07	14921
846.206	15131
846.342	15138
846.478	15074
846.614	14899
846.75	14845
846.886	14834
847.022	14948
847.158	14918
847.294	14880
847.429	14933
847.565	14796
847.701	15055
847.837	14587
847.972	14541
848.108	14640
848.244	14651
848.379	14552
848.515	14552
848.65	14461
848.786	14389
848.921	14465
849.057	14552
849.192	14484
849.328	14393
849.463	14469
849.598	14294
849.734	14248
849.869	14408
850.004	14278
850.14	14328
850.275	14145
850.41	14138
850.545	14092
850.68	14145
850.815	14164
850.95	14123
851.085	14366
851.22	14294
851.355	14267
851.49	14183
851.625	14134
851.76	14164
851.895	14111
852.03	14130
852.165	14229
852.299	14199
852.434	14309
852.569	14252
852.703	14221
852.838	14317
852.973	14347
853.107	14317
853.242	14123
853.376	14073
853.511	13868
853.645	14012
853.78	14206
853.914	14191
854.048	14195
854.183	14081
854.317	14126
854.451	14176
854.585	14035
854.72	13993
854.854	14202
854.988	13951
855.122	14153
855.256	14016
855.39	14043
855.524	14123
855.658	14115
855.792	14142
855.926	14096
856.06	14142
856.194	14107
856.327	14054
856.461	14130
856.595	14046
856.729	14081
856.862	14103
856.996	14233
857.13	14153
857.263	14153
857.397	14195
857.53	14096
857.664	14145
857.797	14157
857.931	14278
858.064	14084
858.197	14161
858.331	14153
858.464	13978
858.597	14027
858.731	14081
858.864	14130
858.997	14073
859.13	14050
859.263	14248
859.396	14115
859.529	14115
859.662	14005
859.795	14088
859.928	14138
860.061	14202
860.194	14259
860.327	14100
860.46	14073
860.592	14107
860.725	14298
860.858	14214
860.99	14092
861.123	14043
861.256	14077
861.388	14020
861.521	14880
861.653	14035
861.786	13879
861.918	13917
862.05	13909
862.183	13959
862.315	14092
862.447	14111
862.58	13967
862.712	13883
862.844	13864
862.976	13894
863.108	13906
863.24	14183
863.372	13795
863.504	13913
863.636	13860
863.768	13917
863.9	13906
864.032	13856
864.164	13814
864.296	13982
864.428	13986
864.559	13871
864.691	14027
864.823	13868
864.954	13845
865.086	13944
865.217	13875
865.349	13776
865.48	13795
865.612	13898
865.743	13913
865.875	13906
866.006	13845
866.137	13917
866.269	13803
866.4	13917
866.531	13738
866.662	13772
866.793	13742
866.924	13818
867.055	13879
867.186	13814
867.317	13807
867.448	13780
867.579	13849
867.71	13795
867.841	13776
867.972	13818
868.103	13803
868.233	13811
868.364	13795
868.495	13959
868.625	14210
868.756	14202
868.886	13947
869.017	14107
869.147	14240
869.278	14168
869.408	14138
869.539	14149
869.669	14157
869.799	14111
869.929	14309
870.06	14256
870.19	14343
870.32	14355
870.45	14514
870.58	14545
870.71	14545
870.84	14682
870.97	14415
871.1	14518
871.23	14629
871.36	14712
871.489	14598
871.619	14743
871.749	14655
871.879	14830
872.008	14830
872.138	14750
872.267	14746
872.397	14564
872.526	14518
872.656	14602
872.785	14537
872.915	14670
873.044	14754
873.173	14754
873.303	14842
873.432	14899
873.561	14906
873.69	14826
873.819	14845
873.948	14788
874.077	14743
874.206	14785
874.335	14815
874.464	14998
874.593	14982
874.722	15039
874.851	15169
874.979	15142
875.108	15157
875.237	15077
875.365	15001
875.494	15032
875.623	15173
875.751	15017
875.88	15154
876.008	15359
876.136	15294
876.265	15534
876.393	15747
876.521	15564
876.65	15584
876.778	15424
876.906	15382
877.034	15443
877.162	15488
877.29	15435
877.418	15447
877.546	15500
877.674	15454
877.802	15481
877.93	15564
878.058	15428
878.185	15317
878.313	15511
878.441	15580
878.568	15351
878.696	15363
878.824	15625
878.951	15743
879.079	15724
879.206	15865
879.333	15644
879.461	15591
879.588	15534
879.715	15633
879.842	15823
879.97	15526
880.097	15268
880.224	15382
880.351	15420
880.478	15447
880.605	15382
880.732	15393
880.859	15428
880.986	15355
881.112	15370
881.239	15302
881.366	15097
881.493	15089
881.619	15009
881.746	15051
881.872	15020
881.999	15024
882.125	14952
882.252	15081
882.378	15066
882.505	15161
882.631	14918
882.757	14861
882.883	14902
883.01	14785
883.136	14819
883.262	14701
883.388	14705
883.514	14891
883.64	14826
883.766	14720
883.892	14670
884.018	14781
884.143	14739
884.269	14937
884.395	14530
884.52	14571
884.646	14511
884.772	14518
884.897	14393
885.023	14552
885.148	14568
885.274	14739
885.399	14606
885.524	14560
885.65	14594
885.775	14636
885.9	14511
886.025	14750
886.15	14503
886.275	14507
886.4	14431
886.525	14492
886.65	14473
886.775	14454
886.9	14655
887.025	14682
887.149	14579
887.274	14328
887.399	14298
887.523	14282
887.648	14278
887.773	14286
887.897	14438
888.021	14431
888.146	14347
888.27	14488
888.395	14530
888.519	14366
888.643	14457
888.767	14469
888.891	14286
889.015	14119
889.139	14286
889.263	14301
889.387	14339
889.511	14465
889.635	14366
889.759	14202
889.883	14248
890.006	14286
890.13	14362
890.254	14191
890.377	14202
890.501	14123
890.624	13963
890.748	14065
890.871	13932
890.995	13860
891.118	13807
891.241	13925
891.364	13955
891.488	14005
891.611	13818
891.734	13963
891.857	13970
891.98	13974
892.103	14012
892.226	13947
892.349	13986
892.471	13791
892.594	13909
892.717	13883
892.839	13883
892.962	13898
893.085	14043
893.207	13947
893.33	13894
893.452	13883
893.575	13997
893.697	13864
893.819	14107
893.941	14145
894.064	14027
894.186	13989
894.308	13951
894.43	14084
894.552	14119
894.674	14081
894.796	13894
894.918	13982
895.04	14073
895.161	14077
895.283	13982
895.405	14039
895.526	14039
895.648	14016
895.769	14145
895.891	14130
896.012	14221
896.134	14119
896.255	14145
896.376	14103
896.498	14115
896.619	14142
896.74	14035
896.861	14157
896.982	14450
897.103	14537
897.224	14362
897.345	14434
897.466	14313
897.587	14328
897.708	14393
897.828	14415
897.949	14362
898.07	14256
898.19	14393
898.311	14568
898.431	14343
898.552	14442
898.672	14526
898.792	14667
898.913	14571
899.033	14366
899.153	14229
899.273	14275
899.393	14252
899.513	14385
899.633	14180
899.753	14237
899.873	14324
899.993	14446
900.113	14275
900.232	14370
900.352	14237
900.472	14172
900.591	14176
900.711	14126
900.83	14130
900.95	14259
901.069	14191
901.189	14084
901.308	13940
901.427	13852
901.546	13833
901.665	13932
901.784	13799
901.904	13757
902.023	13704
902.141	13502
902.26	13403
902.379	13445
902.498	13400
902.617	13304
902.735	13400
902.854	13419
902.973	13373
903.091	13122
903.21	13244
903.328	13141
903.446	13004
903.565	13012
903.683	13000
903.801	12977
903.919	13038
904.038	12970
904.156	12821
904.274	12840
904.392	12848
904.51	12795
904.627	12783
904.745	12935
904.863	12795
904.981	12623
905.098	12532
905.216	12551
905.334	12566
905.451	12582
905.569	12471
905.686	12597
905.803	12483
905.921	12353
906.038	12464
906.155	12372
906.272	12209
906.389	12273
906.506	12060
906.623	12102
906.74	12178
906.857	12011
906.974	12030
907.091	12060
907.208	12197
907.324	12171
907.441	12087
907.557	11908
907.674	11897
907.79	11851
907.907	11805
908.023	11866
908.139	11950
908.256	11828
908.372	11783
908.488	11767
908.604	11665
908.72	11570
908.836	11680
908.952	11630
909.068	11688
909.184	11726
909.3	11611
909.415	11680
909.531	11581
909.647	11474
909.762	11391
909.878	11326
909.993	11417
910.108	11307
910.224	11307
910.339	11429
910.454	11353
910.57	11242
910.685	11136
910.8	11535
910.915	11471
911.03	11235
911.145	11143
911.259	11113
911.374	11071
911.489	10953
911.604	10942
911.718	10923
911.833	10850
911.947	10702
912.062	10649
912.176	10843
912.291	10911
912.405	10927
912.519	11033
912.633	11143
912.748	10923
912.862	10873
912.976	10801
913.09	10599
913.204	10698
913.318	10717
913.431	10740
913.545	10850
913.659	10828
913.772	10771
913.886	10618
914	10569
914.113	10782
914.226	10793
914.34	10736
914.453	10622
914.566	10744
914.68	10584
914.793	10580
914.906	10402
915.019	10367
915.132	10291
915.245	10363
915.358	10405
915.47	10394
915.583	10333
915.696	10497
915.809	10497
915.921	10447
916.034	10306
916.146	10303
916.259	10287
916.371	10489
916.483	10497
916.595	10181
916.708	10246
916.82	10291
916.932	10268
917.044	10249
917.156	10363
917.268	10234
917.38	10166
917.491	10124
917.603	10234
917.715	10329
917.826	10261
917.938	10242
918.049	10082
918.161	10169
918.272	10402
918.384	10306
918.495	10257
918.606	10090
918.717	10067
918.828	10120
918.939	10147
919.05	10002
919.161	10082
919.272	9941
919.383	9922
919.494	10090
919.604	10284
919.715	10082
919.826	9972
919.936	10036
920.047	10185
920.157	10055
920.267	10284
920.378	10120
920.488	10162
920.598	10280
920.708	10398
920.818	10246
920.928	10284
921.038	10443
921.148	10409
921.258	10139
921.368	10044
921.477	10006
921.587	9941
921.697	9876
921.806	9964
921.916	9888
922.025	9717
922.134	9584
922.244	9641
922.353	9690
922.462	9591
922.571	9534
922.68	9382
922.789	9336
922.898	9412
923.007	9245
923.116	9473
923.224	9313
923.333	9378
923.442	9241
923.55	9313
923.659	9237
923.767	9291
923.876	9264
923.984	9382
924.092	9180
924.201	9264
924.309	9279
924.417	9291
924.525	9237
924.633	9230
924.741	9994
924.849	9047
924.956	9157
925.064	8994
925.172	8948
925.279	9081
925.387	9013
925.494	9077
925.602	9184
925.709	9116
925.816	9032
925.924	8998
926.031	9127
926.138	9055
926.245	9051
926.352	8982
926.459	9081
926.566	9119
926.673	9077
926.779	8929
926.886	8899
926.993	8724
927.099	8834
927.206	8693
927.312	8708
927.419	8777
927.525	8788
927.631	8811
927.737	8629
927.843	8678
927.95	8511
928.056	8602
928.162	8644
928.267	8697
928.373	9165
928.479	8811
928.585	8461
928.69	8693
928.796	8632
928.901	8507
929.007	8442
929.112	8533
929.218	8507
929.323	8507
929.428	8511
929.533	8629
929.638	8446
929.743	8385
929.848	8469
929.953	8488
930.058	8358
930.163	8218
930.267	8256
930.372	8343
930.477	8298
930.581	8465
930.685	8400
930.79	8168
930.894	8191
930.998	8153
931.103	8336
931.207	7986
931.311	7868
931.415	7837
931.519	7677
931.623	7689
