Data from test_V78500241_2261.txt Node
Date: Fri Mar 25 14:49:27 CST 2022
User: usil
Spectrometer: V785-0024
Trigger mode: 0
Integration Time (sec): 4.000000E-1
Scans to average: 1
Nonlinearity correction enabled: false
Boxcar width: 0
Storing dark spectrum: false
XAxis mode: Wavelengths
Number of Pixels in Spectrum: 1024
>>>>>Begin Spectral Data<<<<<
801.071	22230
801.214	22055
801.356	21816
801.499	21728
801.641	21485
801.783	21542
801.926	21629
802.068	21450
802.211	21389
802.353	21424
802.496	21184
802.638	21142
802.78	20933
802.923	20986
803.065	20921
803.208	20944
803.35	20864
803.492	20952
803.635	21146
803.777	20925
803.919	20819
804.061	21195
804.204	20914
804.346	20857
804.488	20842
804.63	20811
804.773	20788
804.915	20674
805.057	20807
805.199	20743
805.341	20834
805.483	21017
805.626	20910
805.768	20731
805.91	20876
806.052	20899
806.194	20834
806.336	20804
806.478	20777
806.62	20750
806.762	20868
806.904	20921
807.046	21211
807.188	21252
807.33	21127
807.472	21211
807.614	21108
807.756	21119
807.898	20986
808.04	20853
808.182	20823
808.324	20925
808.465	21001
808.607	21032
808.749	21138
808.891	21302
809.033	21462
809.174	21173
809.316	21138
809.458	21180
809.6	21268
809.741	21367
809.883	21142
810.025	21466
810.166	21302
810.308	21355
810.45	21241
810.591	21192
810.733	21051
810.875	21055
811.016	20861
811.158	20921
811.299	20925
811.441	21013
811.582	21123
811.724	21089
811.865	20982
812.007	20925
812.148	20967
812.29	20948
812.431	21192
812.573	21211
812.714	21393
812.855	21447
812.997	21591
813.138	21625
813.279	21519
813.421	21435
813.562	21378
813.703	21176
813.845	21199
813.986	20838
814.127	20655
814.268	20625
814.41	20579
814.551	20495
814.692	20613
814.833	20438
814.974	20476
815.115	20583
815.256	20434
815.397	20301
815.539	20434
815.68	20278
815.821	20248
815.962	20267
816.103	20237
816.244	20054
816.385	20024
816.526	20035
816.666	19761
816.807	19674
816.948	19727
817.089	19712
817.23	19788
817.371	19571
817.512	19693
817.653	19597
817.793	19616
817.934	19632
818.075	19704
818.216	19616
818.356	19597
818.497	19533
818.638	19263
818.778	19346
818.919	19327
819.06	19411
819.2	19499
819.341	19567
819.481	19651
819.622	19772
819.762	19837
819.903	19696
820.043	19753
820.184	19677
820.324	19696
820.465	19647
820.605	19613
820.746	19556
820.886	19483
821.026	19575
821.167	19605
821.307	19799
821.447	19525
821.588	19582
821.728	19251
821.868	19217
822.008	19027
822.149	19042
822.289	18943
822.429	18798
822.569	18711
822.709	18764
822.849	18540
822.99	18513
823.13	18391
823.27	18551
823.41	18369
823.55	18254
823.69	18289
823.83	18441
823.97	18262
824.11	18049
824.25	18144
824.389	18022
824.529	18144
824.669	18102
824.809	18144
824.949	18140
825.089	18159
825.228	18003
825.368	17893
825.508	17821
825.648	17897
825.787	17980
825.927	17946
826.067	17828
826.206	17832
826.346	17805
826.485	17851
826.625	17908
826.765	17908
826.904	17927
827.044	17619
827.183	17642
827.323	17497
827.462	17547
827.601	17585
827.741	17611
827.88	17642
828.02	17436
828.159	17516
828.298	17539
828.437	17672
828.577	17482
828.716	17665
828.855	17528
828.994	17334
829.134	17296
829.273	17250
829.412	17193
829.551	17269
829.69	17292
829.829	17383
829.968	17334
830.107	17269
830.246	17277
830.385	17079
830.524	17216
830.663	17143
830.802	17045
830.941	16908
831.08	16869
831.219	16995
831.357	17018
831.496	17086
831.635	16862
831.774	16744
831.913	16778
832.051	16683
832.19	16824
832.329	16797
832.467	16588
832.606	16584
832.744	16508
832.883	16588
833.022	16538
833.16	16558
833.299	16641
833.437	16618
833.576	16687
833.714	16675
833.852	16687
833.991	16717
834.129	16771
834.267	16683
834.406	16531
834.544	16694
834.682	16611
834.821	16649
834.959	16828
835.097	16584
835.235	16736
835.373	16698
835.511	16523
835.65	16500
835.788	16512
835.926	16474
836.064	16303
836.202	16394
836.34	16535
836.478	16626
836.615	16527
836.753	16474
836.891	16588
837.029	16542
837.167	16459
837.305	16371
837.443	16504
837.58	16318
837.718	16451
837.856	16363
837.993	16291
838.131	16462
838.269	16265
838.406	16299
838.544	16329
838.681	16204
838.819	16006
838.956	15953
839.094	15918
839.231	16059
839.369	16078
839.506	16291
839.643	16192
839.781	15987
839.918	15854
840.055	15926
840.193	15994
840.33	15888
840.467	15808
840.604	16025
840.742	16067
840.879	15857
841.016	15945
841.153	15774
841.29	16029
841.427	16044
841.564	16025
841.701	15945
841.838	15850
841.975	15835
842.112	15922
842.249	15778
842.385	15682
842.522	15842
842.659	15736
842.796	15633
842.933	15831
843.069	15644
843.206	15701
843.343	15808
843.479	15713
843.616	15698
843.752	15561
843.889	15511
844.025	15606
844.162	15481
844.298	15637
844.435	15542
844.571	15454
844.708	15443
844.844	15690
844.98	15694
845.117	15629
845.253	15405
845.389	15317
845.525	15382
845.661	15469
845.798	15226
845.934	15412
846.07	15325
846.206	15287
846.342	15469
846.478	15340
846.614	15119
846.75	14979
846.886	15047
847.022	15165
847.158	15116
847.294	14990
847.429	15055
847.565	14998
847.701	15325
847.837	14918
847.972	14769
848.108	14895
848.244	14899
848.379	14682
848.515	14583
848.65	14549
848.786	14667
848.921	14773
849.057	14807
849.192	14796
849.328	14705
849.463	14602
849.598	14663
849.734	14587
849.869	14560
850.004	14541
850.14	14358
850.275	14484
850.41	14324
850.545	14412
850.68	14450
850.815	14469
850.95	14427
851.085	14617
851.22	14522
851.355	14473
851.49	14377
851.625	14442
851.76	14450
851.895	14336
852.03	14442
852.165	14377
852.299	14473
852.434	14594
852.569	14438
852.703	14476
852.838	14412
852.973	14598
853.107	14590
853.242	14537
853.376	14275
853.511	14214
853.645	14252
853.78	14389
853.914	14415
854.048	14290
854.183	14336
854.317	14374
854.451	14537
854.585	14358
854.72	14259
854.854	14408
854.988	14183
855.122	14267
855.256	14157
855.39	14358
855.524	14457
855.658	14366
855.792	14355
855.926	14298
856.06	14393
856.194	14400
856.327	14229
856.461	14161
856.595	14191
856.729	14240
856.862	14358
856.996	14415
857.13	14404
857.263	14480
857.397	14381
857.53	14290
857.664	14408
857.797	14408
857.931	14465
858.064	14343
858.197	14454
858.331	14317
858.464	14225
858.597	14267
858.731	14237
858.864	14267
858.997	14336
859.13	14309
859.263	14305
859.396	14355
859.529	14301
859.662	14267
859.795	14221
859.928	14252
860.061	14533
860.194	14404
860.327	14290
860.46	14324
860.592	14412
860.725	14507
860.858	14450
860.99	14320
861.123	14218
861.256	14218
861.388	14339
861.521	14895
861.653	14130
861.786	14081
861.918	14191
862.05	14134
862.183	14309
862.315	14237
862.447	14355
862.58	14202
862.712	14069
862.844	14008
862.976	14248
863.108	14081
863.24	14339
863.372	14043
863.504	14024
863.636	14031
863.768	14084
863.9	14043
864.032	14088
864.164	14103
864.296	14073
864.428	14183
864.559	14202
864.691	14240
864.823	14046
864.954	14058
865.086	14088
865.217	14073
865.349	14016
865.48	14123
865.612	14107
865.743	14221
865.875	14039
866.006	14130
866.137	13989
866.269	14126
866.4	14031
866.531	13947
866.662	13936
866.793	14020
866.924	14005
867.055	14134
867.186	14046
867.317	14058
867.448	13860
867.579	14054
867.71	14027
867.841	14062
867.972	14027
868.103	14119
868.233	14039
868.364	14107
868.495	14145
868.625	14263
868.756	14454
868.886	14317
869.017	14339
869.147	14442
869.278	14450
869.408	14336
869.539	14343
869.669	14336
869.799	14385
869.929	14545
870.06	14514
870.19	14629
870.32	14613
870.45	14541
870.58	14750
870.71	14826
870.84	14750
870.97	14693
871.1	14636
871.23	14956
871.36	14864
871.489	14792
871.619	14838
871.749	14887
871.879	14933
872.008	15013
872.138	15001
872.267	14845
872.397	14785
872.526	14743
872.656	14686
872.785	14887
872.915	14876
873.044	15051
873.173	14853
873.303	14899
873.432	14941
873.561	15028
873.69	14948
873.819	14918
873.948	15116
874.077	14941
874.206	14899
874.335	14925
874.464	15058
874.593	15291
874.722	15123
874.851	15351
874.979	15336
875.108	15241
875.237	15272
875.365	15218
875.494	15188
875.623	15351
875.751	15260
875.88	15306
876.008	15424
876.136	15420
876.265	15755
876.393	15819
876.521	15759
876.65	15667
876.778	15709
876.906	15656
877.034	15698
877.162	15667
877.29	15656
877.418	15694
877.546	15705
877.674	15671
877.802	15690
877.93	15755
878.058	15637
878.185	15564
878.313	15629
878.441	15679
878.568	15447
878.696	15644
878.824	15667
878.951	15800
879.079	15861
879.206	15945
879.333	15846
879.461	15713
879.588	15778
879.715	15804
879.842	15880
879.97	15720
880.097	15526
880.224	15450
880.351	15496
880.478	15530
880.605	15469
880.732	15481
880.859	15789
880.986	15519
881.112	15492
881.239	15355
881.366	15245
881.493	15192
881.619	15173
881.746	15195
881.872	15161
881.999	15188
882.125	15161
882.252	15207
882.378	15211
882.505	15306
882.631	15150
882.757	14982
882.883	15089
883.01	15028
883.136	14971
883.262	14941
883.388	14918
883.514	15036
883.64	15047
883.766	14986
883.892	14743
884.018	14800
884.143	14982
884.269	15142
884.395	14724
884.52	14667
884.646	14716
884.772	14571
884.897	14594
885.023	14670
885.148	14788
885.274	14754
885.399	14754
885.524	14743
885.65	14689
885.775	14716
885.9	14686
886.025	14819
886.15	14777
886.275	14701
886.4	14545
886.525	14731
886.65	14606
886.775	14514
886.9	14887
887.025	14979
887.149	14727
887.274	14484
887.399	14473
887.523	14533
887.648	14488
887.773	14423
887.897	14537
888.021	14533
888.146	14541
888.27	14545
888.395	14823
888.519	14560
888.643	14606
888.767	14632
888.891	14404
889.015	14457
889.139	14389
889.263	14305
889.387	14499
889.511	14522
889.635	14564
889.759	14404
889.883	14362
890.006	14385
890.13	14457
890.254	14256
890.377	14370
890.501	14263
890.624	14214
890.748	14206
890.871	14202
890.995	14024
891.118	14088
891.241	14092
891.364	14103
891.488	14123
891.611	14084
891.734	14176
891.857	14149
891.98	14077
892.103	14195
892.226	14157
892.349	14092
892.471	14027
892.594	14111
892.717	14008
892.839	14054
892.962	14035
893.085	14103
893.207	14001
893.33	14016
893.452	13997
893.575	14096
893.697	14107
893.819	14214
893.941	14271
894.064	14339
894.186	14058
894.308	14088
894.43	14248
894.552	14256
894.674	14286
894.796	14103
894.918	14092
895.04	14077
895.161	14153
895.283	14248
895.405	14115
895.526	14180
895.648	14225
895.769	14275
895.891	14229
896.012	14324
896.134	14214
896.255	14218
896.376	14282
896.498	14355
896.619	14355
896.74	14271
896.861	14298
896.982	14564
897.103	14800
897.224	14564
897.345	14575
897.466	14358
897.587	14476
897.708	14552
897.828	14629
897.949	14514
898.07	14415
898.19	14503
898.311	14602
898.431	14587
898.552	14682
898.672	14693
898.792	14625
898.913	14670
899.033	14526
899.153	14454
899.273	14389
899.393	14545
899.513	14488
899.633	14393
899.753	14457
899.873	14530
899.993	14552
900.113	14393
900.232	14492
900.352	14434
900.472	14419
900.591	14332
900.711	14495
900.83	14377
900.95	14507
901.069	14389
901.189	14259
901.308	14153
901.427	14012
901.546	14081
901.665	13974
901.784	14024
901.904	13932
902.023	13875
902.141	13772
902.26	13662
902.379	13651
902.498	13594
902.617	13563
902.735	13674
902.854	13677
902.973	13537
903.091	13304
903.21	13441
903.328	13282
903.446	13293
903.565	13190
903.683	13183
903.801	13080
903.919	13061
904.038	13183
904.156	13027
904.274	12985
904.392	12901
904.51	12924
904.627	13034
904.745	13015
904.863	13065
904.981	12817
905.098	12677
905.216	12665
905.334	12669
905.451	12677
905.569	12688
905.686	12703
905.803	12665
905.921	12460
906.038	12631
906.155	12566
906.272	12319
906.389	12395
906.506	12296
906.623	12251
906.74	12251
906.857	12205
906.974	12152
907.091	12315
907.208	12456
907.324	12216
907.441	12152
907.557	11969
907.674	11885
907.79	11942
907.907	11950
908.023	12019
908.139	12011
908.256	11954
908.372	11912
908.488	11904
908.604	11703
908.72	11775
908.836	11851
908.952	11760
909.068	11733
909.184	11821
909.3	11794
909.415	11874
909.531	11756
909.647	11532
909.762	11581
909.878	11532
909.993	11520
910.108	11509
910.224	11516
910.339	11562
910.454	11429
910.57	11395
910.685	11330
910.8	11634
910.915	11493
911.03	11406
911.145	11246
911.259	11204
911.374	11197
911.489	11181
911.604	11132
911.718	11048
911.833	10980
911.947	10991
912.062	10763
912.176	10984
912.291	11105
912.405	11071
912.519	11265
912.633	11220
912.748	11140
912.862	11132
912.976	10892
913.09	10714
913.204	10820
913.318	10892
913.431	10946
913.545	10980
913.659	11094
913.772	10835
913.886	10744
914	10729
914.113	10805
914.226	11006
914.34	10850
914.453	10744
914.566	10828
914.68	10740
914.793	10736
914.906	10607
915.019	10516
915.132	10466
915.245	10470
915.358	10577
915.47	10554
915.583	10558
915.696	10580
915.809	10603
915.921	10645
916.034	10481
916.146	10550
916.259	10424
916.371	10561
916.483	10527
916.595	10421
916.708	10405
916.82	10459
916.932	10508
917.044	10500
917.156	10413
917.268	10295
917.38	10390
917.491	10337
917.603	10356
917.715	10455
917.826	10516
917.938	10363
918.049	10306
918.161	10436
918.272	10478
918.384	10440
918.495	10413
918.606	10211
918.717	10162
918.828	10246
918.939	10261
919.05	10139
919.161	10200
919.272	10032
919.383	10093
919.494	10314
919.604	10451
919.715	10177
919.826	10177
919.936	10219
920.047	10405
920.157	10348
920.267	10413
920.378	10318
920.488	10253
920.598	10451
920.708	10656
920.818	10417
920.928	10424
921.038	10603
921.148	10615
921.258	10295
921.368	10204
921.477	10135
921.587	10055
921.697	10048
921.806	10059
921.916	10013
922.025	9816
922.134	9800
922.244	9717
922.353	9846
922.462	9713
922.571	9686
922.68	9595
922.789	9485
922.898	9576
923.007	9500
923.116	9587
923.224	9469
923.333	9454
923.442	9397
923.55	9344
923.659	9439
923.767	9405
923.876	9329
923.984	9466
924.092	9332
924.201	9458
924.309	9408
924.417	9367
924.525	9351
924.633	9272
924.741	10310
924.849	9085
924.956	9279
925.064	9165
925.172	9085
925.279	9165
925.387	9199
925.494	9203
925.602	9275
925.709	9214
925.816	9127
925.924	9135
926.031	9237
926.138	9195
926.245	9218
926.352	9097
926.459	9245
926.566	9169
926.673	9112
926.779	9039
926.886	9005
926.993	8899
927.099	8857
927.206	8925
927.312	8758
927.419	8883
927.525	8842
927.631	8910
927.737	8796
927.843	8826
927.95	8670
928.056	8693
928.162	8785
928.267	8777
928.373	9397
928.479	8902
928.585	8640
928.69	8754
928.796	8849
928.901	8670
929.007	8537
929.112	8686
929.218	8689
929.323	8644
929.428	8632
929.533	8724
929.638	8533
929.743	8590
929.848	8621
929.953	8629
930.058	8511
930.163	8339
930.267	8404
930.372	8503
930.477	8343
930.581	8518
930.685	8511
930.79	8347
930.894	8298
930.998	8305
931.103	8434
931.207	8096
931.311	8016
931.415	7944
931.519	7792
931.623	7856
