Data from test_V78500241_1016.txt Node
Date: Fri Mar 25 14:40:47 CST 2022
User: usil
Spectrometer: V785-0024
Trigger mode: 0
Integration Time (sec): 4.000000E-1
Scans to average: 1
Nonlinearity correction enabled: false
Boxcar width: 0
Storing dark spectrum: false
XAxis mode: Wavelengths
Number of Pixels in Spectrum: 1024
>>>>>Begin Spectral Data<<<<<
801.071	23056
801.214	22953
801.356	22656
801.499	22637
801.641	22455
801.783	22341
801.926	22386
802.068	22356
802.211	22284
802.353	22265
802.496	22017
802.638	21865
802.78	21865
802.923	21850
803.065	21781
803.208	21709
803.35	21876
803.492	21850
803.635	21964
803.777	21694
803.919	21766
804.061	22135
804.204	21949
804.346	21682
804.488	21701
804.63	21652
804.773	21557
804.915	21728
805.057	21865
805.199	21671
805.341	21747
805.483	21804
805.626	21915
805.768	21545
805.91	21865
806.052	21816
806.194	21534
806.336	21960
806.478	21739
806.62	21831
806.762	21854
806.904	21987
807.046	22200
807.188	22150
807.33	22166
807.472	22185
807.614	22226
807.756	22333
807.898	22116
808.04	22150
808.182	22341
808.324	22367
808.465	22592
808.607	22839
808.749	23052
808.891	23159
809.033	23261
809.174	23086
809.316	22835
809.458	22618
809.6	22584
809.741	22565
809.883	22462
810.025	22504
810.166	22637
810.308	22443
810.45	22386
810.591	22344
810.733	22253
810.875	22032
811.016	22006
811.158	21838
811.299	22032
811.441	22181
811.582	22086
811.724	21956
811.865	21888
812.007	21835
812.148	21964
812.29	21968
812.431	22120
812.573	22268
812.714	22402
812.855	22337
812.997	22596
813.138	22679
813.279	22478
813.421	22603
813.562	22261
813.703	22166
813.845	22173
813.986	21770
814.127	21717
814.268	21545
814.41	21587
814.551	21549
814.692	21511
814.833	21477
814.974	21466
815.115	21443
815.256	21275
815.397	21325
815.539	21291
815.68	21195
815.821	21188
815.962	21306
816.103	21279
816.244	21009
816.385	20899
816.526	20883
816.666	20667
816.807	20613
816.948	20579
817.089	20826
817.23	20773
817.371	20693
817.512	20545
817.653	20549
817.793	20552
817.934	20594
818.075	20693
818.216	20571
818.356	20568
818.497	20415
818.638	20237
818.778	20294
818.919	20339
819.06	20343
819.2	20393
819.341	20366
819.481	20461
819.622	20590
819.762	20792
819.903	20724
820.043	20587
820.184	20495
820.324	20602
820.465	20716
820.605	20499
820.746	20552
820.886	20339
821.026	20545
821.167	20522
821.307	20571
821.447	20480
821.588	20332
821.728	20259
821.868	20077
822.008	19917
822.149	20050
822.289	19894
822.429	19719
822.569	19609
822.709	19575
822.849	19495
822.99	19426
823.13	19362
823.27	19346
823.41	19194
823.55	19217
823.69	19228
823.83	19285
823.97	19225
824.11	19152
824.25	19053
824.389	19015
824.529	19225
824.669	19015
824.809	19148
824.949	19145
825.089	19080
825.228	19095
825.368	18798
825.508	18875
825.648	18928
825.787	18825
825.927	18916
826.067	18635
826.206	18886
826.346	18741
826.485	18863
826.625	18779
826.765	18859
826.904	18867
827.044	18623
827.183	18509
827.323	18570
827.462	18616
827.601	18608
827.741	18528
827.88	18540
828.02	18395
828.159	18540
828.298	18475
828.437	18650
828.577	18403
828.716	18517
828.855	18361
828.994	18262
829.134	18300
829.273	18216
829.412	18224
829.551	18224
829.69	18224
829.829	18285
829.968	18235
830.107	18243
830.246	18308
830.385	18178
830.524	18174
830.663	17977
830.802	17935
830.941	17813
831.08	17836
831.219	17904
831.357	17942
831.496	18091
831.635	17927
831.774	17722
831.913	17630
832.051	17608
832.19	17581
832.329	17684
832.467	17482
832.606	17535
832.744	17623
832.883	17532
833.022	17539
833.16	17570
833.299	17630
833.437	17619
833.576	17543
833.714	17687
833.852	17661
833.991	17649
834.129	17672
834.267	17661
834.406	17596
834.544	17638
834.682	17672
834.821	17570
834.959	17760
835.097	17672
835.235	17581
835.373	17630
835.511	17710
835.65	17433
835.788	17554
835.926	17383
836.064	17288
836.202	17337
836.34	17486
836.478	17558
836.615	17528
836.753	17554
836.891	17630
837.029	17589
837.167	17512
837.305	17391
837.443	17414
837.58	17277
837.718	17360
837.856	17372
837.993	17322
838.131	17356
838.269	17334
838.406	17265
838.544	17208
838.681	17094
838.819	17098
838.956	16831
839.094	16900
839.231	16896
839.369	17102
839.506	17242
839.643	17212
839.781	16786
839.918	16820
840.055	16862
840.193	16824
840.33	16839
840.467	16869
840.604	16892
840.742	17018
840.879	16786
841.016	16828
841.153	16759
841.29	16984
841.427	16919
841.564	16881
841.701	16866
841.838	16767
841.975	16618
842.112	16702
842.249	16599
842.385	16519
842.522	16820
842.659	16694
842.796	16611
842.933	16660
843.069	16565
843.206	16611
843.343	16702
843.479	16596
843.616	16679
843.752	16451
843.889	16466
844.025	16618
844.162	16394
844.298	16596
844.435	16394
844.571	16474
844.708	16447
844.844	16653
844.98	16645
845.117	16653
845.253	16478
845.389	16447
845.525	16713
845.661	16866
845.798	17098
845.934	17406
846.07	17395
846.206	17417
846.342	17288
846.478	16957
846.614	16500
846.75	16253
846.886	16074
847.022	16078
847.158	16029
847.294	16078
847.429	16116
847.565	15937
847.701	16226
847.837	15793
847.972	15717
848.108	15892
848.244	15804
848.379	15671
848.515	15622
848.65	15557
848.786	15572
848.921	15580
849.057	15724
849.192	15606
849.328	15580
849.463	15564
849.598	15500
849.734	15504
849.869	15515
850.004	15370
850.14	15336
850.275	15351
850.41	15298
850.545	15340
850.68	15302
850.815	15332
850.95	15294
851.085	15393
851.22	15325
851.355	15214
851.49	15306
851.625	15252
851.76	15268
851.895	15207
852.03	15233
852.165	15180
852.299	15306
852.434	15310
852.569	15408
852.703	15454
852.838	15405
852.973	15534
853.107	15466
853.242	15302
853.376	15211
853.511	15093
853.645	15214
853.78	15298
853.914	15188
854.048	15203
854.183	15180
854.317	15252
854.451	15439
854.585	15230
854.72	15161
854.854	15222
854.988	15032
855.122	15150
855.256	15062
855.39	15161
855.524	15222
855.658	15214
855.792	15195
855.926	15287
856.06	15226
856.194	15188
856.327	15211
856.461	15154
856.595	15218
856.729	15070
856.862	15176
856.996	15203
857.13	15344
857.263	15363
857.397	15283
857.53	15176
857.664	15188
857.797	15264
857.931	15237
858.064	15081
858.197	15336
858.331	15131
858.464	15142
858.597	15146
858.731	15058
858.864	15131
858.997	15119
859.13	15245
859.263	15165
859.396	15272
859.529	15055
859.662	15173
859.795	15070
859.928	15089
860.061	15302
860.194	15412
860.327	15108
860.46	15165
860.592	15313
860.725	15313
860.858	15340
860.99	15154
861.123	15081
861.256	15081
861.388	15142
861.521	15869
861.653	15081
861.786	14960
861.918	15032
862.05	15089
862.183	15108
862.315	15298
862.447	15317
862.58	15173
862.712	14994
862.844	14952
862.976	14948
863.108	15058
863.24	15294
863.372	14899
863.504	14891
863.636	14872
863.768	15043
863.9	14975
864.032	14792
864.164	14826
864.296	14982
864.428	15062
864.559	14960
864.691	15097
864.823	14990
864.954	14952
865.086	14902
865.217	14914
865.349	14823
865.48	14921
865.612	14921
865.743	15108
865.875	14944
866.006	14788
866.137	14925
866.269	14800
866.4	14880
866.531	14842
866.662	14781
866.793	14868
866.924	14906
867.055	14883
867.186	14910
867.317	14826
867.448	14773
867.579	14887
867.71	14796
867.841	14769
867.972	14887
868.103	14815
868.233	14887
868.364	14933
868.495	14937
868.625	15108
868.756	15264
868.886	14971
869.017	15150
869.147	15222
869.278	15264
869.408	15192
869.539	15119
869.669	15211
869.799	15199
869.929	15275
870.06	15199
870.19	15378
870.32	15435
870.45	15450
870.58	15469
870.71	15633
870.84	15564
870.97	15580
871.1	15549
871.23	15660
871.36	15724
871.489	15580
871.619	15747
871.749	15778
871.879	15759
872.008	15781
872.138	15648
872.267	15671
872.397	15656
872.526	15488
872.656	15587
872.785	15576
872.915	15686
873.044	15774
873.173	15804
873.303	15854
873.432	15789
873.561	15873
873.69	15701
873.819	15800
873.948	15842
874.077	15899
874.206	15770
874.335	15762
874.464	15972
874.593	16120
874.722	16090
874.851	16086
874.979	16154
875.108	16120
875.237	16055
875.365	15937
875.494	16112
875.623	16131
875.751	15964
875.88	16082
876.008	16169
876.136	16322
876.265	16504
876.393	16645
876.521	16577
876.65	16588
876.778	16489
876.906	16474
877.034	16459
877.162	16531
877.29	16417
877.418	16481
877.546	16577
877.674	16493
877.802	16500
877.93	16565
878.058	16500
878.185	16497
878.313	16546
878.441	16672
878.568	16413
878.696	16618
878.824	16744
878.951	16778
879.079	16919
879.206	17113
879.333	17124
879.461	17109
879.588	17105
879.715	17356
879.842	17318
879.97	17014
880.097	16733
880.224	16691
880.351	16512
880.478	16668
880.605	16535
880.732	16611
880.859	16736
880.986	16535
881.112	16588
881.239	16337
881.366	16322
881.493	16105
881.619	16158
881.746	16219
881.872	16093
881.999	16124
882.125	16139
882.252	16257
882.378	16120
882.505	16386
882.631	16105
882.757	16021
882.883	15956
883.01	15956
883.136	15892
883.262	15816
883.388	15728
883.514	16162
883.64	16143
883.766	15972
883.892	15808
884.018	15823
884.143	16006
884.269	16090
884.395	15789
884.52	15713
884.646	15660
884.772	15599
884.897	15519
885.023	15637
885.148	15671
885.274	15865
885.399	15831
885.524	15686
885.65	15743
885.775	15625
885.9	15717
886.025	15739
886.15	15762
886.275	15561
886.4	15488
886.525	15637
886.65	15568
886.775	15496
886.9	15770
887.025	15915
887.149	15606
887.274	15481
887.399	15363
887.523	15340
887.648	15321
887.773	15306
887.897	15363
888.021	15416
888.146	15359
888.27	15416
888.395	15526
888.519	15412
888.643	15450
888.767	15428
888.891	15245
889.015	15211
889.139	15207
889.263	15245
889.387	15245
889.511	15492
889.635	15291
889.759	15195
889.883	15173
890.006	15218
890.13	15211
890.254	15138
890.377	15142
890.501	15055
890.624	15005
890.748	15100
890.871	14925
890.995	14918
891.118	14781
891.241	14899
891.364	14906
891.488	15024
891.611	14937
891.734	14937
891.857	14937
891.98	14880
892.103	14998
892.226	14971
892.349	14842
892.471	14686
892.594	14872
892.717	14872
892.839	14861
892.962	14861
893.085	15043
893.207	14895
893.33	14815
893.452	14769
893.575	14994
893.697	14834
893.819	15051
893.941	15123
894.064	14876
894.186	14883
894.308	14811
894.43	14963
894.552	15100
894.674	15032
894.796	14861
894.918	14925
895.04	14948
895.161	15005
895.283	15047
895.405	14868
895.526	14883
895.648	14952
895.769	14994
895.891	15081
896.012	15032
896.134	15028
896.255	15062
896.376	14853
896.498	14994
896.619	15077
896.74	15005
896.861	14998
896.982	15382
897.103	15424
897.224	15283
897.345	15245
897.466	15207
897.587	15237
897.708	15329
897.828	15298
897.949	15195
898.07	15150
898.19	15192
898.311	15351
898.431	15184
898.552	15370
898.672	15420
898.792	15397
898.913	15367
899.033	15317
899.153	15298
899.273	15077
899.393	15165
899.513	15207
899.633	15283
899.753	15222
899.873	15150
899.993	15287
900.113	15100
900.232	15233
900.352	15089
900.472	15058
900.591	14971
900.711	15036
900.83	14963
900.95	15249
901.069	15344
901.189	14986
901.308	14804
901.427	14739
901.546	14773
901.665	14785
901.784	14758
901.904	14617
902.023	14454
902.141	14301
902.26	14309
902.379	14278
902.498	14237
902.617	14199
902.735	14336
902.854	14202
902.973	14149
903.091	14005
903.21	13928
903.328	13993
903.446	13921
903.565	13765
903.683	13860
903.801	13651
903.919	13887
904.038	13860
904.156	13578
904.274	13727
904.392	13658
904.51	13609
904.627	13674
904.745	13605
904.863	13765
904.981	13449
905.098	13304
905.216	13343
905.334	13422
905.451	13316
905.569	13228
905.686	13426
905.803	13301
905.921	13065
906.038	13202
906.155	13164
906.272	13031
906.389	13050
906.506	12901
906.623	12935
906.74	12848
906.857	12757
906.974	12791
907.091	12939
907.208	13023
907.324	12867
907.441	12795
907.557	12612
907.674	12631
907.79	12536
907.907	12616
908.023	12623
908.139	12642
908.256	12623
908.372	12536
908.488	12551
908.604	12365
908.72	12330
908.836	12388
908.952	12330
909.068	12395
909.184	12509
909.3	12376
909.415	12365
909.531	12418
909.647	12190
909.762	12121
909.878	12098
909.993	12140
910.108	12110
910.224	12057
910.339	12114
910.454	12045
910.57	12030
910.685	11885
910.8	12243
910.915	12258
911.03	11973
911.145	11878
911.259	11832
911.374	11794
911.489	11688
911.604	11745
911.718	11520
911.833	11554
911.947	11455
912.062	11376
912.176	11592
912.291	11516
912.405	11589
912.519	11733
912.633	11665
912.748	11543
912.862	11627
912.976	11402
913.09	11231
913.204	11406
913.318	11482
913.431	11535
913.545	11512
913.659	11493
913.772	11486
913.886	11284
914	11208
914.113	11391
914.226	11501
914.34	11356
914.453	11208
914.566	11417
914.68	11273
914.793	11239
914.906	11064
915.019	10991
915.132	10987
915.245	11022
915.358	11052
915.47	11025
915.583	11060
915.696	11037
915.809	11204
915.921	11204
916.034	11048
916.146	10900
916.259	10938
916.371	11132
916.483	11018
916.595	10968
916.708	10995
916.82	10923
916.932	10946
917.044	10866
917.156	10881
917.268	10805
917.38	10873
917.491	10877
917.603	10816
917.715	10847
917.826	10968
917.938	10771
918.049	10744
918.161	10885
918.272	11018
918.384	10953
918.495	10866
918.606	10668
918.717	10626
918.828	10668
918.939	10771
919.05	10607
919.161	10653
919.272	10550
919.383	10573
919.494	10771
919.604	10816
919.715	10748
919.826	10645
919.936	10714
920.047	10793
920.157	10786
920.267	10900
920.378	10714
920.488	10637
920.598	10915
920.708	11147
920.818	10930
920.928	10949
921.038	11060
921.148	11037
921.258	10835
921.368	10641
921.477	10508
921.587	10554
921.697	10508
921.806	10592
921.916	10432
922.025	10367
922.134	10204
922.244	10211
922.353	10291
922.462	10150
922.571	10074
922.68	9907
922.789	9964
922.898	9983
923.007	9922
923.116	9953
923.224	9949
923.333	9934
923.442	9800
923.55	9808
923.659	9823
923.767	9934
923.876	9812
923.984	9842
924.092	9724
924.201	9884
924.309	9762
924.417	9747
924.525	9808
924.633	9728
924.741	10607
924.849	9534
924.956	9732
925.064	9568
925.172	9511
925.279	9526
925.387	9603
925.494	9637
925.602	9667
925.709	9656
925.816	9485
925.924	9553
926.031	9610
926.138	9557
926.245	9622
926.352	9485
926.459	9694
926.566	9690
926.673	9462
926.779	9450
926.886	9428
926.993	9313
927.099	9287
927.206	9161
927.312	9203
927.419	9268
927.525	9264
927.631	9279
927.737	9112
927.843	9123
927.95	9074
928.056	9104
928.162	9104
928.267	9203
928.373	9759
928.479	9256
928.585	8998
928.69	9123
928.796	9165
928.901	9085
929.007	8956
929.112	9081
929.218	9039
929.323	9051
929.428	8975
929.533	9036
929.638	8876
929.743	8986
929.848	9001
929.953	8887
930.058	8880
930.163	8724
930.267	8773
930.372	8876
930.477	8632
930.581	8864
930.685	8758
930.79	8659
930.894	8743
930.998	8659
931.103	8830
931.207	8503
931.311	8404
931.415	8351
931.519	8168
931.623	8176
