Data from test_V78500241_3610.txt Node
Date: Fri Mar 25 14:58:51 CST 2022
User: usil
Spectrometer: V785-0024
Trigger mode: 0
Integration Time (sec): 4.000000E-1
Scans to average: 1
Nonlinearity correction enabled: false
Boxcar width: 0
Storing dark spectrum: false
XAxis mode: Wavelengths
Number of Pixels in Spectrum: 1024
>>>>>Begin Spectral Data<<<<<
801.071	21975
801.214	21899
801.356	21618
801.499	21374
801.641	21359
801.783	21233
801.926	21382
802.068	21199
802.211	21302
802.353	20921
802.496	20849
802.638	20739
802.78	20629
802.923	20708
803.065	20549
803.208	20609
803.35	20667
803.492	20693
803.635	20724
803.777	20518
803.919	20693
804.061	20979
804.204	20564
804.346	20518
804.488	20533
804.63	20503
804.773	20423
804.915	20484
805.057	20575
805.199	20518
805.341	20621
805.483	20571
805.626	20606
805.768	20465
805.91	20423
806.052	20469
806.194	20434
806.336	20613
806.478	20552
806.62	20431
806.762	20609
806.904	20674
807.046	20918
807.188	20849
807.33	20762
807.472	20811
807.614	20674
807.756	20640
807.898	20598
808.04	20594
808.182	20457
808.324	20613
808.465	20507
808.607	20762
808.749	20918
808.891	20956
809.033	21009
809.174	20887
809.316	20785
809.458	20838
809.6	20838
809.741	20857
809.883	20944
810.025	20956
810.166	21062
810.308	21047
810.45	20975
810.591	20834
810.733	20724
810.875	20674
811.016	20549
811.158	20564
811.299	20651
811.441	20731
811.582	20636
811.724	20667
811.865	20556
812.007	20640
812.148	20590
812.29	20632
812.431	20701
812.573	20880
812.714	20982
812.855	20952
812.997	21207
813.138	21393
813.279	21287
813.421	21009
813.562	21001
813.703	20967
813.845	20701
813.986	20461
814.127	20358
814.268	20214
814.41	20240
814.551	20199
814.692	20191
814.833	20005
814.974	20107
815.115	20103
815.256	19986
815.397	20043
815.539	20020
815.68	19871
815.821	19833
815.962	19902
816.103	19917
816.244	19719
816.385	19605
816.526	19651
816.666	19422
816.807	19400
816.948	19381
817.089	19362
817.23	19343
817.371	19240
817.512	19282
817.653	19244
817.793	19187
817.934	19270
818.075	19247
818.216	19263
818.356	19221
818.497	19053
818.638	19000
818.778	18932
818.919	19038
819.06	19057
819.2	19236
819.341	19240
819.481	19179
819.622	19221
819.762	19472
819.903	19407
820.043	19316
820.184	19225
820.324	19282
820.465	19327
820.605	19343
820.746	19320
820.886	19141
821.026	19263
821.167	19217
821.307	19358
821.447	19228
821.588	19072
821.728	18935
821.868	18878
822.008	18665
822.149	18627
822.289	18654
822.429	18384
822.569	18441
822.709	18380
822.849	18273
822.99	18136
823.13	18270
823.27	18144
823.41	17958
823.55	18007
823.69	18079
823.83	17992
823.97	17916
824.11	17828
824.25	17760
824.389	17901
824.529	17821
824.669	17794
824.809	17847
824.949	17779
825.089	17745
825.228	17809
825.368	17585
825.508	17551
825.648	17653
825.787	17623
825.927	17638
826.067	17425
826.206	17474
826.346	17589
826.485	17528
826.625	17699
826.765	17615
826.904	17551
827.044	17334
827.183	17440
827.323	17261
827.462	17326
827.601	17330
827.741	17337
827.88	17292
828.02	17098
828.159	17208
828.298	17273
828.437	17296
828.577	17204
828.716	17395
828.855	17159
828.994	17060
829.134	17071
829.273	17113
829.412	16965
829.551	17037
829.69	16972
829.829	17064
829.968	17140
830.107	17060
830.246	17033
830.385	16995
830.524	16942
830.663	16824
830.802	16843
830.941	16584
831.08	16736
831.219	16710
831.357	16786
831.496	16824
831.635	16584
831.774	16603
831.913	16637
832.051	16356
832.19	16360
832.329	16462
832.467	16474
832.606	16295
832.744	16474
832.883	16318
833.022	16341
833.16	16352
833.299	16268
833.437	16409
833.576	16386
833.714	16382
833.852	16424
833.991	16432
834.129	16356
834.267	16436
834.406	16268
834.544	16402
834.682	16508
834.821	16360
834.959	16512
835.097	16360
835.235	16573
835.373	16447
835.511	16485
835.65	16382
835.788	16314
835.926	16291
836.064	16109
836.202	16097
836.34	16272
836.478	16413
836.615	16261
836.753	16409
836.891	16371
837.029	16303
837.167	16306
837.305	16306
837.443	16303
837.58	16154
837.718	16238
837.856	16143
837.993	16128
838.131	16162
838.269	16158
838.406	16078
838.544	16109
838.681	15994
838.819	15857
838.956	15705
839.094	15698
839.231	15800
839.369	15873
839.506	16246
839.643	16048
839.781	15831
839.918	15686
840.055	15705
840.193	15755
840.33	15797
840.467	15705
840.604	15892
840.742	15873
840.879	15652
841.016	15557
841.153	15656
841.29	15911
841.427	15903
841.564	15804
841.701	15816
841.838	15724
841.975	15652
842.112	15652
842.249	15545
842.385	15462
842.522	15694
842.659	15469
842.796	15519
842.933	15576
843.069	15557
843.206	15542
843.343	15679
843.479	15549
843.616	15519
843.752	15245
843.889	15424
844.025	15568
844.162	15275
844.298	15469
844.435	15378
844.571	15321
844.708	15313
844.844	15439
844.98	15466
845.117	15405
845.253	15230
845.389	15188
845.525	15272
845.661	15287
845.798	15036
845.934	15184
846.07	15020
846.206	15108
846.342	15192
846.478	15112
846.614	14918
846.75	14876
846.886	14872
847.022	14925
847.158	14830
847.294	14998
847.429	14883
847.565	14906
847.701	15051
847.837	14712
847.972	14629
848.108	14765
848.244	14712
848.379	14587
848.515	14507
848.65	14541
848.786	14552
848.921	14492
849.057	14465
849.192	14579
849.328	14533
849.463	14560
849.598	14507
849.734	14434
849.869	14385
850.004	14309
850.14	14233
850.275	14271
850.41	14092
850.545	14210
850.68	14134
850.815	14180
850.95	14320
851.085	14450
851.22	14278
851.355	14263
851.49	14317
851.625	14164
851.76	14199
851.895	14130
852.03	14130
852.165	14427
852.299	14248
852.434	14259
852.569	14332
852.703	14240
852.838	14374
852.973	14381
853.107	14393
853.242	14206
853.376	14138
853.511	14107
853.645	14096
853.78	14294
853.914	14092
854.048	14161
854.183	14123
854.317	14145
854.451	14309
854.585	14081
854.72	14031
854.854	14176
854.988	14069
855.122	14024
855.256	13913
855.39	14092
855.524	14214
855.658	14157
855.792	14134
855.926	14115
856.06	14252
856.194	14256
856.327	14115
856.461	14119
856.595	14043
856.729	14123
856.862	14263
856.996	14084
857.13	14229
857.263	14278
857.397	14244
857.53	14115
857.664	14161
857.797	14244
857.931	14259
858.064	14176
858.197	14275
858.331	14130
858.464	14100
858.597	14088
858.731	14115
858.864	14126
858.997	13974
859.13	14145
859.263	14210
859.396	14206
859.529	14092
859.662	14111
859.795	14062
859.928	14138
860.061	14347
860.194	14366
860.327	14164
860.46	14084
860.592	14252
860.725	14313
860.858	14225
860.99	14115
861.123	14062
861.256	13951
861.388	14195
861.521	14830
861.653	14077
861.786	14005
861.918	13986
862.05	14001
862.183	13989
862.315	14142
862.447	14244
862.58	14024
862.712	13963
862.844	13868
862.976	13963
863.108	13963
863.24	14339
863.372	13784
863.504	13902
863.636	13822
863.768	13978
863.9	13906
864.032	13822
864.164	13795
864.296	13978
864.428	13944
864.559	13997
864.691	14027
864.823	14046
864.954	13906
865.086	13902
865.217	13986
865.349	13879
865.48	13860
865.612	13879
865.743	14077
865.875	13982
866.006	13890
866.137	13906
866.269	13925
866.4	13879
866.531	13841
866.662	13837
866.793	13860
866.924	13818
867.055	13944
867.186	13860
867.317	13818
867.448	13890
867.579	13894
867.71	13830
867.841	13883
867.972	13902
868.103	13890
868.233	13822
868.364	13913
868.495	13917
868.625	14172
868.756	14119
868.886	14084
869.017	14149
869.147	14199
869.278	14229
869.408	14195
869.539	14240
869.669	14229
869.799	14126
869.929	14313
870.06	14328
870.19	14450
870.32	14427
870.45	14457
870.58	14530
870.71	14583
870.84	14571
870.97	14564
871.1	14537
871.23	14655
871.36	14807
871.489	14648
871.619	14743
871.749	14735
871.879	14807
872.008	14819
872.138	14667
872.267	14689
872.397	14678
872.526	14514
872.656	14511
872.785	14659
872.915	14773
873.044	14845
873.173	14807
873.303	14819
873.432	14864
873.561	14823
873.69	14769
873.819	14724
873.948	14872
874.077	14861
874.206	14785
874.335	14853
874.464	14948
874.593	15104
874.722	15036
874.851	15199
874.979	15150
875.108	15192
875.237	15077
875.365	15074
875.494	15074
875.623	15169
875.751	15055
875.88	15180
876.008	15329
876.136	15321
876.265	15534
876.393	15675
876.521	15545
876.65	15614
876.778	15545
876.906	15435
877.034	15374
877.162	15450
877.29	15454
877.418	15466
877.546	15572
877.674	15523
877.802	15618
877.93	15496
878.058	15450
878.185	15504
878.313	15492
878.441	15420
878.568	15408
878.696	15542
878.824	15580
878.951	15504
879.079	15648
879.206	15827
879.333	15720
879.461	15561
879.588	15564
879.715	15625
879.842	15911
879.97	15660
880.097	15378
880.224	15332
880.351	15355
880.478	15488
880.605	15355
880.732	15412
880.859	15660
880.986	15382
881.112	15355
881.239	15291
881.366	15211
881.493	15097
881.619	15028
881.746	15077
881.872	15176
881.999	15116
882.125	15017
882.252	15028
882.378	15036
882.505	15222
882.631	14975
882.757	14792
882.883	14872
883.01	15005
883.136	14815
883.262	14731
883.388	14644
883.514	14937
883.64	14933
883.766	14826
883.892	14701
884.018	14632
884.143	14899
884.269	14902
884.395	14613
884.52	14492
884.646	14549
884.772	14522
884.897	14355
885.023	14583
885.148	14674
885.274	14678
885.399	14655
885.524	14629
885.65	14568
885.775	14613
885.9	14579
886.025	14762
886.15	14659
886.275	14507
886.4	14560
886.525	14415
886.65	14457
886.775	14492
886.9	14727
887.025	14746
887.149	14659
887.274	14492
887.399	14389
887.523	14362
887.648	14290
887.773	14313
887.897	14400
888.021	14427
888.146	14412
888.27	14484
888.395	14606
888.519	14419
888.643	14419
888.767	14438
888.891	14313
889.015	14271
889.139	14317
889.263	14275
889.387	14404
889.511	14431
889.635	14298
889.759	14240
889.883	14225
890.006	14244
890.13	14301
890.254	14206
890.377	14183
890.501	14130
890.624	14145
890.748	14077
890.871	13932
890.995	14012
891.118	13982
891.241	13993
891.364	14008
891.488	13993
891.611	13986
891.734	14016
891.857	14043
891.98	14005
892.103	14039
892.226	14005
892.349	13856
892.471	13856
892.594	13955
892.717	13997
892.839	14027
892.962	13913
893.085	13951
893.207	14024
893.33	13913
893.452	13928
893.575	13951
893.697	13894
893.819	14081
893.941	14191
894.064	14206
894.186	13871
894.308	14024
894.43	14058
894.552	14107
894.674	14172
894.796	13997
894.918	13970
895.04	14020
895.161	14134
895.283	14130
895.405	13989
895.526	14058
895.648	14073
895.769	14096
895.891	14149
896.012	14240
896.134	14138
896.255	14111
896.376	14005
896.498	14111
896.619	14214
896.74	14149
896.861	14240
896.982	14533
897.103	14564
897.224	14427
897.345	14423
897.466	14381
897.587	14301
897.708	14636
897.828	14511
897.949	14366
898.07	14187
898.19	14366
898.311	14549
898.431	14374
898.552	14480
898.672	14625
898.792	14602
898.913	14419
899.033	14389
899.153	14339
899.273	14248
899.393	14366
899.513	14362
899.633	14419
899.753	14309
899.873	14275
899.993	14412
900.113	14286
900.232	14385
900.352	14320
900.472	14240
900.591	14229
900.711	14275
900.83	14214
900.95	14237
901.069	14294
901.189	14199
901.308	13986
901.427	13830
901.546	13837
901.665	13932
901.784	13944
901.904	13776
902.023	13677
902.141	13582
902.26	13392
902.379	13544
902.498	13388
902.617	13464
902.735	13514
902.854	13468
902.973	13354
903.091	13278
903.21	13057
903.328	13206
903.446	13179
903.565	12924
903.683	13141
903.801	12817
903.919	13050
904.038	12970
904.156	12677
904.274	12852
904.392	12825
904.51	12863
904.627	12795
904.745	12859
904.863	12848
904.981	12654
905.098	12627
905.216	12536
905.334	12597
905.451	12513
905.569	12479
905.686	12544
905.803	12490
905.921	12426
906.038	12414
906.155	12334
906.272	12281
906.389	12262
906.506	12117
906.623	12136
906.74	12053
906.857	11988
906.974	11969
907.091	12182
907.208	12235
907.324	12213
907.441	12102
907.557	11920
907.674	11935
907.79	11901
907.907	11946
908.023	11946
908.139	11923
908.256	11859
908.372	11805
908.488	11802
908.604	11710
908.72	11630
908.836	11604
908.952	11528
909.068	11611
909.184	11813
909.3	11566
909.415	11733
909.531	11642
909.647	11436
909.762	11478
909.878	11364
909.993	11433
910.108	11391
910.224	11356
910.339	11440
910.454	11288
910.57	11201
910.685	11178
910.8	11482
910.915	11417
911.03	11330
911.145	11185
911.259	11067
911.374	11083
911.489	10942
911.604	10942
911.718	10896
911.833	10908
911.947	10835
912.062	10721
912.176	10801
912.291	10816
912.405	10873
912.519	11029
912.633	11086
912.748	10953
912.862	10892
912.976	10717
913.09	10656
913.204	10717
913.318	10782
913.431	10831
913.545	10816
913.659	10839
913.772	10786
913.886	10607
914	10634
914.113	10717
914.226	10691
914.34	10641
914.453	10577
914.566	10694
914.68	10607
914.793	10554
914.906	10409
915.019	10337
915.132	10257
915.245	10333
915.358	10405
915.47	10394
915.583	10405
915.696	10497
915.809	10588
915.921	10527
916.034	10379
916.146	10356
916.259	10291
916.371	10432
916.483	10322
916.595	10287
916.708	10386
916.82	10299
916.932	10371
917.044	10337
917.156	10310
917.268	10215
917.38	10204
917.491	10219
917.603	10272
917.715	10265
917.826	10356
917.938	10234
918.049	10109
918.161	10287
918.272	10348
918.384	10398
918.495	10268
918.606	10074
918.717	10010
918.828	10116
918.939	10112
919.05	10086
919.161	10017
919.272	9838
919.383	9998
919.494	10071
919.604	10375
919.715	10162
919.826	10040
919.936	10021
920.047	10192
920.157	10192
920.267	10386
920.378	10158
920.488	10101
920.598	10284
920.708	10550
920.818	10333
920.928	10318
921.038	10546
921.148	10451
921.258	10196
921.368	10082
921.477	9979
921.587	9899
921.697	9876
921.806	9945
921.916	9846
922.025	9671
922.134	9698
922.244	9675
922.353	9743
922.462	9568
922.571	9591
922.68	9370
922.789	9378
922.898	9462
923.007	9329
923.116	9443
923.224	9428
923.333	9306
923.442	9230
923.55	9237
923.659	9230
923.767	9321
923.876	9161
923.984	9272
924.092	9146
924.201	9184
924.309	9230
924.417	9260
924.525	9154
924.633	9188
924.741	9911
924.849	9013
924.956	9157
925.064	9013
925.172	8910
925.279	8963
925.387	9058
925.494	9001
925.602	9165
925.709	9032
925.816	9032
925.924	8982
926.031	9085
926.138	9024
926.245	9093
926.352	9047
926.459	9116
926.566	9138
926.673	9036
926.779	8899
926.886	8872
926.993	8823
927.099	8815
927.206	8754
927.312	8682
927.419	8777
927.525	8750
927.631	8834
927.737	8712
927.843	8602
927.95	8473
928.056	8613
928.162	8716
928.267	8712
928.373	9253
928.479	8758
928.585	8507
928.69	8648
928.796	8682
928.901	8560
929.007	8454
929.112	8499
929.218	8552
929.323	8480
929.428	8492
929.533	8594
929.638	8381
929.743	8446
929.848	8530
929.953	8415
930.058	8385
930.163	8240
930.267	8195
930.372	8358
930.477	8275
930.581	8431
930.685	8370
930.79	8187
930.894	8183
930.998	8130
931.103	8374
931.207	7970
931.311	7913
931.415	7841
931.519	7742
931.623	7727
