Data from test_V78500241_1571.txt Node
Date: Fri Mar 25 14:44:39 CST 2022
User: usil
Spectrometer: V785-0024
Trigger mode: 0
Integration Time (sec): 4.000000E-1
Scans to average: 1
Nonlinearity correction enabled: false
Boxcar width: 0
Storing dark spectrum: false
XAxis mode: Wavelengths
Number of Pixels in Spectrum: 1024
>>>>>Begin Spectral Data<<<<<
801.071	22402
801.214	22150
801.356	22036
801.499	21869
801.641	21675
801.783	21793
801.926	21823
802.068	21732
802.211	21606
802.353	21408
802.496	21317
802.638	21260
802.78	21169
802.923	21024
803.065	21077
803.208	21013
803.35	21085
803.492	21131
803.635	21180
803.777	20975
803.919	21165
804.061	21405
804.204	21036
804.346	21077
804.488	20963
804.63	20982
804.773	20956
804.915	20952
805.057	21188
805.199	21039
805.341	21112
805.483	21188
805.626	21036
805.768	20948
805.91	21093
806.052	21020
806.194	20956
806.336	21096
806.478	20979
806.62	20994
806.762	21195
806.904	21287
807.046	21416
807.188	21332
807.33	21374
807.472	21447
807.614	21260
807.756	21302
807.898	21287
808.04	21237
808.182	21005
808.324	21222
808.465	21291
808.607	21420
808.749	21481
808.891	21583
809.033	21736
809.174	21526
809.316	21538
809.458	21511
809.6	21408
809.741	21595
809.883	21561
810.025	21656
810.166	21633
810.308	21614
810.45	21534
810.591	21435
810.733	21260
810.875	21306
811.016	21047
811.158	21036
811.299	21203
811.441	21264
811.582	21233
811.724	21241
811.865	21245
812.007	21135
812.148	21207
812.29	21131
812.431	21389
812.573	21386
812.714	21599
812.855	21667
812.997	21873
813.138	21846
813.279	21827
813.421	21606
813.562	21599
813.703	21370
813.845	21230
813.986	21085
814.127	20960
814.268	20834
814.41	20880
814.551	20674
814.692	20762
814.833	20602
814.974	20636
815.115	20693
815.256	20663
815.397	20644
815.539	20613
815.68	20568
815.821	20533
815.962	20484
816.103	20492
816.244	20244
816.385	20259
816.526	20153
816.666	20005
816.807	19913
816.948	19887
817.089	20027
817.23	19959
817.371	19826
817.512	19967
817.653	19837
817.793	19814
817.934	19833
818.075	19936
818.216	19909
818.356	19803
818.497	19662
818.638	19540
818.778	19597
818.919	19609
819.06	19487
819.2	19635
819.341	19746
819.481	19655
819.622	19951
819.762	20081
819.903	19928
820.043	19951
820.184	19742
820.324	19849
820.465	19875
820.605	19902
820.746	19780
820.886	19685
821.026	19704
821.167	19772
821.307	19799
821.447	19765
821.588	19655
821.728	19434
821.868	19403
822.008	19259
822.149	19228
822.289	19240
822.429	18916
822.569	18886
822.709	18932
822.849	18829
822.99	18722
823.13	18779
823.27	18669
823.41	18456
823.55	18536
823.69	18513
823.83	18525
823.97	18479
824.11	18433
824.25	18296
824.389	18311
824.529	18380
824.669	18494
824.809	18426
824.949	18506
825.089	18308
825.228	18342
825.368	18197
825.508	18144
825.648	18159
825.787	18041
825.927	18152
826.067	18121
826.206	18125
826.346	18201
826.485	18079
826.625	18087
826.765	18171
826.904	18079
827.044	17889
827.183	17805
827.323	17737
827.462	17897
827.601	17798
827.741	17726
827.88	17726
828.02	17737
828.159	17672
828.298	17802
828.437	17855
828.577	17794
828.716	17885
828.855	17699
828.994	17505
829.134	17630
829.273	17680
829.412	17573
829.551	17440
829.69	17596
829.829	17512
829.968	17604
830.107	17566
830.246	17539
830.385	17516
830.524	17459
830.663	17356
830.802	17216
830.941	17117
831.08	17121
831.219	17269
831.357	17155
831.496	17429
831.635	17200
831.774	17086
831.913	17029
832.051	16938
832.19	16930
832.329	16987
832.467	16889
832.606	16812
832.744	16653
832.883	16774
833.022	16729
833.16	16809
833.299	16820
833.437	16843
833.576	16889
833.714	16782
833.852	16923
833.991	16892
834.129	16889
834.267	16820
834.406	16881
834.544	16854
834.682	16885
834.821	16957
834.959	16965
835.097	16854
835.235	16946
835.373	16953
835.511	17014
835.65	16805
835.788	16752
835.926	16626
836.064	16573
836.202	16622
836.34	16793
836.478	16824
836.615	16778
836.753	16778
836.891	16866
837.029	16843
837.167	16790
837.305	16660
837.443	16702
837.58	16607
837.718	16683
837.856	16706
837.993	16634
838.131	16656
838.269	16565
838.406	16558
838.544	16485
838.681	16303
838.819	16287
838.956	16257
839.094	16173
839.231	16196
839.369	16356
839.506	16630
839.643	16512
839.781	16154
839.918	16120
840.055	16154
840.193	16223
840.33	16211
840.467	16166
840.604	16246
840.742	16348
840.879	16074
841.016	15956
841.153	16139
841.29	16257
841.427	16177
841.564	16181
841.701	16261
841.838	16078
841.975	16093
842.112	16082
842.249	15899
842.385	15892
842.522	16093
842.659	15956
842.796	15972
842.933	15911
843.069	15857
843.206	15907
843.343	15987
843.479	15873
843.616	15934
843.752	15671
843.889	15797
844.025	15842
844.162	15698
844.298	15816
844.435	15686
844.571	15698
844.708	15778
844.844	15804
844.98	15964
845.117	15838
845.253	15728
845.389	15587
845.525	15701
845.661	15778
845.798	15610
845.934	15732
846.07	15637
846.206	15698
846.342	15747
846.478	15568
846.614	15431
846.75	15329
846.886	15272
847.022	15439
847.158	15359
847.294	15291
847.429	15401
847.565	15249
847.701	15481
847.837	15097
847.972	14880
848.108	15150
848.244	15112
848.379	14952
848.515	14811
848.65	14986
848.786	14895
848.921	14921
849.057	15028
849.192	14899
849.328	15062
849.463	14880
849.598	14712
849.734	14838
849.869	14777
850.004	14613
850.14	14724
850.275	14705
850.41	14617
850.545	14533
850.68	14587
850.815	14701
850.95	14712
851.085	14743
851.22	14735
851.355	14583
851.49	14632
851.625	14549
851.76	14594
851.895	14454
852.03	14610
852.165	14552
852.299	14598
852.434	14670
852.569	14705
852.703	14659
852.838	14674
852.973	14872
853.107	14769
853.242	14587
853.376	14533
853.511	14446
853.645	14503
853.78	14640
853.914	14632
854.048	14541
854.183	14495
854.317	14457
854.451	14727
854.585	14442
854.72	14530
854.854	14606
854.988	14396
855.122	14480
855.256	14393
855.39	14492
855.524	14667
855.658	14469
855.792	14655
855.926	14617
856.06	14610
856.194	14537
856.327	14469
856.461	14450
856.595	14480
856.729	14476
856.862	14465
856.996	14507
857.13	14651
857.263	14621
857.397	14705
857.53	14488
857.664	14613
857.797	14564
857.931	14689
858.064	14556
858.197	14610
858.331	14522
858.464	14438
858.597	14381
858.731	14446
858.864	14545
858.997	14518
859.13	14583
859.263	14549
859.396	14610
859.529	14465
859.662	14503
859.795	14431
859.928	14530
860.061	14746
860.194	14819
860.327	14549
860.46	14503
860.592	14564
860.725	14556
860.858	14556
860.99	14476
861.123	14495
861.256	14461
861.388	14549
861.521	15199
861.653	14389
861.786	14412
861.918	14362
862.05	14408
862.183	14446
862.315	14514
862.447	14495
862.58	14503
862.712	14271
862.844	14275
862.976	14400
863.108	14358
863.24	14663
863.372	14176
863.504	14286
863.636	14248
863.768	14263
863.9	14328
864.032	14259
864.164	14278
864.296	14256
864.428	14370
864.559	14454
864.691	14332
864.823	14347
864.954	14298
865.086	14328
865.217	14256
865.349	14225
865.48	14309
865.612	14313
865.743	14408
865.875	14237
866.006	14290
866.137	14259
866.269	14278
866.4	14233
866.531	14161
866.662	14233
866.793	14237
866.924	14218
867.055	14332
867.186	14237
867.317	14244
867.448	14126
867.579	14199
867.71	14180
867.841	14206
867.972	14252
868.103	14225
868.233	14237
868.364	14282
868.495	14294
868.625	14488
868.756	14549
868.886	14389
869.017	14499
869.147	14621
869.278	14629
869.408	14530
869.539	14488
869.669	14556
869.799	14625
869.929	14670
870.06	14727
870.19	14834
870.32	14785
870.45	14834
870.58	14914
870.71	15028
870.84	15028
870.97	14941
871.1	14914
871.23	15104
871.36	15081
871.489	15009
871.619	15108
871.749	15161
871.879	15173
872.008	15214
872.138	15214
872.267	15024
872.397	14971
872.526	14979
872.656	14899
872.785	14853
872.915	15089
873.044	15131
873.173	15112
873.303	15180
873.432	15161
873.561	15283
873.69	15214
873.819	15211
873.948	15249
874.077	15184
874.206	15237
874.335	15165
874.464	15302
874.593	15416
874.722	15485
874.851	15450
874.979	15511
875.108	15488
875.237	15389
875.365	15443
875.494	15416
875.623	15599
875.751	15405
875.88	15511
876.008	15549
876.136	15724
876.265	15869
876.393	16006
876.521	16025
876.65	15937
876.778	15968
876.906	15884
877.034	15766
877.162	15869
877.29	15736
877.418	15892
877.546	15979
877.674	15880
877.802	15911
877.93	15930
878.058	15857
878.185	15770
878.313	15964
878.441	15873
878.568	15739
878.696	15808
878.824	15865
878.951	16002
879.079	16055
879.206	16295
879.333	16131
879.461	16044
879.588	16188
879.715	16131
879.842	16204
879.97	16040
880.097	15762
880.224	15762
880.351	15827
880.478	15770
880.605	15759
880.732	15736
880.859	15934
880.986	15766
881.112	15766
881.239	15629
881.366	15515
881.493	15374
881.619	15382
881.746	15408
881.872	15466
881.999	15317
882.125	15450
882.252	15439
882.378	15443
882.505	15488
882.631	15351
882.757	15272
882.883	15249
883.01	15211
883.136	15241
883.262	15062
883.388	15097
883.514	15321
883.64	15287
883.766	15245
883.892	15001
884.018	15127
884.143	15135
884.269	15329
884.395	15017
884.52	14982
884.646	15013
884.772	14876
884.897	14834
885.023	14861
885.148	14998
885.274	15108
885.399	15024
885.524	14872
885.65	15013
885.775	14925
885.9	14918
886.025	15001
886.15	15017
886.275	14838
886.4	14777
886.525	14804
886.65	14933
886.775	14804
886.9	15024
887.025	15226
887.149	14899
887.274	14708
887.399	14708
887.523	14743
887.648	14689
887.773	14689
887.897	14769
888.021	14967
888.146	14705
888.27	14845
888.395	14807
888.519	14895
888.643	14785
888.767	14754
888.891	14636
889.015	14511
889.139	14674
889.263	14541
889.387	14682
889.511	14781
889.635	14640
889.759	14465
889.883	14552
890.006	14659
890.13	14712
890.254	14583
890.377	14511
890.501	14427
890.624	14400
890.748	14465
890.871	14377
890.995	14180
891.118	14256
891.241	14374
891.364	14313
891.488	14381
891.611	14282
891.734	14240
891.857	14305
891.98	14267
892.103	14381
892.226	14332
892.349	14225
892.471	14100
892.594	14267
892.717	14309
892.839	14290
892.962	14434
893.085	14408
893.207	14263
893.33	14233
893.452	14267
893.575	14400
893.697	14210
893.819	14366
893.941	14473
894.064	14381
894.186	14267
894.308	14187
894.43	14408
894.552	14476
894.674	14465
894.796	14244
894.918	14324
895.04	14187
895.161	14526
895.283	14434
895.405	14309
895.526	14309
895.648	14400
895.769	14400
895.891	14431
896.012	14480
896.134	14503
896.255	14454
896.376	14404
896.498	14431
896.619	14522
896.74	14514
896.861	14533
896.982	14762
897.103	14994
897.224	14697
897.345	14697
897.466	14564
897.587	14807
897.708	14777
897.828	14834
897.949	14724
898.07	14670
898.19	14701
898.311	14929
898.431	14891
898.552	14845
898.672	14849
898.792	14883
898.913	14910
899.033	14678
899.153	14648
899.273	14682
899.393	14606
899.513	14727
899.633	14663
899.753	14716
899.873	14583
899.993	14697
900.113	14674
900.232	14632
900.352	14701
900.472	14579
900.591	14518
900.711	14522
900.83	14507
900.95	14579
901.069	14701
901.189	14408
901.308	14237
901.427	14218
901.546	14176
901.665	14225
901.784	14244
901.904	14180
902.023	14012
902.141	13811
902.26	13761
902.379	13830
902.498	13750
902.617	13757
902.735	13719
902.854	13795
902.973	13628
903.091	13499
903.21	13434
903.328	13449
903.446	13396
903.565	13304
903.683	13274
903.801	13301
903.919	13320
904.038	13263
904.156	13137
904.274	13202
904.392	13107
904.51	13065
904.627	13122
904.745	13168
904.863	13228
904.981	12913
905.098	12817
905.216	12806
905.334	12840
905.451	12802
905.569	12810
905.686	12913
905.803	12825
905.921	12650
906.038	12764
906.155	12768
906.272	12646
906.389	12589
906.506	12445
906.623	12448
906.74	12418
906.857	12262
906.974	12296
907.091	12467
907.208	12627
907.324	12437
907.441	12296
907.557	12220
907.674	12197
907.79	12106
907.907	12117
908.023	12175
908.139	12171
908.256	12030
908.372	11999
908.488	12022
908.604	11885
908.72	11885
908.836	11893
908.952	11832
909.068	11954
909.184	12034
909.3	11885
909.415	12003
909.531	11843
909.647	11745
909.762	11726
909.878	11646
909.993	11699
910.108	11627
910.224	11680
910.339	11695
910.454	11619
910.57	11547
910.685	11360
910.8	11737
910.915	11741
911.03	11592
911.145	11436
911.259	11345
911.374	11391
911.489	11258
911.604	11250
911.718	11216
911.833	11151
911.947	11006
912.062	10957
912.176	11029
912.291	11132
912.405	11113
912.519	11284
912.633	11349
912.748	11128
912.862	11178
912.976	10980
913.09	10847
913.204	10904
913.318	11014
913.431	11083
913.545	11090
913.659	11052
913.772	11006
913.886	10892
914	10816
914.113	11018
914.226	11045
914.34	10961
914.453	10816
914.566	10965
914.68	10854
914.793	10847
914.906	10721
915.019	10618
915.132	10565
915.245	10664
915.358	10618
915.47	10626
915.583	10618
915.696	10706
915.809	10752
915.921	10790
916.034	10611
916.146	10588
916.259	10569
916.371	10653
916.483	10660
916.595	10466
916.708	10584
916.82	10565
916.932	10596
917.044	10561
917.156	10516
917.268	10512
917.38	10512
917.491	10333
917.603	10500
917.715	10615
917.826	10592
917.938	10455
918.049	10318
918.161	10462
918.272	10489
918.384	10649
918.495	10436
918.606	10367
918.717	10230
918.828	10428
918.939	10390
919.05	10291
919.161	10379
919.272	10162
919.383	10188
919.494	10424
919.604	10550
919.715	10440
919.826	10272
919.936	10360
920.047	10470
920.157	10386
920.267	10641
920.378	10474
920.488	10409
920.598	10504
920.708	10672
920.818	10546
920.928	10573
921.038	10664
921.148	10763
921.258	10424
921.368	10337
921.477	10246
921.587	10246
921.697	10124
921.806	10257
921.916	10173
922.025	9945
922.134	9960
922.244	9934
922.353	9975
922.462	9793
922.571	9747
922.68	9671
922.789	9549
922.898	9629
923.007	9595
923.116	9720
923.224	9637
923.333	9679
923.442	9580
923.55	9450
923.659	9519
923.767	9561
923.876	9549
923.984	9584
924.092	9454
924.201	9473
924.309	9504
924.417	9458
924.525	9469
924.633	9477
924.741	10379
924.849	9279
924.956	9431
925.064	9256
925.172	9188
925.279	9264
925.387	9386
925.494	9260
925.602	9367
925.709	9329
925.816	9233
925.924	9313
926.031	9370
926.138	9279
926.245	9355
926.352	9127
926.459	9367
926.566	9359
926.673	9245
926.779	9157
926.886	9058
926.993	9047
927.099	8906
927.206	8960
927.312	8982
927.419	9013
927.525	9024
927.631	8990
927.737	8929
927.843	8845
927.95	8686
928.056	8788
928.162	8872
928.267	8994
928.373	9477
928.479	8960
928.585	8708
928.69	8929
928.796	8895
928.901	8864
929.007	8651
929.112	8781
929.218	8731
929.323	8716
929.428	8720
929.533	8864
929.638	8663
929.743	8701
929.848	8739
929.953	8663
930.058	8629
930.163	8469
930.267	8457
930.372	8670
930.477	8454
930.581	8678
930.685	8552
930.79	8396
930.894	8370
930.998	8374
931.103	8556
931.207	8172
931.311	8149
931.415	8024
931.519	7940
931.623	7898
