Data from test_V78500241_3164.txt Node
Date: Fri Mar 25 14:55:44 CST 2022
User: usil
Spectrometer: V785-0024
Trigger mode: 0
Integration Time (sec): 4.000000E-1
Scans to average: 1
Nonlinearity correction enabled: false
Boxcar width: 0
Storing dark spectrum: false
XAxis mode: Wavelengths
Number of Pixels in Spectrum: 1024
>>>>>Begin Spectral Data<<<<<
801.071	22044
801.214	21838
801.356	21667
801.499	21526
801.641	21496
801.783	21458
801.926	21439
802.068	21454
802.211	21313
802.353	21066
802.496	20830
802.638	20880
802.78	20902
802.923	20811
803.065	20701
803.208	20788
803.35	20651
803.492	20765
803.635	20826
803.777	20785
803.919	20819
804.061	21058
804.204	20651
804.346	20632
804.488	20682
804.63	20659
804.773	20674
804.915	20522
805.057	20781
805.199	20663
805.341	20746
805.483	20880
805.626	20735
805.768	20613
805.91	20678
806.052	20670
806.194	20598
806.336	20845
806.478	20583
806.62	20594
806.762	20845
806.904	20971
807.046	21131
807.188	21020
807.33	20906
807.472	21081
807.614	20826
807.756	20948
807.898	20678
808.04	20655
808.182	20651
808.324	20682
808.465	20781
808.607	20883
808.749	21104
808.891	21081
809.033	21180
809.174	21051
809.316	21009
809.458	21112
809.6	20963
809.741	21020
809.883	21089
810.025	21283
810.166	21203
810.308	21085
810.45	21154
810.591	20979
810.733	20861
810.875	20937
811.016	20876
811.158	20746
811.299	20853
811.441	20944
811.582	20937
811.724	20838
811.865	20743
812.007	20796
812.148	20727
812.29	20735
812.431	21013
812.573	21161
812.714	21108
812.855	21367
812.997	21336
813.138	21469
813.279	21492
813.421	21256
813.562	21116
813.703	20994
813.845	20883
813.986	20735
814.127	20556
814.268	20438
814.41	20404
814.551	20191
814.692	20385
814.833	20244
814.974	20286
815.115	20377
815.256	20149
815.397	20153
815.539	20168
815.68	20081
815.821	19993
815.962	20256
816.103	19982
816.244	19898
816.385	19871
816.526	19734
816.666	19575
816.807	19472
816.948	19529
817.089	19563
817.23	19453
817.371	19487
817.512	19358
817.653	19388
817.793	19339
817.934	19533
818.075	19502
818.216	19510
818.356	19373
818.497	19209
818.638	19164
818.778	19069
818.919	19152
819.06	19145
819.2	19217
819.341	19415
819.481	19255
819.622	19483
819.762	19586
819.903	19563
820.043	19453
820.184	19396
820.324	19369
820.465	19464
820.605	19502
820.746	19411
820.886	19251
821.026	19369
821.167	19411
821.307	19605
821.447	19354
821.588	19228
821.728	19179
821.868	18954
822.008	18798
822.149	18814
822.289	18875
822.429	18521
822.569	18623
822.709	18574
822.849	18399
822.99	18315
823.13	18266
823.27	18266
823.41	18133
823.55	18144
823.69	18228
823.83	18117
823.97	18102
824.11	18026
824.25	17927
824.389	17794
824.529	17935
824.669	17851
824.809	18102
824.949	17927
825.089	17973
825.228	17855
825.368	17802
825.508	17695
825.648	17653
825.787	17714
825.927	17718
826.067	17634
826.206	17623
826.346	17794
826.485	17786
826.625	17813
826.765	17832
826.904	17756
827.044	17520
827.183	17486
827.323	17364
827.462	17547
827.601	17429
827.741	17410
827.88	17448
828.02	17330
828.159	17395
828.298	17360
828.437	17414
828.577	17299
828.716	17520
828.855	17303
828.994	17178
829.134	17151
829.273	17261
829.412	17181
829.551	17102
829.69	17109
829.829	17079
829.968	17181
830.107	17178
830.246	17181
830.385	17098
830.524	16991
830.663	17022
830.802	16797
830.941	16790
831.08	16683
831.219	16847
831.357	16873
831.496	16911
831.635	16733
831.774	16668
831.913	16672
832.051	16675
832.19	16573
832.329	16546
832.467	16447
832.606	16466
832.744	16531
832.883	16489
833.022	16466
833.16	16485
833.299	16516
833.437	16451
833.576	16561
833.714	16542
833.852	16558
833.991	16493
834.129	16710
834.267	16481
834.406	16470
834.544	16592
834.682	16466
834.821	16405
834.959	16679
835.097	16428
835.235	16561
835.373	16546
835.511	16561
835.65	16394
835.788	16390
835.926	16333
836.064	16341
836.202	16196
836.34	16493
836.478	16577
836.615	16398
836.753	16394
836.891	16546
837.029	16508
837.167	16466
837.305	16363
837.443	16284
837.58	16131
837.718	16337
837.856	16344
837.993	16200
838.131	16363
838.269	16238
838.406	16261
838.544	16177
838.681	16071
838.819	16010
838.956	15831
839.094	15846
839.231	15869
839.369	15937
839.506	16204
839.643	16078
839.781	15876
839.918	15808
840.055	15808
840.193	15720
840.33	15770
840.467	15823
840.604	15918
840.742	16090
840.879	15637
841.016	15743
841.153	15785
841.29	15994
841.427	15850
841.564	15880
841.701	15842
841.838	15819
841.975	15663
842.112	15808
842.249	15637
842.385	15591
842.522	15865
842.659	15652
842.796	15591
842.933	15610
843.069	15416
843.206	15545
843.343	15682
843.479	15637
843.616	15652
843.752	15420
843.889	15526
844.025	15606
844.162	15321
844.298	15564
844.435	15382
844.571	15321
844.708	15500
844.844	15606
844.98	15572
845.117	15431
845.253	15393
845.389	15226
845.525	15367
845.661	15378
845.798	15058
845.934	15264
846.07	15169
846.206	15260
846.342	15408
846.478	15135
846.614	15009
846.75	14861
846.886	14899
847.022	15077
847.158	15051
847.294	15028
847.429	15020
847.565	14880
847.701	15203
847.837	14712
847.972	14659
848.108	14838
848.244	14826
848.379	14613
848.515	14610
848.65	14560
848.786	14625
848.921	14640
849.057	14663
849.192	14716
849.328	14667
849.463	14590
849.598	14511
849.734	14518
849.869	14465
850.004	14370
850.14	14389
850.275	14389
850.41	14309
850.545	14252
850.68	14313
850.815	14267
850.95	14240
851.085	14454
851.22	14507
851.355	14385
851.49	14229
851.625	14328
851.76	14214
851.895	14221
852.03	14294
852.165	14271
852.299	14351
852.434	14454
852.569	14358
852.703	14355
852.838	14400
852.973	14530
853.107	14423
853.242	14298
853.376	14149
853.511	14168
853.645	14153
853.78	14332
853.914	14206
854.048	14134
854.183	14240
854.317	14290
854.451	14351
854.585	14157
854.72	14168
854.854	14336
854.988	14073
855.122	14180
855.256	14054
855.39	14183
855.524	14294
855.658	14244
855.792	14221
855.926	14210
856.06	14263
856.194	14381
856.327	14240
856.461	14233
856.595	14134
856.729	14210
856.862	14290
856.996	14195
857.13	14305
857.263	14400
857.397	14347
857.53	14130
857.664	14252
857.797	14218
857.931	14290
858.064	14332
858.197	14298
858.331	14123
858.464	14050
858.597	14305
858.731	14195
858.864	14248
858.997	14123
859.13	14332
859.263	14221
859.396	14309
859.529	14096
859.662	14138
859.795	14031
859.928	14210
860.061	14324
860.194	14271
860.327	14191
860.46	14172
860.592	14298
860.725	14377
860.858	14476
860.99	14218
861.123	14035
861.256	14172
861.388	14168
861.521	15043
861.653	14111
861.786	13951
861.918	14058
862.05	14107
862.183	14221
862.315	14183
862.447	14206
862.58	14134
862.712	13951
862.844	13883
862.976	13993
863.108	14054
863.24	14324
863.372	13951
863.504	13967
863.636	13993
863.768	14005
863.9	14005
864.032	13883
864.164	13951
864.296	14073
864.428	14081
864.559	14176
864.691	14111
864.823	13970
864.954	14008
865.086	14077
865.217	14031
865.349	13894
865.48	13925
865.612	13944
865.743	14142
865.875	13970
866.006	13856
866.137	13978
866.269	14008
866.4	13909
866.531	13883
866.662	13978
866.793	13902
866.924	13906
867.055	14016
867.186	13955
867.317	13909
867.448	13940
867.579	14024
867.71	13902
867.841	13864
867.972	13944
868.103	13982
868.233	14012
868.364	13890
868.495	13989
868.625	14119
868.756	14259
868.886	14176
869.017	14187
869.147	14294
869.278	14301
869.408	14248
869.539	14252
869.669	14396
869.799	14210
869.929	14320
870.06	14240
870.19	14556
870.32	14545
870.45	14522
870.58	14545
870.71	14689
870.84	14735
870.97	14590
871.1	14606
871.23	14845
871.36	14765
871.489	14720
871.619	14754
871.749	14838
871.879	14838
872.008	14979
872.138	14872
872.267	14796
872.397	14663
872.526	14689
872.656	14651
872.785	14682
872.915	14838
873.044	14914
873.173	14883
873.303	14895
873.432	14815
873.561	15013
873.69	14823
873.819	14868
873.948	14876
874.077	14895
874.206	14899
874.335	14895
874.464	15001
874.593	15218
874.722	15154
874.851	15195
874.979	15097
875.108	15176
875.237	15165
875.365	15119
875.494	15230
875.623	15272
875.751	15142
875.88	15218
876.008	15435
876.136	15424
876.265	15629
876.393	15671
876.521	15671
876.65	15720
876.778	15599
876.906	15599
877.034	15530
877.162	15542
877.29	15523
877.418	15511
877.546	15637
877.674	15519
877.802	15584
877.93	15568
878.058	15599
878.185	15545
878.313	15496
878.441	15591
878.568	15420
878.696	15557
878.824	15603
878.951	15606
879.079	15675
879.206	15895
879.333	15625
879.461	15629
879.588	15778
879.715	15743
879.842	15846
879.97	15663
880.097	15500
880.224	15435
880.351	15538
880.478	15454
880.605	15469
880.732	15496
880.859	15698
880.986	15496
881.112	15542
881.239	15268
881.366	15180
881.493	15135
881.619	15077
881.746	15173
881.872	15066
881.999	15199
882.125	15104
882.252	15165
882.378	15161
882.505	15256
882.631	15051
882.757	14864
882.883	14899
883.01	14956
883.136	14857
883.262	14796
883.388	14777
883.514	14891
883.64	14990
883.766	14929
883.892	14792
884.018	14804
884.143	14948
884.269	14941
884.395	14735
884.52	14640
884.646	14682
884.772	14537
884.897	14583
885.023	14667
885.148	14629
885.274	14781
885.399	14716
885.524	14522
885.65	14636
885.775	14739
885.9	14682
886.025	14739
886.15	14708
886.275	14697
886.4	14560
886.525	14640
886.65	14488
886.775	14442
886.9	14845
887.025	14804
887.149	14632
887.274	14461
887.399	14415
887.523	14358
887.648	14450
887.773	14313
887.897	14511
888.021	14465
888.146	14446
888.27	14526
888.395	14610
888.519	14495
888.643	14541
888.767	14560
888.891	14370
889.015	14343
889.139	14320
889.263	14290
889.387	14454
889.511	14571
889.635	14454
889.759	14275
889.883	14298
890.006	14396
890.13	14454
890.254	14275
890.377	14358
890.501	14123
890.624	14123
890.748	14248
890.871	13993
890.995	13978
891.118	13852
891.241	14005
891.364	14008
891.488	14153
891.611	14008
891.734	14005
891.857	14130
891.98	14092
892.103	14130
892.226	14050
892.349	14123
892.471	13894
892.594	14062
892.717	14069
892.839	14065
892.962	14123
893.085	14046
893.207	14027
893.33	13917
893.452	13997
893.575	14054
893.697	13932
893.819	14168
893.941	14202
894.064	14180
894.186	13917
894.308	13913
894.43	14191
894.552	14256
894.674	14164
894.796	14020
894.918	14123
895.04	14088
895.161	14199
895.283	14088
895.405	13909
895.526	14153
895.648	14084
895.769	14138
895.891	14229
896.012	14225
896.134	14168
896.255	14145
896.376	14065
896.498	14275
896.619	14267
896.74	14286
896.861	14252
896.982	14507
897.103	14667
897.224	14571
897.345	14492
897.466	14412
897.587	14381
897.708	14488
897.828	14484
897.949	14336
898.07	14385
898.19	14412
898.311	14590
898.431	14552
898.552	14568
898.672	14655
898.792	14594
898.913	14564
899.033	14545
899.153	14461
899.273	14252
899.393	14393
899.513	14518
899.633	14313
899.753	14450
899.873	14362
899.993	14457
900.113	14362
900.232	14370
900.352	14412
900.472	14286
900.591	14225
900.711	14294
900.83	14191
900.95	14423
901.069	14324
901.189	14191
901.308	14046
901.427	13799
901.546	13940
901.665	13959
901.784	14001
901.904	13856
902.023	13727
902.141	13624
902.26	13609
902.379	13578
902.498	13525
902.617	13453
902.735	13514
902.854	13460
902.973	13472
903.091	13244
903.21	13278
903.328	13282
903.446	13160
903.565	13099
903.683	13099
903.801	13023
903.919	12966
904.038	13152
904.156	12993
904.274	12970
904.392	12882
904.51	12806
904.627	12966
904.745	12920
904.863	12954
904.981	12688
905.098	12627
905.216	12566
905.334	12635
905.451	12696
905.569	12502
905.686	12650
905.803	12627
905.921	12407
906.038	12555
906.155	12388
906.272	12395
906.389	12372
906.506	12216
906.623	12239
906.74	12243
906.857	12079
906.974	12057
907.091	12186
907.208	12342
907.324	12186
907.441	12129
907.557	11923
907.674	11901
907.79	11863
907.907	11874
908.023	12019
908.139	11950
908.256	11863
908.372	11897
908.488	11779
908.604	11691
908.72	11695
908.836	11657
908.952	11733
909.068	11638
909.184	11805
909.3	11668
909.415	11714
909.531	11691
909.647	11558
909.762	11452
909.878	11429
909.993	11524
910.108	11433
910.224	11486
910.339	11395
910.454	11383
910.57	11280
910.685	11174
910.8	11577
910.915	11524
911.03	11250
911.145	11265
911.259	11162
911.374	11193
911.489	11121
911.604	11022
911.718	10942
911.833	10930
911.947	10843
912.062	10748
912.176	10987
912.291	10949
912.405	10919
912.519	11132
912.633	11098
912.748	11025
912.862	10984
912.976	10831
913.09	10687
913.204	10740
913.318	10889
913.431	10889
913.545	10847
913.659	10976
913.772	10850
913.886	10736
914	10706
914.113	10812
914.226	10767
914.34	10771
914.453	10584
914.566	10793
914.68	10725
914.793	10694
914.906	10344
915.019	10512
915.132	10386
915.245	10402
915.358	10398
915.47	10470
915.583	10466
915.696	10577
915.809	10546
915.921	10519
916.034	10329
916.146	10443
916.259	10382
916.371	10577
916.483	10493
916.595	10314
916.708	10428
916.82	10306
916.932	10341
917.044	10322
917.156	10375
917.268	10310
917.38	10253
917.491	10154
917.603	10325
917.715	10375
917.826	10344
917.938	10246
918.049	10207
918.161	10242
918.272	10398
918.384	10413
918.495	10318
918.606	10257
918.717	10105
918.828	10150
918.939	10188
919.05	10040
919.161	10120
919.272	9983
919.383	10002
919.494	10188
919.604	10382
919.715	10166
919.826	10032
919.936	10150
920.047	10227
920.157	10150
920.267	10356
920.378	10181
920.488	10166
920.598	10284
920.708	10443
920.818	10413
920.928	10325
921.038	10569
921.148	10462
921.258	10162
921.368	10116
921.477	10059
921.587	10013
921.697	9899
921.806	10067
921.916	9941
922.025	9778
922.134	9740
922.244	9709
922.353	9804
922.462	9625
922.571	9587
922.68	9443
922.789	9393
922.898	9439
923.007	9321
923.116	9492
923.224	9393
923.333	9408
923.442	9306
923.55	9325
923.659	9264
923.767	9348
923.876	9256
923.984	9321
924.092	9222
924.201	9275
924.309	9249
924.417	9291
924.525	9256
924.633	9180
924.741	10166
924.849	9039
924.956	9317
925.064	9074
925.172	8952
925.279	9028
925.387	9097
925.494	9123
925.602	9169
925.709	9112
925.816	8975
925.924	9077
926.031	9104
926.138	9138
926.245	9070
926.352	9070
926.459	9036
926.566	9157
926.673	9051
926.779	8899
926.886	8914
926.993	8777
927.099	8754
927.206	8766
927.312	8754
927.419	8796
927.525	8815
927.631	8868
927.737	8773
927.843	8579
927.95	8602
928.056	8708
928.162	8716
928.267	8792
928.373	9195
928.479	8796
928.585	8526
928.69	8682
928.796	8785
928.901	8594
929.007	8412
929.112	8655
929.218	8541
929.323	8457
929.428	8549
929.533	8663
929.638	8499
929.743	8457
929.848	8530
929.953	8533
930.058	8408
930.163	8286
930.267	8279
930.372	8358
930.477	8248
930.581	8522
930.685	8279
930.79	8225
930.894	8275
930.998	8145
931.103	8370
931.207	8008
931.311	7951
931.415	7864
931.519	7742
931.623	7753
