Data from test_V78500241_1049.txt Node
Date: Fri Mar 25 14:41:01 CST 2022
User: usil
Spectrometer: V785-0024
Trigger mode: 0
Integration Time (sec): 4.000000E-1
Scans to average: 1
Nonlinearity correction enabled: false
Boxcar width: 0
Storing dark spectrum: false
XAxis mode: Wavelengths
Number of Pixels in Spectrum: 1024
>>>>>Begin Spectral Data<<<<<
801.071	22896
801.214	22729
801.356	22443
801.499	22424
801.641	22230
801.783	22234
801.926	22166
802.068	22082
802.211	22029
802.353	21960
802.496	21698
802.638	21732
802.78	21644
802.923	21466
803.065	21591
803.208	21450
803.35	21523
803.492	21690
803.635	21797
803.777	21511
803.919	21587
804.061	21918
804.204	21690
804.346	21492
804.488	21443
804.63	21504
804.773	21481
804.915	21458
805.057	21652
805.199	21572
805.341	21561
805.483	21686
805.626	21515
805.768	21477
805.91	21496
806.052	21599
806.194	21466
806.336	21713
806.478	21443
806.62	21431
806.762	21622
806.904	21770
807.046	21884
807.188	21876
807.33	21861
807.472	21998
807.614	21907
807.756	21926
807.898	21895
808.04	21812
808.182	21937
808.324	21979
808.465	22124
808.607	22341
808.749	22470
808.891	22607
809.033	22729
809.174	22694
809.316	22440
809.458	22386
809.6	22242
809.741	22166
809.883	22128
810.025	22287
810.166	22215
810.308	22109
810.45	22067
810.591	22040
810.733	21918
810.875	21956
811.016	21694
811.158	21778
811.299	21888
811.441	21812
811.582	21850
811.724	21736
811.865	21690
812.007	21720
812.148	21789
812.29	21785
812.431	21949
812.573	22074
812.714	22059
812.855	22185
812.997	22303
813.138	22443
813.279	22443
813.421	22162
813.562	22063
813.703	21873
813.845	21880
813.986	21561
814.127	21344
814.268	21317
814.41	21260
814.551	21268
814.692	21233
814.833	21252
814.974	21233
815.115	21214
815.256	21039
815.397	21192
815.539	21116
815.68	20952
815.821	20937
815.962	20956
816.103	20944
816.244	20826
816.385	20773
816.526	20712
816.666	20454
816.807	20263
816.948	20693
817.089	20571
817.23	20476
817.371	20347
817.512	20454
817.653	20385
817.793	20419
817.934	20423
818.075	20286
818.216	20457
818.356	20343
818.497	20214
818.638	20065
818.778	20100
818.919	20031
819.06	20073
819.2	20252
819.341	20328
819.481	20218
819.622	20431
819.762	20617
819.903	20499
820.043	20469
820.184	20400
820.324	20374
820.465	20492
820.605	20473
820.746	20400
820.886	20320
821.026	20298
821.167	20355
821.307	20381
821.447	20309
821.588	20195
821.728	20088
821.868	19947
822.008	19750
822.149	19727
822.289	19708
822.429	19491
822.569	19335
822.709	19457
822.849	19320
822.99	19293
823.13	19312
823.27	19308
823.41	19206
823.55	18977
823.69	19076
823.83	19145
823.97	19034
824.11	18985
824.25	18798
824.389	18764
824.529	18802
824.669	18863
824.809	18935
824.949	18897
825.089	18924
825.228	18897
825.368	18772
825.508	18688
825.648	18642
825.787	18677
825.927	18684
826.067	18646
826.206	18521
826.346	18597
826.485	18635
826.625	18665
826.765	18749
826.904	18563
827.044	18452
827.183	18323
827.323	18365
827.462	18456
827.601	18296
827.741	18258
827.88	18285
828.02	18194
828.159	18228
828.298	18304
828.437	18262
828.577	18209
828.716	18388
828.855	18300
828.994	18026
829.134	17980
829.273	18129
829.412	17980
829.551	18041
829.69	18140
829.829	18155
829.968	18197
830.107	18114
830.246	18140
830.385	17935
830.524	17935
830.663	17885
830.802	17859
830.941	17684
831.08	17665
831.219	17745
831.357	17764
831.496	17897
831.635	17634
831.774	17547
831.913	17585
832.051	17486
832.19	17444
832.329	17524
832.467	17402
832.606	17395
832.744	17356
832.883	17429
833.022	17429
833.16	17417
833.299	17516
833.437	17452
833.576	17398
833.714	17497
833.852	17474
833.991	17528
834.129	17459
834.267	17520
834.406	17524
834.544	17429
834.682	17539
834.821	17383
834.959	17630
835.097	17288
835.235	17676
835.373	17429
835.511	17429
835.65	17356
835.788	17318
835.926	17254
836.064	17132
836.202	17330
836.34	17444
836.478	17360
836.615	17322
836.753	17398
836.891	17372
837.029	17406
837.167	17128
837.305	17315
837.443	17250
837.58	17258
837.718	17227
837.856	17258
837.993	17189
838.131	17220
838.269	17098
838.406	17045
838.544	17071
838.681	16927
838.819	16862
838.956	16797
839.094	16649
839.231	16824
839.369	16900
839.506	17086
839.643	16984
839.781	16816
839.918	16675
840.055	16740
840.193	16748
840.33	16656
840.467	16713
840.604	16877
840.742	16942
840.879	16611
841.016	16656
841.153	16641
841.29	16919
841.427	16763
841.564	16752
841.701	16733
841.838	16729
841.975	16664
842.112	16611
842.249	16592
842.385	16478
842.522	16683
842.659	16485
842.796	16478
842.933	16481
843.069	16466
843.206	16474
843.343	16512
843.479	16497
843.616	16497
843.752	16226
843.889	16226
844.025	16409
844.162	16272
844.298	16379
844.435	16257
844.571	16249
844.708	16367
844.844	16443
844.98	16481
845.117	16447
845.253	16268
845.389	16314
845.525	16447
845.661	16577
845.798	16702
845.934	16793
846.07	16881
846.206	16862
846.342	16866
846.478	16561
846.614	16276
846.75	15975
846.886	15960
847.022	15975
847.158	15835
847.294	15778
847.429	15930
847.565	15823
847.701	16063
847.837	15629
847.972	15603
848.108	15614
848.244	15637
848.379	15492
848.515	15431
848.65	15424
848.786	15363
848.921	15500
849.057	15614
849.192	15610
849.328	15439
849.463	15450
849.598	15363
849.734	15393
849.869	15332
850.004	15222
850.14	15203
850.275	15252
850.41	15157
850.545	15245
850.68	15146
850.815	15192
850.95	15100
851.085	15237
851.22	15275
851.355	15097
851.49	15260
851.625	15222
851.76	15013
851.895	15100
852.03	15123
852.165	15116
852.299	15287
852.434	15279
852.569	15173
852.703	15150
852.838	15287
852.973	15329
853.107	15321
853.242	15165
853.376	15165
853.511	14971
853.645	15051
853.78	15112
853.914	15097
854.048	15039
854.183	14853
854.317	15066
854.451	15272
854.585	15081
854.72	15009
854.854	15085
854.988	14883
855.122	15066
855.256	14956
855.39	15055
855.524	15116
855.658	15131
855.792	15055
855.926	15104
856.06	15089
856.194	15142
856.327	15001
856.461	15058
856.595	14990
856.729	15089
856.862	15108
856.996	15123
857.13	15135
857.263	15218
857.397	15157
857.53	15051
857.664	15104
857.797	15097
857.931	15154
858.064	15199
858.197	15184
858.331	15138
858.464	15070
858.597	14956
858.731	15043
858.864	15043
858.997	14994
859.13	15146
859.263	14994
859.396	15169
859.529	15077
859.662	14990
859.795	15017
859.928	15176
860.061	15252
860.194	15241
860.327	15081
860.46	15127
860.592	15146
860.725	15199
860.858	15195
860.99	15013
861.123	14956
861.256	15005
861.388	15058
861.521	15648
861.653	14960
861.786	14842
861.918	14853
862.05	14975
862.183	14967
862.315	15020
862.447	15070
862.58	15047
862.712	14765
862.844	14727
862.976	14872
863.108	14845
863.24	15325
863.372	14762
863.504	14758
863.636	14781
863.768	14861
863.9	14876
864.032	14773
864.164	14724
864.296	14781
864.428	14937
864.559	14944
864.691	14914
864.823	14792
864.954	14777
865.086	14826
865.217	14864
865.349	14636
865.48	14697
865.612	14796
865.743	14891
865.875	14815
866.006	14861
866.137	14845
866.269	14663
866.4	14746
866.531	14746
866.662	14754
866.793	14758
866.924	14693
867.055	14762
867.186	14727
867.317	14754
867.448	14693
867.579	14765
867.71	14655
867.841	14754
867.972	14811
868.103	14678
868.233	14731
868.364	14785
868.495	14842
868.625	15039
868.756	15116
868.886	14883
869.017	14975
869.147	15104
869.278	15074
869.408	15017
869.539	15043
869.669	15085
869.799	14918
869.929	15116
870.06	15207
870.19	15298
870.32	15367
870.45	15428
870.58	15336
870.71	15492
870.84	15534
870.97	15469
871.1	15393
871.23	15637
871.36	15561
871.489	15443
871.619	15660
871.749	15610
871.879	15694
872.008	15770
872.138	15648
872.267	15557
872.397	15469
872.526	15420
872.656	15469
872.785	15481
872.915	15690
873.044	15781
873.173	15606
873.303	15667
873.432	15667
873.561	15812
873.69	15694
873.819	15652
873.948	15759
874.077	15709
874.206	15679
874.335	15717
874.464	15884
874.593	15998
874.722	16017
874.851	15956
874.979	16032
875.108	16173
875.237	15918
875.365	15888
875.494	15983
875.623	16185
875.751	16006
875.88	16181
876.008	16238
876.136	16139
876.265	16481
876.393	16645
876.521	16550
876.65	16504
876.778	16405
876.906	16360
877.034	16318
877.162	16402
877.29	16390
877.418	16417
877.546	16466
877.674	16436
877.802	16485
877.93	16470
878.058	16402
878.185	16436
878.313	16584
878.441	16523
878.568	16402
878.696	16565
878.824	16573
878.951	16660
879.079	16767
879.206	16949
879.333	16942
879.461	16885
879.588	17006
879.715	17064
879.842	17094
879.97	16866
880.097	16558
880.224	16417
880.351	16493
880.478	16447
880.605	16371
880.732	16386
880.859	16645
880.986	16367
881.112	16474
881.239	16200
881.366	16173
881.493	16006
881.619	16044
881.746	15994
881.872	16013
881.999	16002
882.125	15960
882.252	16032
882.378	15979
882.505	16219
882.631	15998
882.757	15854
882.883	15876
883.01	15903
883.136	15827
883.262	15759
883.388	15637
883.514	15911
883.64	15930
883.766	15831
883.892	15610
884.018	15618
884.143	15846
884.269	15838
884.395	15553
884.52	15507
884.646	15618
884.772	15545
884.897	15393
885.023	15561
885.148	15591
885.274	15785
885.399	15686
885.524	15416
885.65	15580
885.775	15572
885.9	15553
886.025	15804
886.15	15553
886.275	15526
886.4	15435
886.525	15428
886.65	15424
886.775	15351
886.9	15584
887.025	15785
887.149	15568
887.274	15363
887.399	15207
887.523	15298
887.648	15169
887.773	15211
887.897	15317
888.021	15462
888.146	15287
888.27	15420
888.395	15477
888.519	15344
888.643	15348
888.767	15306
888.891	15321
889.015	15135
889.139	15188
889.263	15157
889.387	15386
889.511	15382
889.635	15260
889.759	15100
889.883	15173
890.006	15169
890.13	15222
890.254	15055
890.377	15070
890.501	14849
890.624	14975
890.748	14963
890.871	14872
890.995	14754
891.118	14815
891.241	14849
891.364	14769
891.488	14963
891.611	14724
891.734	14887
891.857	14800
891.98	14819
892.103	14807
892.226	14861
892.349	14777
892.471	14651
892.594	14792
892.717	14754
892.839	14811
892.962	14765
893.085	14895
893.207	14792
893.33	14705
893.452	14781
893.575	14823
893.697	14864
893.819	14910
893.941	15074
894.064	14849
894.186	14765
894.308	14762
894.43	14937
894.552	15077
894.674	14895
894.796	14617
894.918	14739
895.04	14754
895.161	14941
895.283	14914
895.405	14796
895.526	14929
895.648	14750
895.769	14887
895.891	14906
896.012	14876
896.134	14960
896.255	14960
896.376	14902
896.498	14963
896.619	14994
896.74	14921
896.861	14941
896.982	15344
897.103	15321
897.224	15260
897.345	15192
897.466	15112
897.587	15207
897.708	15374
897.828	15173
897.949	15028
898.07	15077
898.19	15192
898.311	15302
898.431	15169
898.552	15226
898.672	15389
898.792	15340
898.913	15340
899.033	15192
899.153	15161
899.273	15039
899.393	15138
899.513	15123
899.633	15180
899.753	15173
899.873	15077
899.993	15176
900.113	15116
900.232	15184
900.352	15123
900.472	14994
900.591	15005
900.711	14941
900.83	14902
900.95	15218
901.069	15047
901.189	14986
901.308	14708
901.427	14636
901.546	14678
901.665	14667
901.784	14602
901.904	14533
902.023	14461
902.141	14259
902.26	14168
902.379	14275
902.498	14278
902.617	14157
902.735	14240
902.854	14161
902.973	14058
903.091	13887
903.21	13879
903.328	13959
903.446	13864
903.565	13727
903.683	13750
903.801	13575
903.919	13784
904.038	13746
904.156	13624
904.274	13662
904.392	13586
904.51	13666
904.627	13571
904.745	13613
904.863	13677
904.981	13381
905.098	13293
905.216	13247
905.334	13304
905.451	13228
905.569	13270
905.686	13263
905.803	13194
905.921	13107
906.038	13080
906.155	13091
906.272	12989
906.389	12947
906.506	12806
906.623	12779
906.74	12814
906.857	12757
906.974	12711
907.091	12913
907.208	13019
907.324	12791
907.441	12779
907.557	12604
907.674	12616
907.79	12513
907.907	12574
908.023	12601
908.139	12490
908.256	12486
908.372	12456
908.488	12521
908.604	12319
908.72	12239
908.836	12247
908.952	12311
909.068	12266
909.184	12361
909.3	12319
909.415	12319
909.531	12407
909.647	12057
909.762	12171
909.878	12083
909.993	12072
910.108	12072
910.224	12041
910.339	12095
910.454	11984
910.57	11920
910.685	11954
910.8	12258
910.915	12003
911.03	11973
911.145	11737
911.259	11737
911.374	11767
911.489	11672
911.604	11684
911.718	11600
911.833	11668
911.947	11391
912.062	11364
912.176	11509
912.291	11490
912.405	11493
912.519	11703
912.633	11718
912.748	11600
912.862	11501
912.976	11402
913.09	11296
913.204	11410
913.318	11368
913.431	11467
913.545	11493
913.659	11497
913.772	11433
913.886	11299
914	11193
914.113	11387
914.226	11360
914.34	11402
914.453	11197
914.566	11345
914.68	11204
914.793	11151
914.906	11022
915.019	10965
915.132	10919
915.245	10934
915.358	10984
915.47	10972
915.583	10942
915.696	10995
915.809	11029
915.921	11090
916.034	11003
916.146	10942
916.259	10866
916.371	11052
916.483	11052
916.595	10892
916.708	10843
916.82	10908
916.932	10968
917.044	10850
917.156	10831
917.268	10786
917.38	10847
917.491	10816
917.603	10839
917.715	10877
917.826	10911
917.938	10793
918.049	10725
918.161	10835
918.272	10850
918.384	10904
918.495	10778
918.606	10786
918.717	10626
918.828	10634
918.939	10675
919.05	10618
919.161	10717
919.272	10493
919.383	10538
919.494	10744
919.604	10869
919.715	10675
919.826	10664
919.936	10645
920.047	10831
920.157	10733
920.267	10896
920.378	10733
920.488	10683
920.598	10854
920.708	11029
920.818	10869
920.928	10854
921.038	11006
921.148	10995
921.258	10698
921.368	10630
921.477	10596
921.587	10527
921.697	10405
921.806	10489
921.916	10371
922.025	10261
922.134	10173
922.244	10173
922.353	10284
922.462	10109
922.571	10105
922.68	9907
922.789	9907
922.898	9983
923.007	9823
923.116	9903
923.224	9804
923.333	9842
923.442	9816
923.55	9694
923.659	9846
923.767	9865
923.876	9812
923.984	9797
924.092	9690
924.201	9819
924.309	9816
924.417	9751
924.525	9736
924.633	9759
924.741	10668
924.849	9523
924.956	9618
925.064	9519
925.172	9378
925.279	9561
925.387	9504
925.494	9587
925.602	9682
925.709	9564
925.816	9477
925.924	9534
926.031	9663
926.138	9538
926.245	9572
926.352	9454
926.459	9576
926.566	9584
926.673	9447
926.779	9416
926.886	9374
926.993	9237
927.099	9253
927.206	9192
927.312	9211
927.419	9306
927.525	9283
927.631	9268
927.737	9188
927.843	9142
927.95	9066
928.056	9203
928.162	9150
928.267	9157
928.373	9728
928.479	9237
928.585	8967
928.69	9135
928.796	9081
928.901	9058
929.007	8963
929.112	9097
929.218	9013
929.323	8971
929.428	8921
929.533	9081
929.638	8929
929.743	8861
929.848	8960
929.953	8941
930.058	8804
930.163	8686
930.267	8716
930.372	8872
930.477	8670
930.581	8895
930.685	8712
930.79	8708
930.894	8564
930.998	8629
931.103	8811
931.207	8396
931.311	8313
931.415	8347
931.519	8084
931.623	8142
