Data from test_V78500241_324.txt Node
Date: Fri Mar 25 14:35:58 CST 2022
User: usil
Spectrometer: V785-0024
Trigger mode: 0
Integration Time (sec): 4.000000E-1
Scans to average: 1
Nonlinearity correction enabled: false
Boxcar width: 0
Storing dark spectrum: false
XAxis mode: Wavelengths
Number of Pixels in Spectrum: 1024
>>>>>Begin Spectral Data<<<<<
801.071	27013
801.214	26861
801.356	26773
801.499	26590
801.641	26480
801.783	26370
801.926	26552
802.068	26290
802.211	26343
802.353	26195
802.496	26039
802.638	26046
802.78	25963
802.923	25799
803.065	25883
803.208	25860
803.35	25871
803.492	26008
803.635	26134
803.777	25986
803.919	25951
804.061	26309
804.204	25963
804.346	25772
804.488	25750
804.63	26024
804.773	25818
804.915	25925
805.057	26054
805.199	25978
805.341	25951
805.483	26005
805.626	26012
805.768	25883
805.91	25974
806.052	25989
806.194	25925
806.336	26225
806.478	26092
806.62	25757
806.762	26202
806.904	26153
807.046	26476
807.188	26267
807.33	26381
807.472	26336
807.614	26240
807.756	26263
807.898	26233
808.04	26172
808.182	26149
808.324	26267
808.465	26244
808.607	26332
808.749	26511
808.891	26746
809.033	26632
809.174	26640
809.316	26537
809.458	26469
809.6	26366
809.741	26564
809.883	26579
810.025	26731
810.166	26724
810.308	26606
810.45	26648
810.591	26549
810.733	26385
810.875	26324
811.016	26214
811.158	26305
811.299	26358
811.441	26537
811.582	26476
811.724	26438
811.865	26434
812.007	26423
812.148	26237
812.29	26381
812.431	26385
812.573	26609
812.714	26621
812.855	26739
812.997	26838
813.138	27081
813.279	26849
813.421	26792
813.562	26872
813.703	26686
813.845	26552
813.986	26115
814.127	26054
814.268	25970
814.41	25966
814.551	25864
814.692	26088
814.833	25864
814.974	25784
815.115	25868
815.256	25693
815.397	25670
815.539	25685
815.68	25430
815.821	25643
815.962	25830
816.103	25666
816.244	25613
816.385	25422
816.526	25491
816.666	25183
816.807	25038
816.948	25088
817.089	25145
817.23	25061
817.371	24901
817.512	24878
817.653	24932
817.793	24996
817.934	24985
818.075	25099
818.216	25027
818.356	24810
818.497	24829
818.638	24601
818.778	24631
818.919	24856
819.06	24787
819.2	24779
819.341	24901
819.481	24913
819.622	25050
819.762	25381
819.903	25190
820.043	25061
820.184	24977
820.324	25034
820.465	25107
820.605	25050
820.746	24852
820.886	24825
821.026	24985
821.167	24920
821.307	24962
821.447	24837
821.588	24772
821.728	24616
821.868	24563
822.008	24350
822.149	24380
822.289	24292
822.429	24068
822.569	23973
822.709	23946
822.849	23840
822.99	23767
823.13	23836
823.27	23855
823.41	23535
823.55	23516
823.69	23604
823.83	23615
823.97	23482
824.11	23391
824.25	23467
824.389	23326
824.529	23482
824.669	23322
824.809	23414
824.949	23410
825.089	23440
825.228	23391
825.368	23212
825.508	23060
825.648	23239
825.787	23318
825.927	23102
826.067	23041
826.206	23060
826.346	23185
826.485	23208
826.625	23124
826.765	23235
826.904	23269
827.044	22968
827.183	22881
827.323	22816
827.462	22930
827.601	22881
827.741	22843
827.88	22847
828.02	22725
828.159	22729
828.298	22908
828.437	22774
828.577	22771
828.716	22748
828.855	22721
828.994	22443
829.134	22527
829.273	22516
829.412	22493
829.551	22485
829.69	22584
829.829	22557
829.968	22580
830.107	22485
830.246	22550
830.385	22428
830.524	22272
830.663	22424
830.802	22135
830.941	22124
831.08	22051
831.219	22086
831.357	22120
831.496	22192
831.635	22097
831.774	21857
831.913	21945
832.051	21823
832.19	21880
832.329	21846
832.467	21690
832.606	21816
832.744	21648
832.883	21808
833.022	21644
833.16	21713
833.299	21751
833.437	21800
833.576	21800
833.714	21671
833.852	21705
833.991	21800
834.129	21797
834.267	21778
834.406	21701
834.544	21785
834.682	21682
834.821	21648
834.959	21922
835.097	21682
835.235	21762
835.373	21671
835.511	21637
835.65	21595
835.788	21583
835.926	21477
836.064	21310
836.202	21340
836.34	21580
836.478	21629
836.615	21713
836.753	21485
836.891	21755
837.029	21709
837.167	21504
837.305	21397
837.443	21450
837.58	21469
837.718	21370
837.856	21443
837.993	21374
838.131	21302
838.269	21287
838.406	21306
838.544	21188
838.681	21108
838.819	20982
838.956	20902
839.094	20883
839.231	20937
839.369	20929
839.506	21188
839.643	21051
839.781	20857
839.918	20781
840.055	20872
840.193	20849
840.33	20712
840.467	20815
840.604	20727
840.742	21085
840.879	20590
841.016	20739
841.153	20606
841.29	20819
841.427	20792
841.564	20842
841.701	20697
841.838	20587
841.975	20590
842.112	20606
842.249	20533
842.385	20526
842.522	20648
842.659	20648
842.796	20408
842.933	20412
843.069	20404
843.206	20377
843.343	20530
843.479	20370
843.616	20473
843.752	20218
843.889	20225
844.025	20442
844.162	20119
844.298	20275
844.435	20332
844.571	20187
844.708	20134
844.844	20332
844.98	20298
845.117	20256
845.253	20210
845.389	20126
845.525	20138
845.661	20168
845.798	20031
845.934	20054
846.07	19986
846.206	19978
846.342	20191
846.478	20016
846.614	19894
846.75	19674
846.886	19632
847.022	19856
847.158	19803
847.294	19822
847.429	19772
847.565	19681
847.701	19947
847.837	19438
847.972	19388
848.108	19487
848.244	19586
848.379	19209
848.515	19232
848.65	19228
848.786	19225
848.921	19308
849.057	19430
849.192	19293
849.328	19247
849.463	19179
849.598	19202
849.734	19183
849.869	19084
850.004	18913
850.14	19091
850.275	19091
850.41	19050
850.545	18939
850.68	19015
850.815	19023
850.95	18996
851.085	19175
851.22	19122
851.355	19034
851.49	18962
851.625	18863
851.76	18905
851.895	18840
852.03	18897
852.165	18932
852.299	19027
852.434	18947
852.569	18882
852.703	18905
852.838	19095
852.973	19107
853.107	19042
853.242	18935
853.376	18741
853.511	18776
853.645	18646
853.78	18932
853.914	18760
854.048	18749
854.183	18753
854.317	18791
854.451	18970
854.585	18768
854.72	18829
854.854	18947
854.988	18726
855.122	18814
855.256	18623
855.39	18745
855.524	18802
855.658	18802
855.792	18783
855.926	18894
856.06	18852
856.194	18848
856.327	18688
856.461	18760
856.595	18810
856.729	18738
856.862	18806
856.996	18852
857.13	18844
857.263	18878
857.397	18882
857.53	18829
857.664	18844
857.797	18817
857.931	18916
858.064	18741
858.197	18890
858.331	18707
858.464	18726
858.597	18608
858.731	18661
858.864	18658
858.997	18825
859.13	18692
859.263	18681
859.396	18886
859.529	18627
859.662	18673
859.795	18654
859.928	18722
860.061	18787
860.194	18943
860.327	18901
860.46	18738
860.592	18730
860.725	18920
860.858	18787
860.99	18711
861.123	18654
861.256	18604
861.388	18665
861.521	19430
861.653	18555
861.786	18570
861.918	18627
862.05	18631
862.183	18734
862.315	18848
862.447	18837
862.58	18745
862.712	18612
862.844	18452
862.976	18513
863.108	18521
863.24	18814
863.372	18357
863.504	18399
863.636	18517
863.768	18506
863.9	18426
864.032	18395
864.164	18486
864.296	18429
864.428	18551
864.559	18498
864.691	18490
864.823	18490
864.954	18513
865.086	18388
865.217	18311
865.349	18353
865.48	18300
865.612	18346
865.743	18601
865.875	18330
866.006	18311
866.137	18376
866.269	18350
866.4	18475
866.531	18346
866.662	18296
866.793	18254
866.924	18338
867.055	18365
867.186	18308
867.317	18330
867.448	18251
867.579	18365
867.71	18228
867.841	18262
867.972	18319
868.103	18422
868.233	18342
868.364	18281
868.495	18410
868.625	18623
868.756	18566
868.886	18357
869.017	18521
869.147	18631
869.278	18551
869.408	18547
869.539	18597
869.669	18703
869.799	18711
869.929	18692
870.06	18578
870.19	18863
870.32	18852
870.45	18924
870.58	18878
870.71	18989
870.84	18981
870.97	18977
871.1	19012
871.23	19065
871.36	19187
871.489	19076
871.619	19072
871.749	19076
871.879	19217
872.008	19285
872.138	19213
872.267	19137
872.397	19061
872.526	19076
872.656	18901
872.785	19103
872.915	19175
873.044	19282
873.173	19198
873.303	19213
873.432	19228
873.561	19225
873.69	19118
873.819	19107
873.948	19289
874.077	19175
874.206	19221
874.335	19168
874.464	19373
874.593	19525
874.722	19400
874.851	19529
874.979	19460
875.108	19464
875.237	19441
875.365	19426
875.494	19362
875.623	19502
875.751	19384
875.88	19548
876.008	19639
876.136	19723
876.265	19864
876.393	20065
876.521	19875
876.65	19925
876.778	19894
876.906	19818
877.034	19772
877.162	19761
877.29	19746
877.418	19852
877.546	19803
877.674	19731
877.802	19757
877.93	19765
878.058	19811
878.185	19780
878.313	19826
878.441	19788
878.568	19639
878.696	19811
878.824	19887
878.951	19940
879.079	19993
879.206	20020
879.333	20027
879.461	19894
879.588	20077
879.715	19967
879.842	20119
879.97	19951
880.097	19712
880.224	19753
880.351	19769
880.478	19655
880.605	19685
880.732	19704
880.859	19963
880.986	19696
881.112	19723
881.239	19548
881.366	19392
881.493	19320
881.619	19308
881.746	19381
881.872	19381
881.999	19339
882.125	19244
882.252	19415
882.378	19396
882.505	19419
882.631	19247
882.757	19240
882.883	19091
883.01	18932
883.136	19004
883.262	19004
883.388	18897
883.514	18924
883.64	19088
883.766	18985
883.892	18890
884.018	18901
884.143	19023
884.269	19145
884.395	18764
884.52	18631
884.646	18578
884.772	18703
884.897	18681
885.023	18833
885.148	18856
885.274	18859
885.399	18814
885.524	18734
885.65	18681
885.775	18779
885.9	18802
886.025	18814
886.15	18802
886.275	18711
886.4	18517
886.525	18665
886.65	18612
886.775	18525
886.9	18726
887.025	18821
887.149	18578
887.274	18593
887.399	18506
887.523	18471
887.648	18410
887.773	18353
887.897	18559
888.021	18456
888.146	18388
888.27	18460
888.395	18456
888.519	18464
888.643	18452
888.767	18551
888.891	18429
889.015	18228
889.139	18327
889.263	18228
889.387	18407
889.511	18448
889.635	18407
889.759	18194
889.883	18353
890.006	18232
890.13	18361
890.254	18216
890.377	18171
890.501	18026
890.624	17893
890.748	17973
890.871	17889
890.995	17836
891.118	17847
891.241	17870
891.364	17916
891.488	18015
891.611	18038
891.734	17927
891.857	17954
891.98	17836
892.103	17996
892.226	17996
892.349	17840
892.471	17684
892.594	17771
892.717	17824
892.839	17771
892.962	17832
893.085	17908
893.207	17878
893.33	17775
893.452	17790
893.575	17828
893.697	17813
893.819	18015
893.941	17935
894.064	17942
894.186	17703
894.308	17752
894.43	17931
894.552	17904
894.674	17969
894.796	17756
894.918	17840
895.04	17843
895.161	17927
895.283	17901
895.405	17779
895.526	17851
895.648	17840
895.769	17809
895.891	17859
896.012	17935
896.134	17961
896.255	17999
896.376	17874
896.498	17996
896.619	17942
896.74	17942
896.861	18072
896.982	18262
897.103	18327
897.224	18209
897.345	18201
897.466	18121
897.587	18121
897.708	18152
897.828	18068
897.949	18038
898.07	18026
898.19	17984
898.311	18251
898.431	18121
898.552	18159
898.672	18152
898.792	18292
898.913	18106
899.033	18015
899.153	17927
899.273	17798
899.393	17828
899.513	17916
899.633	17893
899.753	18038
899.873	17859
899.993	17965
900.113	17771
900.232	17866
900.352	17783
900.472	17775
900.591	17676
900.711	17863
900.83	17745
900.95	17942
901.069	17897
901.189	17608
901.308	17551
901.427	17383
901.546	17433
901.665	17379
901.784	17376
901.904	17307
902.023	17128
902.141	16862
902.26	16820
902.379	16957
902.498	16839
902.617	16843
902.735	16812
902.854	16824
902.973	16866
903.091	16752
903.21	16504
903.328	16569
903.446	16546
903.565	16306
903.683	16363
903.801	16192
903.919	16348
904.038	16272
904.156	16242
904.274	16303
904.392	16200
904.51	16211
904.627	16112
904.745	16120
904.863	16230
904.981	16017
905.098	15774
905.216	15911
905.334	15846
905.451	15823
905.569	15747
905.686	15800
905.803	15739
905.921	15545
906.038	15739
906.155	15656
906.272	15515
906.389	15610
906.506	15523
906.623	15332
906.74	15294
906.857	15249
906.974	15207
907.091	15393
907.208	15473
907.324	15367
907.441	15306
907.557	15222
907.674	15013
907.79	15001
907.907	14982
908.023	15066
908.139	15047
908.256	15032
908.372	15070
908.488	15077
908.604	14845
908.72	14708
908.836	14705
908.952	14720
909.068	14796
909.184	14838
909.3	14716
909.415	14872
909.531	14682
909.647	14530
909.762	14499
909.878	14526
909.993	14492
910.108	14457
910.224	14488
910.339	14473
910.454	14385
910.57	14355
910.685	14248
910.8	14644
910.915	14431
911.03	14313
911.145	14149
911.259	14126
911.374	14043
911.489	14111
911.604	14005
911.718	13772
911.833	13913
911.947	13689
912.062	13662
912.176	13807
912.291	13799
912.405	13887
912.519	14039
912.633	14020
912.748	13978
912.862	13818
912.976	13693
913.09	13613
913.204	13677
913.318	13712
913.431	13788
913.545	13708
913.659	13803
913.772	13632
913.886	13537
914	13491
914.113	13620
914.226	13731
914.34	13544
914.453	13460
914.566	13655
914.68	13449
914.793	13438
914.906	13278
915.019	13137
915.132	13137
915.245	13187
915.358	13263
915.47	13225
915.583	13217
915.696	13156
915.809	13293
915.921	13293
916.034	13141
916.146	13141
916.259	13084
916.371	13118
916.483	13095
916.595	13065
916.708	13137
916.82	13114
916.932	13019
917.044	13000
917.156	12970
917.268	12878
917.38	12905
917.491	12916
917.603	12916
917.715	13023
917.826	13008
917.938	12905
918.049	12772
918.161	12947
918.272	13072
918.384	12951
918.495	12890
918.606	12646
918.717	12639
918.828	12719
918.939	12783
919.05	12616
919.161	12677
919.272	12490
919.383	12521
919.494	12787
919.604	12878
919.715	12734
919.826	12642
919.936	12559
920.047	12692
920.157	12677
920.267	12783
920.378	12734
920.488	12673
920.598	12890
920.708	12924
920.818	12798
920.928	12783
921.038	12943
921.148	12886
921.258	12635
921.368	12593
921.477	12452
921.587	12445
921.697	12273
921.806	12399
921.916	12258
922.025	12148
922.134	12125
922.244	12049
922.353	12129
922.462	11988
922.571	11969
922.68	11729
922.789	11722
922.898	11779
923.007	11748
923.116	11832
923.224	11688
923.333	11821
923.442	11592
923.55	11688
923.659	11547
923.767	11649
923.876	11577
923.984	11630
924.092	11592
924.201	11585
924.309	11558
924.417	11497
924.525	11463
924.633	11497
924.741	12232
924.849	11235
924.956	11478
925.064	11318
925.172	11197
925.279	11242
925.387	11292
925.494	11364
925.602	11356
925.709	11349
925.816	11193
925.924	11246
926.031	11360
926.138	11292
926.245	11387
926.352	11143
926.459	11220
926.566	11337
926.673	11151
926.779	11045
926.886	11064
926.993	10957
927.099	10850
927.206	10908
927.312	10858
927.419	11037
927.525	10896
927.631	10930
927.737	10793
927.843	10824
927.95	10668
928.056	10744
928.162	10767
928.267	10752
928.373	11330
928.479	10835
928.585	10588
928.69	10767
928.796	10835
928.901	10630
929.007	10542
929.112	10656
929.218	10519
929.323	10497
929.428	10485
929.533	10675
929.638	10413
929.743	10424
929.848	10558
929.953	10493
930.058	10424
930.163	10211
930.267	10188
930.372	10314
930.477	10265
930.581	10447
930.685	10242
930.79	10158
930.894	10143
930.998	10078
931.103	10261
931.207	9850
931.311	9884
931.415	9675
931.519	9507
931.623	9523
