Data from test_V78500241_241.txt Node
Date: Fri Mar 25 14:35:24 CST 2022
User: usil
Spectrometer: V785-0024
Trigger mode: 0
Integration Time (sec): 4.000000E-1
Scans to average: 1
Nonlinearity correction enabled: false
Boxcar width: 0
Storing dark spectrum: false
XAxis mode: Wavelengths
Number of Pixels in Spectrum: 1024
>>>>>Begin Spectral Data<<<<<
801.071	27519
801.214	27568
801.356	27325
801.499	27017
801.641	26902
801.783	26883
801.926	26979
802.068	26845
802.211	26819
802.353	26705
802.496	26579
802.638	26583
802.78	26556
802.923	26431
803.065	26450
803.208	26370
803.35	26533
803.492	26533
803.635	26617
803.777	26404
803.919	26644
804.061	26963
804.204	26651
804.346	26396
804.488	26393
804.63	26522
804.773	26431
804.915	26469
805.057	26712
805.199	26438
805.341	26495
805.483	26518
805.626	26488
805.768	26453
805.91	26507
806.052	26503
806.194	26530
806.336	26678
806.478	26613
806.62	26590
806.762	26682
806.904	26727
807.046	26979
807.188	26929
807.33	26853
807.472	27024
807.614	26956
807.756	26933
807.898	26899
808.04	26785
808.182	26750
808.324	26857
808.465	26921
808.607	27074
808.749	27306
808.891	27397
809.033	27382
809.174	27386
809.316	27344
809.458	27230
809.6	27264
809.741	27180
809.883	27028
810.025	27165
810.166	27256
810.308	27386
810.45	27233
810.591	27340
810.733	27104
810.875	27093
811.016	26895
811.158	26914
811.299	27028
811.441	27085
811.582	27119
811.724	26842
811.865	26982
812.007	26883
812.148	27001
812.29	27020
812.431	27195
812.573	27203
812.714	27283
812.855	27405
812.997	27523
813.138	27530
813.279	27370
813.421	27374
813.562	27245
813.703	27222
813.845	27085
813.986	26727
814.127	26602
814.268	26503
814.41	26590
814.551	26473
814.692	26556
814.833	26427
814.974	26328
815.115	26514
815.256	26370
815.397	26317
815.539	26214
815.68	26195
815.821	26119
815.962	26309
816.103	26191
816.244	26130
816.385	25921
816.526	25944
816.666	25704
816.807	25582
816.948	25620
817.089	25772
817.23	25624
817.371	25681
817.512	25632
817.653	25495
817.793	25479
817.934	25788
818.075	25510
818.216	25537
818.356	25556
818.497	25537
818.638	25320
818.778	25278
818.919	25324
819.06	25362
819.2	25430
819.341	25441
819.481	25533
819.622	25590
819.762	25799
819.903	25871
820.043	25616
820.184	25556
820.324	25609
820.465	25662
820.605	25510
820.746	25304
820.886	25403
821.026	25590
821.167	25483
821.307	25544
821.447	25434
821.588	25411
821.728	25259
821.868	25019
822.008	24981
822.149	24894
822.289	24738
822.429	24711
822.569	24547
822.709	24582
822.849	24422
822.99	24395
823.13	24361
823.27	24372
823.41	24152
823.55	24045
823.69	24182
823.83	24106
823.97	24064
824.11	23901
824.25	23980
824.389	23931
824.529	24155
824.669	23813
824.809	24079
824.949	23908
825.089	24064
825.228	23977
825.368	23843
825.508	23714
825.648	23832
825.787	23737
825.927	23786
826.067	23745
826.206	23653
826.346	23817
826.485	23786
826.625	23840
826.765	23752
826.904	23687
827.044	23535
827.183	23596
827.323	23315
827.462	23410
827.601	23459
827.741	23364
827.88	23455
828.02	23280
828.159	23311
828.298	23360
828.437	23387
828.577	23356
828.716	23444
828.855	23265
828.994	23216
829.134	23136
829.273	23033
829.412	23124
829.551	22949
829.69	23014
829.829	23052
829.968	23181
830.107	23121
830.246	23083
830.385	22949
830.524	23010
830.663	22862
830.802	22752
830.941	22656
831.08	22577
831.219	22717
831.357	22611
831.496	22763
831.635	22649
831.774	22481
831.913	22542
832.051	22470
832.19	22489
832.329	22550
832.467	22386
832.606	22272
832.744	22265
832.883	22379
833.022	22219
833.16	22295
833.299	22280
833.437	22230
833.576	22424
833.714	22188
833.852	22470
833.991	22253
834.129	22421
834.267	22375
834.406	22211
834.544	22291
834.682	22318
834.821	22325
834.959	22405
835.097	22135
835.235	22379
835.373	22219
835.511	22295
835.65	22074
835.788	22116
835.926	22021
836.064	21804
836.202	22006
836.34	22025
836.478	22246
836.615	22196
836.753	22207
836.891	22147
837.029	22177
837.167	21983
837.305	21975
837.443	22006
837.58	21907
837.718	22036
837.856	21998
837.993	21785
838.131	21922
838.269	21770
838.406	21823
838.544	21762
838.681	21599
838.819	21622
838.956	21435
839.094	21405
839.231	21397
839.369	21564
839.506	21717
839.643	21633
839.781	21469
839.918	21264
840.055	21386
840.193	21378
840.33	21203
840.467	21218
840.604	21420
840.742	21454
840.879	21119
841.016	21252
841.153	21222
841.29	21367
841.427	21291
841.564	21393
841.701	21199
841.838	21214
841.975	21081
842.112	21169
842.249	21112
842.385	21009
842.522	21203
842.659	21074
842.796	20880
842.933	20967
843.069	21043
843.206	20925
843.343	21077
843.479	20948
843.616	21024
843.752	20716
843.889	20781
844.025	20941
844.162	20613
844.298	20720
844.435	20727
844.571	20678
844.708	20845
844.844	20952
844.98	21005
845.117	20921
845.253	20754
845.389	20743
845.525	20891
845.661	20689
845.798	20682
845.934	20895
846.07	20906
846.206	20762
846.342	20849
846.478	20667
846.614	20579
846.75	20237
846.886	20271
847.022	20374
847.158	20248
847.294	20362
847.429	20275
847.565	20096
847.701	20450
847.837	19928
847.972	19841
848.108	19974
848.244	20020
848.379	19647
848.515	19818
848.65	19734
848.786	19715
848.921	19761
849.057	19871
849.192	19826
849.328	19753
849.463	19784
849.598	19647
849.734	19662
849.869	19670
850.004	19597
850.14	19525
850.275	19575
850.41	19510
850.545	19289
850.68	19476
850.815	19460
850.95	19343
851.085	19643
851.22	19624
851.355	19506
851.49	19480
851.625	19453
851.76	19396
851.895	19411
852.03	19308
852.165	19422
852.299	19567
852.434	19468
852.569	19510
852.703	19506
852.838	19438
852.973	19525
853.107	19464
853.242	19422
853.376	19240
853.511	19236
853.645	19289
853.78	19445
853.914	19274
854.048	19263
854.183	19266
854.317	19343
854.451	19476
854.585	19335
854.72	19244
854.854	19381
854.988	19221
855.122	19301
855.256	19164
855.39	19168
855.524	19350
855.658	19308
855.792	19316
855.926	19358
856.06	19381
856.194	19343
856.327	19217
856.461	19285
856.595	19350
856.729	19369
856.862	19407
856.996	19297
857.13	19343
857.263	19422
857.397	19346
857.53	19362
857.664	19274
857.797	19304
857.931	19354
858.064	19297
858.197	19350
858.331	19194
858.464	19137
858.597	19160
858.731	19152
858.864	19209
858.997	19259
859.13	19232
859.263	19209
859.396	19362
859.529	19190
859.662	19069
859.795	19031
859.928	19213
860.061	19324
860.194	19487
860.327	19278
860.46	19209
860.592	19251
860.725	19282
860.858	19403
860.99	19179
861.123	19088
861.256	19171
861.388	19183
861.521	19837
861.653	19145
861.786	19050
861.918	19046
862.05	19187
862.183	19175
862.315	19301
862.447	19244
862.58	19221
862.712	18943
862.844	18958
862.976	19031
863.108	19004
863.24	19282
863.372	18905
863.504	18890
863.636	18943
863.768	18958
863.9	18928
864.032	18913
864.164	18852
864.296	18905
864.428	18973
864.559	19019
864.691	18993
864.823	18966
864.954	18996
865.086	19015
865.217	18791
865.349	18753
865.48	18947
865.612	18897
865.743	18970
865.875	18852
866.006	18776
866.137	18814
866.269	18863
866.4	18848
866.531	18821
866.662	18817
866.793	18840
866.924	18821
867.055	18932
867.186	18837
867.317	18707
867.448	18684
867.579	18806
867.71	18688
867.841	18726
867.972	18810
868.103	18833
868.233	18932
868.364	18764
868.495	18875
868.625	19103
868.756	19110
868.886	18863
869.017	19072
869.147	19152
869.278	19129
869.408	19091
869.539	19008
869.669	19069
869.799	19148
869.929	19103
870.06	19145
870.19	19388
870.32	19327
870.45	19354
870.58	19388
870.71	19556
870.84	19620
870.97	19316
871.1	19396
871.23	19624
871.36	19651
871.489	19544
871.619	19457
871.749	19571
871.879	19624
872.008	19776
872.138	19590
872.267	19635
872.397	19567
872.526	19529
872.656	19586
872.785	19548
872.915	19635
873.044	19647
873.173	19567
873.303	19795
873.432	19632
873.561	19795
873.69	19578
873.819	19651
873.948	19742
874.077	19776
874.206	19700
874.335	19632
874.464	19723
874.593	20039
874.722	19784
874.851	19864
874.979	19993
875.108	20005
875.237	19982
875.365	19826
875.494	19868
875.623	20084
875.751	19951
875.88	19894
876.008	20046
876.136	20206
876.265	20282
876.393	20644
876.521	20332
876.65	20419
876.778	20358
876.906	20419
877.034	20225
877.162	20278
877.29	20332
877.418	20317
877.546	20419
877.674	20271
877.802	20374
877.93	20305
878.058	20320
878.185	20122
878.313	20355
878.441	20271
878.568	20138
878.696	20267
878.824	20332
878.951	20374
879.079	20469
879.206	20682
879.333	20640
879.461	20465
879.588	20632
879.715	20735
879.842	20686
879.97	20579
880.097	20324
880.224	20134
880.351	20267
880.478	20206
880.605	20202
880.732	20145
880.859	20469
880.986	20256
881.112	20259
881.239	20046
881.366	19917
881.493	19932
881.619	19818
881.746	19833
881.872	19761
881.999	19799
882.125	19731
882.252	19784
882.378	19791
882.505	19963
882.631	19620
882.757	19597
882.883	19609
883.01	19575
883.136	19502
883.262	19324
883.388	19411
883.514	19521
883.64	19594
883.766	19544
883.892	19377
884.018	19384
884.143	19548
884.269	19578
884.395	19407
884.52	19190
884.646	19304
884.772	19225
884.897	19255
885.023	19282
885.148	19365
885.274	19339
885.399	19274
885.524	19221
885.65	19244
885.775	19266
885.9	19278
886.025	19335
886.15	19263
886.275	19046
886.4	18996
886.525	19179
886.65	19080
886.775	19027
886.9	19301
887.025	19297
887.149	19057
887.274	19061
887.399	19012
887.523	18970
887.648	18897
887.773	18844
887.897	18947
888.021	18996
888.146	18913
888.27	18920
888.395	18977
888.519	18954
888.643	18928
888.767	18932
888.891	18852
889.015	18665
889.139	18715
889.263	18730
889.387	18734
889.511	18852
889.635	18897
889.759	18684
889.883	18654
890.006	18688
890.13	18669
890.254	18608
890.377	18631
890.501	18528
890.624	18399
890.748	18665
890.871	18479
890.995	18372
891.118	18289
891.241	18232
891.364	18361
891.488	18376
891.611	18319
891.734	18369
891.857	18490
891.98	18350
892.103	18338
892.226	18357
892.349	18262
892.471	18106
892.594	18262
892.717	18228
892.839	18194
892.962	18334
893.085	18372
893.207	18213
893.33	18133
893.452	18213
893.575	18403
893.697	18266
893.819	18410
893.941	18376
894.064	18361
894.186	18129
894.308	18224
894.43	18327
894.552	18418
894.674	18399
894.796	18213
894.918	18220
895.04	18201
895.161	18277
895.283	18281
895.405	18300
895.526	18224
895.648	18235
895.769	18285
895.891	18338
896.012	18391
896.134	18315
896.255	18365
896.376	18353
896.498	18376
896.619	18414
896.74	18376
896.861	18350
896.982	18688
897.103	18856
897.224	18608
897.345	18574
897.466	18597
897.587	18566
897.708	18646
897.828	18604
897.949	18498
898.07	18426
898.19	18608
898.311	18673
898.431	18544
898.552	18566
898.672	18681
898.792	18681
898.913	18563
899.033	18460
899.153	18323
899.273	18323
899.393	18372
899.513	18456
899.633	18319
899.753	18342
899.873	18315
899.993	18323
900.113	18247
900.232	18376
900.352	18296
900.472	18182
900.591	18152
900.711	18178
900.83	18197
900.95	18213
901.069	18186
901.189	17954
901.308	17889
901.427	17695
901.546	17817
901.665	17733
901.784	17756
901.904	17611
902.023	17547
902.141	17250
902.26	17216
902.379	17417
902.498	17288
902.617	17231
902.735	17318
902.854	17376
902.973	17197
903.091	16999
903.21	16904
903.328	16915
903.446	16885
903.565	16748
903.683	16759
903.801	16558
903.919	16721
904.038	16790
904.156	16584
904.274	16634
904.392	16523
904.51	16504
904.627	16474
904.745	16447
904.863	16535
904.981	16310
905.098	16246
905.216	16173
905.334	16242
905.451	16230
905.569	16051
905.686	16204
905.803	16272
905.921	15979
906.038	16131
906.155	15960
906.272	15979
906.389	15922
906.506	15720
906.623	15656
906.74	15739
906.857	15648
906.974	15564
907.091	15759
907.208	15861
907.324	15789
907.441	15595
907.557	15447
907.674	15443
907.79	15367
907.907	15469
908.023	15332
908.139	15424
908.256	15272
908.372	15389
908.488	15336
908.604	15116
908.72	15081
908.836	15180
908.952	15116
909.068	15116
909.184	15310
909.3	15074
909.415	15188
909.531	15135
909.647	14864
909.762	14819
909.878	14853
909.993	14845
910.108	14769
910.224	14754
910.339	14701
910.454	14648
910.57	14629
910.685	14549
910.8	14910
910.915	14819
911.03	14610
911.145	14495
911.259	14552
911.374	14454
911.489	14328
911.604	14347
911.718	14149
911.833	14202
911.947	14024
912.062	14073
912.176	14191
912.291	14164
912.405	14210
912.519	14351
912.633	14412
912.748	14271
912.862	14157
912.976	14050
913.09	13936
913.204	13936
913.318	14100
913.431	14100
913.545	14035
913.659	14115
913.772	13989
913.886	13902
914	13788
914.113	14012
914.226	13955
914.34	13879
914.453	13826
914.566	13932
914.68	13814
914.793	13689
914.906	13616
915.019	13548
915.132	13460
915.245	13426
915.358	13514
915.47	13639
915.583	13502
915.696	13571
915.809	13708
915.921	13597
916.034	13445
916.146	13434
916.259	13422
916.371	13502
916.483	13487
916.595	13441
916.708	13438
916.82	13339
916.932	13339
917.044	13282
917.156	13270
917.268	13213
917.38	13206
917.491	13217
917.603	13141
917.715	13278
917.826	13324
917.938	13187
918.049	13152
918.161	13160
918.272	13278
918.384	13350
918.495	13118
918.606	13008
918.717	12962
918.828	13042
918.939	13031
919.05	12958
919.161	12973
919.272	12795
919.383	12745
919.494	12951
919.604	13118
919.715	12981
919.826	12859
919.936	12928
920.047	12981
920.157	12977
920.267	13126
920.378	13034
920.488	12905
920.598	13050
920.708	13198
920.818	13107
920.928	13076
921.038	13274
921.148	13194
921.258	12935
921.368	12783
921.477	12715
921.587	12681
921.697	12627
921.806	12798
921.916	12593
922.025	12479
922.134	12384
922.244	12311
922.353	12452
922.462	12289
922.571	12209
922.68	12022
922.789	12022
922.898	12083
923.007	11996
923.116	12011
923.224	11969
923.333	11916
923.442	11901
923.55	11939
923.659	11836
923.767	11942
923.876	11790
923.984	11893
924.092	11764
924.201	11836
924.309	11836
924.417	11843
924.525	11733
924.633	11783
924.741	12700
924.849	11478
924.956	11722
925.064	11581
925.172	11448
925.279	11581
925.387	11539
925.494	11505
925.602	11672
925.709	11604
925.816	11482
925.924	11482
926.031	11604
926.138	11535
926.245	11497
926.352	11417
926.459	11543
926.566	11570
926.673	11512
926.779	11334
926.886	11372
926.993	11204
927.099	11136
927.206	11170
927.312	11075
927.419	11181
927.525	11170
927.631	11094
927.737	10968
927.843	10957
927.95	10839
928.056	10980
928.162	10946
928.267	11025
928.373	11497
928.479	11109
928.585	10854
928.69	10961
928.796	11006
928.901	10862
929.007	10679
929.112	10873
929.218	10900
929.323	10755
929.428	10706
929.533	10854
929.638	10675
929.743	10622
929.848	10733
929.953	10561
930.058	10538
930.163	10497
930.267	10478
930.372	10596
930.477	10394
930.581	10641
930.685	10569
930.79	10352
930.894	10363
930.998	10356
931.103	10428
931.207	10090
931.311	10021
931.415	9964
931.519	9793
931.623	9747
