Data from test_V78500241_3702.txt Node
Date: Fri Mar 25 14:59:29 CST 2022
User: usil
Spectrometer: V785-0024
Trigger mode: 0
Integration Time (sec): 4.000000E-1
Scans to average: 1
Nonlinearity correction enabled: false
Boxcar width: 0
Storing dark spectrum: false
XAxis mode: Wavelengths
Number of Pixels in Spectrum: 1024
>>>>>Begin Spectral Data<<<<<
801.071	21926
801.214	21835
801.356	21450
801.499	21412
801.641	21283
801.783	21313
801.926	21192
802.068	21138
802.211	21169
802.353	21032
802.496	20849
802.638	20746
802.78	20819
802.923	20590
803.065	20545
803.208	20514
803.35	20686
803.492	20689
803.635	20754
803.777	20526
803.919	20689
804.061	20937
804.204	20625
804.346	20465
804.488	20492
804.63	20541
804.773	20499
804.915	20579
805.057	20609
805.199	20522
805.341	20549
805.483	20598
805.626	20549
805.768	20560
805.91	20469
806.052	20511
806.194	20393
806.336	20636
806.478	20484
806.62	20473
806.762	20473
806.904	20602
807.046	20906
807.188	20731
807.33	20777
807.472	20887
807.614	20815
807.756	20819
807.898	20575
808.04	20377
808.182	20556
808.324	20590
808.465	20651
808.607	20659
808.749	20826
808.891	20895
809.033	21047
809.174	20826
809.316	20754
809.458	20739
809.6	20781
809.741	20990
809.883	20826
810.025	21005
810.166	20921
810.308	20941
810.45	20910
810.591	20773
810.733	20594
810.875	20556
811.016	20655
811.158	20457
811.299	20533
811.441	20625
811.582	20815
811.724	20705
811.865	20556
812.007	20587
812.148	20492
812.29	20606
812.431	20746
812.573	20971
812.714	21039
812.855	21150
812.997	21138
813.138	21302
813.279	21085
813.421	21081
813.562	21066
813.703	20960
813.845	20785
813.986	20434
814.127	20320
814.268	20183
814.41	20221
814.551	20054
814.692	20195
814.833	20088
814.974	20062
815.115	20103
815.256	19928
815.397	19963
815.539	20065
815.68	19837
815.821	19898
815.962	19841
816.103	19925
816.244	19674
816.385	19746
816.526	19472
816.666	19419
816.807	19308
816.948	19457
817.089	19457
817.23	19301
817.371	19316
817.512	19152
817.653	19228
817.793	19240
817.934	19221
818.075	19251
818.216	19228
818.356	19122
818.497	19095
818.638	19080
818.778	19000
818.919	18924
819.06	18966
819.2	19057
819.341	19095
819.481	19141
819.622	19221
819.762	19476
819.903	19426
820.043	19244
820.184	19232
820.324	19293
820.465	19263
820.605	19270
820.746	19244
820.886	19118
821.026	19320
821.167	19190
821.307	19274
821.447	19114
821.588	19091
821.728	18913
821.868	18741
822.008	18661
822.149	18681
822.289	18776
822.429	18456
822.569	18365
822.709	18327
822.849	18239
822.99	18194
823.13	18182
823.27	18110
823.41	17942
823.55	17885
823.69	17988
823.83	18030
823.97	17996
824.11	17771
824.25	17741
824.389	17767
824.529	17843
824.669	17611
824.809	17878
824.949	17832
825.089	17847
825.228	17824
825.368	17566
825.508	17554
825.648	17448
825.787	17570
825.927	17547
826.067	17463
826.206	17490
826.346	17558
826.485	17474
826.625	17573
826.765	17516
826.904	17638
827.044	17303
827.183	17292
827.323	17242
827.462	17345
827.601	17273
827.741	17197
827.88	17379
828.02	17105
828.159	17174
828.298	17303
828.437	17273
828.577	17284
828.716	17406
828.855	17197
828.994	17025
829.134	16980
829.273	17071
829.412	17079
829.551	16984
829.69	17025
829.829	16991
829.968	17098
830.107	16987
830.246	17048
830.385	16911
830.524	16835
830.663	16759
830.802	16706
830.941	16622
831.08	16694
831.219	16691
831.357	16786
831.496	16831
831.635	16512
831.774	16546
831.913	16569
832.051	16394
832.19	16390
832.329	16322
832.467	16341
832.606	16287
832.744	16325
832.883	16352
833.022	16280
833.16	16291
833.299	16348
833.437	16360
833.576	16413
833.714	16447
833.852	16363
833.991	16428
834.129	16424
834.267	16535
834.406	16314
834.544	16489
834.682	16455
834.821	16314
834.959	16596
835.097	16428
835.235	16402
835.373	16470
835.511	16344
835.65	16253
835.788	16249
835.926	16158
836.064	16131
836.202	16177
836.34	16234
836.478	16329
836.615	16314
836.753	16363
836.891	16432
837.029	16436
837.167	16303
837.305	16303
837.443	16299
837.58	16131
837.718	16394
837.856	16143
837.993	16234
838.131	16230
838.269	16074
838.406	16188
838.544	16025
838.681	15876
838.819	15926
838.956	15682
839.094	15713
839.231	15850
839.369	15926
839.506	16082
839.643	15983
839.781	15728
839.918	15656
840.055	15793
840.193	15789
840.33	15755
840.467	15660
840.604	15797
840.742	16086
840.879	15587
841.016	15686
841.153	15656
841.29	15895
841.427	15819
841.564	15739
841.701	15762
841.838	15785
841.975	15656
842.112	15637
842.249	15576
842.385	15450
842.522	15694
842.659	15591
842.796	15488
842.933	15587
843.069	15481
843.206	15469
843.343	15694
843.479	15587
843.616	15568
843.752	15287
843.889	15298
844.025	15439
844.162	15192
844.298	15431
844.435	15272
844.571	15291
844.708	15348
844.844	15428
844.98	15466
845.117	15359
845.253	15188
845.389	15207
845.525	15268
845.661	15188
845.798	15142
845.934	15154
846.07	15043
846.206	15195
846.342	15237
846.478	15180
846.614	14929
846.75	14857
846.886	14921
847.022	14902
847.158	14883
847.294	14861
847.429	14887
847.565	14914
847.701	15097
847.837	14640
847.972	14625
848.108	14667
848.244	14754
848.379	14507
848.515	14450
848.65	14415
848.786	14526
848.921	14495
849.057	14674
849.192	14648
849.328	14533
849.463	14507
849.598	14457
849.734	14381
849.869	14381
850.004	14286
850.14	14313
850.275	14229
850.41	14107
850.545	14153
850.68	14240
850.815	14233
850.95	14149
851.085	14415
851.22	14336
851.355	14252
851.49	14202
851.625	14282
851.76	14183
851.895	14180
852.03	14267
852.165	14172
852.299	14237
852.434	14206
852.569	14210
852.703	14328
852.838	14286
852.973	14313
853.107	14393
853.242	14214
853.376	14138
853.511	14016
853.645	14016
853.78	14275
853.914	14149
854.048	14142
854.183	14073
854.317	14157
854.451	14328
854.585	14100
854.72	14195
854.854	14134
854.988	14016
855.122	14088
855.256	13955
855.39	14168
855.524	14244
855.658	14157
855.792	14168
855.926	14081
856.06	14187
856.194	14187
856.327	14027
856.461	14020
856.595	14031
856.729	14134
856.862	14263
856.996	14180
857.13	14199
857.263	14248
857.397	14149
857.53	14153
857.664	14168
857.797	14214
857.931	14271
858.064	14062
858.197	14244
858.331	14103
858.464	14039
858.597	13978
858.731	14058
858.864	14084
858.997	14161
859.13	14199
859.263	14206
859.396	14294
859.529	14180
859.662	14031
859.795	14012
859.928	14119
860.061	14256
860.194	14317
860.327	14115
860.46	14206
860.592	14259
860.725	14263
860.858	14221
860.99	14180
861.123	14069
861.256	14050
861.388	14176
861.521	14838
861.653	14020
861.786	13902
861.918	14024
862.05	14062
862.183	14195
862.315	14088
862.447	14130
862.58	14069
862.712	13997
862.844	13856
862.976	13909
863.108	13928
863.24	14412
863.372	13780
863.504	13959
863.636	13879
863.768	13989
863.9	14001
864.032	13852
864.164	13959
864.296	13963
864.428	14008
864.559	14050
864.691	14012
864.823	13928
864.954	13883
865.086	13936
865.217	13944
865.349	13795
865.48	13856
865.612	13909
865.743	14031
865.875	13898
866.006	13814
866.137	13951
866.269	13906
866.4	13864
866.531	13856
866.662	13818
866.793	13780
866.924	13890
867.055	13871
867.186	13864
867.317	13818
867.448	13822
867.579	13822
867.71	13826
867.841	13849
867.972	13864
868.103	13898
868.233	13936
868.364	13925
868.495	14043
868.625	14103
868.756	14168
868.886	13978
869.017	14107
869.147	14252
869.278	14218
869.408	14096
869.539	14065
869.669	14286
869.799	14168
869.929	14278
870.06	14157
870.19	14389
870.32	14461
870.45	14423
870.58	14579
870.71	14659
870.84	14564
870.97	14537
871.1	14530
871.23	14804
871.36	14792
871.489	14625
871.619	14731
871.749	14765
871.879	14739
872.008	14830
872.138	14792
872.267	14648
872.397	14587
872.526	14549
872.656	14552
872.785	14602
872.915	14777
873.044	14921
873.173	14785
873.303	14800
873.432	14823
873.561	14781
873.69	14796
873.819	14834
873.948	14910
874.077	14781
874.206	14788
874.335	14773
874.464	14948
874.593	15085
874.722	15070
874.851	15123
874.979	15127
875.108	15154
875.237	15116
875.365	15055
875.494	15100
875.623	15256
875.751	14990
875.88	15176
876.008	15306
876.136	15313
876.265	15504
876.393	15637
876.521	15709
876.65	15606
876.778	15523
876.906	15473
877.034	15530
877.162	15481
877.29	15443
877.418	15606
877.546	15523
877.674	15599
877.802	15519
877.93	15504
878.058	15511
878.185	15473
878.313	15458
878.441	15458
878.568	15401
878.696	15477
878.824	15576
878.951	15534
879.079	15713
879.206	15819
879.333	15675
879.461	15488
879.588	15606
879.715	15701
879.842	15778
879.97	15610
880.097	15321
880.224	15504
880.351	15344
880.478	15389
880.605	15363
880.732	15348
880.859	15606
880.986	15412
881.112	15374
881.239	15302
881.366	15214
881.493	15001
881.619	14963
881.746	15032
881.872	15058
881.999	14960
882.125	15112
882.252	15112
882.378	15028
882.505	15207
882.631	15024
882.757	14883
882.883	14914
883.01	14887
883.136	14857
883.262	14743
883.388	14773
883.514	14834
883.64	14887
883.766	14823
883.892	14648
884.018	14724
884.143	14902
884.269	14982
884.395	14629
884.52	14522
884.646	14469
884.772	14484
884.897	14469
885.023	14587
885.148	14648
885.274	14705
885.399	14625
885.524	14541
885.65	14484
885.775	14617
885.9	14499
886.025	14705
886.15	14682
886.275	14575
886.4	14507
886.525	14492
886.65	14461
886.775	14484
886.9	14727
887.025	14781
887.149	14564
887.274	14450
887.399	14343
887.523	14362
887.648	14336
887.773	14244
887.897	14457
888.021	14526
888.146	14313
888.27	14389
888.395	14461
888.519	14427
888.643	14564
888.767	14457
888.891	14385
889.015	14286
889.139	14305
889.263	14256
889.387	14396
889.511	14450
889.635	14438
889.759	14180
889.883	14157
890.006	14233
890.13	14374
890.254	14210
890.377	14252
890.501	13989
890.624	14039
890.748	14172
890.871	13898
890.995	13864
891.118	13860
891.241	14065
891.364	13974
891.488	14092
891.611	13940
891.734	13978
891.857	13974
891.98	13982
892.103	13967
892.226	14081
892.349	13909
892.471	13845
892.594	13974
892.717	13887
892.839	13940
892.962	14043
893.085	13917
893.207	13894
893.33	13841
893.452	13875
893.575	13978
893.697	13951
893.819	14107
893.941	14142
894.064	14180
894.186	13883
894.308	13879
894.43	14168
894.552	14149
894.674	14081
894.796	13947
894.918	14008
895.04	13906
895.161	14096
895.283	14081
895.405	13986
895.526	14081
895.648	14088
895.769	14123
895.891	14168
896.012	14130
896.134	14191
896.255	14142
896.376	14119
896.498	14058
896.619	14130
896.74	14054
896.861	14149
896.982	14396
897.103	14670
897.224	14442
897.345	14495
897.466	14332
897.587	14377
897.708	14545
897.828	14419
897.949	14336
898.07	14412
898.19	14290
898.311	14503
898.431	14389
898.552	14480
898.672	14594
898.792	14590
898.913	14518
899.033	14431
899.153	14309
899.273	14248
899.393	14199
899.513	14347
899.633	14313
899.753	14332
899.873	14256
899.993	14336
900.113	14339
900.232	14374
900.352	14351
900.472	14305
900.591	14191
900.711	14248
900.83	14183
900.95	14294
901.069	14286
901.189	14035
901.308	13871
901.427	13826
901.546	13822
901.665	13841
901.784	13902
901.904	13776
902.023	13677
902.141	13502
902.26	13476
902.379	13594
902.498	13510
902.617	13487
902.735	13571
902.854	13457
902.973	13312
903.091	13126
903.21	13088
903.328	13080
903.446	13034
903.565	12905
903.683	12920
903.801	12993
903.919	13015
904.038	12943
904.156	12954
904.274	12894
904.392	12871
904.51	12817
904.627	12878
904.745	12829
904.863	12852
904.981	12711
905.098	12502
905.216	12494
905.334	12570
905.451	12494
905.569	12506
905.686	12642
905.803	12521
905.921	12380
906.038	12483
906.155	12357
906.272	12197
906.389	12304
906.506	12148
906.623	12121
906.74	12133
906.857	11992
906.974	12064
907.091	12209
907.208	12232
907.324	12117
907.441	12110
907.557	11813
907.674	11836
907.79	11813
907.907	11923
908.023	11908
908.139	11923
908.256	11790
908.372	11843
908.488	11688
908.604	11653
908.72	11547
908.836	11653
908.952	11646
909.068	11615
909.184	11786
909.3	11642
909.415	11627
909.531	11539
909.647	11429
909.762	11387
909.878	11395
909.993	11376
910.108	11379
910.224	11356
910.339	11459
910.454	11356
910.57	11239
910.685	11170
910.8	11539
910.915	11376
911.03	11280
911.145	11109
911.259	11143
911.374	11121
911.489	11010
911.604	11022
911.718	10892
911.833	10866
911.947	10843
912.062	10694
912.176	10896
912.291	10892
912.405	10858
912.519	11083
912.633	11067
912.748	10972
912.862	10839
912.976	10847
913.09	10630
913.204	10694
913.318	10812
913.431	10889
913.545	10782
913.659	10877
913.772	10752
913.886	10615
914	10649
914.113	10698
914.226	10694
914.34	10656
914.453	10519
914.566	10702
914.68	10565
914.793	10577
914.906	10402
915.019	10363
915.132	10257
915.245	10341
915.358	10325
915.47	10306
915.583	10379
915.696	10504
915.809	10489
915.921	10535
916.034	10398
916.146	10314
916.259	10344
916.371	10455
916.483	10459
916.595	10329
916.708	10329
916.82	10318
916.932	10333
917.044	10287
917.156	10310
917.268	10150
917.38	10211
917.491	10219
917.603	10284
917.715	10325
917.826	10299
917.938	10116
918.049	10090
918.161	10268
918.272	10379
918.384	10363
918.495	10227
918.606	10143
918.717	10025
918.828	10090
918.939	10181
919.05	10131
919.161	10120
919.272	9869
919.383	9930
919.494	10139
919.604	10242
919.715	10116
919.826	10051
919.936	10013
920.047	10223
920.157	10120
920.267	10284
920.378	10116
920.488	10135
920.598	10371
920.708	10455
920.818	10287
920.928	10382
921.038	10508
921.148	10386
921.258	10154
921.368	10051
921.477	10029
921.587	9972
921.697	9854
921.806	9979
921.916	9907
922.025	9720
922.134	9728
922.244	9610
922.353	9747
922.462	9606
922.571	9542
922.68	9340
922.789	9378
922.898	9431
923.007	9287
923.116	9393
923.224	9355
923.333	9340
923.442	9260
923.55	9188
923.659	9249
923.767	9310
923.876	9207
923.984	9325
924.092	9184
924.201	9245
924.309	9233
924.417	9253
924.525	9154
924.633	9245
924.741	10154
924.849	8982
924.956	9074
925.064	8960
925.172	8937
925.279	8986
925.387	9070
925.494	9055
925.602	9169
925.709	9093
925.816	8982
925.924	8994
926.031	9173
926.138	9043
926.245	9055
926.352	8982
926.459	9089
926.566	9169
926.673	9001
926.779	8857
926.886	8914
926.993	8766
927.099	8743
927.206	8739
927.312	8716
927.419	8758
927.525	8724
927.631	8804
927.737	8583
927.843	8655
927.95	8476
928.056	8708
928.162	8621
928.267	8667
928.373	9233
928.479	8724
928.585	8480
928.69	8659
928.796	8705
928.901	8583
929.007	8393
929.112	8587
929.218	8587
929.323	8476
929.428	8461
929.533	8670
929.638	8434
929.743	8385
929.848	8484
929.953	8484
930.058	8362
930.163	8183
930.267	8271
930.372	8446
930.477	8218
930.581	8400
930.685	8263
930.79	8168
930.894	8199
930.998	8202
931.103	8339
931.207	7932
931.311	7875
931.415	7871
931.519	7620
931.623	7674
