Data from test_V78500241_1011.txt Node
Date: Fri Mar 25 14:40:45 CST 2022
User: usil
Spectrometer: V785-0024
Trigger mode: 0
Integration Time (sec): 4.000000E-1
Scans to average: 1
Nonlinearity correction enabled: false
Boxcar width: 0
Storing dark spectrum: false
XAxis mode: Wavelengths
Number of Pixels in Spectrum: 1024
>>>>>Begin Spectral Data<<<<<
801.071	23094
801.214	22889
801.356	22755
801.499	22599
801.641	22451
801.783	22390
801.926	22333
802.068	22417
802.211	22272
802.353	22135
802.496	21854
802.638	21926
802.78	21720
802.923	21736
803.065	21793
803.208	21667
803.35	21766
803.492	21907
803.635	21854
803.777	21739
803.919	21888
804.061	22097
804.204	21975
804.346	21625
804.488	21622
804.63	21671
804.773	21682
804.915	21694
805.057	21762
805.199	21606
805.341	21751
805.483	21819
805.626	21857
805.768	21568
805.91	21736
806.052	21690
806.194	21595
806.336	21937
806.478	21797
806.62	21679
806.762	21861
806.904	21987
807.046	22249
807.188	22265
807.33	22253
807.472	22234
807.614	22093
807.756	22344
807.898	22322
808.04	22207
808.182	22284
808.324	22443
808.465	22645
808.607	22824
808.749	23075
808.891	23269
809.033	23326
809.174	23075
809.316	23044
809.458	22820
809.6	22649
809.741	22531
809.883	22367
810.025	22649
810.166	22516
810.308	22504
810.45	22390
810.591	22306
810.733	21991
810.875	22158
811.016	21873
811.158	21994
811.299	22002
811.441	22082
811.582	22063
811.724	22002
811.865	21926
812.007	21819
812.148	21854
812.29	21934
812.431	22112
812.573	22215
812.714	22417
812.855	22424
812.997	22538
813.138	22660
813.279	22493
813.421	22504
813.562	22356
813.703	22234
813.845	22029
813.986	21770
814.127	21606
814.268	21435
814.41	21561
814.551	21488
814.692	21515
814.833	21275
814.974	21420
815.115	21542
815.256	21428
815.397	21344
815.539	21401
815.68	21142
815.821	21173
815.962	21203
816.103	21192
816.244	21070
816.385	20941
816.526	20842
816.666	20823
816.807	20587
816.948	20575
817.089	20792
817.23	20609
817.371	20648
817.512	20583
817.653	20636
817.793	20511
817.934	20590
818.075	20670
818.216	20682
818.356	20454
818.497	20370
818.638	20358
818.778	20259
818.919	20282
819.06	20336
819.2	20396
819.341	20457
819.481	20328
819.622	20530
819.762	20807
819.903	20861
820.043	20598
820.184	20556
820.324	20575
820.465	20686
820.605	20503
820.746	20587
820.886	20442
821.026	20511
821.167	20560
821.307	20609
821.447	20530
821.588	20412
821.728	20286
821.868	20168
822.008	19974
822.149	19970
822.289	19906
822.429	19750
822.569	19586
822.709	19533
822.849	19445
822.99	19537
823.13	19483
823.27	19438
823.41	19259
823.55	19156
823.69	19270
823.83	19316
823.97	19133
824.11	19046
824.25	19012
824.389	19084
824.529	19129
824.669	19012
824.809	19133
824.949	19084
825.089	19084
825.228	19088
825.368	18871
825.508	18920
825.648	18745
825.787	18897
825.927	18844
826.067	18795
826.206	18753
826.346	18840
826.485	18844
826.625	18833
826.765	18916
826.904	18947
827.044	18593
827.183	18563
827.323	18467
827.462	18620
827.601	18502
827.741	18475
827.88	18452
828.02	18418
828.159	18448
828.298	18525
828.437	18448
828.577	18460
828.716	18536
828.855	18513
828.994	18369
829.134	18251
829.273	18262
829.412	18190
829.551	18281
829.69	18182
829.829	18342
829.968	18296
830.107	18209
830.246	18182
830.385	18243
830.524	18072
830.663	18087
830.802	18003
830.941	17764
831.08	17790
831.219	17859
831.357	17897
831.496	18038
831.635	17821
831.774	17851
831.913	17714
832.051	17668
832.19	17653
832.329	17668
832.467	17554
832.606	17497
832.744	17452
832.883	17543
833.022	17444
833.16	17642
833.299	17733
833.437	17703
833.576	17771
833.714	17581
833.852	17661
833.991	17668
834.129	17775
834.267	17611
834.406	17634
834.544	17703
834.682	17722
834.821	17638
834.959	17779
835.097	17634
835.235	17707
835.373	17684
835.511	17600
835.65	17512
835.788	17436
835.926	17425
836.064	17341
836.202	17349
836.34	17600
836.478	17570
836.615	17395
836.753	17528
836.891	17596
837.029	17501
837.167	17474
837.305	17311
837.443	17311
837.58	17337
837.718	17505
837.856	17448
837.993	17246
838.131	17299
838.269	17391
838.406	17311
838.544	17220
838.681	17064
838.819	16976
838.956	16866
839.094	16881
839.231	16946
839.369	17067
839.506	17212
839.643	17159
839.781	16835
839.918	16805
840.055	16957
840.193	16866
840.33	16862
840.467	16904
840.604	16949
840.742	17105
840.879	16786
841.016	16733
841.153	16828
841.29	16885
841.427	16892
841.564	16820
841.701	16930
841.838	16797
841.975	16725
842.112	16767
842.249	16634
842.385	16580
842.522	16877
842.659	16675
842.796	16649
842.933	16653
843.069	16672
843.206	16603
843.343	16698
843.479	16660
843.616	16626
843.752	16493
843.889	16455
844.025	16603
844.162	16424
844.298	16470
844.435	16424
844.571	16375
844.708	16508
844.844	16649
844.98	16641
845.117	16618
845.253	16504
845.389	16592
845.525	16774
845.661	16900
845.798	17041
845.934	17433
846.07	17471
846.206	17547
846.342	17368
846.478	17090
846.614	16550
846.75	16276
846.886	16059
847.022	16204
847.158	16101
847.294	16025
847.429	16059
847.565	15945
847.701	16337
847.837	15732
847.972	15698
848.108	15743
848.244	15732
848.379	15675
848.515	15542
848.65	15553
848.786	15557
848.921	15523
849.057	15728
849.192	15747
849.328	15671
849.463	15504
849.598	15428
849.734	15473
849.869	15393
850.004	15378
850.14	15435
850.275	15298
850.41	15275
850.545	15256
850.68	15370
850.815	15329
850.95	15355
851.085	15496
851.22	15458
851.355	15237
851.49	15268
851.625	15363
851.76	15252
851.895	15169
852.03	15173
852.165	15336
852.299	15355
852.434	15397
852.569	15275
852.703	15313
852.838	15443
852.973	15416
853.107	15408
853.242	15378
853.376	15283
853.511	15165
853.645	15138
853.78	15275
853.914	15222
854.048	15074
854.183	15233
854.317	15157
854.451	15424
854.585	15161
854.72	15127
854.854	15291
854.988	15074
855.122	15142
855.256	15058
855.39	15127
855.524	15233
855.658	15332
855.792	15214
855.926	15237
856.06	15252
856.194	15264
856.327	15180
856.461	15093
856.595	15154
856.729	15146
856.862	15310
856.996	15260
857.13	15195
857.263	15291
857.397	15252
857.53	15195
857.664	15218
857.797	15313
857.931	15264
858.064	15119
858.197	15332
858.331	15161
858.464	15154
858.597	15135
858.731	15192
858.864	15157
858.997	15195
859.13	15184
859.263	15184
859.396	15268
859.529	15146
859.662	15085
859.795	15192
859.928	15283
860.061	15329
860.194	15329
860.327	15226
860.46	15081
860.592	15287
860.725	15310
860.858	15291
860.99	15161
861.123	15055
861.256	15039
861.388	15184
861.521	15747
861.653	15032
861.786	15051
861.918	15062
862.05	15108
862.183	15188
862.315	15203
862.447	15180
862.58	15123
862.712	15032
862.844	14868
862.976	14986
863.108	15005
863.24	15310
863.372	14849
863.504	14975
863.636	14948
863.768	14956
863.9	14895
864.032	14902
864.164	15043
864.296	14956
864.428	15055
864.559	15097
864.691	14994
864.823	15039
864.954	15001
865.086	14933
865.217	14826
865.349	14925
865.48	14849
865.612	15028
865.743	15112
865.875	14960
866.006	14921
866.137	14815
866.269	14910
866.4	14849
866.531	14925
866.662	14845
866.793	14804
866.924	14868
867.055	14845
867.186	14921
867.317	14853
867.448	14731
867.579	14906
867.71	14739
867.841	14811
867.972	14887
868.103	14861
868.233	15017
868.364	14857
868.495	14948
868.625	15093
868.756	15249
868.886	15077
869.017	15127
869.147	15317
869.278	15294
869.408	15176
869.539	15199
869.669	15165
869.799	15161
869.929	15302
870.06	15325
870.19	15515
870.32	15481
870.45	15424
870.58	15641
870.71	15679
870.84	15637
870.97	15572
871.1	15504
871.23	15701
871.36	15766
871.489	15637
871.619	15720
871.749	15701
871.879	15823
872.008	15846
872.138	15720
872.267	15694
872.397	15644
872.526	15477
872.656	15553
872.785	15576
872.915	15743
873.044	15873
873.173	15675
873.303	15762
873.432	15831
873.561	15895
873.69	15842
873.819	15850
873.948	15838
874.077	15838
874.206	15751
874.335	15797
874.464	15915
874.593	16059
874.722	16071
874.851	16090
874.979	16105
875.108	16219
875.237	16025
875.365	15998
875.494	16116
875.623	16166
875.751	16162
875.88	16223
876.008	16268
876.136	16409
876.265	16535
876.393	16607
876.521	16596
876.65	16592
876.778	16554
876.906	16455
877.034	16535
877.162	16493
877.29	16523
877.418	16440
877.546	16599
877.674	16565
877.802	16660
877.93	16615
878.058	16459
878.185	16527
878.313	16637
878.441	16656
878.568	16466
878.696	16630
878.824	16672
878.951	16835
879.079	16991
879.206	17212
879.333	17166
879.461	17189
879.588	17277
879.715	17353
879.842	17379
879.97	17094
880.097	16767
880.224	16664
880.351	16645
880.478	16611
880.605	16478
880.732	16603
880.859	16706
880.986	16531
881.112	16546
881.239	16443
881.366	16242
881.493	16257
881.619	16261
881.746	16162
881.872	16181
881.999	16147
882.125	16074
882.252	16322
882.378	16143
882.505	16242
882.631	16139
882.757	15994
882.883	16086
883.01	16010
883.136	15937
883.262	15884
883.388	15903
883.514	16067
883.64	16067
883.766	15926
883.892	15857
884.018	15895
884.143	16032
884.269	16101
884.395	15671
884.52	15580
884.646	15743
884.772	15644
884.897	15492
885.023	15667
885.148	15751
885.274	15861
885.399	15800
885.524	15759
885.65	15751
885.775	15618
885.9	15595
886.025	15709
886.15	15778
886.275	15595
886.4	15572
886.525	15690
886.65	15553
886.775	15564
886.9	15819
887.025	15793
887.149	15648
887.274	15500
887.399	15431
887.523	15462
887.648	15298
887.773	15332
887.897	15538
888.021	15458
888.146	15329
888.27	15557
888.395	15515
888.519	15462
888.643	15389
888.767	15557
888.891	15294
889.015	15214
889.139	15287
889.263	15294
889.387	15386
889.511	15412
889.635	15374
889.759	15207
889.883	15237
890.006	15272
890.13	15351
890.254	15146
890.377	15180
890.501	15024
890.624	15020
890.748	15123
890.871	14971
890.995	14971
891.118	14735
891.241	14979
891.364	14842
891.488	15062
891.611	15020
891.734	14914
891.857	15001
891.98	14906
892.103	14998
892.226	14899
892.349	14918
892.471	14762
892.594	14845
892.717	14952
892.839	14826
892.962	14937
893.085	14963
893.207	14921
893.33	14708
893.452	14785
893.575	14948
893.697	14746
893.819	15081
893.941	15062
894.064	14971
894.186	14788
894.308	14868
894.43	14948
894.552	15028
894.674	15017
894.796	14929
894.918	14937
895.04	14823
895.161	14982
895.283	14986
895.405	14956
895.526	14948
895.648	14986
895.769	14998
895.891	14979
896.012	15184
896.134	15055
896.255	14910
896.376	14902
896.498	15024
896.619	15066
896.74	15108
896.861	15066
896.982	15325
897.103	15515
897.224	15378
897.345	15310
897.466	15260
897.587	15298
897.708	15401
897.828	15249
897.949	15195
898.07	15138
898.19	15245
898.311	15329
898.431	15359
898.552	15374
898.672	15336
898.792	15473
898.913	15378
899.033	15241
899.153	15207
899.273	15097
899.393	15188
899.513	15211
899.633	15272
899.753	15252
899.873	15154
899.993	15275
900.113	15176
900.232	15173
900.352	15195
900.472	15074
900.591	14986
900.711	14986
900.83	15085
900.95	15142
901.069	15211
901.189	15005
901.308	14758
901.427	14735
901.546	14731
901.665	14788
901.784	14792
901.904	14651
902.023	14499
902.141	14355
902.26	14313
902.379	14434
902.498	14240
902.617	14240
902.735	14278
902.854	14221
902.973	14058
903.091	14005
903.21	13967
903.328	14012
903.446	13940
903.565	13871
903.683	13894
903.801	13715
903.919	13837
904.038	13833
904.156	13605
904.274	13723
904.392	13655
904.51	13590
904.627	13715
904.745	13700
904.863	13689
904.981	13495
905.098	13304
905.216	13228
905.334	13358
905.451	13274
905.569	13358
905.686	13373
905.803	13373
905.921	13133
906.038	13228
906.155	13152
906.272	13160
906.389	13019
906.506	12935
906.623	12897
906.74	12901
906.857	12810
906.974	12764
907.091	12989
907.208	12989
907.324	12920
907.441	12867
907.557	12627
907.674	12574
907.79	12498
907.907	12574
908.023	12650
908.139	12623
908.256	12589
908.372	12585
908.488	12551
908.604	12380
908.72	12350
908.836	12410
908.952	12319
909.068	12403
909.184	12517
909.3	12365
909.415	12426
909.531	12342
909.647	12114
909.762	12110
909.878	12102
909.993	12148
910.108	12079
910.224	12087
910.339	12087
910.454	12083
910.57	12019
910.685	11916
910.8	12159
910.915	12155
911.03	11999
911.145	11779
911.259	11779
911.374	11745
911.489	11741
911.604	11767
911.718	11596
911.833	11638
911.947	11497
912.062	11501
912.176	11581
912.291	11463
912.405	11562
912.519	11703
912.633	11832
912.748	11668
912.862	11638
912.976	11512
913.09	11292
913.204	11436
913.318	11444
913.431	11532
913.545	11539
913.659	11589
913.772	11455
913.886	11398
914	11250
914.113	11372
914.226	11501
914.34	11395
914.453	11303
914.566	11440
914.68	11288
914.793	11296
914.906	11117
915.019	11121
915.132	11071
915.245	11025
915.358	11128
915.47	10995
915.583	11018
915.696	11090
915.809	11170
915.921	11174
916.034	11006
916.146	11052
916.259	10984
916.371	11102
916.483	11045
916.595	10915
916.708	10885
916.82	10927
916.932	10919
917.044	10881
917.156	10923
917.268	10862
917.38	10847
917.491	10778
917.603	10908
917.715	10919
917.826	10949
917.938	10862
918.049	10725
918.161	10809
918.272	11033
918.384	11003
918.495	10850
918.606	10793
918.717	10588
918.828	10828
918.939	10759
919.05	10565
919.161	10641
919.272	10443
919.383	10599
919.494	10854
919.604	10934
919.715	10733
919.826	10668
919.936	10721
920.047	10782
920.157	10786
920.267	10953
920.378	10820
920.488	10710
920.598	10915
920.708	11086
920.818	10908
920.928	10919
921.038	11102
921.148	11037
921.258	10740
921.368	10729
921.477	10603
921.587	10542
921.697	10394
921.806	10584
921.916	10375
922.025	10227
922.134	10249
922.244	10173
922.353	10268
922.462	10246
922.571	10036
922.68	9903
922.789	10032
922.898	9991
923.007	9911
923.116	10006
923.224	9918
923.333	9899
923.442	9838
923.55	9789
923.659	9842
923.767	9964
923.876	9808
923.984	9861
924.092	9679
924.201	9751
924.309	9770
924.417	9835
924.525	9740
924.633	9736
924.741	10653
924.849	9553
924.956	9682
925.064	9485
925.172	9534
925.279	9584
925.387	9644
925.494	9576
925.602	9675
925.709	9580
925.816	9526
925.924	9637
926.031	9648
926.138	9526
926.245	9633
926.352	9603
926.459	9667
926.566	9682
926.673	9591
926.779	9450
926.886	9359
926.993	9291
927.099	9294
927.206	9184
927.312	9275
927.419	9351
927.525	9203
927.631	9272
927.737	9230
927.843	9123
927.95	9028
928.056	9146
928.162	9176
928.267	9195
928.373	9816
928.479	9291
928.585	9032
928.69	9142
928.796	9146
928.901	9051
929.007	8872
929.112	9138
929.218	9013
929.323	9020
929.428	9028
929.533	9123
929.638	8883
929.743	8982
929.848	8967
929.953	8979
930.058	8941
930.163	8712
930.267	8716
930.372	8853
930.477	8659
930.581	8994
930.685	8785
930.79	8629
930.894	8701
930.998	8735
931.103	8830
931.207	8396
931.311	8450
931.415	8370
931.519	8130
931.623	8138
