Data from test_V78500241_2215.txt Node
Date: Fri Mar 25 14:49:08 CST 2022
User: usil
Spectrometer: V785-0024
Trigger mode: 0
Integration Time (sec): 4.000000E-1
Scans to average: 1
Nonlinearity correction enabled: false
Boxcar width: 0
Storing dark spectrum: false
XAxis mode: Wavelengths
Number of Pixels in Spectrum: 1024
>>>>>Begin Spectral Data<<<<<
801.071	22204
801.214	22109
801.356	21751
801.499	21553
801.641	21618
801.783	21553
801.926	21500
802.068	21431
802.211	21412
802.353	21306
802.496	21043
802.638	21108
802.78	21058
802.923	20868
803.065	20785
803.208	20754
803.35	20849
803.492	20956
803.635	20849
803.777	20849
803.919	20963
804.061	21157
804.204	21104
804.346	20872
804.488	20727
804.63	20861
804.773	20640
804.915	20861
805.057	20811
805.199	20830
805.341	20819
805.483	20853
805.626	20868
805.768	20804
805.91	20796
806.052	20686
806.194	20739
806.336	20830
806.478	20758
806.62	20697
806.762	20773
806.904	21013
807.046	21146
807.188	21150
807.33	21192
807.472	21192
807.614	21077
807.756	20967
807.898	20944
808.04	20765
808.182	20906
808.324	20914
808.465	20727
808.607	21108
808.749	21173
808.891	21306
809.033	21412
809.174	21374
809.316	21070
809.458	21192
809.6	21184
809.741	21272
809.883	21222
810.025	21344
810.166	21370
810.308	21408
810.45	21340
810.591	21138
810.733	21169
810.875	20941
811.016	20921
811.158	20823
811.299	20982
811.441	21020
811.582	21176
811.724	20971
811.865	20868
812.007	20902
812.148	21055
812.29	20960
812.431	21131
812.573	21260
812.714	21249
812.855	21382
812.997	21492
813.138	21671
813.279	21625
813.421	21545
813.562	21382
813.703	21203
813.845	21165
813.986	20739
814.127	20629
814.268	20511
814.41	20594
814.551	20396
814.692	20648
814.833	20400
814.974	20393
815.115	20469
815.256	20267
815.397	20339
815.539	20332
815.68	20351
815.821	20119
815.962	20294
816.103	20180
816.244	19982
816.385	20001
816.526	19906
816.666	19700
816.807	19620
816.948	19700
817.089	19731
817.23	19693
817.371	19613
817.512	19670
817.653	19518
817.793	19491
817.934	19651
818.075	19616
818.216	19624
818.356	19559
818.497	19411
818.638	19206
818.778	19343
818.919	19232
819.06	19365
819.2	19514
819.341	19483
819.481	19426
819.622	19715
819.762	19887
819.903	19723
820.043	19449
820.184	19655
820.324	19556
820.465	19696
820.605	19521
820.746	19582
820.886	19491
821.026	19533
821.167	19556
821.307	19491
821.447	19537
821.588	19297
821.728	19251
821.868	19110
822.008	19012
822.149	19031
822.289	18981
822.429	18760
822.569	18741
822.709	18669
822.849	18532
822.99	18437
823.13	18570
823.27	18456
823.41	18346
823.55	18201
823.69	18388
823.83	18418
823.97	18205
824.11	18003
824.25	18026
824.389	18060
824.529	18144
824.669	18178
824.809	18133
824.949	18197
825.089	18087
825.228	17939
825.368	17904
825.508	17859
825.648	17920
825.787	17832
825.927	17885
826.067	17878
826.206	17828
826.346	17863
826.485	17897
826.625	17775
826.765	17931
826.904	17882
827.044	17577
827.183	17554
827.323	17570
827.462	17497
827.601	17539
827.741	17444
827.88	17532
828.02	17360
828.159	17406
828.298	17547
828.437	17623
828.577	17471
828.716	17551
828.855	17467
828.994	17212
829.134	17337
829.273	17368
829.412	17200
829.551	17212
829.69	17216
829.829	17315
829.968	17299
830.107	17200
830.246	17250
830.385	17288
830.524	17162
830.663	17048
830.802	16946
830.941	16877
831.08	16885
831.219	16961
831.357	16995
831.496	17029
831.635	16862
831.774	16824
831.913	16805
832.051	16645
832.19	16668
832.329	16687
832.467	16569
832.606	16523
832.744	16569
832.883	16569
833.022	16417
833.16	16569
833.299	16592
833.437	16607
833.576	16573
833.714	16561
833.852	16599
833.991	16645
834.129	16637
834.267	16744
834.406	16599
834.544	16630
834.682	16721
834.821	16504
834.959	16774
835.097	16660
835.235	16717
835.373	16645
835.511	16653
835.65	16561
835.788	16481
835.926	16234
836.064	16280
836.202	16363
836.34	16542
836.478	16607
836.615	16421
836.753	16588
836.891	16599
837.029	16550
837.167	16462
837.305	16474
837.443	16424
837.58	16375
837.718	16417
837.856	16337
837.993	16303
838.131	16371
838.269	16314
838.406	16322
838.544	16268
838.681	16071
838.819	15964
838.956	15926
839.094	15861
839.231	15899
839.369	16150
839.506	16242
839.643	16173
839.781	15979
839.918	15918
840.055	15876
840.193	15876
840.33	15903
840.467	15930
840.604	15991
840.742	16207
840.879	15831
841.016	15861
841.153	15762
841.29	15987
841.427	15922
841.564	16048
841.701	15964
841.838	15857
841.975	15880
842.112	15781
842.249	15724
842.385	15705
842.522	15842
842.659	15713
842.796	15622
842.933	15728
843.069	15743
843.206	15606
843.343	15781
843.479	15785
843.616	15766
843.752	15534
843.889	15458
844.025	15663
844.162	15450
844.298	15610
844.435	15534
844.571	15473
844.708	15492
844.844	15713
844.98	15652
845.117	15751
845.253	15485
845.389	15458
845.525	15340
845.661	15378
845.798	15195
845.934	15317
846.07	15241
846.206	15294
846.342	15511
846.478	15287
846.614	15131
846.75	15085
846.886	15043
847.022	15165
847.158	15142
847.294	15081
847.429	14967
847.565	15024
847.701	15310
847.837	14773
847.972	14758
848.108	15051
848.244	14864
848.379	14811
848.515	14594
848.65	14598
848.786	14769
848.921	14739
849.057	14758
849.192	14849
849.328	14754
849.463	14762
849.598	14640
849.734	14636
849.869	14469
850.004	14431
850.14	14526
850.275	14488
850.41	14336
850.545	14347
850.68	14317
850.815	14438
850.95	14408
851.085	14606
851.22	14556
851.355	14381
851.49	14434
851.625	14343
851.76	14396
851.895	14377
852.03	14210
852.165	14408
852.299	14446
852.434	14545
852.569	14533
852.703	14495
852.838	14457
852.973	14476
853.107	14579
853.242	14412
853.376	14336
853.511	14157
853.645	14199
853.78	14488
853.914	14339
854.048	14195
854.183	14263
854.317	14362
854.451	14434
854.585	14298
854.72	14271
854.854	14286
854.988	14263
855.122	14301
855.256	14134
855.39	14332
855.524	14400
855.658	14351
855.792	14275
855.926	14324
856.06	14393
856.194	14336
856.327	14343
856.461	14438
856.595	14313
856.729	14248
856.862	14343
856.996	14408
857.13	14446
857.263	14431
857.397	14404
857.53	14332
857.664	14290
857.797	14400
857.931	14355
858.064	14381
858.197	14370
858.331	14278
858.464	14187
858.597	14111
858.731	14214
858.864	14282
858.997	14298
859.13	14355
859.263	14278
859.396	14374
859.529	14294
859.662	14195
859.795	14248
859.928	14328
860.061	14457
860.194	14454
860.327	14438
860.46	14240
860.592	14404
860.725	14522
860.858	14431
860.99	14317
861.123	14164
861.256	14202
861.388	14351
861.521	14891
861.653	14202
861.786	14088
861.918	14229
862.05	14225
862.183	14275
862.315	14294
862.447	14343
862.58	14263
862.712	14134
862.844	14024
862.976	14039
863.108	14176
863.24	14457
863.372	13951
863.504	14100
863.636	14084
863.768	14191
863.9	14077
864.032	14027
864.164	14008
864.296	14115
864.428	14168
864.559	14225
864.691	14123
864.823	14123
864.954	14077
865.086	14065
865.217	14039
865.349	13993
865.48	13963
865.612	14069
865.743	14199
865.875	14168
866.006	14024
866.137	13997
866.269	13997
866.4	14020
866.531	14054
866.662	14024
866.793	14016
866.924	14050
867.055	14001
867.186	14100
867.317	13967
867.448	13951
867.579	13944
867.71	13932
867.841	14001
867.972	14084
868.103	14020
868.233	14016
868.364	14062
868.495	14130
868.625	14305
868.756	14370
868.886	14153
869.017	14271
869.147	14412
869.278	14431
869.408	14221
869.539	14320
869.669	14374
869.799	14381
869.929	14393
870.06	14404
870.19	14575
870.32	14575
870.45	14617
870.58	14743
870.71	14697
870.84	14857
870.97	14686
871.1	14655
871.23	14853
871.36	14887
871.489	14727
871.619	14952
871.749	14891
871.879	14990
872.008	14967
872.138	14918
872.267	14899
872.397	14758
872.526	14693
872.656	14621
872.785	14663
872.915	14887
873.044	15020
873.173	14982
873.303	14994
873.432	14998
873.561	15127
873.69	14994
873.819	15028
873.948	14979
874.077	14880
874.206	15028
874.335	14975
874.464	15001
874.593	15245
874.722	15157
874.851	15279
874.979	15291
875.108	15310
875.237	15131
875.365	15192
875.494	15298
875.623	15218
875.751	15325
875.88	15374
876.008	15359
876.136	15545
876.265	15648
876.393	15846
876.521	15762
876.65	15698
876.778	15701
876.906	15606
877.034	15652
877.162	15595
877.29	15545
877.418	15629
877.546	15789
877.674	15766
877.802	15701
877.93	15682
878.058	15656
878.185	15610
878.313	15618
878.441	15698
878.568	15477
878.696	15576
878.824	15747
878.951	15785
879.079	15751
879.206	15998
879.333	15857
879.461	15747
879.588	15743
879.715	15865
879.842	15937
879.97	15682
880.097	15542
880.224	15549
880.351	15511
880.478	15515
880.605	15469
880.732	15526
880.859	15720
880.986	15644
881.112	15641
881.239	15439
881.366	15348
881.493	15275
881.619	15203
881.746	15207
881.872	15127
881.999	15192
882.125	15116
882.252	15203
882.378	15252
882.505	15428
882.631	15097
882.757	15051
882.883	14998
883.01	14952
883.136	14944
883.262	14994
883.388	14777
883.514	14918
883.64	14994
883.766	14941
883.892	14785
884.018	14796
884.143	14975
884.269	15146
884.395	14727
884.52	14655
884.646	14693
884.772	14674
884.897	14610
885.023	14716
885.148	14830
885.274	14880
885.399	14826
885.524	14632
885.65	14781
885.775	14701
885.9	14804
886.025	14823
886.15	14765
886.275	14689
886.4	14674
886.525	14693
886.65	14640
886.775	14697
886.9	14811
887.025	14921
887.149	14724
887.274	14488
887.399	14533
887.523	14473
887.648	14442
887.773	14495
887.897	14613
888.021	14518
888.146	14469
888.27	14724
888.395	14762
888.519	14526
888.643	14560
888.767	14754
888.891	14480
889.015	14339
889.139	14381
889.263	14377
889.387	14495
889.511	14587
889.635	14533
889.759	14381
889.883	14347
890.006	14370
890.13	14533
890.254	14377
890.377	14408
890.501	14221
890.624	14351
890.748	14396
890.871	14145
890.995	14050
891.118	14020
891.241	14020
891.364	14107
891.488	14218
891.611	14065
891.734	14107
891.857	14206
891.98	14164
892.103	14233
892.226	14183
892.349	14084
892.471	13963
892.594	14016
892.717	14031
892.839	14084
892.962	14088
893.085	14176
893.207	14134
893.33	14008
893.452	14008
893.575	14111
893.697	14005
893.819	14240
893.941	14370
894.064	14248
894.186	14088
894.308	14100
894.43	14195
894.552	14358
894.674	14298
894.796	14092
894.918	14157
895.04	14043
895.161	14324
895.283	14233
895.405	14092
895.526	14168
895.648	14183
895.769	14259
895.891	14324
896.012	14259
896.134	14259
896.255	14244
896.376	14237
896.498	14332
896.619	14298
896.74	14225
896.861	14267
896.982	14571
897.103	14705
897.224	14667
897.345	14484
897.466	14533
897.587	14549
897.708	14625
897.828	14545
897.949	14408
898.07	14374
898.19	14495
898.311	14701
898.431	14514
898.552	14613
898.672	14663
898.792	14697
898.913	14621
899.033	14663
899.153	14537
899.273	14366
899.393	14533
899.513	14575
899.633	14450
899.753	14503
899.873	14473
899.993	14522
900.113	14526
900.232	14495
900.352	14438
900.472	14377
900.591	14248
900.711	14415
900.83	14355
900.95	14366
901.069	14480
901.189	14347
901.308	14115
901.427	14046
901.546	13928
901.665	14046
901.784	14001
901.904	13982
902.023	13856
902.141	13616
902.26	13525
902.379	13647
902.498	13559
902.617	13552
902.735	13567
902.854	13556
902.973	13438
903.091	13358
903.21	13358
903.328	13362
903.446	13278
903.565	13110
903.683	13213
903.801	13091
903.919	13072
904.038	13133
904.156	13000
904.274	12970
904.392	12981
904.51	12924
904.627	12962
904.745	13012
904.863	13050
904.981	12890
905.098	12627
905.216	12620
905.334	12639
905.451	12597
905.569	12726
905.686	12738
905.803	12684
905.921	12418
906.038	12563
906.155	12494
906.272	12464
906.389	12391
906.506	12273
906.623	12243
906.74	12266
906.857	12171
906.974	12133
907.091	12273
907.208	12437
907.324	12365
907.441	12167
907.557	12053
907.674	12015
907.79	11992
907.907	11843
908.023	12015
908.139	12003
908.256	11965
908.372	11961
908.488	11942
908.604	11821
908.72	11786
908.836	11771
908.952	11752
909.068	11729
909.184	11828
909.3	11722
909.415	11805
909.531	11745
909.647	11501
909.762	11501
909.878	11490
909.993	11600
910.108	11490
910.224	11493
910.339	11596
910.454	11474
910.57	11360
910.685	11269
910.8	11657
910.915	11554
911.03	11421
911.145	11261
911.259	11250
911.374	11261
911.489	11178
911.604	11086
911.718	10957
911.833	10991
911.947	10961
912.062	10793
912.176	10999
912.291	10965
912.405	11048
912.519	11159
912.633	11299
912.748	11041
912.862	11006
912.976	10889
913.09	10774
913.204	10828
913.318	10919
913.431	11029
913.545	10976
913.659	10984
913.772	10824
913.886	10736
914	10706
914.113	10816
914.226	10831
914.34	10805
914.453	10664
914.566	10809
914.68	10637
914.793	10634
914.906	10497
915.019	10481
915.132	10394
915.245	10421
915.358	10519
915.47	10421
915.583	10580
915.696	10535
915.809	10592
915.921	10721
916.034	10417
916.146	10443
916.259	10447
916.371	10527
916.483	10485
916.595	10402
916.708	10443
916.82	10405
916.932	10405
917.044	10455
917.156	10367
917.268	10253
917.38	10394
917.491	10268
917.603	10344
917.715	10356
917.826	10413
917.938	10284
918.049	10215
918.161	10386
918.272	10459
918.384	10493
918.495	10348
918.606	10268
918.717	10101
918.828	10238
918.939	10219
919.05	10147
919.161	10204
919.272	9964
919.383	10059
919.494	10253
919.604	10504
919.715	10299
919.826	10109
919.936	10249
920.047	10234
920.157	10223
920.267	10413
920.378	10227
920.488	10219
920.598	10398
920.708	10535
920.818	10500
920.928	10379
921.038	10561
921.148	10504
921.258	10314
921.368	10154
921.477	10059
921.587	10032
921.697	10010
921.806	10116
921.916	9975
922.025	9816
922.134	9827
922.244	9785
922.353	9740
922.462	9629
922.571	9625
922.68	9485
922.789	9530
922.898	9412
923.007	9424
923.116	9542
923.224	9538
923.333	9450
923.442	9416
923.55	9393
923.659	9306
923.767	9454
923.876	9348
923.984	9431
924.092	9298
924.201	9294
924.309	9389
924.417	9272
924.525	9336
924.633	9321
924.741	10242
924.849	9104
924.956	9199
925.064	9051
925.172	9081
925.279	9077
925.387	9184
925.494	9116
925.602	9325
925.709	9233
925.816	9089
925.924	9116
926.031	9188
926.138	9104
926.245	9188
926.352	9017
926.459	9165
926.566	9199
926.673	9032
926.779	9028
926.886	9020
926.993	8918
927.099	8811
927.206	8750
927.312	8785
927.419	8823
927.525	8891
927.631	8899
927.737	8792
927.843	8716
927.95	8579
928.056	8727
928.162	8731
928.267	8838
928.373	9443
928.479	8914
928.585	8617
928.69	8678
928.796	8727
928.901	8613
929.007	8598
929.112	8682
929.218	8575
929.323	8541
929.428	8564
929.533	8705
929.638	8480
929.743	8469
929.848	8556
929.953	8522
930.058	8465
930.163	8305
930.267	8328
930.372	8492
930.477	8336
930.581	8560
930.685	8457
930.79	8301
930.894	8263
930.998	8218
931.103	8393
931.207	8065
931.311	8020
931.415	8001
931.519	7807
931.623	7795
