Data from test_V78500241_3052.txt Node
Date: Fri Mar 25 14:54:58 CST 2022
User: usil
Spectrometer: V785-0024
Trigger mode: 0
Integration Time (sec): 4.000000E-1
Scans to average: 1
Nonlinearity correction enabled: false
Boxcar width: 0
Storing dark spectrum: false
XAxis mode: Wavelengths
Number of Pixels in Spectrum: 1024
>>>>>Begin Spectral Data<<<<<
801.071	22067
801.214	22032
801.356	21633
801.499	21561
801.641	21481
801.783	21523
801.926	21549
802.068	21332
802.211	21283
802.353	21180
802.496	21047
802.638	20899
802.78	21017
802.923	20800
803.065	20788
803.208	20773
803.35	20845
803.492	20804
803.635	20914
803.777	20872
803.919	20857
804.061	21009
804.204	20849
804.346	20602
804.488	20697
804.63	20716
804.773	20716
804.915	20716
805.057	20708
805.199	20644
805.341	20807
805.483	20979
805.626	20834
805.768	20552
805.91	20731
806.052	20571
806.194	20689
806.336	20899
806.478	20792
806.62	20568
806.762	20712
806.904	20918
807.046	21169
807.188	21096
807.33	21039
807.472	21051
807.614	21089
807.756	21032
807.898	20811
808.04	20727
808.182	20712
808.324	20838
808.465	20842
808.607	21104
808.749	21116
808.891	21199
809.033	21317
809.174	21096
809.316	20960
809.458	20944
809.6	21104
809.741	21146
809.883	21017
810.025	21230
810.166	21192
810.308	21291
810.45	21294
810.591	21093
810.733	20933
810.875	20845
811.016	20735
811.158	20731
811.299	20842
811.441	20967
811.582	20887
811.724	20891
811.865	20910
812.007	20720
812.148	20826
812.29	20910
812.431	21047
812.573	21070
812.714	21386
812.855	21241
812.997	21587
813.138	21538
813.279	21458
813.421	21344
813.562	21279
813.703	21184
813.845	20941
813.986	20834
814.127	20522
814.268	20457
814.41	20415
814.551	20366
814.692	20381
814.833	20301
814.974	20278
815.115	20351
815.256	20244
815.397	20210
815.539	20210
815.68	20199
815.821	20065
815.962	20088
816.103	20039
816.244	19963
816.385	19807
816.526	19807
816.666	19666
816.807	19582
816.948	19521
817.089	19719
817.23	19685
817.371	19586
817.512	19491
817.653	19571
817.793	19480
817.934	19472
818.075	19499
818.216	19422
818.356	19449
818.497	19331
818.638	19107
818.778	19282
818.919	19297
819.06	19289
819.2	19270
819.341	19327
819.481	19426
819.622	19495
819.762	19753
819.903	19582
820.043	19597
820.184	19521
820.324	19419
820.465	19601
820.605	19445
820.746	19476
820.886	19339
821.026	19438
821.167	19304
821.307	19403
821.447	19343
821.588	19335
821.728	19152
821.868	19107
822.008	18878
822.149	18993
822.289	18951
822.429	18631
822.569	18536
822.709	18540
822.849	18410
822.99	18334
823.13	18395
823.27	18361
823.41	18209
823.55	18209
823.69	18095
823.83	18110
823.97	18136
824.11	17946
824.25	17992
824.389	17931
824.529	18038
824.669	18015
824.809	18110
824.949	18041
825.089	18034
825.228	17992
825.368	17733
825.508	17733
825.648	17642
825.787	17695
825.927	17836
826.067	17615
826.206	17729
826.346	17741
826.485	17714
826.625	17710
826.765	17684
826.904	17775
827.044	17600
827.183	17440
827.323	17429
827.462	17493
827.601	17478
827.741	17406
827.88	17448
828.02	17166
828.159	17387
828.298	17459
828.437	17448
828.577	17379
828.716	17436
828.855	17345
828.994	17189
829.134	17178
829.273	17181
829.412	17189
829.551	17109
829.69	17254
829.829	17231
829.968	17197
830.107	17208
830.246	17162
830.385	17071
830.524	17025
830.663	16934
830.802	16930
830.941	16801
831.08	16725
831.219	16816
831.357	16847
831.496	17014
831.635	16771
831.774	16702
831.913	16713
832.051	16550
832.19	16500
832.329	16516
832.467	16386
832.606	16367
832.744	16409
832.883	16535
833.022	16440
833.16	16565
833.299	16474
833.437	16497
833.576	16451
833.714	16466
833.852	16436
833.991	16542
834.129	16538
834.267	16519
834.406	16500
834.544	16584
834.682	16527
834.821	16527
834.959	16736
835.097	16432
835.235	16478
835.373	16634
835.511	16489
835.65	16424
835.788	16337
835.926	16242
836.064	16230
836.202	16265
836.34	16360
836.478	16516
836.615	16390
836.753	16348
836.891	16474
837.029	16428
837.167	16386
837.305	16367
837.443	16341
837.58	16284
837.718	16382
837.856	16291
837.993	16246
838.131	16303
838.269	16188
838.406	16112
838.544	16116
838.681	15987
838.819	15956
838.956	15816
839.094	15854
839.231	15888
839.369	15975
839.506	16215
839.643	16032
839.781	15785
839.918	15739
840.055	15953
840.193	15899
840.33	15755
840.467	15717
840.604	15816
840.742	16112
840.879	15622
841.016	15698
841.153	15720
841.29	15960
841.427	15892
841.564	15899
841.701	15774
841.838	15717
841.975	15618
842.112	15770
842.249	15641
842.385	15587
842.522	15804
842.659	15572
842.796	15507
842.933	15682
843.069	15553
843.206	15603
843.343	15637
843.479	15644
843.616	15591
843.752	15348
843.889	15321
844.025	15595
844.162	15287
844.298	15519
844.435	15275
844.571	15287
844.708	15405
844.844	15496
844.98	15466
845.117	15488
845.253	15214
845.389	15214
845.525	15310
845.661	15245
845.798	15214
845.934	15157
846.07	15161
846.206	15192
846.342	15302
846.478	15214
846.614	14902
846.75	14788
846.886	14880
847.022	14990
847.158	14994
847.294	14971
847.429	15047
847.565	14895
847.701	15184
847.837	14693
847.972	14640
848.108	14765
848.244	14750
848.379	14590
848.515	14632
848.65	14579
848.786	14499
848.921	14526
849.057	14610
849.192	14629
849.328	14533
849.463	14541
849.598	14507
849.734	14385
849.869	14434
850.004	14233
850.14	14282
850.275	14271
850.41	14240
850.545	14275
850.68	14339
850.815	14332
850.95	14328
851.085	14488
851.22	14415
851.355	14267
851.49	14267
851.625	14313
851.76	14377
851.895	14191
852.03	14214
852.165	14240
852.299	14366
852.434	14461
852.569	14343
852.703	14396
852.838	14438
852.973	14480
853.107	14438
853.242	14248
853.376	14149
853.511	14172
853.645	14180
853.78	14328
853.914	14199
854.048	14172
854.183	14161
854.317	14149
854.451	14358
854.585	14142
854.72	14126
854.854	14275
854.988	14084
855.122	14092
855.256	14020
855.39	14218
855.524	14366
855.658	14271
855.792	14191
855.926	14164
856.06	14221
856.194	14298
856.327	14180
856.461	14134
856.595	14145
856.729	14214
856.862	14267
856.996	14218
857.13	14218
857.263	14278
857.397	14317
857.53	14103
857.664	14259
857.797	14309
857.931	14278
858.064	14309
858.197	14317
858.331	14096
858.464	14084
858.597	14126
858.731	14168
858.864	14172
858.997	14164
859.13	14153
859.263	14161
859.396	14263
859.529	14225
859.662	14142
859.795	14183
859.928	14164
860.061	14294
860.194	14522
860.327	14237
860.46	14202
860.592	14256
860.725	14374
860.858	14343
860.99	14115
861.123	14119
861.256	14092
861.388	14111
861.521	14834
861.653	14058
861.786	14008
861.918	14092
862.05	14096
862.183	14214
862.315	14195
862.447	14176
862.58	14096
862.712	13951
862.844	13887
862.976	14073
863.108	14016
863.24	14290
863.372	13822
863.504	14001
863.636	14012
863.768	13970
863.9	14001
864.032	13883
864.164	13955
864.296	13986
864.428	14092
864.559	14016
864.691	14046
864.823	13982
864.954	13959
865.086	14054
865.217	13955
865.349	13826
865.48	13913
865.612	14024
865.743	14123
865.875	13959
866.006	13940
866.137	13936
866.269	13974
866.4	14005
866.531	13841
866.662	13860
866.793	13917
866.924	13970
867.055	13982
867.186	14005
867.317	13936
867.448	13731
867.579	13879
867.71	13883
867.841	13940
867.972	13967
868.103	13982
868.233	14039
868.364	14046
868.495	14107
868.625	14130
868.756	14275
868.886	14161
869.017	14153
869.147	14229
869.278	14248
869.408	14214
869.539	14111
869.669	14263
869.799	14225
869.929	14263
870.06	14237
870.19	14480
870.32	14476
870.45	14560
870.58	14621
870.71	14636
870.84	14663
870.97	14579
871.1	14625
871.23	14720
871.36	14861
871.489	14716
871.619	14800
871.749	14811
871.879	14785
872.008	14899
872.138	14819
872.267	14769
872.397	14758
872.526	14632
872.656	14568
872.785	14636
872.915	14807
873.044	14807
873.173	14857
873.303	14872
873.432	14826
873.561	14899
873.69	14933
873.819	14880
873.948	14899
874.077	14937
874.206	14899
874.335	14762
874.464	14956
874.593	15135
874.722	15066
874.851	15184
874.979	15165
875.108	15195
875.237	15001
875.365	15013
875.494	15104
875.623	15310
875.751	15013
875.88	15123
876.008	15386
876.136	15382
876.265	15610
876.393	15671
876.521	15648
876.65	15648
876.778	15698
876.906	15595
877.034	15549
877.162	15450
877.29	15439
877.418	15572
877.546	15545
877.674	15568
877.802	15603
877.93	15587
878.058	15530
878.185	15538
878.313	15572
878.441	15614
878.568	15454
878.696	15553
878.824	15679
878.951	15568
879.079	15709
879.206	15854
879.333	15690
879.461	15720
879.588	15774
879.715	15728
879.842	15804
879.97	15671
880.097	15435
880.224	15420
880.351	15367
880.478	15507
880.605	15416
880.732	15477
880.859	15652
880.986	15511
881.112	15519
881.239	15279
881.366	15192
881.493	15142
881.619	15055
881.746	15058
881.872	15077
881.999	14941
882.125	15024
882.252	15066
882.378	15093
882.505	15249
882.631	15135
882.757	14876
882.883	14967
883.01	14986
883.136	14811
883.262	14785
883.388	14724
883.514	14967
883.64	14948
883.766	14910
883.892	14735
884.018	14792
884.143	14823
884.269	15051
884.395	14663
884.52	14594
884.646	14621
884.772	14522
884.897	14484
885.023	14564
885.148	14701
885.274	14777
885.399	14727
885.524	14636
885.65	14693
885.775	14583
885.9	14621
886.025	14777
886.15	14701
886.275	14568
886.4	14560
886.525	14511
886.65	14415
886.775	14564
886.9	14754
887.025	14857
887.149	14541
887.274	14450
887.399	14374
887.523	14423
887.648	14343
887.773	14332
887.897	14556
888.021	14492
888.146	14385
888.27	14423
888.395	14670
888.519	14469
888.643	14454
888.767	14434
888.891	14385
889.015	14271
889.139	14343
889.263	14275
889.387	14446
889.511	14465
889.635	14404
889.759	14370
889.883	14317
890.006	14324
890.13	14434
890.254	14195
890.377	14210
890.501	14081
890.624	14107
890.748	14187
890.871	14069
890.995	14054
891.118	13982
891.241	13974
891.364	13951
891.488	14199
891.611	14012
891.734	14062
891.857	14073
891.98	13997
892.103	14065
892.226	14016
892.349	13978
892.471	13875
892.594	14027
892.717	14123
892.839	13947
892.962	13932
893.085	14157
893.207	13951
893.33	13970
893.452	13913
893.575	14031
893.697	13913
893.819	14176
893.941	14145
894.064	14214
894.186	13967
894.308	13940
894.43	14088
894.552	14301
894.674	14168
894.796	13951
894.918	14153
895.04	14081
895.161	14088
895.283	14096
895.405	14115
895.526	14161
895.648	14164
895.769	14214
895.891	14168
896.012	14252
896.134	14206
896.255	14149
896.376	14126
896.498	14187
896.619	14153
896.74	14286
896.861	14252
896.982	14537
897.103	14823
897.224	14473
897.345	14431
897.466	14396
897.587	14427
897.708	14617
897.828	14465
897.949	14385
898.07	14393
898.19	14412
898.311	14587
898.431	14438
898.552	14560
898.672	14530
898.792	14583
898.913	14560
899.033	14488
899.153	14370
899.273	14343
899.393	14351
899.513	14393
899.633	14343
899.753	14450
899.873	14404
899.993	14434
900.113	14332
900.232	14423
900.352	14347
900.472	14366
900.591	14191
900.711	14351
900.83	14275
900.95	14419
901.069	14351
901.189	14229
901.308	14035
901.427	13989
901.546	13944
901.665	14024
901.784	14111
901.904	13837
902.023	13677
902.141	13578
902.26	13521
902.379	13609
902.498	13495
902.617	13449
902.735	13502
902.854	13639
902.973	13476
903.091	13266
903.21	13141
903.328	13312
903.446	13247
903.565	13099
903.683	13114
903.801	12993
903.919	12970
904.038	13050
904.156	12951
904.274	12947
904.392	12882
904.51	12844
904.627	12829
904.745	12882
904.863	12875
904.981	12719
905.098	12650
905.216	12563
905.334	12696
905.451	12646
905.569	12589
905.686	12563
905.803	12525
905.921	12369
906.038	12536
906.155	12410
906.272	12338
906.389	12338
906.506	12152
906.623	12171
906.74	12098
906.857	11999
906.974	12072
907.091	12144
907.208	12216
907.324	12277
907.441	12049
907.557	12011
907.674	11965
907.79	11824
907.907	11813
908.023	11950
908.139	11927
908.256	11882
908.372	11798
908.488	11851
908.604	11748
908.72	11649
908.836	11676
908.952	11623
909.068	11703
909.184	11821
909.3	11760
909.415	11699
909.531	11714
909.647	11448
909.762	11417
909.878	11509
909.993	11486
910.108	11425
910.224	11406
910.339	11376
910.454	11417
910.57	11258
910.685	11246
910.8	11490
910.915	11436
911.03	11349
911.145	11159
911.259	11170
911.374	11220
911.489	11006
911.604	10965
911.718	10877
911.833	10911
911.947	10900
912.062	10847
912.176	10900
912.291	10934
912.405	10919
912.519	11041
912.633	11143
912.748	10930
912.862	10953
912.976	10835
913.09	10782
913.204	10847
913.318	10824
913.431	10919
913.545	10850
913.659	10877
913.772	10839
913.886	10805
914	10641
914.113	10767
914.226	10744
914.34	10721
914.453	10573
914.566	10767
914.68	10626
914.793	10611
914.906	10527
915.019	10322
915.132	10360
915.245	10390
915.358	10459
915.47	10398
915.583	10455
915.696	10413
915.809	10546
915.921	10546
916.034	10474
916.146	10394
916.259	10356
916.371	10470
916.483	10375
916.595	10348
916.708	10303
916.82	10318
916.932	10325
917.044	10333
917.156	10284
917.268	10276
917.38	10295
917.491	10211
917.603	10276
917.715	10398
917.826	10386
917.938	10253
918.049	10059
918.161	10295
918.272	10417
918.384	10428
918.495	10234
918.606	10177
918.717	10040
918.828	10120
918.939	10204
919.05	10002
919.161	10188
919.272	9915
919.383	9953
919.494	10147
919.604	10265
919.715	10185
919.826	10131
919.936	10166
920.047	10272
920.157	10158
920.267	10333
920.378	10223
920.488	10143
920.598	10413
920.708	10455
920.818	10394
920.928	10352
921.038	10527
921.148	10402
921.258	10227
921.368	10131
921.477	10071
921.587	9994
921.697	9956
921.806	9994
921.916	9869
922.025	9785
922.134	9728
922.244	9660
922.353	9781
922.462	9660
922.571	9542
922.68	9458
922.789	9313
922.898	9435
923.007	9367
923.116	9450
923.224	9408
923.333	9416
923.442	9298
923.55	9310
923.659	9264
923.767	9416
923.876	9268
923.984	9428
924.092	9222
924.201	9291
924.309	9310
924.417	9306
924.525	9218
924.633	9348
924.741	10169
924.849	9051
924.956	9233
925.064	9127
925.172	9051
925.279	9039
925.387	9066
925.494	9055
925.602	9237
925.709	9127
925.816	8990
925.924	9005
926.031	9100
926.138	9001
926.245	9100
926.352	8982
926.459	9116
926.566	9245
926.673	9017
926.779	8944
926.886	8906
926.993	8815
927.099	8845
927.206	8727
927.312	8746
927.419	8823
927.525	8788
927.631	8883
927.737	8773
927.843	8689
927.95	8613
928.056	8674
928.162	8651
928.267	8735
928.373	9275
928.479	8739
928.585	8518
928.69	8716
928.796	8735
928.901	8587
929.007	8511
929.112	8583
929.218	8594
929.323	8484
929.428	8484
929.533	8571
929.638	8381
929.743	8499
929.848	8518
929.953	8457
930.058	8358
930.163	8271
930.267	8317
930.372	8438
930.477	8301
930.581	8484
930.685	8381
930.79	8240
930.894	8244
930.998	8279
931.103	8450
931.207	8039
931.311	7947
931.415	7902
931.519	7792
931.623	7670
