Data from test_V78500241_1265.txt Node
Date: Fri Mar 25 14:42:31 CST 2022
User: usil
Spectrometer: V785-0024
Trigger mode: 0
Integration Time (sec): 4.000000E-1
Scans to average: 1
Nonlinearity correction enabled: false
Boxcar width: 0
Storing dark spectrum: false
XAxis mode: Wavelengths
Number of Pixels in Spectrum: 1024
>>>>>Begin Spectral Data<<<<<
801.071	22371
801.214	22341
801.356	22040
801.499	22158
801.641	21823
801.783	21736
801.926	21682
802.068	21713
802.211	21686
802.353	21462
802.496	21367
802.638	21401
802.78	21245
802.923	21142
803.065	21055
803.208	21093
803.35	21070
803.492	21256
803.635	21241
803.777	21135
803.919	21184
804.061	21500
804.204	21032
804.346	20952
804.488	20990
804.63	21047
804.773	20952
804.915	21089
805.057	21085
805.199	21055
805.341	21142
805.483	21070
805.626	21104
805.768	20971
805.91	20937
806.052	21116
806.194	20891
806.336	21222
806.478	21047
806.62	20971
806.762	21089
806.904	21169
807.046	21412
807.188	21359
807.33	21386
807.472	21507
807.614	21370
807.756	21306
807.898	21230
808.04	21142
808.182	21195
808.324	21138
808.465	21165
808.607	21321
808.749	21549
808.891	21675
809.033	21690
809.174	21705
809.316	21458
809.458	21561
809.6	21435
809.741	21473
809.883	21523
810.025	21610
810.166	21603
810.308	21595
810.45	21504
810.591	21545
810.733	21443
810.875	21218
811.016	21146
811.158	21005
811.299	21283
811.441	21420
811.582	21332
811.724	21154
811.865	21154
812.007	21176
812.148	21279
812.29	21195
812.431	21321
812.573	21454
812.714	21572
812.855	21701
812.997	21766
813.138	21892
813.279	21812
813.421	21595
813.562	21591
813.703	21408
813.845	21367
813.986	21096
814.127	20971
814.268	20762
814.41	20891
814.551	20849
814.692	20785
814.833	20800
814.974	20693
815.115	20781
815.256	20587
815.397	20678
815.539	20552
815.68	20446
815.821	20408
815.962	20434
816.103	20438
816.244	20427
816.385	20252
816.526	20138
816.666	20062
816.807	19890
816.948	19814
817.089	20020
817.23	19982
817.371	19883
817.512	19947
817.653	19887
817.793	19830
817.934	19890
818.075	19795
818.216	19894
818.356	19898
818.497	19833
818.638	19567
818.778	19582
818.919	19544
819.06	19567
819.2	19681
819.341	19784
819.481	19734
819.622	19833
819.762	20092
819.903	19963
820.043	20008
820.184	19803
820.324	19841
820.465	19974
820.605	19913
820.746	19837
820.886	19769
821.026	19887
821.167	19776
821.307	19944
821.447	19921
821.588	19647
821.728	19563
821.868	19377
822.008	19289
822.149	19293
822.289	19194
822.429	19141
822.569	18943
822.709	19038
822.849	18779
822.99	18806
823.13	18810
823.27	18760
823.41	18642
823.55	18532
823.69	18696
823.83	18559
823.97	18631
824.11	18437
824.25	18479
824.389	18361
824.529	18517
824.669	18414
824.809	18479
824.949	18456
825.089	18399
825.228	18330
825.368	18190
825.508	18136
825.648	18266
825.787	18182
825.927	18220
826.067	18152
826.206	18129
826.346	18258
826.485	18239
826.625	18159
826.765	18262
826.904	18186
827.044	17999
827.183	17923
827.323	17912
827.462	17908
827.601	17866
827.741	17885
827.88	17973
828.02	17771
828.159	17851
828.298	17923
828.437	17920
828.577	17870
828.716	17992
828.855	17756
828.994	17623
829.134	17638
829.273	17634
829.412	17615
829.551	17585
829.69	17657
829.829	17714
829.968	17653
830.107	17707
830.246	17638
830.385	17512
830.524	17459
830.663	17417
830.802	17277
830.941	17318
831.08	17109
831.219	17239
831.357	17315
831.496	17478
831.635	17181
831.774	17170
831.913	17128
832.051	17048
832.19	17056
832.329	17098
832.467	16938
832.606	16889
832.744	17083
832.883	16927
833.022	16976
833.16	16919
833.299	16938
833.437	17003
833.576	17041
833.714	17006
833.852	17067
833.991	17045
834.129	17033
834.267	17014
834.406	16934
834.544	16999
834.682	16949
834.821	16968
834.959	17178
835.097	16911
835.235	17010
835.373	17075
835.511	17033
835.65	16862
835.788	16949
835.926	16858
836.064	16752
836.202	16691
836.34	16892
836.478	16930
836.615	16824
836.753	16972
836.891	16999
837.029	16980
837.167	16892
837.305	16900
837.443	16965
837.58	16767
837.718	16923
837.856	16824
837.993	16645
838.131	16790
838.269	16649
838.406	16759
838.544	16691
838.681	16424
838.819	16523
838.956	16246
839.094	16291
839.231	16333
839.369	16409
839.506	16706
839.643	16550
839.781	16405
839.918	16276
840.055	16249
840.193	16249
840.33	16284
840.467	16204
840.604	16413
840.742	16584
840.879	16131
841.016	16249
841.153	16272
841.29	16462
841.427	16424
841.564	16402
841.701	16306
841.838	16306
841.975	16238
842.112	16192
842.249	16124
842.385	16097
842.522	16329
842.659	16120
842.796	16032
842.933	16109
843.069	15998
843.206	16173
843.343	16177
843.479	16112
843.616	16112
843.752	15983
843.889	15903
844.025	16051
844.162	15736
844.298	16010
844.435	16002
844.571	15838
844.708	15922
844.844	15953
844.98	15987
845.117	16063
845.253	15850
845.389	15739
845.525	15850
845.661	15797
845.798	15831
845.934	15819
846.07	15797
846.206	15876
846.342	15922
846.478	15770
846.614	15542
846.75	15492
846.886	15408
847.022	15584
847.158	15561
847.294	15473
847.429	15507
847.565	15348
847.701	15705
847.837	15256
847.972	15146
848.108	15256
848.244	15233
848.379	15138
848.515	15150
848.65	14937
848.786	15131
848.921	15085
849.057	15108
849.192	15138
849.328	15116
849.463	14994
849.598	15024
849.734	15047
849.869	15032
850.004	14819
850.14	14819
850.275	14792
850.41	14712
850.545	14781
850.68	14781
850.815	14819
850.95	14743
851.085	14990
851.22	14941
851.355	14788
851.49	14716
851.625	14731
851.76	14830
851.895	14857
852.03	14697
852.165	14800
852.299	14819
852.434	14876
852.569	14918
852.703	14811
852.838	14872
852.973	14944
853.107	14952
853.242	14834
853.376	14754
853.511	14568
853.645	14503
853.78	14815
853.914	14712
854.048	14667
854.183	14705
854.317	14731
854.451	14746
854.585	14606
854.72	14644
854.854	14785
854.988	14606
855.122	14701
855.256	14594
855.39	14583
855.524	14743
855.658	14849
855.792	14670
855.926	14739
856.06	14804
856.194	14750
856.327	14621
856.461	14750
856.595	14625
856.729	14682
856.862	14746
856.996	14724
857.13	14807
857.263	14838
857.397	14765
857.53	14663
857.664	14678
857.797	14773
857.931	14720
858.064	14724
858.197	14811
858.331	14655
858.464	14686
858.597	14522
858.731	14594
858.864	14701
858.997	14724
859.13	14651
859.263	14769
859.396	14765
859.529	14610
859.662	14743
859.795	14640
859.928	14758
860.061	14906
860.194	14838
860.327	14769
860.46	14773
860.592	14830
860.725	14815
860.858	14796
860.99	14640
861.123	14568
861.256	14705
861.388	14762
861.521	15351
861.653	14476
861.786	14568
861.918	14629
862.05	14663
862.183	14568
862.315	14590
862.447	14773
862.58	14606
862.712	14408
862.844	14465
862.976	14503
863.108	14469
863.24	14944
863.372	14374
863.504	14454
863.636	14381
863.768	14476
863.9	14552
864.032	14389
864.164	14476
864.296	14503
864.428	14549
864.559	14503
864.691	14503
864.823	14507
864.954	14423
865.086	14522
865.217	14434
865.349	14419
865.48	14434
865.612	14457
865.743	14545
865.875	14465
866.006	14389
866.137	14552
866.269	14336
866.4	14423
866.531	14518
866.662	14332
866.793	14404
866.924	14408
867.055	14495
867.186	14457
867.317	14389
867.448	14309
867.579	14381
867.71	14362
867.841	14317
867.972	14374
868.103	14427
868.233	14343
868.364	14431
868.495	14476
868.625	14674
868.756	14758
868.886	14598
869.017	14682
869.147	14712
869.278	14845
869.408	14800
869.539	14727
869.669	14693
869.799	14712
869.929	14842
870.06	14769
870.19	14941
870.32	14925
870.45	14948
870.58	15108
870.71	15173
870.84	15131
870.97	15195
871.1	14990
871.23	15226
871.36	15180
871.489	15218
871.619	15188
871.749	15291
871.879	15249
872.008	15363
872.138	15275
872.267	15298
872.397	15180
872.526	15116
872.656	15077
872.785	15036
872.915	15306
873.044	15302
873.173	15351
873.303	15382
873.432	15374
873.561	15458
873.69	15291
873.819	15336
873.948	15302
874.077	15367
874.206	15294
874.335	15275
874.464	15408
874.593	15663
874.722	15603
874.851	15637
874.979	15793
875.108	15675
875.237	15587
875.365	15610
875.494	15538
875.623	15622
875.751	15606
875.88	15778
876.008	15880
876.136	15831
876.265	16021
876.393	16097
876.521	16143
876.65	16226
876.778	16067
876.906	16116
877.034	16048
877.162	15949
877.29	15998
877.418	16044
877.546	16021
877.674	16002
877.802	16086
877.93	15964
878.058	16101
878.185	15991
878.313	16036
878.441	16105
878.568	15831
878.696	16059
878.824	16093
878.951	16128
879.079	16310
879.206	16363
879.333	16207
879.461	16204
879.588	16169
879.715	16352
879.842	16382
879.97	16196
880.097	15888
880.224	15835
880.351	15979
880.478	15892
880.605	15793
880.732	15892
880.859	16143
880.986	15846
881.112	15880
881.239	15804
881.366	15724
881.493	15694
881.619	15534
881.746	15553
881.872	15584
881.999	15568
882.125	15553
882.252	15622
882.378	15538
882.505	15736
882.631	15549
882.757	15340
882.883	15458
883.01	15443
883.136	15306
883.262	15241
883.388	15192
883.514	15340
883.64	15374
883.766	15264
883.892	15211
884.018	15169
884.143	15416
884.269	15450
884.395	15074
884.52	15100
884.646	15051
884.772	15017
884.897	15039
885.023	15112
885.148	15169
885.274	15306
885.399	15047
885.524	15138
885.65	15108
885.775	15108
885.9	15036
886.025	15188
886.15	15127
886.275	15047
886.4	14952
886.525	15001
886.65	15020
886.775	15020
886.9	15184
887.025	15325
887.149	15150
887.274	14899
887.399	14800
887.523	14880
887.648	14952
887.773	14834
887.897	14937
888.021	15032
888.146	14864
888.27	15032
888.395	15017
888.519	14967
888.643	15009
888.767	14944
888.891	14853
889.015	14678
889.139	14857
889.263	14708
889.387	14804
889.511	14899
889.635	14800
889.759	14682
889.883	14610
890.006	14823
890.13	14807
890.254	14804
890.377	14655
890.501	14564
890.624	14621
890.748	14610
890.871	14476
890.995	14408
891.118	14351
891.241	14492
891.364	14476
891.488	14571
891.611	14377
891.734	14419
891.857	14602
891.98	14579
892.103	14556
892.226	14526
892.349	14454
892.471	14313
892.594	14419
892.717	14366
892.839	14412
892.962	14507
893.085	14461
893.207	14442
893.33	14313
893.452	14404
893.575	14469
893.697	14454
893.819	14545
893.941	14545
894.064	14503
894.186	14442
894.308	14400
894.43	14450
894.552	14686
894.674	14530
894.796	14332
894.918	14415
895.04	14473
895.161	14632
895.283	14556
895.405	14366
895.526	14484
895.648	14560
895.769	14594
895.891	14629
896.012	14659
896.134	14716
896.255	14659
896.376	14465
896.498	14625
896.619	14610
896.74	14549
896.861	14667
896.982	14925
897.103	15066
897.224	14891
897.345	14944
897.466	14758
897.587	14887
897.708	15089
897.828	14948
897.949	14895
898.07	14701
898.19	14819
898.311	15081
898.431	14861
898.552	14971
898.672	14952
898.792	15077
898.913	14933
899.033	14830
899.153	14708
899.273	14708
899.393	14811
899.513	14895
899.633	14746
899.753	14868
899.873	14682
899.993	14868
900.113	14785
900.232	14792
900.352	14682
900.472	14644
900.591	14636
900.711	14629
900.83	14606
900.95	14743
901.069	14758
901.189	14545
901.308	14336
901.427	14275
901.546	14294
901.665	14290
901.784	14275
901.904	14199
902.023	14020
902.141	13936
902.26	13928
902.379	13875
902.498	13830
902.617	13822
902.735	13974
902.854	13970
902.973	13795
903.091	13624
903.21	13544
903.328	13605
903.446	13460
903.565	13483
903.683	13384
903.801	13362
903.919	13422
904.038	13388
904.156	13266
904.274	13289
904.392	13228
904.51	13304
904.627	13202
904.745	13266
904.863	13282
904.981	13129
905.098	13008
905.216	12996
905.334	12916
905.451	12951
905.569	12859
905.686	12928
905.803	12882
905.921	12760
906.038	12875
906.155	12867
906.272	12623
906.389	12722
906.506	12616
906.623	12555
906.74	12506
906.857	12479
906.974	12441
907.091	12582
907.208	12654
907.324	12544
907.441	12422
907.557	12338
907.674	12380
907.79	12258
907.907	12247
908.023	12194
908.139	12262
908.256	12270
908.372	12323
908.488	12121
908.604	12079
908.72	11973
908.836	12045
908.952	12019
909.068	11958
909.184	12155
909.3	12007
909.415	12076
909.531	12064
909.647	11805
909.762	11779
909.878	11779
909.993	11893
910.108	11794
910.224	11832
910.339	11775
910.454	11703
910.57	11703
910.685	11516
910.8	11817
910.915	11786
911.03	11684
911.145	11474
911.259	11455
911.374	11474
911.489	11425
911.604	11391
911.718	11223
911.833	11254
911.947	11185
912.062	11132
912.176	11227
912.291	11277
912.405	11261
912.519	11391
912.633	11364
912.748	11322
912.862	11239
912.976	11113
913.09	11037
913.204	11086
913.318	11048
913.431	11292
913.545	11223
913.659	11273
913.772	11071
913.886	11010
914	11048
914.113	11105
914.226	11159
914.34	11052
914.453	10904
914.566	11064
914.68	10930
914.793	10816
914.906	10759
915.019	10675
915.132	10675
915.245	10710
915.358	10797
915.47	10725
915.583	10683
915.696	10831
915.809	10904
915.921	10885
916.034	10721
916.146	10653
916.259	10660
916.371	10740
916.483	10752
916.595	10588
916.708	10717
916.82	10725
916.932	10664
917.044	10641
917.156	10558
917.268	10538
917.38	10592
917.491	10512
917.603	10550
917.715	10630
917.826	10626
917.938	10573
918.049	10478
918.161	10516
918.272	10687
918.384	10717
918.495	10542
918.606	10436
918.717	10386
918.828	10462
918.939	10386
919.05	10367
919.161	10379
919.272	10268
919.383	10295
919.494	10398
919.604	10603
919.715	10424
919.826	10310
919.936	10470
920.047	10516
920.157	10443
920.267	10611
920.378	10512
920.488	10440
920.598	10618
920.708	10736
920.818	10664
920.928	10599
921.038	10877
921.148	10755
921.258	10462
921.368	10386
921.477	10299
921.587	10219
921.697	10128
921.806	10268
921.916	10139
922.025	10097
922.134	9991
922.244	9941
922.353	10013
922.462	9854
922.571	9835
922.68	9614
922.789	9728
922.898	9629
923.007	9633
923.116	9720
923.224	9656
923.333	9599
923.442	9530
923.55	9526
923.659	9576
923.767	9671
923.876	9496
923.984	9633
924.092	9515
924.201	9542
924.309	9545
924.417	9496
924.525	9488
924.633	9481
924.741	10230
924.849	9329
924.956	9507
925.064	9287
925.172	9291
925.279	9275
925.387	9412
925.494	9298
925.602	9454
925.709	9389
925.816	9226
925.924	9256
926.031	9405
926.138	9355
926.245	9359
926.352	9199
926.459	9298
926.566	9348
926.673	9268
926.779	9180
926.886	9188
926.993	9062
927.099	8990
927.206	8963
927.312	8937
927.419	9066
927.525	8971
927.631	9074
927.737	8941
927.843	8963
927.95	8849
928.056	8868
928.162	8906
928.267	8967
928.373	9515
928.479	9005
928.585	8857
928.69	8868
928.796	8975
928.901	8861
929.007	8613
929.112	8773
929.218	8781
929.323	8731
929.428	8708
929.533	8887
929.638	8674
929.743	8651
929.848	8781
929.953	8746
930.058	8583
930.163	8507
930.267	8541
930.372	8667
930.477	8480
930.581	8682
930.685	8568
930.79	8408
930.894	8503
930.998	8400
931.103	8556
931.207	8199
931.311	8206
931.415	8161
931.519	7913
931.623	8020
