Data from test_V78500241_2613.txt Node
Date: Fri Mar 25 14:51:54 CST 2022
User: usil
Spectrometer: V785-0024
Trigger mode: 0
Integration Time (sec): 4.000000E-1
Scans to average: 1
Nonlinearity correction enabled: false
Boxcar width: 0
Storing dark spectrum: false
XAxis mode: Wavelengths
Number of Pixels in Spectrum: 1024
>>>>>Begin Spectral Data<<<<<
801.071	21953
801.214	21945
801.356	21705
801.499	21564
801.641	21359
801.783	21485
801.926	21485
802.068	21279
802.211	21363
802.353	21127
802.496	20929
802.638	20891
802.78	20838
802.923	20849
803.065	20632
803.208	20705
803.35	20701
803.492	20902
803.635	20823
803.777	20720
803.919	20785
804.061	21039
804.204	20845
804.346	20590
804.488	20590
804.63	20568
804.773	20609
804.915	20644
805.057	20746
805.199	20636
805.341	20739
805.483	20864
805.626	20708
805.768	20564
805.91	20568
806.052	20590
806.194	20571
806.336	20788
806.478	20473
806.62	20587
806.762	20674
806.904	20849
807.046	20998
807.188	20960
807.33	21013
807.472	20986
807.614	20769
807.756	20971
807.898	20750
808.04	20492
808.182	20579
808.324	20640
808.465	20781
808.607	20929
808.749	20914
808.891	21100
809.033	21268
809.174	21058
809.316	20929
809.458	20975
809.6	20876
809.741	21138
809.883	21020
810.025	21222
810.166	21123
810.308	21089
810.45	21123
810.591	21001
810.733	20895
810.875	20819
811.016	20678
811.158	20609
811.299	20804
811.441	20918
811.582	20819
811.724	20788
811.865	20663
812.007	20727
812.148	20689
812.29	20800
812.431	21013
812.573	21119
812.714	21123
812.855	21294
812.997	21317
813.138	21443
813.279	21252
813.421	21150
813.562	21222
813.703	21070
813.845	20925
813.986	20552
814.127	20438
814.268	20347
814.41	20309
814.551	20221
814.692	20400
814.833	20267
814.974	20202
815.115	20343
815.256	20088
815.397	20115
815.539	20062
815.68	20050
815.821	19989
815.962	20016
816.103	19959
816.244	19849
816.385	19788
816.526	19731
816.666	19495
816.807	19438
816.948	19559
817.089	19540
817.23	19518
817.371	19369
817.512	19563
817.653	19365
817.793	19350
817.934	19388
818.075	19495
818.216	19502
818.356	19396
818.497	19251
818.638	19099
818.778	19187
818.919	19084
819.06	19099
819.2	19293
819.341	19350
819.481	19225
819.622	19415
819.762	19635
819.903	19563
820.043	19426
820.184	19403
820.324	19445
820.465	19460
820.605	19445
820.746	19388
820.886	19320
821.026	19381
821.167	19339
821.307	19464
821.447	19430
821.588	19251
821.728	19095
821.868	19000
822.008	18844
822.149	18848
822.289	18779
822.429	18521
822.569	18456
822.709	18597
822.849	18296
822.99	18281
823.13	18311
823.27	18243
823.41	18110
823.55	18083
823.69	18125
823.83	18144
823.97	18007
824.11	17920
824.25	17832
824.389	17813
824.529	18003
824.669	17984
824.809	17977
824.949	18019
825.089	17882
825.228	17912
825.368	17794
825.508	17684
825.648	17775
825.787	17714
825.927	17840
826.067	17695
826.206	17543
826.346	17710
826.485	17710
826.625	17619
826.765	17737
826.904	17687
827.044	17486
827.183	17372
827.323	17368
827.462	17429
827.601	17364
827.741	17288
827.88	17349
828.02	17220
828.159	17292
828.298	17395
828.437	17402
828.577	17360
828.716	17463
828.855	17212
828.994	17105
829.134	17048
829.273	17029
829.412	17140
829.551	17048
829.69	17105
829.829	17045
829.968	17121
830.107	17174
830.246	17155
830.385	17048
830.524	17010
830.663	16980
830.802	16858
830.941	16759
831.08	16778
831.219	16831
831.357	16721
831.496	16965
831.635	16786
831.774	16611
831.913	16577
832.051	16428
832.19	16489
832.329	16546
832.467	16489
832.606	16451
832.744	16379
832.883	16493
833.022	16394
833.16	16375
833.299	16527
833.437	16466
833.576	16535
833.714	16538
833.852	16546
833.991	16561
834.129	16523
834.267	16550
834.406	16470
834.544	16573
834.682	16596
834.821	16527
834.959	16713
835.097	16474
835.235	16470
835.373	16451
835.511	16470
835.65	16455
835.788	16436
835.926	16303
836.064	16318
836.202	16249
836.34	16508
836.478	16447
836.615	16398
836.753	16447
836.891	16478
837.029	16394
837.167	16322
837.305	16322
837.443	16333
837.58	16265
837.718	16417
837.856	16287
837.993	16238
838.131	16310
838.269	16268
838.406	16238
838.544	16166
838.681	16036
838.819	15884
838.956	15781
839.094	15873
839.231	15899
839.369	16029
839.506	16158
839.643	15994
839.781	15842
839.918	15770
840.055	15888
840.193	15736
840.33	15869
840.467	15854
840.604	15854
840.742	16120
840.879	15698
841.016	15739
841.153	15747
841.29	15998
841.427	15876
841.564	15838
841.701	15899
841.838	15842
841.975	15679
842.112	15694
842.249	15667
842.385	15572
842.522	15785
842.659	15618
842.796	15625
842.933	15698
843.069	15545
843.206	15587
843.343	15694
843.479	15595
843.616	15606
843.752	15435
843.889	15401
844.025	15507
844.162	15401
844.298	15530
844.435	15397
844.571	15389
844.708	15500
844.844	15561
844.98	15534
845.117	15481
845.253	15310
845.389	15325
845.525	15447
845.661	15340
845.798	15233
845.934	15283
846.07	15169
846.206	15275
846.342	15287
846.478	15268
846.614	15112
846.75	14857
846.886	14872
847.022	15097
847.158	15093
847.294	14921
847.429	15020
847.565	14918
847.701	15169
847.837	14739
847.972	14655
848.108	14800
848.244	14811
848.379	14571
848.515	14568
848.65	14530
848.786	14518
848.921	14598
849.057	14613
849.192	14644
849.328	14560
849.463	14636
849.598	14560
849.734	14503
849.869	14450
850.004	14324
850.14	14374
850.275	14320
850.41	14248
850.545	14351
850.68	14252
850.815	14412
850.95	14347
851.085	14537
851.22	14374
851.355	14336
851.49	14336
851.625	14218
851.76	14355
851.895	14263
852.03	14221
852.165	14252
852.299	14374
852.434	14564
852.569	14355
852.703	14328
852.838	14389
852.973	14533
853.107	14446
853.242	14294
853.376	14267
853.511	14126
853.645	14153
853.78	14313
853.914	14244
854.048	14168
854.183	14142
854.317	14210
854.451	14404
854.585	14187
854.72	14183
854.854	14313
854.988	14065
855.122	14263
855.256	14012
855.39	14134
855.524	14252
855.658	14294
855.792	14294
855.926	14225
856.06	14256
856.194	14324
856.327	14180
856.461	14214
856.595	14115
856.729	14164
856.862	14423
856.996	14229
857.13	14282
857.263	14267
857.397	14301
857.53	14145
857.664	14229
857.797	14351
857.931	14370
858.064	14218
858.197	14271
858.331	14202
858.464	14214
858.597	14058
858.731	14149
858.864	14240
858.997	14115
859.13	14142
859.263	14252
859.396	14298
859.529	14225
859.662	14164
859.795	14100
859.928	14233
860.061	14332
860.194	14351
860.327	14248
860.46	14210
860.592	14271
860.725	14328
860.858	14332
860.99	14142
861.123	14206
861.256	14126
861.388	14221
861.521	14708
861.653	14081
861.786	14115
861.918	13967
862.05	14199
862.183	14153
862.315	14130
862.447	14202
862.58	14164
862.712	14050
862.844	13974
862.976	13959
863.108	14065
863.24	14446
863.372	13932
863.504	14016
863.636	14005
863.768	14020
863.9	14001
864.032	13928
864.164	13947
864.296	14005
864.428	14084
864.559	14164
864.691	14043
864.823	14134
864.954	14001
865.086	13993
865.217	13982
865.349	13898
865.48	13894
865.612	13898
865.743	14084
865.875	13940
866.006	13909
866.137	13963
866.269	14012
866.4	13978
866.531	13940
866.662	13993
866.793	13940
866.924	14008
867.055	14050
867.186	14046
867.317	13883
867.448	13826
867.579	13989
867.71	13963
867.841	13970
867.972	13993
868.103	14016
868.233	14020
868.364	13986
868.495	14043
868.625	14218
868.756	14309
868.886	14069
869.017	14206
869.147	14199
869.278	14427
869.408	14301
869.539	14229
869.669	14320
869.799	14271
869.929	14362
870.06	14427
870.19	14598
870.32	14465
870.45	14526
870.58	14716
870.71	14754
870.84	14724
870.97	14549
871.1	14598
871.23	14792
871.36	14716
871.489	14750
871.619	14902
871.749	14811
871.879	14864
872.008	14842
872.138	14842
872.267	14819
872.397	14678
872.526	14640
872.656	14552
872.785	14678
872.915	14872
873.044	14925
873.173	14960
873.303	14853
873.432	14929
873.561	14971
873.69	14891
873.819	14895
873.948	14941
874.077	14982
874.206	14918
874.335	14891
874.464	15093
874.593	15226
874.722	15074
874.851	15154
874.979	15108
875.108	15222
875.237	15131
875.365	15112
875.494	15135
875.623	15241
875.751	15150
875.88	15340
876.008	15389
876.136	15351
876.265	15641
876.393	15774
876.521	15660
876.65	15618
876.778	15637
876.906	15549
877.034	15572
877.162	15561
877.29	15610
877.418	15519
877.546	15671
877.674	15610
877.802	15686
877.93	15633
878.058	15481
878.185	15412
878.313	15595
878.441	15679
878.568	15443
878.696	15549
878.824	15675
878.951	15618
879.079	15663
879.206	15987
879.333	15869
879.461	15679
879.588	15644
879.715	15789
879.842	15835
879.97	15671
880.097	15504
880.224	15428
880.351	15473
880.478	15580
880.605	15507
880.732	15500
880.859	15641
880.986	15435
881.112	15447
881.239	15332
881.366	15294
881.493	15279
881.619	15104
881.746	15161
881.872	15112
881.999	15062
882.125	15024
882.252	15230
882.378	15142
882.505	15294
882.631	15077
882.757	14834
882.883	15051
883.01	15009
883.136	14883
883.262	14705
883.388	14705
883.514	14979
883.64	15085
883.766	14887
883.892	14727
884.018	14834
884.143	14902
884.269	14975
884.395	14716
884.52	14613
884.646	14640
884.772	14571
884.897	14651
885.023	14651
885.148	14724
885.274	14765
885.399	14693
885.524	14693
885.65	14629
885.775	14590
885.9	14632
886.025	14765
886.15	14727
886.275	14640
886.4	14594
886.525	14743
886.65	14674
886.775	14606
886.9	14815
887.025	14864
887.149	14644
887.274	14507
887.399	14442
887.523	14374
887.648	14427
887.773	14457
887.897	14549
888.021	14556
888.146	14442
888.27	14583
888.395	14583
888.519	14579
888.643	14457
888.767	14503
888.891	14415
889.015	14374
889.139	14393
889.263	14301
889.387	14446
889.511	14514
889.635	14427
889.759	14336
889.883	14320
890.006	14362
890.13	14408
890.254	14290
890.377	14263
890.501	14210
890.624	14111
890.748	14256
890.871	14157
890.995	13947
891.118	14031
891.241	14027
891.364	14008
891.488	14157
891.611	14111
891.734	14039
891.857	14062
891.98	14134
892.103	14142
892.226	14134
892.349	13967
892.471	13894
892.594	14050
892.717	14073
892.839	14096
892.962	14077
893.085	14073
893.207	14062
893.33	13951
893.452	14020
893.575	14077
893.697	13974
893.819	14248
893.941	14191
894.064	14294
894.186	14016
894.308	13967
894.43	14237
894.552	14358
894.674	14343
894.796	13967
894.918	14107
895.04	14123
895.161	14221
895.283	14202
895.405	14100
895.526	14225
895.648	14077
895.769	14252
895.891	14168
896.012	14202
896.134	14275
896.255	14157
896.376	14107
896.498	14214
896.619	14286
896.74	14244
896.861	14210
896.982	14587
897.103	14804
897.224	14495
897.345	14423
897.466	14381
897.587	14507
897.708	14644
897.828	14499
897.949	14484
898.07	14351
898.19	14473
898.311	14629
898.431	14461
898.552	14648
898.672	14735
898.792	14735
898.913	14587
899.033	14568
899.153	14377
899.273	14366
899.393	14423
899.513	14438
899.633	14381
899.753	14476
899.873	14377
899.993	14454
900.113	14389
900.232	14389
900.352	14415
900.472	14320
900.591	14206
900.711	14305
900.83	14240
900.95	14385
901.069	14385
901.189	14195
901.308	14073
901.427	13868
901.546	13852
901.665	14001
901.784	13887
901.904	13864
902.023	13826
902.141	13559
902.26	13529
902.379	13563
902.498	13510
902.617	13552
902.735	13537
902.854	13582
902.973	13438
903.091	13263
903.21	13240
903.328	13236
903.446	13137
903.565	13149
903.683	13152
903.801	12981
903.919	13149
904.038	13072
904.156	12962
904.274	13091
904.392	12943
904.51	12966
904.627	12916
904.745	12958
904.863	13008
904.981	12764
905.098	12646
905.216	12544
905.334	12677
905.451	12692
905.569	12578
905.686	12597
905.803	12673
905.921	12445
906.038	12589
906.155	12471
906.272	12342
906.389	12342
906.506	12155
906.623	12243
906.74	12304
906.857	12129
906.974	12239
907.091	12285
907.208	12330
907.324	12243
907.441	12205
907.557	12003
907.674	11977
907.79	11889
907.907	11912
908.023	12076
908.139	12007
908.256	11889
908.372	11984
908.488	11931
908.604	11798
908.72	11695
908.836	11745
908.952	11707
909.068	11771
909.184	11855
909.3	11760
909.415	11798
909.531	11718
909.647	11486
909.762	11611
909.878	11528
909.993	11478
910.108	11520
910.224	11471
910.339	11577
910.454	11459
910.57	11364
910.685	11277
910.8	11539
910.915	11543
911.03	11398
911.145	11204
911.259	11189
911.374	11189
911.489	11170
911.604	11075
911.718	10965
911.833	10976
911.947	10904
912.062	10805
912.176	11010
912.291	10991
912.405	10957
912.519	11128
912.633	11269
912.748	11067
912.862	10908
912.976	10828
913.09	10767
913.204	10828
913.318	10793
913.431	10968
913.545	10938
913.659	11029
913.772	10968
913.886	10725
914	10790
914.113	10816
914.226	10828
914.34	10805
914.453	10664
914.566	10816
914.68	10645
914.793	10679
914.906	10569
915.019	10379
915.132	10413
915.245	10436
915.358	10466
915.47	10561
915.583	10516
915.696	10558
915.809	10607
915.921	10523
916.034	10436
916.146	10421
916.259	10375
916.371	10493
916.483	10508
916.595	10386
916.708	10459
916.82	10470
916.932	10451
917.044	10424
917.156	10428
917.268	10211
917.38	10284
917.491	10318
917.603	10379
917.715	10405
917.826	10402
917.938	10310
918.049	10185
918.161	10344
918.272	10504
918.384	10424
918.495	10306
918.606	10207
918.717	10185
918.828	10227
918.939	10306
919.05	10063
919.161	10139
919.272	9972
919.383	10051
919.494	10204
919.604	10398
919.715	10185
919.826	10196
919.936	10185
920.047	10261
920.157	10238
920.267	10337
920.378	10227
920.488	10162
920.598	10398
920.708	10599
920.818	10382
920.928	10348
921.038	10622
921.148	10554
921.258	10246
921.368	10116
921.477	10067
921.587	9994
921.697	10017
921.806	10013
921.916	9941
922.025	9770
922.134	9785
922.244	9667
922.353	9793
922.462	9686
922.571	9568
922.68	9485
922.789	9507
922.898	9477
923.007	9397
923.116	9511
923.224	9496
923.333	9401
923.442	9367
923.55	9313
923.659	9298
923.767	9435
923.876	9302
923.984	9401
924.092	9298
924.201	9332
924.309	9329
924.417	9355
924.525	9241
924.633	9302
924.741	10074
924.849	9154
924.956	9279
925.064	9123
925.172	8960
925.279	9093
925.387	9127
925.494	9192
925.602	9237
925.709	9173
925.816	9108
925.924	9165
926.031	9207
926.138	9192
926.245	9207
926.352	9070
926.459	9237
926.566	9165
926.673	9058
926.779	8952
926.886	9024
926.993	8918
927.099	8815
927.206	8819
927.312	8777
927.419	8994
927.525	8830
927.631	8868
927.737	8815
927.843	8708
927.95	8579
928.056	8743
928.162	8773
928.267	8842
928.373	9424
928.479	8804
928.585	8568
928.69	8731
928.796	8750
928.901	8648
929.007	8503
929.112	8629
929.218	8617
929.323	8545
929.428	8499
929.533	8697
929.638	8541
929.743	8583
929.848	8594
929.953	8598
930.058	8427
930.163	8317
930.267	8358
930.372	8461
930.477	8347
930.581	8568
930.685	8415
930.79	8168
930.894	8324
930.998	8191
931.103	8427
931.207	7997
931.311	7993
931.415	8001
931.519	7784
931.623	7757
