Data from test_V78500241_1173.txt Node
Date: Fri Mar 25 14:41:53 CST 2022
User: usil
Spectrometer: V785-0024
Trigger mode: 0
Integration Time (sec): 4.000000E-1
Scans to average: 1
Nonlinearity correction enabled: false
Boxcar width: 0
Storing dark spectrum: false
XAxis mode: Wavelengths
Number of Pixels in Spectrum: 1024
>>>>>Begin Spectral Data<<<<<
801.071	22470
801.214	22405
801.356	22105
801.499	22002
801.641	21823
801.783	21823
801.926	21892
802.068	21701
802.211	21679
802.353	21667
802.496	21378
802.638	21382
802.78	21294
802.923	21249
803.065	21294
803.208	21241
803.35	21203
803.492	21192
803.635	21401
803.777	21142
803.919	21256
804.061	21557
804.204	21313
804.346	21169
804.488	20986
804.63	21173
804.773	21131
804.915	21074
805.057	21249
805.199	21005
805.341	21184
805.483	21272
805.626	21085
805.768	21039
805.91	21123
806.052	21093
806.194	21077
806.336	21195
806.478	21100
806.62	21237
806.762	21146
806.904	21237
807.046	21477
807.188	21485
807.33	21447
807.472	21625
807.614	21462
807.756	21492
807.898	21283
808.04	21211
808.182	21302
808.324	21302
808.465	21420
808.607	21443
808.749	21523
808.891	21724
809.033	21766
809.174	21648
809.316	21736
809.458	21561
809.6	21504
809.741	21534
809.883	21679
810.025	21739
810.166	21648
810.308	21644
810.45	21606
810.591	21511
810.733	21454
810.875	21462
811.016	21237
811.158	21207
811.299	21363
811.441	21519
811.582	21488
811.724	21317
811.865	21252
812.007	21317
812.148	21287
812.29	21260
812.431	21500
812.573	21667
812.714	21675
812.855	21709
812.997	21869
813.138	22078
813.279	21960
813.421	21739
813.562	21838
813.703	21523
813.845	21534
813.986	21138
814.127	21066
814.268	21032
814.41	20849
814.551	20857
814.692	20887
814.833	20712
814.974	20724
815.115	20883
815.256	20651
815.397	20632
815.539	20632
815.68	20731
815.821	20514
815.962	20583
816.103	20552
816.244	20408
816.385	20400
816.526	20339
816.666	20164
816.807	20065
816.948	20157
817.089	20244
817.23	20115
817.371	20130
817.512	19963
817.653	20001
817.793	19940
817.934	20031
818.075	19989
818.216	20081
818.356	19894
818.497	19746
818.638	19704
818.778	19715
818.919	19700
819.06	19731
819.2	19795
819.341	19868
819.481	19879
819.622	20153
819.762	20313
819.903	20172
820.043	19978
820.184	20134
820.324	20046
820.465	20180
820.605	20096
820.746	19890
820.886	19879
821.026	20039
821.167	19845
821.307	20062
821.447	19909
821.588	19856
821.728	19548
821.868	19537
822.008	19403
822.149	19358
822.289	19282
822.429	19171
822.569	19057
822.709	19053
822.849	18928
822.99	18905
823.13	18852
823.27	18829
823.41	18878
823.55	18608
823.69	18711
823.83	18772
823.97	18661
824.11	18483
824.25	18494
824.389	18502
824.529	18452
824.669	18490
824.809	18452
824.949	18593
825.089	18479
825.228	18410
825.368	18273
825.508	18239
825.648	18270
825.787	18285
825.927	18369
826.067	18353
826.206	18209
826.346	18216
826.485	18239
826.625	18254
826.765	18270
826.904	18182
827.044	18060
827.183	17973
827.323	17912
827.462	18022
827.601	17977
827.741	17851
827.88	17980
828.02	17786
828.159	17897
828.298	17973
828.437	17931
828.577	17980
828.716	18129
828.855	17885
828.994	17748
829.134	17764
829.273	17615
829.412	17729
829.551	17668
829.69	17733
829.829	17668
829.968	17794
830.107	17748
830.246	17729
830.385	17646
830.524	17551
830.663	17509
830.802	17417
830.941	17330
831.08	17395
831.219	17414
831.357	17356
831.496	17532
831.635	17383
831.774	17239
831.913	17250
832.051	17147
832.19	17105
832.329	17159
832.467	17018
832.606	16999
832.744	16991
832.883	16923
833.022	16892
833.16	16995
833.299	17067
833.437	17105
833.576	17048
833.714	16987
833.852	17109
833.991	17124
834.129	17227
834.267	17174
834.406	17143
834.544	17155
834.682	17128
834.821	17067
834.959	17208
835.097	17045
835.235	17147
835.373	17109
835.511	17083
835.65	17025
835.788	17056
835.926	16847
836.064	16801
836.202	16927
836.34	17014
836.478	17018
836.615	16961
836.753	17048
836.891	17086
837.029	17170
837.167	16949
837.305	16900
837.443	16968
837.58	16873
837.718	16946
837.856	16839
837.993	16790
838.131	16873
838.269	16653
838.406	16824
838.544	16778
838.681	16550
838.819	16653
838.956	16455
839.094	16329
839.231	16329
839.369	16573
839.506	16828
839.643	16561
839.781	16470
839.918	16322
840.055	16333
840.193	16470
840.33	16348
840.467	16402
840.604	16402
840.742	16736
840.879	16276
841.016	16276
841.153	16348
841.29	16523
841.427	16409
841.564	16481
841.701	16356
841.838	16459
841.975	16272
842.112	16272
842.249	16226
842.385	16112
842.522	16337
842.659	16265
842.796	16219
842.933	16204
843.069	16135
843.206	16082
843.343	16276
843.479	16177
843.616	16173
843.752	15956
843.889	15956
844.025	16143
844.162	15854
844.298	15991
844.435	15972
844.571	15994
844.708	16105
844.844	16242
844.98	16169
845.117	16135
845.253	15892
845.389	15850
845.525	15972
845.661	15941
845.798	15964
845.934	16074
846.07	15903
846.206	15953
846.342	16048
846.478	15949
846.614	15717
846.75	15526
846.886	15485
847.022	15614
847.158	15538
847.294	15500
847.429	15488
847.565	15477
847.701	15766
847.837	15302
847.972	15180
848.108	15325
848.244	15252
848.379	15165
848.515	15173
848.65	15127
848.786	15119
848.921	15154
849.057	15199
849.192	15146
849.328	15180
849.463	15222
849.598	15112
849.734	15146
849.869	15005
850.004	14921
850.14	14914
850.275	15024
850.41	14807
850.545	14933
850.68	14944
850.815	14941
850.95	14842
851.085	15020
851.22	14921
851.355	14952
851.49	14910
851.625	14925
851.76	14914
851.895	14868
852.03	14785
852.165	14872
852.299	15024
852.434	15047
852.569	14918
852.703	14842
852.838	15047
852.973	15017
853.107	14918
853.242	14811
853.376	14758
853.511	14663
853.645	14758
853.78	14895
853.914	14872
854.048	14777
854.183	14697
854.317	14815
854.451	14956
854.585	14735
854.72	14735
854.854	14800
854.988	14644
855.122	14682
855.256	14659
855.39	14667
855.524	14807
855.658	14857
855.792	14731
855.926	14800
856.06	14811
856.194	14849
856.327	14735
856.461	14773
856.595	14689
856.729	14720
856.862	14758
856.996	14811
857.13	14804
857.263	14895
857.397	14864
857.53	14750
857.664	14788
857.797	14815
857.931	14857
858.064	14811
858.197	14956
858.331	14705
858.464	14667
858.597	14606
858.731	14724
858.864	14743
858.997	14796
859.13	14754
859.263	14762
859.396	14883
859.529	14838
859.662	14754
859.795	14731
859.928	14750
860.061	14948
860.194	14910
860.327	14777
860.46	14796
860.592	14864
860.725	14906
860.858	14838
860.99	14743
861.123	14613
861.256	14625
861.388	14804
861.521	15519
861.653	14621
861.786	14689
861.918	14571
862.05	14655
862.183	14663
862.315	14724
862.447	14724
862.58	14655
862.712	14590
862.844	14446
862.976	14583
863.108	14552
863.24	15062
863.372	14495
863.504	14549
863.636	14541
863.768	14552
863.9	14564
864.032	14518
864.164	14427
864.296	14507
864.428	14651
864.559	14708
864.691	14636
864.823	14556
864.954	14640
865.086	14575
865.217	14545
865.349	14476
865.48	14473
865.612	14507
865.743	14610
865.875	14526
866.006	14602
866.137	14522
866.269	14495
866.4	14511
866.531	14499
866.662	14427
866.793	14408
866.924	14450
867.055	14503
867.186	14533
867.317	14518
867.448	14362
867.579	14465
867.71	14427
867.841	14457
867.972	14537
868.103	14503
868.233	14499
868.364	14587
868.495	14522
868.625	14655
868.756	14838
868.886	14606
869.017	14743
869.147	14883
869.278	14902
869.408	14777
869.539	14800
869.669	14758
869.799	14731
869.929	14842
870.06	14941
870.19	15020
870.32	15039
870.45	15074
870.58	15112
870.71	15150
870.84	15249
870.97	15131
871.1	15180
871.23	15291
871.36	15298
871.489	15291
871.619	15245
871.749	15397
871.879	15370
872.008	15473
872.138	15283
872.267	15310
872.397	15138
872.526	15230
872.656	15070
872.785	15131
872.915	15382
873.044	15492
873.173	15302
873.303	15382
873.432	15382
873.561	15408
873.69	15397
873.819	15321
873.948	15511
874.077	15435
874.206	15344
874.335	15458
874.464	15564
874.593	15739
874.722	15553
874.851	15690
874.979	15854
875.108	15705
875.237	15637
875.365	15595
875.494	15660
875.623	15838
875.751	15774
875.88	15709
876.008	15876
876.136	15884
876.265	16207
876.393	16265
876.521	16135
876.65	16207
876.778	16200
876.906	16109
877.034	16090
877.162	16044
877.29	16036
877.418	16192
877.546	16166
877.674	16162
877.802	16188
877.93	16082
878.058	16143
878.185	16074
878.313	16147
878.441	16147
878.568	16013
878.696	16109
878.824	16109
878.951	16207
879.079	16329
879.206	16478
879.333	16421
879.461	16219
879.588	16379
879.715	16390
879.842	16516
879.97	16185
880.097	15945
880.224	15998
880.351	16002
880.478	16063
880.605	15922
880.732	15884
880.859	16192
880.986	15949
881.112	16048
881.239	15880
881.366	15739
881.493	15701
881.619	15557
881.746	15682
881.872	15610
881.999	15694
882.125	15637
882.252	15660
882.378	15732
882.505	15667
882.631	15599
882.757	15435
882.883	15447
883.01	15488
883.136	15405
883.262	15287
883.388	15291
883.514	15458
883.64	15431
883.766	15348
883.892	15207
884.018	15336
884.143	15458
884.269	15580
884.395	15203
884.52	15112
884.646	15169
884.772	15131
884.897	15081
885.023	15230
885.148	15268
885.274	15321
885.399	15294
885.524	15230
885.65	15097
885.775	15142
885.9	15173
886.025	15287
886.15	15097
886.275	15024
886.4	15058
886.525	15020
886.65	15005
886.775	15188
886.9	15230
887.025	15370
887.149	15157
887.274	15051
887.399	14948
887.523	14956
887.648	14925
887.773	14929
887.897	15043
888.021	15005
888.146	15020
888.27	15100
888.395	15070
888.519	15127
888.643	15070
888.767	15116
888.891	14925
889.015	14788
889.139	14834
889.263	14921
889.387	14937
889.511	15036
889.635	14990
889.759	14861
889.883	14807
890.006	14887
890.13	14982
890.254	14758
890.377	14891
890.501	14682
890.624	14712
890.748	14705
890.871	14530
890.995	14560
891.118	14503
891.241	14689
891.364	14530
891.488	14571
891.611	14514
891.734	14476
891.857	14651
891.98	14636
892.103	14625
892.226	14598
892.349	14568
892.471	14434
892.594	14400
892.717	14507
892.839	14495
892.962	14606
893.085	14621
893.207	14514
893.33	14457
893.452	14526
893.575	14594
893.697	14507
893.819	14750
893.941	14823
894.064	14663
894.186	14530
894.308	14549
894.43	14640
894.552	14773
894.674	14663
894.796	14454
894.918	14602
895.04	14522
895.161	14750
895.283	14689
895.405	14556
895.526	14560
895.648	14590
895.769	14701
895.891	14674
896.012	14868
896.134	14762
896.255	14727
896.376	14708
896.498	14731
896.619	14788
896.74	14663
896.861	14762
896.982	15089
897.103	15222
897.224	15043
897.345	14925
897.466	14815
897.587	15001
897.708	15081
897.828	14963
897.949	14880
898.07	14880
898.19	14975
898.311	15013
898.431	14986
898.552	14960
898.672	15165
898.792	15150
898.913	15100
899.033	14982
899.153	14830
899.273	14830
899.393	14731
899.513	14960
899.633	14941
899.753	14963
899.873	14826
899.993	14921
900.113	14807
900.232	14941
900.352	14921
900.472	14689
900.591	14697
900.711	14785
900.83	14644
900.95	14777
901.069	14811
901.189	14667
901.308	14473
901.427	14396
901.546	14442
901.665	14442
901.784	14438
901.904	14358
902.023	14221
902.141	14050
902.26	14016
902.379	14084
902.498	13970
902.617	13898
902.735	14020
902.854	13947
902.973	13894
903.091	13727
903.21	13636
903.328	13670
903.446	13529
903.565	13460
903.683	13487
903.801	13419
903.919	13506
904.038	13453
904.156	13373
904.274	13343
904.392	13289
904.51	13411
904.627	13411
904.745	13392
904.863	13320
904.981	13190
905.098	13008
905.216	13103
905.334	12954
905.451	13137
905.569	12993
905.686	13027
905.803	13012
905.921	12814
906.038	12939
906.155	12886
906.272	12791
906.389	12753
906.506	12589
906.623	12665
906.74	12730
906.857	12513
906.974	12486
907.091	12639
907.208	12817
907.324	12700
907.441	12502
907.557	12429
907.674	12376
907.79	12323
907.907	12346
908.023	12422
908.139	12304
908.256	12334
908.372	12380
908.488	12281
908.604	12239
908.72	12136
908.836	12133
908.952	12095
909.068	12102
909.184	12243
909.3	12098
909.415	12190
909.531	12087
909.647	11901
909.762	11863
909.878	11840
909.993	11882
910.108	11885
910.224	11851
910.339	11908
910.454	11821
910.57	11783
910.685	11710
910.8	12003
910.915	11939
911.03	11767
911.145	11630
911.259	11570
911.374	11619
911.489	11551
911.604	11490
911.718	11341
911.833	11376
911.947	11299
912.062	11162
912.176	11326
912.291	11349
912.405	11364
912.519	11490
912.633	11486
912.748	11414
912.862	11383
912.976	11193
913.09	11128
913.204	11162
913.318	11235
913.431	11280
913.545	11307
913.659	11356
913.772	11124
913.886	11170
914	11094
914.113	11174
914.226	11174
914.34	11136
914.453	10946
914.566	11102
914.68	10995
914.793	11014
914.906	10820
915.019	10843
915.132	10801
915.245	10866
915.358	10835
915.47	10889
915.583	10854
915.696	10889
915.809	11014
915.921	10930
916.034	10790
916.146	10763
916.259	10721
916.371	10831
916.483	10873
916.595	10714
916.708	10729
916.82	10740
916.932	10744
917.044	10733
917.156	10668
917.268	10569
917.38	10618
917.491	10698
917.603	10599
917.715	10717
917.826	10698
917.938	10596
918.049	10428
918.161	10626
918.272	10740
918.384	10706
918.495	10660
918.606	10538
918.717	10394
918.828	10569
918.939	10538
919.05	10531
919.161	10451
919.272	10242
919.383	10504
919.494	10592
919.604	10702
919.715	10577
919.826	10466
919.936	10531
920.047	10588
920.157	10485
920.267	10801
920.378	10649
920.488	10474
920.598	10694
920.708	10831
920.818	10717
920.928	10710
921.038	10953
921.148	10873
921.258	10531
921.368	10504
921.477	10379
921.587	10253
921.697	10242
921.806	10344
921.916	10337
922.025	10082
922.134	10032
922.244	9987
922.353	10169
922.462	9983
922.571	9819
922.68	9793
922.789	9751
922.898	9732
923.007	9705
923.116	9808
923.224	9762
923.333	9766
923.442	9572
923.55	9641
923.659	9633
923.767	9679
923.876	9587
923.984	9698
924.092	9545
924.201	9629
924.309	9610
924.417	9671
924.525	9519
924.633	9504
924.741	10348
924.849	9329
924.956	9599
925.064	9435
925.172	9291
925.279	9397
925.387	9389
925.494	9355
925.602	9568
925.709	9477
925.816	9291
925.924	9389
926.031	9382
926.138	9386
926.245	9412
926.352	9405
926.459	9481
926.566	9526
926.673	9351
926.779	9211
926.886	9226
926.993	9207
927.099	9097
927.206	9039
927.312	9081
927.419	9093
927.525	9154
927.631	9112
927.737	9104
927.843	8990
927.95	8941
928.056	8895
928.162	9001
928.267	9013
928.373	9690
928.479	9104
928.585	8796
928.69	8982
928.796	8998
928.901	8887
929.007	8769
929.112	8937
929.218	8834
929.323	8899
929.428	8811
929.533	8941
929.638	8815
929.743	8853
929.848	8807
929.953	8811
930.058	8663
930.163	8568
930.267	8533
930.372	8720
930.477	8530
930.581	8804
930.685	8571
930.79	8465
930.894	8575
930.998	8484
931.103	8670
931.207	8294
931.311	8225
931.415	8107
931.519	7993
931.623	7955
