Data from test_V78500241_3480.txt Node
Date: Fri Mar 25 14:57:56 CST 2022
User: usil
Spectrometer: V785-0024
Trigger mode: 0
Integration Time (sec): 4.000000E-1
Scans to average: 1
Nonlinearity correction enabled: false
Boxcar width: 0
Storing dark spectrum: false
XAxis mode: Wavelengths
Number of Pixels in Spectrum: 1024
>>>>>Begin Spectral Data<<<<<
801.071	21964
801.214	21823
801.356	21454
801.499	21519
801.641	21332
801.783	21332
801.926	21370
802.068	21214
802.211	21184
802.353	21028
802.496	20804
802.638	20785
802.78	20796
802.923	20701
803.065	20621
803.208	20651
803.35	20537
803.492	20636
803.635	20746
803.777	20674
803.919	20731
804.061	20933
804.204	20739
804.346	20495
804.488	20541
804.63	20689
804.773	20545
804.915	20678
805.057	20499
805.199	20480
805.341	20556
805.483	20609
805.626	20530
805.768	20507
805.91	20488
806.052	20526
806.194	20450
806.336	20708
806.478	20499
806.62	20492
806.762	20613
806.904	20750
807.046	20883
807.188	20929
807.33	20941
807.472	21005
807.614	20705
807.756	20819
807.898	20689
808.04	20579
808.182	20651
808.324	20579
808.465	20621
808.607	20807
808.749	20781
808.891	21017
809.033	21028
809.174	20876
809.316	20872
809.458	20891
809.6	20826
809.741	20872
809.883	20883
810.025	21024
810.166	21005
810.308	21001
810.45	21032
810.591	20872
810.733	20697
810.875	20629
811.016	20693
811.158	20495
811.299	20724
811.441	20788
811.582	20678
811.724	20503
811.865	20533
812.007	20568
812.148	20541
812.29	20663
812.431	20819
812.573	20929
812.714	21039
812.855	21203
812.997	21241
813.138	21336
813.279	21275
813.421	21173
813.562	21009
813.703	20842
813.845	20705
813.986	20503
814.127	20313
814.268	20278
814.41	20145
814.551	20180
814.692	20275
814.833	20214
814.974	20054
815.115	20176
815.256	19993
815.397	20130
815.539	19963
815.68	20043
815.821	19837
815.962	19860
816.103	19864
816.244	19807
816.385	19601
816.526	19643
816.666	19407
816.807	19316
816.948	19400
817.089	19453
817.23	19293
817.371	19324
817.512	19304
817.653	19251
817.793	19251
817.934	19194
818.075	19354
818.216	19331
818.356	19244
818.497	19145
818.638	18958
818.778	18981
818.919	19000
819.06	18920
819.2	19122
819.341	19221
819.481	19209
819.622	19343
819.762	19529
819.903	19350
820.043	19384
820.184	19217
820.324	19270
820.465	19282
820.605	19426
820.746	19320
820.886	19236
821.026	19324
821.167	19171
821.307	19343
821.447	19225
821.588	19107
821.728	19008
821.868	18825
822.008	18779
822.149	18734
822.289	18627
822.429	18441
822.569	18407
822.709	18380
822.849	18140
822.99	18235
823.13	18167
823.27	18167
823.41	18026
823.55	17980
823.69	17996
823.83	18117
823.97	17904
824.11	17748
824.25	17794
824.389	17779
824.529	17817
824.669	17832
824.809	17863
824.949	17939
825.089	17897
825.228	17786
825.368	17707
825.508	17657
825.648	17581
825.787	17589
825.927	17668
826.067	17642
826.206	17573
826.346	17604
826.485	17573
826.625	17459
826.765	17634
826.904	17600
827.044	17406
827.183	17406
827.323	17185
827.462	17258
827.601	17231
827.741	17204
827.88	17227
828.02	17239
828.159	17337
828.298	17254
828.437	17303
828.577	17200
828.716	17402
828.855	17105
828.994	16976
829.134	17052
829.273	17018
829.412	17006
829.551	16980
829.69	16949
829.829	17086
829.968	17151
830.107	17079
830.246	17109
830.385	16946
830.524	16900
830.663	16854
830.802	16622
830.941	16691
831.08	16561
831.219	16778
831.357	16694
831.496	16839
831.635	16634
831.774	16550
831.913	16535
832.051	16413
832.19	16402
832.329	16554
832.467	16337
832.606	16272
832.744	16265
832.883	16333
833.022	16295
833.16	16341
833.299	16428
833.437	16428
833.576	16352
833.714	16382
833.852	16325
833.991	16402
834.129	16512
834.267	16455
834.406	16303
834.544	16363
834.682	16474
834.821	16265
834.959	16656
835.097	16337
835.235	16436
835.373	16379
835.511	16394
835.65	16367
835.788	16299
835.926	16116
836.064	16135
836.202	16139
836.34	16402
836.478	16451
836.615	16276
836.753	16299
836.891	16390
837.029	16325
837.167	16246
837.305	16276
837.443	16242
837.58	16120
837.718	16287
837.856	16204
837.993	16147
838.131	16246
838.269	16086
838.406	16154
838.544	16063
838.681	15903
838.819	15945
838.956	15686
839.094	15679
839.231	15770
839.369	15922
839.506	16071
839.643	16002
839.781	15766
839.918	15781
840.055	15755
840.193	15808
840.33	15671
840.467	15800
840.604	15850
840.742	15934
840.879	15580
841.016	15713
841.153	15701
841.29	15869
841.427	15759
841.564	15751
841.701	15732
841.838	15751
841.975	15644
842.112	15648
842.249	15526
842.385	15572
842.522	15671
842.659	15599
842.796	15526
842.933	15519
843.069	15580
843.206	15397
843.343	15553
843.479	15538
843.616	15553
843.752	15332
843.889	15310
844.025	15443
844.162	15370
844.298	15447
844.435	15291
844.571	15142
844.708	15336
844.844	15431
844.98	15439
845.117	15412
845.253	15188
845.389	15169
845.525	15313
845.661	15313
845.798	15058
845.934	15165
846.07	14998
846.206	15135
846.342	15184
846.478	15066
846.614	14990
846.75	14842
846.886	14906
847.022	14963
847.158	14948
847.294	14906
847.429	14880
847.565	14830
847.701	15112
847.837	14655
847.972	14648
848.108	14785
848.244	14670
848.379	14492
848.515	14484
848.65	14511
848.786	14499
848.921	14454
849.057	14583
849.192	14552
849.328	14564
849.463	14438
849.598	14530
849.734	14408
849.869	14366
850.004	14240
850.14	14328
850.275	14309
850.41	14145
850.545	14358
850.68	14214
850.815	14267
850.95	14256
851.085	14514
851.22	14396
851.355	14210
851.49	14199
851.625	14294
851.76	14142
851.895	14111
852.03	14153
852.165	14161
852.299	14282
852.434	14370
852.569	14309
852.703	14374
852.838	14374
852.973	14404
853.107	14339
853.242	14126
853.376	14130
853.511	14005
853.645	14020
853.78	14202
853.914	14168
854.048	14115
854.183	14111
854.317	14180
854.451	14290
854.585	14088
854.72	14027
854.854	14187
854.988	14065
855.122	14100
855.256	14024
855.39	14001
855.524	14138
855.658	14145
855.792	14164
855.926	14206
856.06	14183
856.194	14305
856.327	14111
856.461	14126
856.595	14065
856.729	14157
856.862	14202
856.996	14244
857.13	14256
857.263	14187
857.397	14233
857.53	14115
857.664	14199
857.797	14168
857.931	14244
858.064	14237
858.197	14218
858.331	14149
858.464	14088
858.597	14035
858.731	14096
858.864	14046
858.997	14138
859.13	14123
859.263	14107
859.396	14123
859.529	14084
859.662	14111
859.795	14024
859.928	14199
860.061	14267
860.194	14320
860.327	14240
860.46	14092
860.592	14237
860.725	14218
860.858	14271
860.99	14183
861.123	14058
861.256	14016
861.388	14115
861.521	14804
861.653	13993
861.786	13852
861.918	13959
862.05	14058
862.183	14153
862.315	14069
862.447	14103
862.58	14126
862.712	13875
862.844	13849
862.976	14035
863.108	13963
863.24	14370
863.372	13830
863.504	13944
863.636	13947
863.768	13902
863.9	13932
864.032	13811
864.164	13841
864.296	13955
864.428	14016
864.559	14008
864.691	14008
864.823	13906
864.954	13951
865.086	14039
865.217	13909
865.349	13837
865.48	13909
865.612	13932
865.743	14031
865.875	13947
866.006	13875
866.137	13890
866.269	13989
866.4	13864
866.531	13795
866.662	13913
866.793	13822
866.924	13837
867.055	13871
867.186	13871
867.317	13841
867.448	13807
867.579	13830
867.71	13822
867.841	13852
867.972	13890
868.103	13871
868.233	13887
868.364	13940
868.495	14016
868.625	14157
868.756	14183
868.886	14088
869.017	14142
869.147	14286
869.278	14263
869.408	14202
869.539	14092
869.669	14298
869.799	14142
869.929	14244
870.06	14336
870.19	14454
870.32	14385
870.45	14511
870.58	14507
870.71	14667
870.84	14762
870.97	14522
871.1	14526
871.23	14735
871.36	14705
871.489	14644
871.619	14807
871.749	14853
871.879	14807
872.008	14823
872.138	14773
872.267	14773
872.397	14655
872.526	14530
872.656	14522
872.785	14667
872.915	14708
873.044	14925
873.173	14826
873.303	14811
873.432	14849
873.561	14872
873.69	14800
873.819	14883
873.948	14906
874.077	14842
874.206	14701
874.335	14823
874.464	15036
874.593	15108
874.722	15093
874.851	15074
874.979	15237
875.108	15119
875.237	15074
875.365	15024
875.494	15055
875.623	15180
875.751	15142
875.88	15173
876.008	15241
876.136	15344
876.265	15481
876.393	15717
876.521	15618
876.65	15682
876.778	15564
876.906	15504
877.034	15671
877.162	15469
877.29	15439
877.418	15557
877.546	15614
877.674	15572
877.802	15610
877.93	15557
878.058	15469
878.185	15340
878.313	15485
878.441	15500
878.568	15355
878.696	15473
878.824	15625
878.951	15656
879.079	15724
879.206	15869
879.333	15690
879.461	15622
879.588	15663
879.715	15694
879.842	15846
879.97	15576
880.097	15386
880.224	15378
880.351	15382
880.478	15454
880.605	15344
880.732	15340
880.859	15648
880.986	15511
881.112	15450
881.239	15222
881.366	15237
881.493	15180
881.619	15123
881.746	15112
881.872	15066
881.999	15001
882.125	15024
882.252	15157
882.378	15150
882.505	15138
882.631	15077
882.757	14853
882.883	15036
883.01	14864
883.136	14811
883.262	14697
883.388	14712
883.514	14838
883.64	14861
883.766	14876
883.892	14678
884.018	14621
884.143	14849
884.269	14902
884.395	14636
884.52	14541
884.646	14556
884.772	14587
884.897	14473
885.023	14598
885.148	14697
885.274	14754
885.399	14701
885.524	14598
885.65	14545
885.775	14617
885.9	14533
886.025	14693
886.15	14651
886.275	14625
886.4	14423
886.525	14617
886.65	14545
886.775	14522
886.9	14682
887.025	14678
887.149	14610
887.274	14438
887.399	14385
887.523	14400
887.648	14343
887.773	14332
887.897	14431
888.021	14423
888.146	14339
888.27	14454
888.395	14530
888.519	14404
888.643	14484
888.767	14450
888.891	14286
889.015	14233
889.139	14290
889.263	14229
889.387	14412
889.511	14393
889.635	14427
889.759	14172
889.883	14248
890.006	14339
890.13	14461
890.254	14180
890.377	14195
890.501	14035
890.624	13993
890.748	14180
890.871	14054
890.995	13928
891.118	13814
891.241	14020
891.364	14115
891.488	14111
891.611	13951
891.734	13928
891.857	13993
891.98	14024
892.103	14081
892.226	14035
892.349	13963
892.471	13826
892.594	13974
892.717	13963
892.839	13909
892.962	13947
893.085	13944
893.207	13921
893.33	13883
893.452	13936
893.575	14073
893.697	13925
893.819	14111
893.941	14286
894.064	14138
894.186	13936
894.308	13849
894.43	14119
894.552	14233
894.674	14145
894.796	13986
894.918	14096
895.04	13951
895.161	14134
895.283	14164
895.405	13986
895.526	14065
895.648	14103
895.769	14077
895.891	14046
896.012	14126
896.134	14176
896.255	14149
896.376	14084
896.498	14199
896.619	14252
896.74	14043
896.861	14271
896.982	14465
897.103	14583
897.224	14412
897.345	14499
897.466	14358
897.587	14434
897.708	14575
897.828	14465
897.949	14370
898.07	14218
898.19	14328
898.311	14495
898.431	14431
898.552	14438
898.672	14606
898.792	14495
898.913	14511
899.033	14427
899.153	14286
899.273	14153
899.393	14355
899.513	14381
899.633	14374
899.753	14412
899.873	14351
899.993	14385
900.113	14377
900.232	14271
900.352	14187
900.472	14225
900.591	14100
900.711	14199
900.83	14130
900.95	14465
901.069	14225
901.189	14176
901.308	13970
901.427	13887
901.546	13871
901.665	13925
901.784	13890
901.904	13822
902.023	13708
902.141	13518
902.26	13491
902.379	13518
902.498	13510
902.617	13434
902.735	13483
902.854	13346
902.973	13415
903.091	13141
903.21	13263
903.328	13209
903.446	13129
903.565	13042
903.683	13107
903.801	12966
903.919	13023
904.038	13000
904.156	12939
904.274	12890
904.392	12840
904.51	12810
904.627	12833
904.745	13004
904.863	12928
904.981	12749
905.098	12593
905.216	12719
905.334	12563
905.451	12654
905.569	12517
905.686	12620
905.803	12555
905.921	12433
906.038	12498
906.155	12460
906.272	12254
906.389	12410
906.506	12205
906.623	12205
906.74	12102
906.857	12034
906.974	12095
907.091	12235
907.208	12342
907.324	12186
907.441	12114
907.557	12019
907.674	11946
907.79	11901
907.907	11885
908.023	12007
908.139	11863
908.256	11897
908.372	11821
908.488	11821
908.604	11767
908.72	11699
908.836	11703
908.952	11684
909.068	11680
909.184	11767
909.3	11710
909.415	11726
909.531	11764
909.647	11539
909.762	11551
909.878	11395
909.993	11493
910.108	11383
910.224	11379
910.339	11440
910.454	11414
910.57	11341
910.685	11307
910.8	11577
910.915	11459
911.03	11307
911.145	11189
911.259	11166
911.374	11132
911.489	11045
911.604	11071
911.718	10957
911.833	10972
911.947	10790
912.062	10782
912.176	10869
912.291	10927
912.405	10881
912.519	11014
912.633	11162
912.748	10934
912.862	10965
912.976	10816
913.09	10702
913.204	10786
913.318	10736
913.431	10816
913.545	10881
913.659	10873
913.772	10782
913.886	10634
914	10626
914.113	10786
914.226	10835
914.34	10763
914.453	10573
914.566	10717
914.68	10603
914.793	10500
914.906	10470
915.019	10417
915.132	10459
915.245	10322
915.358	10432
915.47	10531
915.583	10470
915.696	10432
915.809	10577
915.921	10577
916.034	10417
916.146	10360
916.259	10287
916.371	10470
916.483	10379
916.595	10322
916.708	10394
916.82	10375
916.932	10314
917.044	10402
917.156	10470
917.268	10306
917.38	10265
917.491	10196
917.603	10242
917.715	10375
917.826	10352
917.938	10230
918.049	10211
918.161	10291
918.272	10428
918.384	10367
918.495	10272
918.606	10101
918.717	10071
918.828	10192
918.939	10169
919.05	10036
919.161	10059
919.272	9892
919.383	10002
919.494	10268
919.604	10249
919.715	10139
919.826	10166
919.936	10147
920.047	10207
920.157	10223
920.267	10360
920.378	10223
920.488	10131
920.598	10405
920.708	10561
920.818	10398
920.928	10394
921.038	10516
921.148	10432
921.258	10284
921.368	10063
921.477	10109
921.587	10002
921.697	9888
921.806	10021
921.916	9991
922.025	9766
922.134	9698
922.244	9660
922.353	9698
922.462	9633
922.571	9549
922.68	9454
922.789	9378
922.898	9469
923.007	9401
923.116	9454
923.224	9420
923.333	9412
923.442	9351
923.55	9317
923.659	9321
923.767	9313
923.876	9275
923.984	9359
924.092	9260
924.201	9325
924.309	9348
924.417	9317
924.525	9298
924.633	9233
924.741	10219
924.849	9047
924.956	9313
925.064	9077
925.172	9020
925.279	9024
925.387	9188
925.494	9077
925.602	9203
925.709	9131
925.816	8990
925.924	9070
926.031	9173
926.138	9070
926.245	9077
926.352	9017
926.459	9176
926.566	9214
926.673	9077
926.779	8990
926.886	8944
926.993	8842
927.099	8838
927.206	8667
927.312	8819
927.419	8811
927.525	8826
927.631	8887
927.737	8674
927.843	8724
927.95	8575
928.056	8632
928.162	8739
928.267	8724
928.373	9370
928.479	8792
928.585	8579
928.69	8697
928.796	8693
928.901	8590
929.007	8549
929.112	8594
929.218	8545
929.323	8541
929.428	8454
929.533	8632
929.638	8377
929.743	8434
929.848	8590
929.953	8503
930.058	8450
930.163	8339
930.267	8279
930.372	8423
930.477	8225
930.581	8503
930.685	8328
930.79	8172
930.894	8199
930.998	8191
931.103	8446
931.207	8008
931.311	8008
931.415	7890
931.519	7681
931.623	7746
