Data from test_V78500241_1488.txt Node
Date: Fri Mar 25 14:44:04 CST 2022
User: usil
Spectrometer: V785-0024
Trigger mode: 0
Integration Time (sec): 4.000000E-1
Scans to average: 1
Nonlinearity correction enabled: false
Boxcar width: 0
Storing dark spectrum: false
XAxis mode: Wavelengths
Number of Pixels in Spectrum: 1024
>>>>>Begin Spectral Data<<<<<
801.071	22504
801.214	22379
801.356	22070
801.499	22059
801.641	21865
801.783	21789
801.926	21717
802.068	21781
802.211	21622
802.353	21618
802.496	21386
802.638	21245
802.78	21256
802.923	21188
803.065	21039
803.208	21150
803.35	21188
803.492	21237
803.635	21245
803.777	21161
803.919	21233
804.061	21504
804.204	21173
804.346	21116
804.488	21058
804.63	21032
804.773	21055
804.915	21108
805.057	21104
805.199	21085
805.341	21074
805.483	21184
805.626	21070
805.768	21066
805.91	21169
806.052	21028
806.194	21020
806.336	21230
806.478	21119
806.62	20929
806.762	21066
806.904	21214
807.046	21542
807.188	21534
807.33	21557
807.472	21576
807.614	21367
807.756	21488
807.898	21367
808.04	21218
808.182	21226
808.324	21329
808.465	21298
808.607	21401
808.749	21679
808.891	21831
809.033	21709
809.174	21614
809.316	21500
809.458	21622
809.6	21580
809.741	21534
809.883	21629
810.025	21698
810.166	21705
810.308	21629
810.45	21534
810.591	21435
810.733	21317
810.875	21291
811.016	21195
811.158	21131
811.299	21214
811.441	21462
811.582	21382
811.724	21188
811.865	21180
812.007	21344
812.148	21207
812.29	21272
812.431	21367
812.573	21587
812.714	21462
812.855	21785
812.997	21789
813.138	21994
813.279	21865
813.421	21694
813.562	21591
813.703	21469
813.845	21378
813.986	21211
814.127	21017
814.268	20880
814.41	20785
814.551	20693
814.692	20906
814.833	20743
814.974	20750
815.115	20644
815.256	20606
815.397	20518
815.539	20625
815.68	20457
815.821	20438
815.962	20602
816.103	20488
816.244	20419
816.385	20206
816.526	20290
816.666	20138
816.807	20001
816.948	20107
817.089	20187
817.23	19955
817.371	19947
817.512	19883
817.653	19963
817.793	19940
817.934	19883
818.075	20115
818.216	19997
818.356	19982
818.497	19704
818.638	19578
818.778	19548
818.919	19578
819.06	19696
819.2	19693
819.341	19837
819.481	19932
819.622	19963
819.762	20130
819.903	20111
820.043	19871
820.184	19986
820.324	19818
820.465	20031
820.605	19932
820.746	19864
820.886	19811
821.026	19936
821.167	19772
821.307	19852
821.447	19734
821.588	19772
821.728	19609
821.868	19422
822.008	19396
822.149	19324
822.289	19266
822.429	19019
822.569	18962
822.709	19015
822.849	18837
822.99	18840
823.13	18840
823.27	18692
823.41	18623
823.55	18661
823.69	18608
823.83	18703
823.97	18563
824.11	18376
824.25	18410
824.389	18273
824.529	18479
824.669	18429
824.809	18384
824.949	18445
825.089	18429
825.228	18460
825.368	18213
825.508	18281
825.648	18254
825.787	18330
825.927	18254
826.067	18197
826.206	18155
826.346	18171
826.485	18091
826.625	18083
826.765	18155
826.904	18163
827.044	17920
827.183	17946
827.323	17794
827.462	17908
827.601	17912
827.741	17783
827.88	17737
828.02	17737
828.159	17927
828.298	17859
828.437	17980
828.577	17775
828.716	17977
828.855	17767
828.994	17642
829.134	17558
829.273	17638
829.412	17543
829.551	17551
829.69	17543
829.829	17585
829.968	17668
830.107	17707
830.246	17592
830.385	17554
830.524	17532
830.663	17398
830.802	17326
830.941	17269
831.08	17235
831.219	17235
831.357	17216
831.496	17410
831.635	17280
831.774	17071
831.913	17239
832.051	17037
832.19	16934
832.329	16972
832.467	16908
832.606	16831
832.744	16877
832.883	16824
833.022	16866
833.16	16911
833.299	17014
833.437	16980
833.576	16953
833.714	16934
833.852	16934
833.991	17029
834.129	16984
834.267	16980
834.406	16805
834.544	17052
834.682	16972
834.821	16934
834.959	17121
835.097	16946
835.235	16961
835.373	16991
835.511	16885
835.65	16831
835.788	16839
835.926	16725
836.064	16744
836.202	16713
836.34	16927
836.478	16885
836.615	16736
836.753	16752
836.891	17037
837.029	16809
837.167	16816
837.305	16717
837.443	16782
837.58	16744
837.718	16820
837.856	16793
837.993	16656
838.131	16835
838.269	16584
838.406	16706
838.544	16626
838.681	16493
838.819	16405
838.956	16291
839.094	16257
839.231	16303
839.369	16405
839.506	16603
839.643	16607
839.781	16299
839.918	16154
840.055	16348
840.193	16238
840.33	16299
840.467	16226
840.604	16329
840.742	16470
840.879	16204
841.016	16162
841.153	16192
841.29	16303
841.427	16200
841.564	16265
841.701	16242
841.838	16230
841.975	16162
842.112	16059
842.249	16063
842.385	15991
842.522	16230
842.659	16006
842.796	15945
842.933	15991
843.069	16002
843.206	15949
843.343	16010
843.479	15994
843.616	16002
843.752	15850
843.889	15774
844.025	15941
844.162	15759
844.298	15953
844.435	15797
844.571	15701
844.708	15747
844.844	15983
844.98	15975
845.117	15888
845.253	15861
845.389	15743
845.525	15865
845.661	15785
845.798	15698
845.934	15774
846.07	15793
846.206	15903
846.342	15953
846.478	15755
846.614	15549
846.75	15378
846.886	15408
847.022	15408
847.158	15450
847.294	15344
847.429	15443
847.565	15374
847.701	15595
847.837	15104
847.972	15055
848.108	15199
848.244	15180
848.379	14887
848.515	14857
848.65	14876
848.786	14986
848.921	14975
849.057	15062
849.192	15131
849.328	15020
849.463	14921
849.598	14933
849.734	14876
849.869	14815
850.004	14705
850.14	14765
850.275	14735
850.41	14697
850.545	14636
850.68	14724
850.815	14777
850.95	14739
851.085	14826
851.22	14895
851.355	14758
851.49	14701
851.625	14720
851.76	14674
851.895	14590
852.03	14625
852.165	14769
852.299	14781
852.434	14861
852.569	14788
852.703	14754
852.838	14823
852.973	14853
853.107	14937
853.242	14686
853.376	14640
853.511	14473
853.645	14617
853.78	14590
853.914	14587
854.048	14598
854.183	14549
854.317	14606
854.451	14731
854.585	14571
854.72	14663
854.854	14598
854.988	14537
855.122	14541
855.256	14446
855.39	14621
855.524	14625
855.658	14697
855.792	14796
855.926	14617
856.06	14682
856.194	14705
856.327	14602
856.461	14476
856.595	14579
856.729	14495
856.862	14689
856.996	14640
857.13	14632
857.263	14731
857.397	14686
857.53	14571
857.664	14693
857.797	14632
857.931	14693
858.064	14613
858.197	14617
858.331	14564
858.464	14492
858.597	14488
858.731	14556
858.864	14537
858.997	14621
859.13	14568
859.263	14743
859.396	14689
859.529	14602
859.662	14621
859.795	14571
859.928	14621
860.061	14792
860.194	14838
860.327	14648
860.46	14617
860.592	14693
860.725	14758
860.858	14754
860.99	14613
861.123	14530
861.256	14575
861.388	14492
861.521	15192
861.653	14469
861.786	14442
861.918	14412
862.05	14594
862.183	14564
862.315	14518
862.447	14514
862.58	14533
862.712	14374
862.844	14305
862.976	14362
863.108	14370
863.24	14834
863.372	14282
863.504	14434
863.636	14347
863.768	14332
863.9	14275
864.032	14324
864.164	14343
864.296	14404
864.428	14530
864.559	14412
864.691	14423
864.823	14377
864.954	14412
865.086	14412
865.217	14431
865.349	14309
865.48	14256
865.612	14240
865.743	14495
865.875	14381
866.006	14248
866.137	14332
866.269	14400
866.4	14328
866.531	14313
866.662	14267
866.793	14259
866.924	14355
867.055	14309
867.186	14412
867.317	14362
867.448	14115
867.579	14191
867.71	14332
867.841	14183
867.972	14324
868.103	14362
868.233	14389
868.364	14282
868.495	14358
868.625	14629
868.756	14659
868.886	14579
869.017	14556
869.147	14686
869.278	14659
869.408	14674
869.539	14594
869.669	14670
869.799	14556
869.929	14750
870.06	14682
870.19	14918
870.32	14895
870.45	14921
870.58	14971
870.71	15062
870.84	15142
870.97	14963
871.1	14982
871.23	15146
871.36	15138
871.489	15062
871.619	15077
871.749	15157
871.879	15188
872.008	15298
872.138	15203
872.267	15142
872.397	15131
872.526	14986
872.656	14960
872.785	15047
872.915	15287
873.044	15306
873.173	15218
873.303	15317
873.432	15329
873.561	15344
873.69	15294
873.819	15184
873.948	15287
874.077	15279
874.206	15169
874.335	15237
874.464	15458
874.593	15504
874.722	15439
874.851	15523
874.979	15519
875.108	15523
875.237	15485
875.365	15378
875.494	15606
875.623	15599
875.751	15481
875.88	15591
876.008	15660
876.136	15755
876.265	16074
876.393	15987
876.521	16044
876.65	16078
876.778	16013
876.906	15827
877.034	15934
877.162	15911
877.29	15835
877.418	16021
877.546	15945
877.674	16048
877.802	15930
877.93	15979
878.058	15915
878.185	15827
878.313	15998
878.441	15949
878.568	15827
878.696	15922
878.824	15918
878.951	16021
879.079	16207
879.206	16348
879.333	16253
879.461	16128
879.588	16226
879.715	16166
879.842	16295
879.97	16166
880.097	15861
880.224	15838
880.351	15846
880.478	15823
880.605	15880
880.732	15739
880.859	16044
880.986	15789
881.112	15812
881.239	15747
881.366	15576
881.493	15568
881.619	15515
881.746	15614
881.872	15462
881.999	15454
882.125	15469
882.252	15511
882.378	15549
882.505	15633
882.631	15416
882.757	15268
882.883	15359
883.01	15351
883.136	15222
883.262	15154
883.388	15089
883.514	15389
883.64	15351
883.766	15245
883.892	15211
884.018	15173
884.143	15344
884.269	15363
884.395	15055
884.52	14925
884.646	15024
884.772	14929
884.897	14887
885.023	14971
885.148	15199
885.274	15024
885.399	14994
885.524	14952
885.65	14971
885.775	15001
885.9	14994
886.025	15135
886.15	15039
886.275	14872
886.4	14967
886.525	15017
886.65	14887
886.775	14910
886.9	15058
887.025	15310
887.149	14925
887.274	14834
887.399	14872
887.523	14785
887.648	14765
887.773	14735
887.897	14861
888.021	14914
888.146	14788
888.27	14933
888.395	14895
888.519	14895
888.643	14796
888.767	14933
888.891	14739
889.015	14697
889.139	14697
889.263	14739
889.387	14826
889.511	14838
889.635	14689
889.759	14636
889.883	14610
890.006	14632
890.13	14796
890.254	14640
890.377	14526
890.501	14480
890.624	14427
890.748	14495
890.871	14423
890.995	14244
891.118	14210
891.241	14393
891.364	14396
891.488	14461
891.611	14351
891.734	14400
891.857	14351
891.98	14465
892.103	14560
892.226	14385
892.349	14263
892.471	14233
892.594	14370
892.717	14393
892.839	14343
892.962	14320
893.085	14454
893.207	14298
893.33	14240
893.452	14328
893.575	14404
893.697	14298
893.819	14461
893.941	14488
894.064	14499
894.186	14301
894.308	14290
894.43	14408
894.552	14613
894.674	14473
894.796	14362
894.918	14305
895.04	14412
895.161	14469
895.283	14575
895.405	14366
895.526	14454
895.648	14473
895.769	14530
895.891	14522
896.012	14545
896.134	14564
896.255	14503
896.376	14465
896.498	14552
896.619	14526
896.74	14492
896.861	14617
896.982	14880
897.103	15055
897.224	14872
897.345	14727
897.466	14773
897.587	14861
897.708	14910
897.828	14857
897.949	14750
898.07	14636
898.19	14731
898.311	14975
898.431	14750
898.552	14811
898.672	14929
898.792	14933
898.913	14956
899.033	14883
899.153	14659
899.273	14651
899.393	14701
899.513	14682
899.633	14731
899.753	14807
899.873	14712
899.993	14743
900.113	14670
900.232	14686
900.352	14754
900.472	14610
900.591	14484
900.711	14579
900.83	14503
900.95	14697
901.069	14640
901.189	14610
901.308	14267
901.427	14214
901.546	14278
901.665	14240
901.784	14328
901.904	14092
902.023	14050
902.141	13868
902.26	13795
902.379	13898
902.498	13742
902.617	13788
902.735	13833
902.854	13795
902.973	13693
903.091	13483
903.21	13571
903.328	13495
903.446	13540
903.565	13350
903.683	13388
903.801	13232
903.919	13384
904.038	13381
904.156	13183
904.274	13251
904.392	13110
904.51	13206
904.627	13209
904.745	13247
904.863	13285
904.981	13076
905.098	12863
905.216	13012
905.334	12943
905.451	12886
905.569	12901
905.686	12951
905.803	12909
905.921	12753
906.038	12859
906.155	12722
906.272	12547
906.389	12623
906.506	12521
906.623	12437
906.74	12407
906.857	12422
906.974	12369
907.091	12490
907.208	12532
907.324	12513
907.441	12361
907.557	12205
907.674	12262
907.79	12266
907.907	12095
908.023	12235
908.139	12163
908.256	12178
908.372	12175
908.488	12041
908.604	12007
908.72	11958
908.836	11904
908.952	11958
909.068	12015
909.184	12091
909.3	12041
909.415	12117
909.531	11996
909.647	11752
909.762	11745
909.878	11714
909.993	11657
910.108	11748
910.224	11630
910.339	11695
910.454	11691
910.57	11615
910.685	11520
910.8	11847
910.915	11707
911.03	11615
911.145	11471
911.259	11448
911.374	11505
911.489	11353
911.604	11356
911.718	11174
911.833	11204
911.947	11121
912.062	11090
912.176	11254
912.291	11166
912.405	11170
912.519	11387
912.633	11349
912.748	11170
912.862	11086
912.976	11033
913.09	10938
913.204	10980
913.318	11014
913.431	11212
913.545	11121
913.659	11166
913.772	11098
913.886	11029
914	10908
914.113	11105
914.226	11075
914.34	10949
914.453	10839
914.566	11071
914.68	10915
914.793	10828
914.906	10691
915.019	10721
915.132	10611
915.245	10736
915.358	10675
915.47	10649
915.583	10702
915.696	10752
915.809	10801
915.921	10790
916.034	10702
916.146	10634
916.259	10664
916.371	10714
916.483	10672
916.595	10607
916.708	10611
916.82	10645
916.932	10653
917.044	10523
917.156	10504
917.268	10481
917.38	10489
917.491	10481
917.603	10542
917.715	10516
917.826	10675
917.938	10558
918.049	10485
918.161	10462
918.272	10554
918.384	10561
918.495	10500
918.606	10280
918.717	10284
918.828	10375
918.939	10402
919.05	10341
919.161	10356
919.272	10181
919.383	10192
919.494	10428
919.604	10615
919.715	10375
919.826	10261
919.936	10375
920.047	10443
920.157	10402
920.267	10656
920.378	10413
920.488	10310
920.598	10592
920.708	10668
920.818	10569
920.928	10554
921.038	10744
921.148	10599
921.258	10519
921.368	10367
921.477	10306
921.587	10230
921.697	10082
921.806	10276
921.916	10120
922.025	10017
922.134	9895
922.244	9854
922.353	10021
922.462	9899
922.571	9766
922.68	9641
922.789	9599
922.898	9584
923.007	9519
923.116	9663
923.224	9603
923.333	9584
923.442	9504
923.55	9485
923.659	9450
923.767	9599
923.876	9542
923.984	9584
924.092	9435
924.201	9496
924.309	9473
924.417	9462
924.525	9416
924.633	9405
924.741	10341
924.849	9260
924.956	9351
925.064	9253
925.172	9207
925.279	9226
925.387	9260
925.494	9329
925.602	9431
925.709	9355
925.816	9256
925.924	9291
926.031	9355
926.138	9310
926.245	9386
926.352	9237
926.459	9344
926.566	9431
926.673	9199
926.779	9077
926.886	9116
926.993	9055
927.099	8971
927.206	8899
927.312	8941
927.419	9112
927.525	8986
927.631	9093
927.737	8925
927.843	8895
927.95	8777
928.056	8872
928.162	8842
928.267	8948
928.373	9610
928.479	8982
928.585	8788
928.69	8887
928.796	8975
928.901	8819
929.007	8659
929.112	8804
929.218	8785
929.323	8708
929.428	8716
929.533	8921
929.638	8701
929.743	8667
929.848	8739
929.953	8613
930.058	8560
930.163	8423
930.267	8503
930.372	8590
930.477	8438
930.581	8708
930.685	8564
930.79	8400
930.894	8514
930.998	8400
931.103	8568
931.207	8187
931.311	8157
931.415	8115
931.519	7993
931.623	7921
