Data from test_V78500241_3663.txt Node
Date: Fri Mar 25 14:59:13 CST 2022
User: usil
Spectrometer: V785-0024
Trigger mode: 0
Integration Time (sec): 4.000000E-1
Scans to average: 1
Nonlinearity correction enabled: false
Boxcar width: 0
Storing dark spectrum: false
XAxis mode: Wavelengths
Number of Pixels in Spectrum: 1024
>>>>>Begin Spectral Data<<<<<
801.071	21918
801.214	21770
801.356	21618
801.499	21458
801.641	21298
801.783	21329
801.926	21298
802.068	21077
802.211	21062
802.353	20990
802.496	20838
802.638	20845
802.78	20670
802.923	20705
803.065	20495
803.208	20533
803.35	20552
803.492	20758
803.635	20625
803.777	20617
803.919	20678
804.061	21036
804.204	20579
804.346	20579
804.488	20590
804.63	20636
804.773	20438
804.915	20568
805.057	20648
805.199	20465
805.341	20541
805.483	20678
805.626	20613
805.768	20298
805.91	20442
806.052	20564
806.194	20465
806.336	20659
806.478	20427
806.62	20461
806.762	20632
806.904	20693
807.046	20944
807.188	20876
807.33	20743
807.472	20937
807.614	20716
807.756	20891
807.898	20644
808.04	20568
808.182	20564
808.324	20541
808.465	20571
808.607	20739
808.749	20804
808.891	20975
809.033	20933
809.174	20895
809.316	20880
809.458	20842
809.6	20807
809.741	20933
809.883	20921
810.025	20925
810.166	21009
810.308	21020
810.45	20952
810.591	20845
810.733	20735
810.875	20594
811.016	20522
811.158	20507
811.299	20514
811.441	20716
811.582	20686
811.724	20655
811.865	20640
812.007	20644
812.148	20613
812.29	20594
812.431	20811
812.573	20902
812.714	20857
812.855	21005
812.997	21150
813.138	21325
813.279	21184
813.421	21138
813.562	21066
813.703	20861
813.845	20746
813.986	20450
814.127	20343
814.268	20168
814.41	20271
814.551	20153
814.692	20233
814.833	20122
814.974	20111
815.115	20233
815.256	19993
815.397	19936
815.539	20012
815.68	19898
815.821	19864
815.962	19940
816.103	19898
816.244	19738
816.385	19635
816.526	19620
816.666	19457
816.807	19327
816.948	19438
817.089	19411
817.23	19441
817.371	19187
817.512	19236
817.653	19228
817.793	19225
817.934	19301
818.075	19266
818.216	19244
818.356	19350
818.497	19000
818.638	18966
818.778	18928
818.919	18981
819.06	18939
819.2	19148
819.341	19122
819.481	19244
819.622	19350
819.762	19457
819.903	19384
820.043	19362
820.184	19297
820.324	19247
820.465	19304
820.605	19282
820.746	19217
820.886	19084
821.026	19187
821.167	19164
821.307	19232
821.447	19244
821.588	19110
821.728	19015
821.868	18916
822.008	18627
822.149	18646
822.289	18684
822.429	18410
822.569	18426
822.709	18361
822.849	18144
822.99	18220
823.13	18155
823.27	18201
823.41	17954
823.55	17866
823.69	18030
823.83	17958
823.97	17901
824.11	17722
824.25	17684
824.389	17699
824.529	17798
824.669	17718
824.809	17889
824.949	17809
825.089	17691
825.228	17805
825.368	17589
825.508	17585
825.648	17547
825.787	17532
825.927	17638
826.067	17543
826.206	17474
826.346	17585
826.485	17676
826.625	17611
826.765	17539
826.904	17596
827.044	17330
827.183	17360
827.323	17246
827.462	17326
827.601	17239
827.741	17284
827.88	17372
828.02	17094
828.159	17178
828.298	17334
828.437	17322
828.577	17178
828.716	17269
828.855	17235
828.994	16934
829.134	16953
829.273	17052
829.412	17022
829.551	16965
829.69	17136
829.829	16968
829.968	17178
830.107	17052
830.246	16911
830.385	16984
830.524	16980
830.663	16900
830.802	16767
830.941	16679
831.08	16607
831.219	16706
831.357	16649
831.496	16839
831.635	16596
831.774	16558
831.913	16569
832.051	16466
832.19	16360
832.329	16485
832.467	16386
832.606	16363
832.744	16314
832.883	16310
833.022	16360
833.16	16246
833.299	16367
833.437	16341
833.576	16375
833.714	16314
833.852	16360
833.991	16310
834.129	16417
834.267	16462
834.406	16421
834.544	16451
834.682	16390
834.821	16398
834.959	16637
835.097	16333
835.235	16447
835.373	16538
835.511	16440
835.65	16394
835.788	16253
835.926	16265
836.064	16234
836.202	16143
836.34	16318
836.478	16329
836.615	16249
836.753	16211
836.891	16405
837.029	16375
837.167	16402
837.305	16284
837.443	16185
837.58	16139
837.718	16310
837.856	16211
837.993	16204
838.131	16295
838.269	16116
838.406	16112
838.544	16082
838.681	15953
838.819	15865
838.956	15778
839.094	15713
839.231	15823
839.369	15930
839.506	16150
839.643	16029
839.781	15766
839.918	15724
840.055	15854
840.193	15770
840.33	15717
840.467	15743
840.604	15759
840.742	15975
840.879	15671
841.016	15637
841.153	15625
841.29	15861
841.427	15804
841.564	15816
841.701	15766
841.838	15789
841.975	15633
842.112	15682
842.249	15599
842.385	15587
842.522	15808
842.659	15523
842.796	15485
842.933	15507
843.069	15504
843.206	15496
843.343	15538
843.479	15606
843.616	15534
843.752	15302
843.889	15310
844.025	15485
844.162	15340
844.298	15363
844.435	15317
844.571	15367
844.708	15355
844.844	15469
844.98	15496
845.117	15378
845.253	15169
845.389	15207
845.525	15233
845.661	15275
845.798	15116
845.934	15199
846.07	15043
846.206	15180
846.342	15230
846.478	15135
846.614	15024
846.75	14899
846.886	14887
847.022	14944
847.158	14921
847.294	14960
847.429	14899
847.565	14933
847.701	15104
847.837	14602
847.972	14655
848.108	14746
848.244	14731
848.379	14560
848.515	14495
848.65	14492
848.786	14587
848.921	14518
849.057	14583
849.192	14655
849.328	14659
849.463	14575
849.598	14381
849.734	14469
849.869	14271
850.004	14233
850.14	14286
850.275	14210
850.41	14138
850.545	14237
850.68	14271
850.815	14263
850.95	14176
851.085	14362
851.22	14381
851.355	14259
851.49	14153
851.625	14248
851.76	14317
851.895	14259
852.03	14195
852.165	14263
852.299	14271
852.434	14294
852.569	14313
852.703	14164
852.838	14370
852.973	14389
853.107	14427
853.242	14180
853.376	14016
853.511	14035
853.645	14084
853.78	14267
853.914	14119
854.048	14130
854.183	14126
854.317	14069
854.451	14381
854.585	14069
854.72	14107
854.854	14119
854.988	13978
855.122	14115
855.256	13970
855.39	14073
855.524	14263
855.658	14187
855.792	14199
855.926	14149
856.06	14157
856.194	14221
856.327	14183
856.461	14081
856.595	14103
856.729	14096
856.862	14275
856.996	14164
857.13	14221
857.263	14336
857.397	14176
857.53	14161
857.664	14168
857.797	14275
857.931	14294
858.064	14130
858.197	14240
858.331	14092
858.464	14107
858.597	13989
858.731	14111
858.864	14195
858.997	14142
859.13	14290
859.263	14119
859.396	14130
859.529	14062
859.662	14058
859.795	14084
859.928	14259
860.061	14176
860.194	14278
860.327	14107
860.46	14024
860.592	14240
860.725	14275
860.858	14187
860.99	14046
861.123	13963
861.256	14149
861.388	14195
861.521	14834
861.653	14024
861.786	13974
861.918	13982
862.05	14084
862.183	13997
862.315	14031
862.447	14123
862.58	14035
862.712	13811
862.844	13833
862.976	13906
863.108	13944
863.24	14252
863.372	13890
863.504	13852
863.636	13894
863.768	13986
863.9	13837
864.032	13769
864.164	13868
864.296	13917
864.428	14027
864.559	14039
864.691	14012
864.823	13955
864.954	13982
865.086	14035
865.217	13928
865.349	13898
865.48	13890
865.612	13974
865.743	14043
865.875	13978
866.006	13864
866.137	13902
866.269	13879
866.4	13890
866.531	13902
866.662	13750
866.793	13849
866.924	13894
867.055	13856
867.186	13902
867.317	13856
867.448	13788
867.579	13814
867.71	13753
867.841	13780
867.972	13875
868.103	13902
868.233	13921
868.364	13795
868.495	13986
868.625	14210
868.756	14145
868.886	14016
869.017	14168
869.147	14244
869.278	14221
869.408	14107
869.539	14180
869.669	14244
869.799	14161
869.929	14328
870.06	14210
870.19	14434
870.32	14393
870.45	14560
870.58	14469
870.71	14587
870.84	14670
870.97	14579
871.1	14537
871.23	14834
871.36	14712
871.489	14625
871.619	14716
871.749	14754
871.879	14720
872.008	14823
872.138	14663
872.267	14716
872.397	14545
872.526	14552
872.656	14629
872.785	14610
872.915	14800
873.044	14990
873.173	14800
873.303	14849
873.432	14823
873.561	14918
873.69	14807
873.819	14781
873.948	14895
874.077	14849
874.206	14830
874.335	14861
874.464	14895
874.593	15062
874.722	15062
874.851	15195
874.979	15062
875.108	15207
875.237	15089
875.365	14929
875.494	15055
875.623	15226
875.751	15058
875.88	15119
876.008	15298
876.136	15317
876.265	15610
876.393	15622
876.521	15656
876.65	15644
876.778	15633
876.906	15458
877.034	15462
877.162	15492
877.29	15496
877.418	15572
877.546	15637
877.674	15557
877.802	15545
877.93	15504
878.058	15439
878.185	15431
878.313	15496
878.441	15610
878.568	15439
878.696	15485
878.824	15496
878.951	15538
879.079	15747
879.206	15884
879.333	15743
879.461	15511
879.588	15622
879.715	15641
879.842	15766
879.97	15603
880.097	15348
880.224	15344
880.351	15428
880.478	15408
880.605	15340
880.732	15348
880.859	15629
880.986	15367
881.112	15526
881.239	15348
881.366	15055
881.493	15104
881.619	15089
881.746	15085
881.872	15036
881.999	14994
882.125	14918
882.252	15123
882.378	14956
882.505	15108
882.631	15005
882.757	14811
882.883	14929
883.01	14849
883.136	14746
883.262	14739
883.388	14678
883.514	14845
883.64	14762
883.766	14765
883.892	14670
884.018	14663
884.143	14773
884.269	14921
884.395	14640
884.52	14564
884.646	14560
884.772	14503
884.897	14514
885.023	14571
885.148	14560
885.274	14720
885.399	14686
885.524	14640
885.65	14583
885.775	14556
885.9	14526
886.025	14716
886.15	14667
886.275	14469
886.4	14423
886.525	14594
886.65	14446
886.775	14480
886.9	14705
887.025	14788
887.149	14571
887.274	14457
887.399	14381
887.523	14374
887.648	14343
887.773	14317
887.897	14488
888.021	14518
888.146	14351
888.27	14503
888.395	14495
888.519	14404
888.643	14552
888.767	14469
888.891	14309
889.015	14305
889.139	14275
889.263	14248
889.387	14408
889.511	14545
889.635	14343
889.759	14138
889.883	14214
890.006	14248
890.13	14355
890.254	14240
890.377	14225
890.501	14024
890.624	14123
890.748	14180
890.871	14065
890.995	13921
891.118	13791
891.241	13936
891.364	13993
891.488	14092
891.611	13925
891.734	13997
891.857	14012
891.98	13955
892.103	14153
892.226	13974
892.349	13909
892.471	13830
892.594	13940
892.717	14088
892.839	13913
892.962	14039
893.085	14092
893.207	14027
893.33	13875
893.452	13852
893.575	13963
893.697	13974
893.819	14126
893.941	14248
894.064	14176
894.186	14016
894.308	13967
894.43	14172
894.552	14130
894.674	14191
894.796	14001
894.918	13974
895.04	14001
895.161	14134
895.283	14062
895.405	14103
895.526	14134
895.648	14062
895.769	14107
895.891	14092
896.012	14157
896.134	14214
896.255	14210
896.376	14123
896.498	14199
896.619	14161
896.74	14111
896.861	14267
896.982	14560
897.103	14530
897.224	14461
897.345	14362
897.466	14374
897.587	14419
897.708	14408
897.828	14492
897.949	14450
898.07	14336
898.19	14328
898.311	14613
898.431	14465
898.552	14434
898.672	14606
898.792	14689
898.913	14495
899.033	14431
899.153	14400
899.273	14237
899.393	14278
899.513	14324
899.633	14377
899.753	14324
899.873	14278
899.993	14381
900.113	14286
900.232	14339
900.352	14309
900.472	14240
900.591	14256
900.711	14221
900.83	14210
900.95	14301
901.069	14301
901.189	14138
901.308	13909
901.427	13871
901.546	13898
901.665	13951
901.784	13963
901.904	13643
902.023	13712
902.141	13422
902.26	13460
902.379	13537
902.498	13441
902.617	13343
902.735	13464
902.854	13510
902.973	13308
903.091	13183
903.21	13171
903.328	13225
903.446	13118
903.565	13050
903.683	13133
903.801	12943
903.919	13069
904.038	12993
904.156	12757
904.274	12920
904.392	12840
904.51	12897
904.627	12787
904.745	12970
904.863	12856
904.981	12612
905.098	12475
905.216	12566
905.334	12578
905.451	12509
905.569	12494
905.686	12566
905.803	12547
905.921	12289
906.038	12475
906.155	12414
906.272	12251
906.389	12346
906.506	12136
906.623	12136
906.74	12152
906.857	12102
906.974	12038
907.091	12220
907.208	12342
907.324	12129
907.441	12026
907.557	11882
907.674	11916
907.79	11824
907.907	11843
908.023	11931
908.139	11893
908.256	11779
908.372	11760
908.488	11817
908.604	11722
908.72	11532
908.836	11661
908.952	11638
909.068	11630
909.184	11802
909.3	11608
909.415	11695
909.531	11589
909.647	11395
909.762	11395
909.878	11280
909.993	11360
910.108	11402
910.224	11387
910.339	11402
910.454	11334
910.57	11280
910.685	11117
910.8	11554
910.915	11364
911.03	11330
911.145	11136
911.259	11124
911.374	11140
911.489	11006
911.604	10976
911.718	10831
911.833	10858
911.947	10717
912.062	10672
912.176	10824
912.291	10885
912.405	10904
912.519	11113
912.633	11113
912.748	10999
912.862	10923
912.976	10774
913.09	10637
913.204	10752
913.318	10706
913.431	10854
913.545	10866
913.659	10858
913.772	10755
913.886	10626
914	10554
914.113	10736
914.226	10793
914.34	10717
914.453	10580
914.566	10714
914.68	10630
914.793	10584
914.906	10360
915.019	10306
915.132	10261
915.245	10356
915.358	10405
915.47	10363
915.583	10413
915.696	10470
915.809	10580
915.921	10504
916.034	10447
916.146	10341
916.259	10265
916.371	10432
916.483	10405
916.595	10268
916.708	10341
916.82	10322
916.932	10303
917.044	10265
917.156	10291
917.268	10261
917.38	10276
917.491	10192
917.603	10219
917.715	10333
917.826	10257
917.938	10162
918.049	10131
918.161	10303
918.272	10386
918.384	10287
918.495	10265
918.606	10017
918.717	10002
918.828	10059
918.939	10101
919.05	9945
919.161	10109
919.272	9873
919.383	9972
919.494	10147
919.604	10333
919.715	10124
919.826	10021
919.936	9991
920.047	10181
920.157	10173
920.267	10341
920.378	10192
920.488	10071
920.598	10306
920.708	10504
920.818	10341
920.928	10306
921.038	10428
921.148	10447
921.258	10185
921.368	10093
921.477	10074
921.587	9918
921.697	9831
921.806	9972
921.916	9842
922.025	9797
922.134	9694
922.244	9644
922.353	9705
922.462	9641
922.571	9488
922.68	9405
922.789	9310
922.898	9382
923.007	9355
923.116	9405
923.224	9401
923.333	9348
923.442	9355
923.55	9188
923.659	9291
923.767	9283
923.876	9184
923.984	9340
924.092	9112
924.201	9287
924.309	9226
924.417	9214
924.525	9150
924.633	9157
924.741	10002
924.849	8956
924.956	9195
925.064	9005
925.172	8933
925.279	9051
925.387	9058
925.494	9036
925.602	9161
925.709	9066
925.816	8941
925.924	9112
926.031	9173
926.138	9032
926.245	9005
926.352	8918
926.459	9089
926.566	9237
926.673	9066
926.779	8876
926.886	8830
926.993	8743
927.099	8766
927.206	8708
927.312	8735
927.419	8838
927.525	8785
927.631	8788
927.737	8655
927.843	8686
927.95	8545
928.056	8606
928.162	8655
928.267	8754
928.373	9222
928.479	8754
928.585	8457
928.69	8651
928.796	8625
928.901	8533
929.007	8431
929.112	8564
929.218	8518
929.323	8473
929.428	8507
929.533	8583
929.638	8434
929.743	8427
929.848	8518
929.953	8423
930.058	8336
930.163	8195
930.267	8233
930.372	8434
930.477	8191
930.581	8476
930.685	8343
930.79	8206
930.894	8221
930.998	8183
931.103	8298
931.207	7963
931.311	7909
931.415	7833
931.519	7689
931.623	7677
