Data from test_V78500241_474.txt Node
Date: Fri Mar 25 14:37:01 CST 2022
User: usil
Spectrometer: V785-0024
Trigger mode: 0
Integration Time (sec): 4.000000E-1
Scans to average: 1
Nonlinearity correction enabled: false
Boxcar width: 0
Storing dark spectrum: false
XAxis mode: Wavelengths
Number of Pixels in Spectrum: 1024
>>>>>Begin Spectral Data<<<<<
801.071	26617
801.214	26461
801.356	26115
801.499	26081
801.641	26020
801.783	25993
801.926	25925
802.068	25898
802.211	25830
802.353	25765
802.496	25518
802.638	25624
802.78	25643
802.923	25362
803.065	25411
803.208	25392
803.35	25403
803.492	25525
803.635	25483
803.777	25487
803.919	25529
804.061	25887
804.204	25537
804.346	25377
804.488	25346
804.63	25304
804.773	25419
804.915	25453
805.057	25491
805.199	25419
805.341	25483
805.483	25445
805.626	25563
805.768	25445
805.91	25460
806.052	25537
806.194	25502
806.336	25704
806.478	25613
806.62	25460
806.762	25704
806.904	25822
807.046	25845
807.188	25845
807.33	25780
807.472	25822
807.614	25765
807.756	25696
807.898	25708
808.04	25651
808.182	25597
808.324	25772
808.465	25575
808.607	25784
808.749	25951
808.891	26153
809.033	26237
809.174	26134
809.316	25978
809.458	25875
809.6	25940
809.741	26024
809.883	26001
810.025	26309
810.166	26229
810.308	26130
810.45	26134
810.591	26084
810.733	25989
810.875	25761
811.016	25757
811.158	25639
811.299	26058
811.441	25989
811.582	25944
811.724	25845
811.865	25788
812.007	25845
812.148	25734
812.29	25871
812.431	25951
812.573	26145
812.714	26267
812.855	26278
812.997	26453
813.138	26480
813.279	26408
813.421	26202
813.562	26240
813.703	26119
813.845	25932
813.986	25620
814.127	25540
814.268	25464
814.41	25369
814.551	25381
814.692	25453
814.833	25217
814.974	25384
815.115	25343
815.256	25213
815.397	25206
815.539	25304
815.68	25129
815.821	25103
815.962	25179
816.103	25004
816.244	24871
816.385	24833
816.526	24681
816.666	24669
816.807	24574
816.948	24635
817.089	24620
817.23	24608
817.371	24494
817.512	24448
817.653	24361
817.793	24418
817.934	24509
818.075	24410
818.216	24445
818.356	24327
818.497	24254
818.638	24190
818.778	24239
818.919	24129
819.06	24289
819.2	24254
819.341	24357
819.481	24376
819.622	24509
819.762	24810
819.903	24616
820.043	24608
820.184	24429
820.324	24517
820.465	24547
820.605	24585
820.746	24467
820.886	24247
821.026	24422
821.167	24429
821.307	24452
821.447	24346
821.588	24258
821.728	24163
821.868	23961
822.008	23965
822.149	23836
822.289	23737
822.429	23661
822.569	23558
822.709	23531
822.849	23379
822.99	23265
823.13	23315
823.27	23212
823.41	23113
823.55	23014
823.69	23010
823.83	23098
823.97	22972
824.11	22942
824.25	22873
824.389	22812
824.529	22869
824.669	22790
824.809	22862
824.949	22885
825.089	22774
825.228	22877
825.368	22839
825.508	22672
825.648	22500
825.787	22812
825.927	22717
826.067	22637
826.206	22683
826.346	22417
826.485	22748
826.625	22736
826.765	22675
826.904	22805
827.044	22348
827.183	22291
827.323	22325
827.462	22371
827.601	22299
827.741	22306
827.88	22265
828.02	22173
828.159	22386
828.298	22394
828.437	22394
828.577	22291
828.716	22436
828.855	22150
828.994	22040
829.134	21998
829.273	22230
829.412	21918
829.551	21960
829.69	22036
829.829	21968
829.968	22112
830.107	22025
830.246	22013
830.385	21964
830.524	21941
830.663	21857
830.802	21591
830.941	21553
831.08	21530
831.219	21656
831.357	21644
831.496	21804
831.635	21504
831.774	21363
831.913	21408
832.051	21252
832.19	21317
832.329	21382
832.467	21393
832.606	21211
832.744	21146
832.883	21329
833.022	21123
833.16	21264
833.299	21199
833.437	21351
833.576	21317
833.714	21252
833.852	21249
833.991	21329
834.129	21313
834.267	21268
834.406	21173
834.544	21249
834.682	21211
834.821	21188
834.959	21374
835.097	21222
835.235	21260
835.373	21241
835.511	21291
835.65	21192
835.788	21169
835.926	20948
836.064	20906
836.202	20963
836.34	21028
836.478	21249
836.615	21123
836.753	21138
836.891	21093
837.029	21157
837.167	20963
837.305	20956
837.443	20967
837.58	20918
837.718	21135
837.856	20826
837.993	20811
838.131	20960
838.269	20845
838.406	20838
838.544	20853
838.681	20697
838.819	20686
838.956	20560
839.094	20396
839.231	20476
839.369	20659
839.506	20743
839.643	20625
839.781	20415
839.918	20256
840.055	20355
840.193	20374
840.33	20309
840.467	20252
840.604	20328
840.742	20617
840.879	20122
841.016	20153
841.153	20275
841.29	20412
841.427	20362
841.564	20259
841.701	20294
841.838	20298
841.975	20202
842.112	20153
842.249	20187
842.385	19982
842.522	20214
842.659	20065
842.796	20119
842.933	20027
843.069	19951
843.206	19928
843.343	20107
843.479	19997
843.616	20088
843.752	19879
843.889	19704
844.025	19947
844.162	19799
844.298	19925
844.435	19799
844.571	19776
844.708	19807
844.844	19909
844.98	19833
845.117	19841
845.253	19727
845.389	19677
845.525	19761
845.661	19746
845.798	19559
845.934	19658
846.07	19575
846.206	19681
846.342	19632
846.478	19491
846.614	19426
846.75	19289
846.886	19232
847.022	19221
847.158	19362
847.294	19350
847.429	19270
847.565	19263
847.701	19438
847.837	18993
847.972	18894
848.108	19084
848.244	19080
848.379	18821
848.515	18913
848.65	18848
848.786	18817
848.921	18973
849.057	18958
849.192	18989
849.328	18829
849.463	18715
849.598	18730
849.734	18779
849.869	18669
850.004	18623
850.14	18623
850.275	18631
850.41	18566
850.545	18620
850.68	18479
850.815	18502
850.95	18559
851.085	18677
851.22	18665
851.355	18559
851.49	18540
851.625	18536
851.76	18506
851.895	18323
852.03	18403
852.165	18544
852.299	18566
852.434	18532
852.569	18464
852.703	18498
852.838	18730
852.973	18642
853.107	18677
853.242	18601
853.376	18388
853.511	18254
853.645	18399
853.78	18566
853.914	18483
854.048	18346
854.183	18437
854.317	18384
854.451	18563
854.585	18350
854.72	18353
854.854	18388
854.988	18270
855.122	18384
855.256	18262
855.39	18407
855.524	18418
855.658	18372
855.792	18304
855.926	18323
856.06	18277
856.194	18452
856.327	18372
856.461	18388
856.595	18285
856.729	18388
856.862	18426
856.996	18235
857.13	18357
857.263	18471
857.397	18384
857.53	18334
857.664	18395
857.797	18384
857.931	18407
858.064	18243
858.197	18338
858.331	18365
858.464	18285
858.597	18251
858.731	18262
858.864	18315
858.997	18429
859.13	18338
859.263	18304
859.396	18342
859.529	18258
859.662	18258
859.795	18273
859.928	18304
860.061	18407
860.194	18460
860.327	18251
860.46	18350
860.592	18323
860.725	18460
860.858	18418
860.99	18216
861.123	18228
861.256	18239
861.388	18365
861.521	18935
861.653	18228
861.786	18171
861.918	18304
862.05	18266
862.183	18292
862.315	18399
862.447	18414
862.58	18243
862.712	18034
862.844	18022
862.976	18163
863.108	18106
863.24	18471
863.372	17950
863.504	17946
863.636	17977
863.768	18060
863.9	18057
864.032	18034
864.164	17942
864.296	17950
864.428	18083
864.559	18087
864.691	18022
864.823	18022
864.954	17897
865.086	17988
865.217	17912
865.349	17942
865.48	17988
865.612	17958
865.743	18049
865.875	18026
866.006	17954
866.137	18015
866.269	17916
866.4	17885
866.531	17912
866.662	17908
866.793	17920
866.924	17828
867.055	17939
867.186	17863
867.317	17859
867.448	17775
867.579	17942
867.71	17813
867.841	17798
867.972	17958
868.103	17927
868.233	17965
868.364	17885
868.495	17950
868.625	18102
868.756	18159
868.886	18110
869.017	18174
869.147	18285
869.278	18159
869.408	18209
869.539	18152
869.669	18171
869.799	18209
869.929	18273
870.06	18254
870.19	18448
870.32	18338
870.45	18418
870.58	18467
870.71	18673
870.84	18700
870.97	18456
871.1	18521
871.23	18684
871.36	18692
871.489	18684
871.619	18528
871.749	18681
871.879	18673
872.008	18772
872.138	18821
872.267	18798
872.397	18494
872.526	18681
872.656	18563
872.785	18559
872.915	18681
873.044	18741
873.173	18856
873.303	18719
873.432	18688
873.561	18817
873.69	18779
873.819	18768
873.948	18802
874.077	18817
874.206	18696
874.335	18745
874.464	18848
874.593	18993
874.722	18993
874.851	19076
874.979	18996
875.108	19084
875.237	18943
875.365	19072
875.494	18935
875.623	19053
875.751	19008
875.88	19012
876.008	19259
876.136	19266
876.265	19381
876.393	19578
876.521	19518
876.65	19434
876.778	19403
876.906	19335
877.034	19392
877.162	19369
877.29	19377
877.418	19502
877.546	19438
877.674	19396
877.802	19388
877.93	19354
878.058	19301
878.185	19396
878.313	19369
878.441	19411
878.568	19282
878.696	19304
878.824	19411
878.951	19506
879.079	19639
879.206	19715
879.333	19674
879.461	19514
879.588	19525
879.715	19597
879.842	19753
879.97	19525
880.097	19339
880.224	19221
880.351	19293
880.478	19346
880.605	19247
880.732	19343
880.859	19495
880.986	19266
881.112	19289
881.239	19255
881.366	19179
881.493	19050
881.619	18985
881.746	18840
881.872	18901
881.999	18833
882.125	18817
882.252	18928
882.378	18875
882.505	19023
882.631	18863
882.757	18760
882.883	18798
883.01	18677
883.136	18722
883.262	18559
883.388	18475
883.514	18589
883.64	18578
883.766	18684
883.892	18517
884.018	18483
884.143	18635
884.269	18703
884.395	18403
884.52	18357
884.646	18327
884.772	18342
884.897	18251
885.023	18266
885.148	18399
885.274	18547
885.399	18525
885.524	18304
885.65	18471
885.775	18380
885.9	18350
886.025	18494
886.15	18521
886.275	18346
886.4	18247
886.525	18315
886.65	18216
886.775	18129
886.9	18418
887.025	18582
887.149	18304
887.274	18095
887.399	18091
887.523	18087
887.648	17942
887.773	18106
887.897	18114
888.021	18308
888.146	18038
888.27	18232
888.395	18251
888.519	18205
888.643	18174
888.767	18182
888.891	18087
889.015	17950
889.139	18015
889.263	17923
889.387	18030
889.511	18045
889.635	18007
889.759	17821
889.883	17889
890.006	17935
890.13	17923
890.254	17840
890.377	17718
890.501	17691
890.624	17638
890.748	17691
890.871	17642
890.995	17596
891.118	17406
891.241	17570
891.364	17611
891.488	17703
891.611	17524
891.734	17520
891.857	17608
891.98	17509
892.103	17516
892.226	17566
892.349	17505
892.471	17410
892.594	17467
892.717	17623
892.839	17376
892.962	17482
893.085	17592
893.207	17471
893.33	17292
893.452	17482
893.575	17528
893.697	17501
893.819	17554
893.941	17714
894.064	17680
894.186	17463
894.308	17406
894.43	17520
894.552	17684
894.674	17539
894.796	17440
894.918	17585
895.04	17505
895.161	17615
895.283	17596
895.405	17486
895.526	17543
895.648	17474
895.769	17516
895.891	17661
896.012	17657
896.134	17589
896.255	17516
896.376	17600
896.498	17623
896.619	17668
896.74	17642
896.861	17551
896.982	17893
897.103	18072
897.224	17859
897.345	17908
897.466	17737
897.587	17767
897.708	17942
897.828	17897
897.949	17718
898.07	17653
898.19	17726
898.311	17836
898.431	17779
898.552	17813
898.672	17767
898.792	17904
898.913	17885
899.033	17752
899.153	17646
899.273	17520
899.393	17512
899.513	17551
899.633	17646
899.753	17589
899.873	17543
899.993	17623
900.113	17581
900.232	17547
900.352	17649
900.472	17455
900.591	17299
900.711	17482
900.83	17345
900.95	17520
901.069	17478
901.189	17379
901.308	17109
901.427	17041
901.546	17006
901.665	16995
901.784	17014
901.904	16904
902.023	16755
902.141	16755
902.26	16736
902.379	16641
902.498	16542
902.617	16500
902.735	16618
902.854	16527
902.973	16466
903.091	16261
903.21	16337
903.328	16268
903.446	16078
903.565	16029
903.683	16059
903.801	15964
903.919	15972
904.038	16071
904.156	15884
904.274	15960
904.392	15816
904.51	15857
904.627	15876
904.745	15960
904.863	15842
904.981	15671
905.098	15526
905.216	15523
905.334	15519
905.451	15542
905.569	15549
905.686	15553
905.803	15542
905.921	15321
906.038	15424
906.155	15313
906.272	15241
906.389	15329
906.506	15188
906.623	15039
906.74	15074
906.857	14899
906.974	15043
907.091	15100
907.208	15138
907.324	15131
907.441	14933
907.557	14804
907.674	14815
907.79	14762
907.907	14735
908.023	14712
908.139	14819
908.256	14674
908.372	14769
908.488	14625
908.604	14545
908.72	14537
908.836	14518
908.952	14434
909.068	14495
909.184	14621
909.3	14484
909.415	14438
909.531	14541
909.647	14237
909.762	14180
909.878	14286
909.993	14180
910.108	14138
910.224	14164
910.339	14187
910.454	14088
910.57	14081
910.685	13951
910.8	14332
910.915	14195
911.03	14069
911.145	13940
911.259	13799
911.374	13811
911.489	13727
911.604	13750
911.718	13563
911.833	13597
911.947	13468
912.062	13453
912.176	13624
912.291	13582
912.405	13590
912.519	13780
912.633	13666
912.748	13666
912.862	13575
912.976	13457
913.09	13308
913.204	13327
913.318	13529
913.431	13499
913.545	13468
913.659	13510
913.772	13441
913.886	13354
914	13255
914.113	13346
914.226	13369
914.34	13350
914.453	13168
914.566	13240
914.68	13225
914.793	13149
914.906	13019
915.019	12894
915.132	12894
915.245	12977
915.358	12973
915.47	12973
915.583	12981
915.696	13031
915.809	13012
915.921	13107
916.034	12856
916.146	12798
916.259	12867
916.371	12943
916.483	12859
916.595	12829
916.708	12840
916.82	12825
916.932	12867
917.044	12802
917.156	12738
917.268	12738
917.38	12665
917.491	12681
917.603	12711
917.715	12730
917.826	12700
917.938	12612
918.049	12559
918.161	12627
918.272	12821
918.384	12700
918.495	12597
918.606	12528
918.717	12441
918.828	12517
918.939	12490
919.05	12338
919.161	12456
919.272	12266
919.383	12292
919.494	12490
919.604	12627
919.715	12448
919.826	12308
919.936	12403
920.047	12616
920.157	12441
920.267	12703
920.378	12486
920.488	12407
920.598	12623
920.708	12791
920.818	12574
920.928	12555
921.038	12757
921.148	12631
921.258	12407
921.368	12342
921.477	12277
921.587	12190
921.697	12144
921.806	12243
921.916	12095
922.025	11855
922.134	11897
922.244	11843
922.353	11965
922.462	11843
922.571	11748
922.68	11570
922.789	11535
922.898	11524
923.007	11463
923.116	11627
923.224	11512
923.333	11520
923.442	11444
923.55	11379
923.659	11406
923.767	11425
923.876	11395
923.984	11486
924.092	11296
924.201	11391
924.309	11326
924.417	11356
924.525	11322
924.633	11349
924.741	12243
924.849	11056
924.956	11197
925.064	11079
925.172	11045
925.279	10999
925.387	11083
925.494	11086
925.602	11193
925.709	11132
925.816	11067
925.924	11090
926.031	11086
926.138	11098
926.245	11132
926.352	10908
926.459	11140
926.566	11033
926.673	11018
926.779	10984
926.886	10889
926.993	10793
927.099	10710
927.206	10596
927.312	10698
927.419	10805
927.525	10771
927.631	10820
927.737	10573
927.843	10527
927.95	10462
928.056	10565
928.162	10561
928.267	10615
928.373	11094
928.479	10748
928.585	10367
928.69	10493
928.796	10538
928.901	10462
929.007	10287
929.112	10432
929.218	10413
929.323	10409
929.428	10306
929.533	10402
929.638	10306
929.743	10295
929.848	10344
929.953	10299
930.058	10234
930.163	10112
930.267	10128
930.372	10227
930.477	10036
930.581	10280
930.685	10143
930.79	9960
930.894	10067
930.998	9975
931.103	10097
931.207	9774
931.311	9709
931.415	9572
931.519	9405
931.623	9424
