Data from test_V78500241_1067.txt Node
Date: Fri Mar 25 14:41:08 CST 2022
User: usil
Spectrometer: V785-0024
Trigger mode: 0
Integration Time (sec): 4.000000E-1
Scans to average: 1
Nonlinearity correction enabled: false
Boxcar width: 0
Storing dark spectrum: false
XAxis mode: Wavelengths
Number of Pixels in Spectrum: 1024
>>>>>Begin Spectral Data<<<<<
801.071	22782
801.214	22713
801.356	22394
801.499	22371
801.641	22070
801.783	22177
801.926	22204
802.068	22070
802.211	22070
802.353	21968
802.496	21743
802.638	21720
802.78	21557
802.923	21603
803.065	21477
803.208	21583
803.35	21370
803.492	21591
803.635	21705
803.777	21614
803.919	21583
804.061	21918
804.204	21644
804.346	21511
804.488	21408
804.63	21481
804.773	21302
804.915	21534
805.057	21694
805.199	21564
805.341	21576
805.483	21561
805.626	21622
805.768	21329
805.91	21374
806.052	21458
806.194	21348
806.336	21599
806.478	21485
806.62	21458
806.762	21477
806.904	21785
807.046	21937
807.188	21816
807.33	21831
807.472	21994
807.614	21873
807.756	21953
807.898	21713
808.04	21679
808.182	21785
808.324	21941
808.465	22013
808.607	22131
808.749	22447
808.891	22421
809.033	22630
809.174	22542
809.316	22219
809.458	22390
809.6	22101
809.741	22173
809.883	21987
810.025	22226
810.166	22109
810.308	22074
810.45	22078
810.591	21949
810.733	21842
810.875	21888
811.016	21622
811.158	21606
811.299	21671
811.441	21835
811.582	21709
811.724	21732
811.865	21682
812.007	21713
812.148	21679
812.29	21656
812.431	21831
812.573	22017
812.714	22036
812.855	22044
812.997	22185
813.138	22580
813.279	22352
813.421	22261
813.562	22063
813.703	21895
813.845	21869
813.986	21633
814.127	21355
814.268	21211
814.41	21302
814.551	21332
814.692	21176
814.833	21233
814.974	21108
815.115	21104
815.256	21077
815.397	21005
815.539	21051
815.68	20982
815.821	21013
815.962	20960
816.103	20861
816.244	20727
816.385	20724
816.526	20594
816.666	20541
816.807	20317
816.948	20423
817.089	20499
817.23	20404
817.371	20381
817.512	20408
817.653	20324
817.793	20332
817.934	20385
818.075	20461
818.216	20351
818.356	20328
818.497	20119
818.638	19974
818.778	20077
818.919	20050
819.06	20107
819.2	20119
819.341	20244
819.481	20240
819.622	20396
819.762	20484
819.903	20492
820.043	20484
820.184	20412
820.324	20244
820.465	20549
820.605	20282
820.746	20328
820.886	20176
821.026	20393
821.167	20271
821.307	20518
821.447	20176
821.588	20191
821.728	20008
821.868	19811
822.008	19704
822.149	19712
822.289	19753
822.429	19533
822.569	19400
822.709	19457
822.849	19232
822.99	19156
823.13	19175
823.27	19236
823.41	19061
823.55	18970
823.69	18970
823.83	19084
823.97	18863
824.11	18806
824.25	18844
824.389	18817
824.529	18901
824.669	18825
824.809	18951
824.949	18837
825.089	18871
825.228	18837
825.368	18658
825.508	18574
825.648	18665
825.787	18612
825.927	18673
826.067	18673
826.206	18513
826.346	18734
826.485	18726
826.625	18445
826.765	18696
826.904	18623
827.044	18338
827.183	18334
827.323	18266
827.462	18281
827.601	18232
827.741	18289
827.88	18327
828.02	18148
828.159	18144
828.298	18254
828.437	18319
828.577	18174
828.716	18433
828.855	18254
828.994	18095
829.134	18098
829.273	18148
829.412	17916
829.551	17882
829.69	17950
829.829	18003
829.968	18205
830.107	18117
830.246	18133
830.385	18019
830.524	17935
830.663	17889
830.802	17786
830.941	17699
831.08	17562
831.219	17687
831.357	17665
831.496	17851
831.635	17611
831.774	17551
831.913	17543
832.051	17448
832.19	17395
832.329	17490
832.467	17356
832.606	17227
832.744	17322
832.883	17265
833.022	17284
833.16	17463
833.299	17414
833.437	17315
833.576	17318
833.714	17391
833.852	17421
833.991	17452
834.129	17433
834.267	17444
834.406	17288
834.544	17459
834.682	17406
834.821	17444
834.959	17562
835.097	17303
835.235	17482
835.373	17364
835.511	17376
835.65	17239
835.788	17273
835.926	17140
836.064	17067
836.202	17220
836.34	17242
836.478	17349
836.615	17242
836.753	17417
836.891	17478
837.029	17239
837.167	17212
837.305	17239
837.443	17193
837.58	17071
837.718	17269
837.856	17250
837.993	17121
838.131	17140
838.269	17140
838.406	17079
838.544	17014
838.681	16885
838.819	16946
838.956	16778
839.094	16611
839.231	16694
839.369	16812
839.506	16930
839.643	16873
839.781	16778
839.918	16653
840.055	16622
840.193	16561
840.33	16687
840.467	16645
840.604	16790
840.742	16889
840.879	16519
841.016	16607
841.153	16611
841.29	16828
841.427	16733
841.564	16702
841.701	16759
841.838	16531
841.975	16649
842.112	16538
842.249	16504
842.385	16424
842.522	16607
842.659	16462
842.796	16428
842.933	16428
843.069	16481
843.206	16382
843.343	16611
843.479	16447
843.616	16459
843.752	16207
843.889	16329
844.025	16382
844.162	16226
844.298	16363
844.435	16265
844.571	16207
844.708	16261
844.844	16462
844.98	16390
845.117	16459
845.253	16268
845.389	16257
845.525	16379
845.661	16402
845.798	16611
845.934	16736
846.07	16725
846.206	16744
846.342	16740
846.478	16451
846.614	16120
846.75	15930
846.886	15869
847.022	15903
847.158	15892
847.294	15819
847.429	15755
847.565	15880
847.701	15964
847.837	15603
847.972	15481
848.108	15534
848.244	15530
848.379	15408
848.515	15424
848.65	15397
848.786	15367
848.921	15351
849.057	15477
849.192	15466
849.328	15405
849.463	15462
849.598	15348
849.734	15355
849.869	15310
850.004	15260
850.14	15207
850.275	15157
850.41	15123
850.545	15070
850.68	15142
850.815	15146
850.95	15093
851.085	15359
851.22	15336
851.355	15138
851.49	15135
851.625	15161
851.76	15169
851.895	15123
852.03	14990
852.165	15108
852.299	15165
852.434	15146
852.569	15233
852.703	15222
852.838	15214
852.973	15294
853.107	15291
853.242	15173
853.376	15089
853.511	14910
853.645	14967
853.78	15077
853.914	14929
854.048	15093
854.183	15013
854.317	15097
854.451	15127
854.585	15001
854.72	14967
854.854	15066
854.988	14876
855.122	15009
855.256	14990
855.39	14967
855.524	15062
855.658	15093
855.792	15062
855.926	15043
856.06	15013
856.194	15081
856.327	15001
856.461	14990
856.595	14960
856.729	15009
856.862	15077
856.996	15017
857.13	15116
857.263	15169
857.397	15119
857.53	14994
857.664	15017
857.797	15001
857.931	15214
858.064	15028
858.197	15142
858.331	14956
858.464	14933
858.597	14929
858.731	15077
858.864	14887
858.997	15020
859.13	15013
859.263	15024
859.396	15116
859.529	14937
859.662	14986
859.795	15017
859.928	15043
860.061	15051
860.194	15169
860.327	14990
860.46	14941
860.592	15176
860.725	15146
860.858	15066
860.99	14967
861.123	14967
861.256	14937
861.388	15108
861.521	15580
861.653	14902
861.786	14811
861.918	14925
862.05	14963
862.183	14952
862.315	14895
862.447	15005
862.58	14937
862.712	14636
862.844	14762
862.976	14804
863.108	14838
863.24	15283
863.372	14693
863.504	14716
863.636	14705
863.768	14902
863.9	14819
864.032	14617
864.164	14731
864.296	14739
864.428	14857
864.559	14853
864.691	14792
864.823	14819
864.954	14838
865.086	14788
865.217	14705
865.349	14689
865.48	14834
865.612	14724
865.743	14819
865.875	14758
866.006	14659
866.137	14689
866.269	14788
866.4	14739
866.531	14644
866.662	14720
866.793	14727
866.924	14629
867.055	14765
867.186	14731
867.317	14743
867.448	14644
867.579	14625
867.71	14705
867.841	14731
867.972	14754
868.103	14678
868.233	14792
868.364	14739
868.495	14811
868.625	14986
868.756	15112
868.886	14891
869.017	14956
869.147	15028
869.278	15100
869.408	15074
869.539	14956
869.669	15062
869.799	15032
869.929	15123
870.06	15135
870.19	15313
870.32	15256
870.45	15351
870.58	15287
870.71	15523
870.84	15416
870.97	15374
871.1	15401
871.23	15542
871.36	15641
871.489	15538
871.619	15542
871.749	15641
871.879	15679
872.008	15713
872.138	15595
872.267	15587
872.397	15466
872.526	15420
872.656	15393
872.785	15420
872.915	15618
873.044	15694
873.173	15637
873.303	15713
873.432	15701
873.561	15656
873.69	15755
873.819	15610
873.948	15713
874.077	15766
874.206	15603
874.335	15545
874.464	15861
874.593	15922
874.722	15846
874.851	16036
874.979	15979
875.108	15998
875.237	15930
875.365	15804
875.494	15911
875.623	16029
875.751	15911
875.88	15899
876.008	16173
876.136	16158
876.265	16348
876.393	16424
876.521	16474
876.65	16451
876.778	16390
876.906	16367
877.034	16280
877.162	16287
877.29	16257
877.418	16314
877.546	16314
877.674	16276
877.802	16432
877.93	16470
878.058	16382
878.185	16280
878.313	16421
878.441	16329
878.568	16265
878.696	16428
878.824	16344
878.951	16672
879.079	16664
879.206	16850
879.333	16862
879.461	16767
879.588	16752
879.715	16881
879.842	16949
879.97	16721
880.097	16428
880.224	16367
880.351	16398
880.478	16306
880.605	16257
880.732	16253
880.859	16417
880.986	16363
881.112	16329
881.239	16181
881.366	16124
881.493	16040
881.619	15949
881.746	15991
881.872	15937
881.999	15812
882.125	15884
882.252	15979
882.378	15899
882.505	16162
882.631	15842
882.757	15686
882.883	15873
883.01	15781
883.136	15663
883.262	15580
883.388	15652
883.514	15698
883.64	15774
883.766	15717
883.892	15538
884.018	15603
884.143	15701
884.269	15789
884.395	15481
884.52	15416
884.646	15481
884.772	15355
884.897	15443
885.023	15424
885.148	15641
885.274	15603
885.399	15557
885.524	15424
885.65	15447
885.775	15428
885.9	15408
886.025	15523
886.15	15523
886.275	15439
886.4	15393
886.525	15359
886.65	15351
886.775	15233
886.9	15553
887.025	15576
887.149	15500
887.274	15264
887.399	15233
887.523	15233
887.648	15066
887.773	15100
887.897	15298
888.021	15233
888.146	15169
888.27	15241
888.395	15367
888.519	15176
888.643	15237
888.767	15272
888.891	15188
889.015	15036
889.139	15138
889.263	15055
889.387	15100
889.511	15287
889.635	15260
889.759	15047
889.883	15085
890.006	14986
890.13	15119
890.254	15043
890.377	15032
890.501	14807
890.624	14785
890.748	14910
890.871	14815
890.995	14663
891.118	14648
891.241	14811
891.364	14785
891.488	14823
891.611	14804
891.734	14800
891.857	14762
891.98	14807
892.103	14807
892.226	14727
892.349	14655
892.471	14670
892.594	14682
892.717	14731
892.839	14712
892.962	14667
893.085	14899
893.207	14716
893.33	14701
893.452	14667
893.575	14765
893.697	14754
893.819	14823
893.941	14979
894.064	14838
894.186	14621
894.308	14648
894.43	14754
894.552	14876
894.674	14769
894.796	14697
894.918	14705
895.04	14735
895.161	14925
895.283	14739
895.405	14800
895.526	14823
895.648	14876
895.769	14845
895.891	14899
896.012	14887
896.134	14891
896.255	14963
896.376	14830
896.498	14902
896.619	14960
896.74	14857
896.861	14891
896.982	15222
897.103	15416
897.224	15161
897.345	15112
897.466	15112
897.587	15154
897.708	15317
897.828	15313
897.949	15131
898.07	15047
898.19	15127
898.311	15211
898.431	15093
898.552	15249
898.672	15363
898.792	15344
898.913	15230
899.033	15218
899.153	15039
899.273	15020
899.393	15058
899.513	15146
899.633	15001
899.753	15047
899.873	15001
899.993	15043
900.113	15093
900.232	15119
900.352	15005
900.472	14971
900.591	14777
900.711	14967
900.83	14819
900.95	15013
901.069	15055
901.189	14864
901.308	14667
901.427	14621
901.546	14579
901.665	14674
901.784	14606
901.904	14427
902.023	14347
902.141	14180
902.26	14134
902.379	14206
902.498	14077
902.617	14062
902.735	14107
902.854	14172
902.973	14039
903.091	13864
903.21	13890
903.328	13902
903.446	13822
903.565	13746
903.683	13765
903.801	13693
903.919	13776
904.038	13658
904.156	13499
904.274	13548
904.392	13540
904.51	13514
904.627	13533
904.745	13472
904.863	13529
904.981	13213
905.098	13110
905.216	13217
905.334	13282
905.451	13198
905.569	13149
905.686	13217
905.803	13160
905.921	12977
906.038	13168
906.155	13057
906.272	12825
906.389	12920
906.506	12825
906.623	12795
906.74	12749
906.857	12654
906.974	12646
907.091	12798
907.208	12882
907.324	12806
907.441	12730
907.557	12574
907.674	12498
907.79	12509
907.907	12525
908.023	12566
908.139	12616
908.256	12456
908.372	12403
908.488	12418
908.604	12232
908.72	12224
908.836	12232
908.952	12205
909.068	12323
909.184	12388
909.3	12319
909.415	12342
909.531	12258
909.647	11969
909.762	11980
909.878	11965
909.993	12045
910.108	12030
910.224	11965
910.339	11992
910.454	11885
910.57	11882
910.685	11893
910.8	12106
910.915	12022
911.03	11836
911.145	11699
911.259	11642
911.374	11726
911.489	11581
911.604	11562
911.718	11532
911.833	11493
911.947	11387
912.062	11311
912.176	11520
912.291	11440
912.405	11482
912.519	11653
912.633	11638
912.748	11581
912.862	11463
912.976	11353
913.09	11250
913.204	11239
913.318	11318
913.431	11455
913.545	11490
913.659	11474
913.772	11322
913.886	11254
914	11235
914.113	11337
914.226	11318
914.34	11334
914.453	11235
914.566	11288
914.68	11231
914.793	11166
914.906	10968
915.019	10873
915.132	10908
915.245	10949
915.358	10961
915.47	10972
915.583	10896
915.696	11018
915.809	11079
915.921	11083
916.034	10965
916.146	10908
916.259	10828
916.371	10987
916.483	10980
916.595	10809
916.708	10835
916.82	10831
916.932	10923
917.044	10839
917.156	10862
917.268	10771
917.38	10767
917.491	10729
917.603	10847
917.715	10816
917.826	10885
917.938	10843
918.049	10622
918.161	10710
918.272	10900
918.384	10889
918.495	10729
918.606	10618
918.717	10599
918.828	10702
918.939	10626
919.05	10512
919.161	10672
919.272	10455
919.383	10554
919.494	10733
919.604	10839
919.715	10569
919.826	10569
919.936	10565
920.047	10706
920.157	10656
920.267	10790
920.378	10687
920.488	10645
920.598	10839
920.708	11010
920.818	10919
920.928	10797
921.038	10972
921.148	10976
921.258	10714
921.368	10618
921.477	10519
921.587	10531
921.697	10352
921.806	10474
921.916	10371
922.025	10196
922.134	10128
922.244	10158
922.353	10268
922.462	10044
922.571	10044
922.68	9918
922.789	9842
922.898	9903
923.007	9770
923.116	9945
923.224	9873
923.333	9846
923.442	9778
923.55	9743
923.659	9762
923.767	9865
923.876	9717
923.984	9854
924.092	9648
924.201	9717
924.309	9724
924.417	9652
924.525	9671
924.633	9660
924.741	10569
924.849	9500
924.956	9557
925.064	9564
925.172	9458
925.279	9454
925.387	9496
925.494	9557
925.602	9553
925.709	9618
925.816	9351
925.924	9473
926.031	9584
926.138	9564
926.245	9515
926.352	9424
926.459	9606
926.566	9599
926.673	9473
926.779	9260
926.886	9370
926.993	9173
927.099	9188
927.206	9176
927.312	9108
927.419	9230
927.525	9226
927.631	9207
927.737	9104
927.843	9104
927.95	8982
928.056	9150
928.162	9066
928.267	9116
928.373	9827
928.479	9176
928.585	8918
928.69	9077
928.796	9043
928.901	8990
929.007	8861
929.112	9032
929.218	9017
929.323	8975
929.428	8861
929.533	9032
929.638	8815
929.743	8834
929.848	8979
929.953	8895
930.058	8800
930.163	8659
930.267	8651
930.372	8777
930.477	8632
930.581	8868
930.685	8731
930.79	8564
930.894	8625
930.998	8613
931.103	8777
931.207	8366
931.311	8317
931.415	8248
931.519	8107
931.623	8081
