Data from test_V78500241_97.txt Node
Date: Fri Mar 25 14:34:24 CST 2022
User: usil
Spectrometer: V785-0024
Trigger mode: 0
Integration Time (sec): 4.000000E-1
Scans to average: 1
Nonlinearity correction enabled: false
Boxcar width: 0
Storing dark spectrum: false
XAxis mode: Wavelengths
Number of Pixels in Spectrum: 1024
>>>>>Begin Spectral Data<<<<<
801.071	29033
801.214	29044
801.356	28748
801.499	28782
801.641	28611
801.783	28607
801.926	28649
802.068	28512
802.211	28436
802.353	28428
802.496	28215
802.638	28230
802.78	27972
802.923	27972
803.065	28021
803.208	28090
803.35	28207
803.492	28211
803.635	28310
803.777	28112
803.919	28219
804.061	28538
804.204	28188
804.346	28021
804.488	28074
804.63	28124
804.773	28101
804.915	28196
805.057	28242
805.199	28166
805.341	28143
805.483	28318
805.626	28306
805.768	28207
805.91	28276
806.052	28272
806.194	28242
806.336	28546
806.478	28500
806.62	28440
806.762	28459
806.904	28759
807.046	28934
807.188	29018
807.33	28976
807.472	29083
807.614	29010
807.756	29109
807.898	29121
808.04	29258
808.182	29478
808.324	29775
808.465	30102
808.607	30483
808.749	30825
808.891	31156
809.033	31057
809.174	30795
809.316	30448
809.458	30247
809.6	29939
809.741	29703
809.883	29596
810.025	29535
810.166	29505
810.308	29387
810.45	29372
810.591	29109
810.733	28911
810.875	28858
811.016	28816
811.158	28778
811.299	28949
811.441	28915
811.582	28930
811.724	28809
811.865	28774
812.007	28831
812.148	28759
812.29	28782
812.431	28972
812.573	29121
812.714	29121
812.855	29128
812.997	29273
813.138	29444
813.279	29349
813.421	29258
813.562	29052
813.703	28972
813.845	28869
813.986	28645
814.127	28554
814.268	28394
814.41	28401
814.551	28325
814.692	28341
814.833	28280
814.974	28242
815.115	28329
815.256	28109
815.397	28105
815.539	28082
815.68	27956
815.821	27922
815.962	27983
816.103	27987
816.244	27903
816.385	27652
816.526	27797
816.666	27481
816.807	27351
816.948	27389
817.089	27458
817.23	27336
817.371	27310
817.512	27431
817.653	27317
817.793	27245
817.934	27306
818.075	27359
818.216	27382
818.356	27214
818.497	27230
818.638	26990
818.778	27093
818.919	27112
819.06	27009
819.2	27146
819.341	27131
819.481	27363
819.622	27302
819.762	27580
819.903	27427
820.043	27488
820.184	27203
820.324	27310
820.465	27363
820.605	27230
820.746	27367
820.886	27272
821.026	27245
821.167	27173
821.307	27230
821.447	27146
821.588	27081
821.728	26921
821.868	26773
822.008	26598
822.149	26659
822.289	26552
822.429	26351
822.569	26275
822.709	26218
822.849	26100
822.99	26069
823.13	26001
823.27	25932
823.41	25845
823.55	25780
823.69	25963
823.83	25974
823.97	25898
824.11	25666
824.25	25559
824.389	25552
824.529	25826
824.669	25685
824.809	25681
824.949	25639
825.089	25537
825.228	25742
825.368	25483
825.508	25445
825.648	25411
825.787	25426
825.927	25540
826.067	25403
826.206	25419
826.346	25384
826.485	25373
826.625	25521
826.765	25476
826.904	25384
827.044	25225
827.183	25126
827.323	25133
827.462	25065
827.601	25061
827.741	24947
827.88	25091
828.02	24928
828.159	24996
828.298	25050
828.437	25088
828.577	24890
828.716	25187
828.855	24989
828.994	24787
829.134	24829
829.273	24779
829.412	24658
829.551	24715
829.69	24639
829.829	24749
829.968	24734
830.107	24730
830.246	24677
830.385	24677
830.524	24585
830.663	24422
830.802	24483
830.941	24399
831.08	24304
831.219	24448
831.357	24376
831.496	24399
831.635	24224
831.774	24273
831.913	24060
832.051	24068
832.19	23992
832.329	24041
832.467	23946
832.606	24022
832.744	23923
832.883	23927
833.022	23939
833.16	23980
833.299	24060
833.437	24018
833.576	23942
833.714	23992
833.852	24064
833.991	24057
834.129	24064
834.267	24133
834.406	23984
834.544	24015
834.682	23912
834.821	23973
834.959	24060
835.097	23901
835.235	23916
835.373	23813
835.511	23923
835.65	23775
835.788	23684
835.926	23718
836.064	23471
836.202	23478
836.34	23573
836.478	23824
836.615	23562
836.753	23676
836.891	23710
837.029	23748
837.167	23661
837.305	23653
837.443	23642
837.58	23531
837.718	23501
837.856	23539
837.993	23558
838.131	23551
838.269	23398
838.406	23288
838.544	23364
838.681	23174
838.819	23083
838.956	22987
839.094	22938
839.231	23006
839.369	23105
839.506	23284
839.643	23143
839.781	22942
839.918	22801
840.055	22991
840.193	22752
840.33	22900
840.467	22797
840.604	22835
840.742	23083
840.879	22687
841.016	22683
841.153	22634
841.29	22843
841.427	22717
841.564	22809
841.701	22782
841.838	22755
841.975	22573
842.112	22717
842.249	22519
842.385	22596
842.522	22763
842.659	22615
842.796	22462
842.933	22409
843.069	22398
843.206	22360
843.343	22508
843.479	22417
843.616	22497
843.752	22261
843.889	22409
844.025	22523
844.162	22230
844.298	22287
844.435	22257
844.571	22276
844.708	22390
844.844	22542
844.98	22565
845.117	22588
845.253	22443
845.389	22371
845.525	22919
845.661	23429
845.798	24018
845.934	24631
846.07	24684
846.206	24525
846.342	24270
846.478	23699
846.614	22885
846.75	22428
846.886	22128
847.022	22063
847.158	21941
847.294	21778
847.429	21895
847.565	21679
847.701	21941
847.837	21302
847.972	21439
848.108	21481
848.244	21420
848.379	21214
848.515	21173
848.65	21207
848.786	21176
848.921	21252
849.057	21306
849.192	21405
849.328	21310
849.463	21291
849.598	21218
849.734	21157
849.869	21055
850.004	20918
850.14	21017
850.275	20998
850.41	20823
850.545	20868
850.68	20944
850.815	21074
850.95	20910
851.085	21123
851.22	21062
851.355	20842
851.49	20807
851.625	20876
851.76	20857
851.895	20868
852.03	20815
852.165	20937
852.299	20933
852.434	20914
852.569	20868
852.703	20872
852.838	20868
852.973	21017
853.107	20921
853.242	20819
853.376	20731
853.511	20712
853.645	20800
853.78	20941
853.914	20941
854.048	20750
854.183	20807
854.317	20788
854.451	20819
854.585	20689
854.72	20804
854.854	20902
854.988	20667
855.122	20644
855.256	20655
855.39	20811
855.524	20716
855.658	20750
855.792	20792
855.926	20785
856.06	20720
856.194	20762
856.327	20788
856.461	20720
856.595	20594
856.729	20678
856.862	20796
856.996	20644
857.13	20754
857.263	20887
857.397	20739
857.53	20629
857.664	20712
857.797	20674
857.931	20834
858.064	20583
858.197	20689
858.331	20568
858.464	20537
858.597	20556
858.731	20549
858.864	20644
858.997	20579
859.13	20594
859.263	20602
859.396	20659
859.529	20575
859.662	20552
859.795	20522
859.928	20602
860.061	20765
860.194	20804
860.327	20708
860.46	20514
860.592	20724
860.725	20838
860.858	20727
860.99	20484
861.123	20511
861.256	20613
861.388	20621
861.521	21272
861.653	20488
861.786	20415
861.918	20537
862.05	20568
862.183	20583
862.315	20606
862.447	20629
862.58	20575
862.712	20442
862.844	20366
862.976	20404
863.108	20339
863.24	20667
863.372	20282
863.504	20275
863.636	20294
863.768	20457
863.9	20286
864.032	20256
864.164	20237
864.296	20355
864.428	20450
864.559	20431
864.691	20355
864.823	20271
864.954	20320
865.086	20263
865.217	20286
865.349	20271
865.48	20172
865.612	20081
865.743	20320
865.875	20324
866.006	20206
866.137	20282
866.269	20267
866.4	20286
866.531	20263
866.662	20153
866.793	20195
866.924	20161
867.055	20187
867.186	20111
867.317	20138
867.448	20088
867.579	20161
867.71	20005
867.841	20054
867.972	20077
868.103	20134
868.233	20164
868.364	20195
868.495	20187
868.625	20400
868.756	20423
868.886	20298
869.017	20336
869.147	20358
869.278	20412
869.408	20347
869.539	20351
869.669	20366
869.799	20400
869.929	20301
870.06	20259
870.19	20617
870.32	20609
870.45	20636
870.58	20796
870.71	20800
870.84	20876
870.97	20705
871.1	20670
871.23	20868
871.36	20910
871.489	20918
871.619	20952
871.749	20937
871.879	20941
872.008	21039
872.138	20895
872.267	20918
872.397	20849
872.526	20777
872.656	20815
872.785	20834
872.915	20971
873.044	21100
873.173	21066
873.303	21009
873.432	21096
873.561	21085
873.69	20998
873.819	20963
873.948	21104
874.077	20971
874.206	20792
874.335	21009
874.464	21218
874.593	21214
874.722	21195
874.851	21218
874.979	21184
875.108	21325
875.237	21207
875.365	21245
875.494	21237
875.623	21249
875.751	21310
875.88	21363
876.008	21374
876.136	21542
876.265	21739
876.393	21759
876.521	21880
876.65	21759
876.778	21625
876.906	21717
877.034	21682
877.162	21724
877.29	21686
877.418	21709
877.546	21747
877.674	21804
877.802	21800
877.93	21724
878.058	21614
878.185	21675
878.313	21937
878.441	21797
878.568	21759
878.696	21846
878.824	22029
878.951	22211
879.079	22466
879.206	22626
879.333	22930
879.461	22793
879.588	23025
879.715	23098
879.842	23052
879.97	22812
880.097	22436
880.224	22059
880.351	22177
880.478	21789
880.605	21941
880.732	21915
880.859	22070
880.986	21800
881.112	21880
881.239	21755
881.366	21549
881.493	21515
881.619	21447
881.746	21378
881.872	21424
881.999	21382
882.125	21462
882.252	21526
882.378	21378
882.505	21682
882.631	21405
882.757	21272
882.883	21131
883.01	21116
883.136	21123
883.262	21028
883.388	21093
883.514	21207
883.64	21176
883.766	21066
883.892	21013
884.018	20941
884.143	21104
884.269	21138
884.395	20876
884.52	20883
884.646	20887
884.772	20727
884.897	20819
885.023	20792
885.148	20876
885.274	21005
885.399	20899
885.524	20800
885.65	20769
885.775	20796
885.9	20655
886.025	20762
886.15	20785
886.275	20552
886.4	20533
886.525	20655
886.65	20533
886.775	20484
886.9	20651
887.025	20796
887.149	20594
887.274	20446
887.399	20408
887.523	20313
887.648	20244
887.773	20324
887.897	20355
888.021	20408
888.146	20267
888.27	20412
888.395	20503
888.519	20324
888.643	20202
888.767	20454
888.891	20180
889.015	20107
889.139	20233
889.263	20058
889.387	20252
889.511	20191
889.635	20237
889.759	20062
889.883	20020
890.006	20062
890.13	20172
890.254	19925
890.377	20008
890.501	19826
890.624	19864
890.748	19967
890.871	19670
890.995	19620
891.118	19540
891.241	19613
891.364	19643
891.488	19757
891.611	19590
891.734	19624
891.857	19605
891.98	19605
892.103	19601
892.226	19521
892.349	19571
892.471	19320
892.594	19495
892.717	19476
892.839	19605
892.962	19563
893.085	19445
893.207	19601
893.33	19343
893.452	19438
893.575	19502
893.697	19495
893.819	19719
893.941	19575
894.064	19632
894.186	19480
894.308	19354
894.43	19518
894.552	19518
894.674	19510
894.796	19392
894.918	19468
895.04	19438
895.161	19510
895.283	19567
895.405	19403
895.526	19407
895.648	19438
895.769	19483
895.891	19525
896.012	19506
896.134	19540
896.255	19495
896.376	19434
896.498	19578
896.619	19632
896.74	19597
896.861	19529
896.982	19879
897.103	19959
897.224	19765
897.345	19681
897.466	19597
897.587	19731
897.708	19868
897.828	19620
897.949	19670
898.07	19658
898.19	19693
898.311	19845
898.431	19651
898.552	19670
898.672	19772
898.792	19757
898.913	19734
899.033	19590
899.153	19472
899.273	19171
899.393	19312
899.513	19327
899.633	19499
899.753	19335
899.873	19339
899.993	19548
900.113	19392
900.232	19327
900.352	19365
900.472	19244
900.591	19232
900.711	19289
900.83	19270
900.95	19384
901.069	19308
901.189	19168
901.308	18875
901.427	18852
901.546	18844
901.665	18768
901.784	18833
901.904	18726
902.023	18673
902.141	18353
902.26	18376
902.379	18521
902.498	18315
902.617	18281
902.735	18296
902.854	18251
902.973	18235
903.091	18034
903.21	17999
903.328	17893
903.446	17863
903.565	17843
903.683	17764
903.801	17695
903.919	17726
904.038	17722
904.156	17570
904.274	17615
904.392	17433
904.51	17577
904.627	17532
904.745	17516
904.863	17474
904.981	17334
905.098	17220
905.216	17155
905.334	17162
905.451	17094
905.569	17246
905.686	17193
905.803	17151
905.921	17010
906.038	17064
906.155	16869
906.272	16862
906.389	16820
906.506	16664
906.623	16691
906.74	16713
906.857	16519
906.974	16565
907.091	16664
907.208	16835
907.324	16748
907.441	16523
907.557	16462
907.674	16451
907.79	16390
907.907	16367
908.023	16436
908.139	16333
908.256	16318
908.372	16246
908.488	16257
908.604	16097
908.72	16109
908.836	16097
908.952	16040
909.068	16017
909.184	16150
909.3	15991
909.415	16021
909.531	15975
909.647	15827
909.762	15743
909.878	15705
909.993	15759
910.108	15682
910.224	15698
910.339	15603
910.454	15644
910.57	15542
910.685	15466
910.8	15690
910.915	15660
911.03	15561
911.145	15397
911.259	15378
911.374	15370
911.489	15222
911.604	15272
911.718	15100
911.833	15047
911.947	14986
912.062	14990
912.176	15020
912.291	15066
912.405	15051
912.519	15237
912.633	15275
912.748	15032
912.862	14994
912.976	14838
913.09	14857
913.204	14883
913.318	14842
913.431	15028
913.545	14918
913.659	14960
913.772	14895
913.886	14727
914	14712
914.113	14781
914.226	14853
914.34	14758
914.453	14594
914.566	14754
914.68	14689
914.793	14514
914.906	14412
915.019	14294
915.132	14237
915.245	14343
915.358	14362
915.47	14282
915.583	14298
915.696	14294
915.809	14438
915.921	14499
916.034	14290
916.146	14191
916.259	14225
916.371	14271
916.483	14320
916.595	14145
916.708	14252
916.82	14229
916.932	14195
917.044	14183
917.156	14077
917.268	14016
917.38	13970
917.491	13978
917.603	13932
917.715	14107
917.826	14115
917.938	13940
918.049	13814
918.161	13963
918.272	14043
918.384	14008
918.495	13864
918.606	13890
918.717	13769
918.828	13738
918.939	13772
919.05	13624
919.161	13734
919.272	13571
919.383	13548
919.494	13750
919.604	13967
919.715	13700
919.826	13662
919.936	13628
920.047	13769
920.157	13689
920.267	13845
920.378	13696
920.488	13620
920.598	13898
920.708	13970
920.818	13860
920.928	13780
921.038	14001
921.148	13868
921.258	13616
921.368	13559
921.477	13514
921.587	13441
921.697	13320
921.806	13460
921.916	13304
922.025	13118
922.134	13091
922.244	13057
922.353	13175
922.462	13023
922.571	12856
922.68	12703
922.789	12772
922.898	12779
923.007	12597
923.116	12764
923.224	12696
923.333	12692
923.442	12597
923.55	12555
923.659	12601
923.767	12715
923.876	12532
923.984	12601
924.092	12536
924.201	12483
924.309	12490
924.417	12502
924.525	12471
924.633	12456
924.741	13354
924.849	12304
924.956	12372
925.064	12220
925.172	12163
925.279	12186
925.387	12114
925.494	12224
925.602	12410
925.709	12144
925.816	12114
925.924	12106
926.031	12262
926.138	12152
926.245	12186
926.352	12125
926.459	12213
926.566	12194
926.673	12106
926.779	11961
926.886	11980
926.993	11786
927.099	11832
927.206	11752
927.312	11741
927.419	11802
927.525	11733
927.631	11813
927.737	11668
927.843	11611
927.95	11486
928.056	11604
928.162	11608
928.267	11634
928.373	12209
928.479	11676
928.585	11471
928.69	11543
928.796	11562
928.901	11558
929.007	11448
929.112	11570
929.218	11444
929.323	11444
929.428	11360
929.533	11512
929.638	11296
929.743	11250
929.848	11337
929.953	11292
930.058	11151
930.163	11124
930.267	11064
930.372	11098
930.477	10991
930.581	11147
930.685	11174
930.79	10927
930.894	10896
930.998	10892
931.103	11022
931.207	10763
931.311	10637
931.415	10500
931.519	10341
931.623	10310
