Data from test_V78500241_194.txt Node
Date: Fri Mar 25 14:35:04 CST 2022
User: usil
Spectrometer: V785-0024
Trigger mode: 0
Integration Time (sec): 4.000000E-1
Scans to average: 1
Nonlinearity correction enabled: false
Boxcar width: 0
Storing dark spectrum: false
XAxis mode: Wavelengths
Number of Pixels in Spectrum: 1024
>>>>>Begin Spectral Data<<<<<
801.071	28253
801.214	28150
801.356	27975
801.499	27827
801.641	27648
801.783	27530
801.926	27606
802.068	27583
802.211	27568
802.353	27405
802.496	27249
802.638	27260
802.78	27180
802.923	27009
803.065	27135
803.208	27074
803.35	27112
803.492	27165
803.635	27150
803.777	27188
803.919	27355
804.061	27663
804.204	27386
804.346	27135
804.488	27154
804.63	27104
804.773	26986
804.915	27214
805.057	27351
805.199	27150
805.341	27245
805.483	27351
805.626	27180
805.768	27116
805.91	27256
806.052	27291
806.194	27173
806.336	27561
806.478	27408
806.62	27348
806.762	27412
806.904	27572
807.046	27766
807.188	27766
807.33	27781
807.472	27736
807.614	27603
807.756	27892
807.898	27770
808.04	27766
808.182	27903
808.324	27987
808.465	28082
808.607	28447
808.749	28744
808.891	28824
809.033	28850
809.174	28729
809.316	28588
809.458	28375
809.6	28295
809.741	28131
809.883	28154
810.025	28219
810.166	28109
810.308	28128
810.45	28109
810.591	27918
810.733	27682
810.875	27724
811.016	27751
811.158	27530
811.299	27709
811.441	27816
811.582	27846
811.724	27610
811.865	27622
812.007	27439
812.148	27644
812.29	27720
812.431	27861
812.573	27960
812.714	28010
812.855	27987
812.997	28223
813.138	28211
813.279	28295
813.421	28101
813.562	27987
813.703	27808
813.845	27755
813.986	27405
814.127	27298
814.268	27173
814.41	27173
814.551	27074
814.692	27131
814.833	27135
814.974	27013
815.115	27233
815.256	27020
815.397	26880
815.539	27013
815.68	26960
815.821	26845
815.962	26876
816.103	26914
816.244	26792
816.385	26514
816.526	26473
816.666	26381
816.807	26229
816.948	26434
817.089	26473
817.23	26396
817.371	26313
817.512	26332
817.653	26233
817.793	26149
817.934	26229
818.075	26298
818.216	26130
818.356	26214
818.497	26031
818.638	25997
818.778	25932
818.919	26043
819.06	25940
819.2	26149
819.341	26065
819.481	26153
819.622	26206
819.762	26389
819.903	26461
820.043	26301
820.184	26336
820.324	26351
820.465	26343
820.605	26347
820.746	26267
820.886	25959
821.026	26294
821.167	26069
821.307	26244
821.447	26130
821.588	25997
821.728	25807
821.868	25791
822.008	25632
822.149	25537
822.289	25544
822.429	25247
822.569	25270
822.709	25251
822.849	24973
822.99	24973
823.13	25012
823.27	25019
823.41	24707
823.55	24779
823.69	24787
823.83	24753
823.97	24715
824.11	24616
824.25	24597
824.389	24612
824.529	24604
824.669	24635
824.809	24673
824.949	24760
825.089	24684
825.228	24589
825.368	24483
825.508	24334
825.648	24429
825.787	24433
825.927	24391
826.067	24418
826.206	24422
826.346	24327
826.485	24437
826.625	24346
826.765	24471
826.904	24452
827.044	24110
827.183	24068
827.323	24034
827.462	24155
827.601	24015
827.741	23950
827.88	24095
828.02	23912
828.159	23908
828.298	24079
828.437	23980
828.577	23912
828.716	24102
828.855	23950
828.994	23741
829.134	23813
829.273	23737
829.412	23695
829.551	23680
829.69	23676
829.829	23665
829.968	23703
830.107	23710
830.246	23714
830.385	23589
830.524	23627
830.663	23531
830.802	23440
830.941	23349
831.08	23223
831.219	23360
831.357	23345
831.496	23490
831.635	23341
831.774	23128
831.913	23178
832.051	22984
832.19	23014
832.329	23033
832.467	22930
832.606	22949
832.744	23014
832.883	22908
833.022	22828
833.16	22976
833.299	22949
833.437	22797
833.576	22873
833.714	22938
833.852	23025
833.991	22930
834.129	23071
834.267	23033
834.406	23094
834.544	22953
834.682	22831
834.821	22889
834.959	23147
835.097	22904
835.235	22908
835.373	22927
835.511	22892
835.65	22748
835.788	22793
835.926	22577
836.064	22580
836.202	22481
836.34	22596
836.478	22820
836.615	22641
836.753	22774
836.891	22744
837.029	22755
837.167	22546
837.305	22752
837.443	22561
837.58	22557
837.718	22698
837.856	22611
837.993	22615
838.131	22531
838.269	22424
838.406	22413
838.544	22386
838.681	22295
838.819	22162
838.956	22059
839.094	21934
839.231	21987
839.369	22101
839.506	22398
839.643	22173
839.781	22032
839.918	21827
840.055	21991
840.193	21804
840.33	21827
840.467	21819
840.604	21819
840.742	22112
840.879	21652
841.016	21778
841.153	21873
841.29	21899
841.427	21960
841.564	21857
841.701	21804
841.838	21720
841.975	21682
842.112	21759
842.249	21698
842.385	21599
842.522	21793
842.659	21690
842.796	21568
842.933	21599
843.069	21583
843.206	21488
843.343	21583
843.479	21564
843.616	21557
843.752	21389
843.889	21458
844.025	21454
844.162	21450
844.298	21405
844.435	21302
844.571	21252
844.708	21329
844.844	21462
844.98	21568
845.117	21534
845.253	21378
845.389	21428
845.525	21504
845.661	21797
845.798	22002
845.934	22185
846.07	22352
846.206	22169
846.342	22284
846.478	21911
846.614	21389
846.75	21032
846.886	21032
847.022	21089
847.158	20876
847.294	20895
847.429	20933
847.565	20876
847.701	21096
847.837	20571
847.972	20488
848.108	20579
848.244	20609
848.379	20396
848.515	20305
848.65	20233
848.786	20195
848.921	20240
849.057	20431
849.192	20404
849.328	20290
849.463	20191
849.598	20339
849.734	20286
849.869	20286
850.004	20081
850.14	20122
850.275	20149
850.41	19936
850.545	19951
850.68	20012
850.815	20035
850.95	20020
851.085	20084
851.22	20100
851.355	20062
851.49	20024
851.625	19993
851.76	20020
851.895	19906
852.03	19970
852.165	19986
852.299	20024
852.434	20012
852.569	20020
852.703	20077
852.838	20096
852.973	20218
853.107	20221
853.242	20001
853.376	19860
853.511	19856
853.645	19780
853.78	19894
853.914	19864
854.048	19776
854.183	19799
854.317	19974
854.451	19970
854.585	19811
854.72	19868
854.854	19875
854.988	19799
855.122	19734
855.256	19719
855.39	19921
855.524	19947
855.658	19883
855.792	19845
855.926	19917
856.06	19879
856.194	19917
856.327	19708
856.461	19731
856.595	19799
856.729	19833
856.862	20016
856.996	19826
857.13	19925
857.263	19822
857.397	19902
857.53	19803
857.664	19887
857.797	19860
857.931	19788
858.064	19788
858.197	19936
858.331	19731
858.464	19734
858.597	19742
858.731	19761
858.864	19799
858.997	19780
859.13	19788
859.263	19750
859.396	19849
859.529	19761
859.662	19727
859.795	19791
859.928	19693
860.061	19917
860.194	19959
860.327	19746
860.46	19769
860.592	19883
860.725	19868
860.858	19852
860.99	19693
861.123	19715
861.256	19658
861.388	19738
861.521	20358
861.653	19677
861.786	19521
861.918	19632
862.05	19750
862.183	19734
862.315	19841
862.447	19738
862.58	19772
862.712	19548
862.844	19487
862.976	19548
863.108	19499
863.24	19772
863.372	19400
863.504	19438
863.636	19381
863.768	19491
863.9	19384
864.032	19457
864.164	19521
864.296	19434
864.428	19556
864.559	19578
864.691	19453
864.823	19537
864.954	19388
865.086	19407
865.217	19392
865.349	19316
865.48	19384
865.612	19369
865.743	19430
865.875	19327
866.006	19217
866.137	19343
866.269	19426
866.4	19274
866.531	19331
866.662	19274
866.793	19228
866.924	19247
867.055	19343
867.186	19358
867.317	19335
867.448	19164
867.579	19217
867.71	19164
867.841	19247
867.972	19293
868.103	19202
868.233	19312
868.364	19209
868.495	19320
868.625	19578
868.756	19647
868.886	19460
869.017	19483
869.147	19567
869.278	19750
869.408	19426
869.539	19590
869.669	19567
869.799	19472
869.929	19624
870.06	19597
870.19	19822
870.32	19830
870.45	19841
870.58	19913
870.71	20039
870.84	19967
870.97	19902
871.1	19898
871.23	20058
871.36	20062
871.489	20001
871.619	20073
871.749	20088
871.879	20096
872.008	20225
872.138	20180
872.267	20054
872.397	19997
872.526	19894
872.656	20005
872.785	20005
872.915	20172
873.044	20157
873.173	20130
873.303	20214
873.432	20229
873.561	20320
873.69	20168
873.819	20210
873.948	20164
874.077	20161
874.206	20062
874.335	20237
874.464	20309
874.593	20396
874.722	20366
874.851	20415
874.979	20495
875.108	20431
875.237	20313
875.365	20282
875.494	20385
875.623	20484
875.751	20389
875.88	20533
876.008	20606
876.136	20541
876.265	20815
876.393	21043
876.521	20956
876.65	20982
876.778	20948
876.906	20872
877.034	20785
877.162	20899
877.29	20777
877.418	20788
877.546	20975
877.674	20811
877.802	20697
877.93	20788
878.058	20864
878.185	20746
878.313	20788
878.441	20948
878.568	20746
878.696	20834
878.824	21058
878.951	21058
879.079	21336
879.206	21477
879.333	21435
879.461	21481
879.588	21553
879.715	21534
879.842	21701
879.97	21428
880.097	21077
880.224	21127
880.351	20982
880.478	20762
880.605	20804
880.732	20815
880.859	21051
880.986	20815
881.112	20834
881.239	20743
881.366	20575
881.493	20473
881.619	20438
881.746	20465
881.872	20484
881.999	20294
882.125	20301
882.252	20412
882.378	20309
882.505	20556
882.631	20374
882.757	20259
882.883	20168
883.01	20237
883.136	20073
883.262	20092
883.388	20024
883.514	20138
883.64	20149
883.766	20157
883.892	19955
884.018	19963
884.143	20111
884.269	20248
884.395	19986
884.52	19776
884.646	19776
884.772	19788
884.897	19723
885.023	19814
885.148	19902
885.274	19978
885.399	19925
885.524	19826
885.65	19849
885.775	19772
885.9	19670
886.025	19913
886.15	19883
886.275	19635
886.4	19769
886.525	19632
886.65	19750
886.775	19578
886.9	19795
887.025	20020
887.149	19693
887.274	19487
887.399	19377
887.523	19506
887.648	19411
887.773	19350
887.897	19525
888.021	19483
888.146	19453
888.27	19510
888.395	19582
888.519	19567
888.643	19392
888.767	19384
888.891	19266
889.015	19255
889.139	19369
889.263	19308
889.387	19384
889.511	19502
889.635	19312
889.759	19141
889.883	19289
890.006	19255
890.13	19293
890.254	19198
890.377	19240
890.501	18913
890.624	18939
890.748	19004
890.871	18897
890.995	18829
891.118	18688
891.241	18897
891.364	18753
891.488	19046
891.611	18833
891.734	18829
891.857	18871
891.98	18787
892.103	18787
892.226	18764
892.349	18753
892.471	18578
892.594	18726
892.717	18749
892.839	18802
892.962	18757
893.085	18753
893.207	18715
893.33	18681
893.452	18722
893.575	18935
893.697	18673
893.819	18897
893.941	18806
894.064	18779
894.186	18661
894.308	18677
894.43	18837
894.552	18882
894.674	18875
894.796	18749
894.918	18677
895.04	18722
895.161	18875
895.283	18623
895.405	18753
895.526	18730
895.648	18779
895.769	18745
895.891	18810
896.012	18700
896.134	18673
896.255	18772
896.376	18840
896.498	18829
896.619	18749
896.74	18768
896.861	18947
896.982	18947
897.103	19213
897.224	19076
897.345	18954
897.466	18920
897.587	19046
897.708	19076
897.828	19000
897.949	18932
898.07	18825
898.19	18962
898.311	19152
898.431	18966
898.552	18932
898.672	19084
898.792	19072
898.913	19031
899.033	18863
899.153	18795
899.273	18722
899.393	18760
899.513	18783
899.633	18696
899.753	18715
899.873	18601
899.993	18837
900.113	18757
900.232	18772
900.352	18665
900.472	18570
900.591	18486
900.711	18650
900.83	18593
900.95	18612
901.069	18642
901.189	18525
901.308	18258
901.427	18186
901.546	18159
901.665	18171
901.784	18110
901.904	18034
902.023	17946
902.141	17767
902.26	17809
902.379	17779
902.498	17608
902.617	17611
902.735	17570
902.854	17627
902.973	17547
903.091	17448
903.21	17242
903.328	17372
903.446	17227
903.565	17128
903.683	17189
903.801	17117
903.919	17159
904.038	17083
904.156	16889
904.274	17102
904.392	16942
904.51	16869
904.627	16972
904.745	16911
904.863	16942
904.981	16744
905.098	16565
905.216	16664
905.334	16580
905.451	16618
905.569	16478
905.686	16561
905.803	16519
905.921	16394
906.038	16489
906.155	16337
906.272	16337
906.389	16348
906.506	16147
906.623	16105
906.74	16166
906.857	15964
906.974	16021
907.091	16131
907.208	16162
907.324	16162
907.441	16010
907.557	15949
907.674	15850
907.79	15797
907.907	15785
908.023	15762
908.139	15728
908.256	15698
908.372	15724
908.488	15644
908.604	15580
908.72	15370
908.836	15492
908.952	15443
909.068	15515
909.184	15557
909.3	15462
909.415	15568
909.531	15462
909.647	15249
909.762	15184
909.878	15138
909.993	15207
910.108	15074
910.224	15241
910.339	15214
910.454	15001
910.57	14994
910.685	14933
910.8	15116
910.915	15150
911.03	14937
911.145	14857
911.259	14746
911.374	14792
911.489	14708
911.604	14697
911.718	14571
911.833	14450
911.947	14484
912.062	14343
912.176	14549
912.291	14594
912.405	14518
912.519	14769
912.633	14590
912.748	14507
912.862	14602
912.976	14412
913.09	14218
913.204	14336
913.318	14332
913.431	14434
913.545	14469
913.659	14393
913.772	14343
913.886	14237
914	14138
914.113	14259
914.226	14298
914.34	14195
914.453	14081
914.566	14244
914.68	14138
914.793	14043
914.906	13894
915.019	13795
915.132	13780
915.245	13780
915.358	13830
915.47	13822
915.583	13951
915.696	13875
915.809	13967
915.921	13932
916.034	13818
916.146	13822
916.259	13746
916.371	13822
916.483	13753
916.595	13693
916.708	13605
916.82	13647
916.932	13689
917.044	13624
917.156	13586
917.268	13460
917.38	13639
917.491	13506
917.603	13582
917.715	13651
917.826	13559
917.938	13464
918.049	13365
918.161	13502
918.272	13616
918.384	13521
918.495	13525
918.606	13388
918.717	13179
918.828	13308
918.939	13278
919.05	13247
919.161	13304
919.272	13069
919.383	13175
919.494	13320
919.604	13487
919.715	13217
919.826	13126
919.936	13270
920.047	13316
920.157	13266
920.267	13419
920.378	13278
920.488	13221
920.598	13480
920.708	13480
920.818	13415
920.928	13403
921.038	13449
921.148	13457
921.258	13247
921.368	13168
921.477	12962
921.587	13008
921.697	12916
921.806	12977
921.916	12825
922.025	12760
922.134	12711
922.244	12662
922.353	12646
922.462	12555
922.571	12490
922.68	12334
922.789	12334
922.898	12361
923.007	12254
923.116	12258
923.224	12251
923.333	12281
923.442	12152
923.55	12117
923.659	12235
923.767	12270
923.876	12041
923.984	12106
924.092	12106
924.201	12190
924.309	12087
924.417	12041
924.525	12041
924.633	12015
924.741	12928
924.849	11832
924.956	11977
925.064	11935
925.172	11786
925.279	11836
925.387	11771
925.494	11802
925.602	11874
925.709	11855
925.816	11680
925.924	11745
926.031	11897
926.138	11748
926.245	11843
926.352	11718
926.459	11775
926.566	11767
926.673	11737
926.779	11539
926.886	11577
926.993	11486
927.099	11402
927.206	11372
927.312	11349
927.419	11402
927.525	11429
927.631	11410
927.737	11315
927.843	11292
927.95	11223
928.056	11235
928.162	11254
928.267	11299
928.373	11859
928.479	11258
928.585	11147
928.69	11162
928.796	11235
928.901	11090
929.007	10980
929.112	11121
929.218	11041
929.323	10991
929.428	10980
929.533	11117
929.638	10911
929.743	10934
929.848	10972
929.953	10892
930.058	10843
930.163	10710
930.267	10782
930.372	10877
930.477	10641
930.581	10854
930.685	10763
930.79	10531
930.894	10607
930.998	10516
931.103	10687
931.207	10375
931.311	10280
931.415	10166
931.519	9968
931.623	10032
