Data from test_V78500241_455.txt Node
Date: Fri Mar 25 14:36:53 CST 2022
User: usil
Spectrometer: V785-0024
Trigger mode: 0
Integration Time (sec): 4.000000E-1
Scans to average: 1
Nonlinearity correction enabled: false
Boxcar width: 0
Storing dark spectrum: false
XAxis mode: Wavelengths
Number of Pixels in Spectrum: 1024
>>>>>Begin Spectral Data<<<<<
801.071	26629
801.214	26438
801.356	26339
801.499	26256
801.641	25894
801.783	25993
801.926	26020
802.068	25791
802.211	25936
802.353	25833
802.496	25651
802.638	25605
802.78	25518
802.923	25365
803.065	25487
803.208	25559
803.35	25529
803.492	25556
803.635	25594
803.777	25479
803.919	25567
804.061	25799
804.204	25658
804.346	25430
804.488	25472
804.63	25407
804.773	25453
804.915	25597
805.057	25658
805.199	25422
805.341	25666
805.483	25700
805.626	25510
805.768	25457
805.91	25540
806.052	25582
806.194	25464
806.336	25681
806.478	25537
806.62	25601
806.762	25533
806.904	25624
807.046	26043
807.188	25898
807.33	25947
807.472	25993
807.614	25856
807.756	25852
807.898	25689
808.04	25685
808.182	25563
808.324	25681
808.465	25567
808.607	25906
808.749	25913
808.891	26020
809.033	26195
809.174	26149
809.316	26001
809.458	25955
809.6	26027
809.741	26054
809.883	26020
810.025	26221
810.166	26221
810.308	26214
810.45	26115
810.591	26119
810.733	25955
810.875	25818
811.016	25814
811.158	25776
811.299	25856
811.441	25993
811.582	25887
811.724	25776
811.865	25784
812.007	25772
812.148	25841
812.29	25902
812.431	25894
812.573	26180
812.714	26240
812.855	26336
812.997	26336
813.138	26469
813.279	26393
813.421	26275
813.562	26145
813.703	26134
813.845	25947
813.986	25674
814.127	25590
814.268	25445
814.41	25468
814.551	25339
814.692	25567
814.833	25457
814.974	25228
815.115	25320
815.256	25080
815.397	25179
815.539	25221
815.68	25095
815.821	25042
815.962	25206
816.103	25061
816.244	24947
816.385	24897
816.526	24837
816.666	24760
816.807	24456
816.948	24703
817.089	24589
817.23	24384
817.371	24559
817.512	24410
817.653	24471
817.793	24490
817.934	24551
818.075	24597
818.216	24612
818.356	24498
818.497	24315
818.638	24159
818.778	24129
818.919	24148
819.06	24239
819.2	24342
819.341	24369
819.481	24334
819.622	24555
819.762	24749
819.903	24627
820.043	24650
820.184	24460
820.324	24517
820.465	24544
820.605	24521
820.746	24414
820.886	24319
821.026	24525
821.167	24429
821.307	24452
821.447	24403
821.588	24323
821.728	24247
821.868	23961
822.008	23889
822.149	23813
822.289	23691
822.429	23585
822.569	23566
822.709	23520
822.849	23368
822.99	23246
823.13	23220
823.27	23220
823.41	23064
823.55	22999
823.69	23140
823.83	23147
823.97	22999
824.11	22896
824.25	22767
824.389	22866
824.529	22949
824.669	22930
824.809	22953
824.949	22908
825.089	22946
825.228	22896
825.368	22801
825.508	22519
825.648	22850
825.787	22717
825.927	22782
826.067	22622
826.206	22599
826.346	22710
826.485	22744
826.625	22618
826.765	22733
826.904	22687
827.044	22398
827.183	22310
827.323	22371
827.462	22329
827.601	22413
827.741	22413
827.88	22405
828.02	22211
828.159	22204
828.298	22386
828.437	22325
828.577	22204
828.716	22363
828.855	22147
828.994	21956
829.134	21968
829.273	22105
829.412	22006
829.551	21964
829.69	22032
829.829	22002
829.968	21979
830.107	22090
830.246	21960
830.385	21857
830.524	21998
830.663	21831
830.802	21701
830.941	21663
831.08	21519
831.219	21603
831.357	21610
831.496	21739
831.635	21599
831.774	21500
831.913	21637
832.051	21348
832.19	21397
832.329	21492
832.467	21382
832.606	21241
832.744	21222
832.883	21367
833.022	21100
833.16	21264
833.299	21302
833.437	21340
833.576	21287
833.714	21165
833.852	21306
833.991	21336
834.129	21428
834.267	21283
834.406	21363
834.544	21226
834.682	21260
834.821	21195
834.959	21329
835.097	21157
835.235	21359
835.373	21287
835.511	21138
835.65	21055
835.788	21055
835.926	21043
836.064	20925
836.202	21058
836.34	21074
836.478	21176
836.615	21112
836.753	21150
836.891	21241
837.029	21188
837.167	21051
837.305	21058
837.443	20971
837.58	20891
837.718	21074
837.856	21070
837.993	20971
838.131	20952
838.269	20857
838.406	20891
838.544	20765
838.681	20568
838.819	20545
838.956	20415
839.094	20419
839.231	20514
839.369	20518
839.506	20804
839.643	20617
839.781	20343
839.918	20358
840.055	20370
840.193	20427
840.33	20237
840.467	20332
840.604	20461
840.742	20724
840.879	20267
841.016	20328
841.153	20229
841.29	20484
841.427	20229
841.564	20499
841.701	20282
841.838	20221
841.975	20229
842.112	20100
842.249	20001
842.385	20046
842.522	20214
842.659	20035
842.796	20111
842.933	20027
843.069	20035
843.206	19936
843.343	20088
843.479	19963
843.616	20077
843.752	19818
843.889	19830
844.025	19936
844.162	19757
844.298	19902
844.435	19761
844.571	19674
844.708	19833
844.844	19890
844.98	19856
845.117	19940
845.253	19795
845.389	19632
845.525	19753
845.661	19689
845.798	19575
845.934	19689
846.07	19525
846.206	19578
846.342	19712
846.478	19487
846.614	19304
846.75	19244
846.886	19244
847.022	19434
847.158	19365
847.294	19255
847.429	19228
847.565	19221
847.701	19510
847.837	19046
847.972	18985
848.108	19145
848.244	19126
848.379	18871
848.515	18958
848.65	18935
848.786	18848
848.921	18837
849.057	18913
849.192	19031
849.328	18844
849.463	18901
849.598	18856
849.734	18749
849.869	18738
850.004	18536
850.14	18673
850.275	18722
850.41	18460
850.545	18563
850.68	18536
850.815	18551
850.95	18551
851.085	18692
851.22	18612
851.355	18578
851.49	18646
851.625	18494
851.76	18494
851.895	18403
852.03	18441
852.165	18479
852.299	18585
852.434	18623
852.569	18521
852.703	18536
852.838	18585
852.973	18665
853.107	18582
853.242	18513
853.376	18399
853.511	18285
853.645	18338
853.78	18517
853.914	18395
854.048	18388
854.183	18338
854.317	18327
854.451	18513
854.585	18319
854.72	18353
854.854	18486
854.988	18357
855.122	18281
855.256	18251
855.39	18350
855.524	18445
855.658	18528
855.792	18365
855.926	18281
856.06	18422
856.194	18490
856.327	18262
856.461	18232
856.595	18323
856.729	18266
856.862	18506
856.996	18327
857.13	18388
857.263	18525
857.397	18498
857.53	18330
857.664	18391
857.797	18460
857.931	18490
858.064	18429
858.197	18384
858.331	18361
858.464	18239
858.597	18171
858.731	18224
858.864	18155
858.997	18353
859.13	18327
859.263	18277
859.396	18311
859.529	18232
859.662	18308
859.795	18330
859.928	18395
860.061	18380
860.194	18509
860.327	18384
860.46	18186
860.592	18346
860.725	18540
860.858	18369
860.99	18277
861.123	18155
861.256	18228
861.388	18285
861.521	18962
861.653	18243
861.786	18022
861.918	18247
862.05	18277
862.183	18391
862.315	18258
862.447	18536
862.58	18311
862.712	18136
862.844	18034
862.976	18129
863.108	18011
863.24	18494
863.372	17954
863.504	18030
863.636	18057
863.768	18076
863.9	18026
864.032	17920
864.164	17988
864.296	18197
864.428	17980
864.559	18140
864.691	18068
864.823	18136
864.954	18049
865.086	17973
865.217	18060
865.349	18003
865.48	17920
865.612	18011
865.743	18194
865.875	17965
866.006	17859
866.137	17969
866.269	17996
866.4	17946
866.531	17961
866.662	17969
866.793	17931
866.924	17969
867.055	17973
867.186	18007
867.317	17893
867.448	17748
867.579	17851
867.71	17813
867.841	17805
867.972	18015
868.103	17939
868.233	17942
868.364	17870
868.495	17935
868.625	18205
868.756	18232
868.886	18106
869.017	18254
869.147	18289
869.278	18285
869.408	18102
869.539	18213
869.669	18190
869.799	18205
869.929	18311
870.06	18243
870.19	18407
870.32	18502
870.45	18464
870.58	18574
870.71	18509
870.84	18642
870.97	18540
871.1	18585
871.23	18612
871.36	18760
871.489	18570
871.619	18749
871.749	18715
871.879	18707
872.008	18977
872.138	18776
872.267	18768
872.397	18646
872.526	18566
872.656	18528
872.785	18570
872.915	18730
873.044	18802
873.173	18700
873.303	18772
873.432	18795
873.561	18890
873.69	18798
873.819	18776
873.948	18905
874.077	18970
874.206	18726
874.335	18825
874.464	18863
874.593	18973
874.722	18905
874.851	19099
874.979	19069
875.108	19027
875.237	19160
875.365	19061
875.494	18981
875.623	19164
875.751	18947
875.88	19057
876.008	19297
876.136	19316
876.265	19430
876.393	19586
876.521	19521
876.65	19499
876.778	19499
876.906	19400
877.034	19365
877.162	19419
877.29	19468
877.418	19384
877.546	19419
877.674	19426
877.802	19415
877.93	19396
878.058	19480
878.185	19354
878.313	19426
878.441	19419
878.568	19301
878.696	19422
878.824	19460
878.951	19506
879.079	19613
879.206	19807
879.333	19689
879.461	19430
879.588	19601
879.715	19624
879.842	19677
879.97	19639
880.097	19339
880.224	19255
880.351	19369
880.478	19312
880.605	19202
880.732	19403
880.859	19483
880.986	19324
881.112	19320
881.239	19209
881.366	18962
881.493	18932
881.619	18951
881.746	18890
881.872	19008
881.999	18943
882.125	18787
882.252	18973
882.378	18989
882.505	18993
882.631	18890
882.757	18707
882.883	18768
883.01	18726
883.136	18665
883.262	18525
883.388	18502
883.514	18608
883.64	18646
883.766	18612
883.892	18582
884.018	18517
884.143	18547
884.269	18703
884.395	18471
884.52	18338
884.646	18323
884.772	18281
884.897	18258
885.023	18384
885.148	18452
885.274	18486
885.399	18467
885.524	18437
885.65	18452
885.775	18277
885.9	18277
886.025	18506
886.15	18399
886.275	18194
886.4	18251
886.525	18289
886.65	18323
886.775	18194
886.9	18433
887.025	18509
887.149	18308
887.274	18129
887.399	18102
887.523	18117
887.648	18076
887.773	18079
887.897	18186
888.021	18117
888.146	18030
888.27	18136
888.395	18163
888.519	18117
888.643	18159
888.767	18064
888.891	17908
889.015	17889
889.139	18019
889.263	17878
889.387	18038
889.511	18178
889.635	17901
889.759	17935
889.883	17859
890.006	17958
890.13	17973
890.254	17741
890.377	17752
890.501	17718
890.624	17756
890.748	17676
890.871	17627
890.995	17501
891.118	17501
891.241	17577
891.364	17516
891.488	17649
891.611	17573
891.734	17581
891.857	17672
891.98	17444
892.103	17627
892.226	17463
892.349	17573
892.471	17356
892.594	17345
892.717	17463
892.839	17353
892.962	17410
893.085	17490
893.207	17501
893.33	17383
893.452	17395
893.575	17505
893.697	17474
893.819	17589
893.941	17604
894.064	17611
894.186	17452
894.308	17402
894.43	17589
894.552	17699
894.674	17611
894.796	17448
894.918	17467
895.04	17410
895.161	17547
895.283	17501
895.405	17589
895.526	17467
895.648	17433
895.769	17478
895.891	17570
896.012	17615
896.134	17707
896.255	17585
896.376	17562
896.498	17558
896.619	17634
896.74	17611
896.861	17585
896.982	17927
897.103	17935
897.224	17836
897.345	17802
897.466	17775
897.587	17870
897.708	17950
897.828	17718
897.949	17668
898.07	17657
898.19	17802
898.311	17897
898.431	17836
898.552	17798
898.672	17912
898.792	17973
898.913	17790
899.033	17653
899.153	17638
899.273	17516
899.393	17592
899.513	17665
899.633	17581
899.753	17600
899.873	17448
899.993	17558
900.113	17497
900.232	17649
900.352	17471
900.472	17562
900.591	17474
900.711	17433
900.83	17326
900.95	17478
901.069	17562
901.189	17368
901.308	17162
901.427	16965
901.546	16987
901.665	17151
901.784	17128
901.904	16930
902.023	16816
902.141	16668
902.26	16588
902.379	16660
902.498	16584
902.617	16588
902.735	16618
902.854	16519
902.973	16535
903.091	16436
903.21	16226
903.328	16268
903.446	16177
903.565	16017
903.683	16116
903.801	16166
903.919	16063
904.038	15956
904.156	15895
904.274	15926
904.392	15759
904.51	15922
904.627	15831
904.745	15838
904.863	15926
904.981	15610
905.098	15500
905.216	15477
905.334	15584
905.451	15473
905.569	15454
905.686	15637
905.803	15564
905.921	15374
906.038	15443
906.155	15325
906.272	15218
906.389	15268
906.506	14975
906.623	15097
906.74	15051
906.857	14971
906.974	15020
907.091	15154
907.208	15203
907.324	15062
907.441	15154
907.557	14785
907.674	14765
907.79	14731
907.907	14754
908.023	14792
908.139	14754
908.256	14769
908.372	14644
908.488	14530
908.604	14518
908.72	14488
908.836	14522
908.952	14488
909.068	14522
909.184	14495
909.3	14514
909.415	14469
909.531	14412
909.647	14263
909.762	14195
909.878	14221
909.993	14191
910.108	14210
910.224	14081
910.339	14256
910.454	14016
910.57	14126
910.685	13970
910.8	14218
910.915	14195
911.03	14073
911.145	13902
911.259	13845
911.374	13868
911.489	13780
911.604	13715
911.718	13594
911.833	13571
911.947	13616
912.062	13487
912.176	13571
912.291	13556
912.405	13556
912.519	13822
912.633	13731
912.748	13750
912.862	13582
912.976	13350
913.09	13278
913.204	13392
913.318	13559
913.431	13384
913.545	13567
913.659	13586
913.772	13453
913.886	13335
914	13316
914.113	13377
914.226	13346
914.34	13335
914.453	13175
914.566	13331
914.68	13190
914.793	13156
914.906	13038
915.019	12993
915.132	12863
915.245	12829
915.358	12928
915.47	12962
915.583	13012
915.696	12935
915.809	13126
915.921	13042
916.034	12909
916.146	12814
916.259	12905
916.371	12985
916.483	12901
916.595	12840
916.708	12871
916.82	12825
916.932	12726
917.044	12753
917.156	12768
917.268	12795
917.38	12719
917.491	12665
917.603	12715
917.715	12639
917.826	12700
917.938	12593
918.049	12551
918.161	12639
918.272	12760
918.384	12806
918.495	12642
918.606	12525
918.717	12403
918.828	12532
918.939	12437
919.05	12403
919.161	12464
919.272	12258
919.383	12426
919.494	12452
919.604	12654
919.715	12365
919.826	12330
919.936	12365
920.047	12452
920.157	12464
920.267	12692
920.378	12456
920.488	12456
920.598	12601
920.708	12760
920.818	12612
920.928	12513
921.038	12760
921.148	12787
921.258	12403
921.368	12410
921.477	12258
921.587	12232
921.697	12030
921.806	12247
921.916	12095
922.025	12049
922.134	11882
922.244	11863
922.353	11866
922.462	11729
922.571	11771
922.68	11573
922.789	11608
922.898	11493
923.007	11543
923.116	11600
923.224	11581
923.333	11600
923.442	11402
923.55	11330
923.659	11459
923.767	11478
923.876	11330
923.984	11383
924.092	11383
924.201	11345
924.309	11353
924.417	11349
924.525	11273
924.633	11307
924.741	12258
924.849	11121
924.956	11307
925.064	11140
925.172	11006
925.279	11162
925.387	11102
925.494	11045
925.602	11242
925.709	11109
925.816	10987
925.924	11014
926.031	11147
926.138	11094
926.245	11064
926.352	10961
926.459	11064
926.566	11083
926.673	11010
926.779	10869
926.886	10835
926.993	10714
927.099	10736
927.206	10675
927.312	10672
927.419	10793
927.525	10774
927.631	10790
927.737	10596
927.843	10603
927.95	10432
928.056	10531
928.162	10538
928.267	10611
928.373	11284
928.479	10653
928.585	10443
928.69	10599
928.796	10573
928.901	10451
929.007	10329
929.112	10402
929.218	10455
929.323	10310
929.428	10287
929.533	10481
929.638	10223
929.743	10276
929.848	10310
929.953	10363
930.058	10173
930.163	10063
930.267	10082
930.372	10166
930.477	10040
930.581	10287
930.685	10063
930.79	10021
930.894	9903
930.998	9903
931.103	10067
931.207	9717
931.311	9660
931.415	9576
931.519	9420
931.623	9367
