Data from test_V78500241_2966.txt Node
Date: Fri Mar 25 14:54:22 CST 2022
User: usil
Spectrometer: V785-0024
Trigger mode: 0
Integration Time (sec): 4.000000E-1
Scans to average: 1
Nonlinearity correction enabled: false
Boxcar width: 0
Storing dark spectrum: false
XAxis mode: Wavelengths
Number of Pixels in Spectrum: 1024
>>>>>Begin Spectral Data<<<<<
801.071	22265
801.214	21953
801.356	21660
801.499	21679
801.641	21568
801.783	21450
801.926	21447
802.068	21587
802.211	21405
802.353	21252
802.496	21131
802.638	20963
802.78	20876
802.923	20933
803.065	20792
803.208	20720
803.35	20823
803.492	20895
803.635	20887
803.777	20735
803.919	20899
804.061	21093
804.204	20933
804.346	20785
804.488	20705
804.63	20754
804.773	20689
804.915	20788
805.057	20876
805.199	20655
805.341	20762
805.483	20819
805.626	20739
805.768	20682
805.91	20731
806.052	20693
806.194	20678
806.336	20925
806.478	20640
806.62	20743
806.762	20804
806.904	20933
807.046	21180
807.188	20979
807.33	21161
807.472	21039
807.614	20857
807.756	21005
807.898	20868
808.04	20724
808.182	20880
808.324	20921
808.465	20834
808.607	20910
808.749	21119
808.891	21192
809.033	21351
809.174	21066
809.316	21119
809.458	21138
809.6	21058
809.741	21218
809.883	21055
810.025	21306
810.166	21256
810.308	21222
810.45	21222
810.591	21001
810.733	21047
810.875	20975
811.016	20849
811.158	20724
811.299	20963
811.441	21146
811.582	21009
811.724	20868
811.865	20883
812.007	20845
812.148	20861
812.29	20929
812.431	20952
812.573	21154
812.714	21214
812.855	21256
812.997	21424
813.138	21526
813.279	21519
813.421	21397
813.562	21321
813.703	21108
813.845	21028
813.986	20686
814.127	20590
814.268	20442
814.41	20480
814.551	20309
814.692	20511
814.833	20336
814.974	20370
815.115	20461
815.256	20221
815.397	20225
815.539	20221
815.68	20176
815.821	19989
815.962	20221
816.103	20199
816.244	19974
816.385	19940
816.526	19803
816.666	19670
816.807	19544
816.948	19639
817.089	19601
817.23	19647
817.371	19643
817.512	19556
817.653	19327
817.793	19453
817.934	19518
818.075	19666
818.216	19567
818.356	19552
818.497	19411
818.638	19137
818.778	19259
818.919	19198
819.06	19343
819.2	19324
819.341	19441
819.481	19449
819.622	19544
819.762	19715
819.903	19514
820.043	19556
820.184	19460
820.324	19472
820.465	19499
820.605	19571
820.746	19460
820.886	19354
821.026	19499
821.167	19445
821.307	19491
821.447	19472
821.588	19449
821.728	19194
821.868	19023
822.008	18875
822.149	18894
822.289	18859
822.429	18711
822.569	18517
822.709	18593
822.849	18422
822.99	18376
823.13	18441
823.27	18380
823.41	18258
823.55	18038
823.69	18292
823.83	18163
823.97	18174
824.11	17988
824.25	17931
824.389	17973
824.529	18038
824.669	18034
824.809	18045
824.949	18068
825.089	17969
825.228	18022
825.368	17741
825.508	17836
825.648	17775
825.787	17764
825.927	17912
826.067	17707
826.206	17684
826.346	17779
826.485	17828
826.625	17783
826.765	17882
826.904	17748
827.044	17520
827.183	17471
827.323	17444
827.462	17589
827.601	17387
827.741	17474
827.88	17516
828.02	17315
828.159	17467
828.298	17539
828.437	17490
828.577	17429
828.716	17535
828.855	17288
828.994	17261
829.134	17231
829.273	17189
829.412	17189
829.551	17075
829.69	17083
829.829	17303
829.968	17356
830.107	17212
830.246	17102
830.385	17178
830.524	17045
830.663	16927
830.802	16828
830.941	16828
831.08	16740
831.219	16881
831.357	16923
831.496	17010
831.635	16805
831.774	16622
831.913	16679
832.051	16584
832.19	16626
832.329	16508
832.467	16459
832.606	16462
832.744	16516
832.883	16500
833.022	16405
833.16	16375
833.299	16542
833.437	16451
833.576	16538
833.714	16592
833.852	16538
833.991	16580
834.129	16580
834.267	16618
834.406	16462
834.544	16675
834.682	16550
834.821	16508
834.959	16733
835.097	16474
835.235	16672
835.373	16497
835.511	16588
835.65	16421
835.788	16512
835.926	16337
836.064	16215
836.202	16303
836.34	16478
836.478	16459
836.615	16500
836.753	16531
836.891	16459
837.029	16546
837.167	16398
837.305	16272
837.443	16287
837.58	16276
837.718	16421
837.856	16344
837.993	16268
838.131	16333
838.269	16211
838.406	16219
838.544	16154
838.681	16124
838.819	15941
838.956	15884
839.094	15838
839.231	15865
839.369	15968
839.506	16219
839.643	16120
839.781	15888
839.918	15816
840.055	15873
840.193	15774
840.33	15838
840.467	15846
840.604	15941
840.742	16025
840.879	15682
841.016	15812
841.153	15755
841.29	15888
841.427	15812
841.564	15717
841.701	15861
841.838	15751
841.975	15717
842.112	15698
842.249	15633
842.385	15629
842.522	15892
842.659	15648
842.796	15458
842.933	15618
843.069	15652
843.206	15625
843.343	15694
843.479	15637
843.616	15591
843.752	15367
843.889	15492
844.025	15610
844.162	15317
844.298	15485
844.435	15325
844.571	15359
844.708	15389
844.844	15519
844.98	15534
845.117	15542
845.253	15298
845.389	15313
845.525	15336
845.661	15283
845.798	15150
845.934	15127
846.07	15154
846.206	15256
846.342	15355
846.478	15123
846.614	14994
846.75	14933
846.886	14921
847.022	15077
847.158	14948
847.294	14895
847.429	15024
847.565	14899
847.701	15192
847.837	14724
847.972	14663
848.108	14731
848.244	14781
848.379	14598
848.515	14610
848.65	14541
848.786	14511
848.921	14549
849.057	14587
849.192	14587
849.328	14598
849.463	14503
849.598	14556
849.734	14374
849.869	14446
850.004	14275
850.14	14351
850.275	14381
850.41	14142
850.545	14282
850.68	14313
850.815	14351
850.95	14305
851.085	14518
851.22	14499
851.355	14370
851.49	14358
851.625	14317
851.76	14271
851.895	14263
852.03	14214
852.165	14370
852.299	14389
852.434	14408
852.569	14275
852.703	14248
852.838	14404
852.973	14457
853.107	14442
853.242	14267
853.376	14248
853.511	14069
853.645	14153
853.78	14263
853.914	14214
854.048	14138
854.183	14149
854.317	14320
854.451	14393
854.585	14100
854.72	14233
854.854	14317
854.988	14130
855.122	14290
855.256	14084
855.39	14240
855.524	14282
855.658	14324
855.792	14271
855.926	14286
856.06	14301
856.194	14358
856.327	14324
856.461	14134
856.595	14130
856.729	14157
856.862	14313
856.996	14294
857.13	14218
857.263	14286
857.397	14358
857.53	14252
857.664	14271
857.797	14275
857.931	14286
858.064	14324
858.197	14438
858.331	14244
858.464	14271
858.597	14180
858.731	14259
858.864	14244
858.997	14237
859.13	14225
859.263	14263
859.396	14355
859.529	14301
859.662	14206
859.795	14130
859.928	14210
860.061	14427
860.194	14461
860.327	14229
860.46	14187
860.592	14419
860.725	14423
860.858	14286
860.99	14214
861.123	14168
861.256	14153
861.388	14256
861.521	14880
861.653	14138
861.786	14077
861.918	14134
862.05	14157
862.183	14164
862.315	14157
862.447	14271
862.58	14123
862.712	14077
862.844	13944
862.976	14130
863.108	14073
863.24	14381
863.372	13947
863.504	14081
863.636	13944
863.768	14016
863.9	14073
864.032	14008
864.164	13947
864.296	14069
864.428	14176
864.559	14084
864.691	14103
864.823	14126
864.954	13959
865.086	14081
865.217	13959
865.349	13913
865.48	13967
865.612	14058
865.743	14172
865.875	13925
866.006	13898
866.137	13928
866.269	13955
866.4	14001
866.531	14012
866.662	13883
866.793	13909
866.924	13936
867.055	14081
867.186	13928
867.317	14012
867.448	14043
867.579	13928
867.71	14008
867.841	13894
867.972	14024
868.103	13970
868.233	13982
868.364	13993
868.495	14020
868.625	14256
868.756	14313
868.886	14149
869.017	14218
869.147	14362
869.278	14465
869.408	14256
869.539	14153
869.669	14294
869.799	14339
869.929	14366
870.06	14298
870.19	14571
870.32	14511
870.45	14564
870.58	14648
870.71	14746
870.84	14826
870.97	14644
871.1	14636
871.23	14792
871.36	14773
871.489	14842
871.619	14925
871.749	14788
871.879	15024
872.008	14982
872.138	14800
872.267	14769
872.397	14708
872.526	14682
872.656	14621
872.785	14682
872.915	14921
873.044	14845
873.173	14944
873.303	14921
873.432	14887
873.561	15005
873.69	14921
873.819	14937
873.948	14910
874.077	14941
874.206	14960
874.335	15028
874.464	15009
874.593	15230
874.722	15135
874.851	15260
874.979	15245
875.108	15199
875.237	15188
875.365	15119
875.494	15108
875.623	15245
875.751	15146
875.88	15237
876.008	15374
876.136	15332
876.265	15698
876.393	15724
876.521	15785
876.65	15675
876.778	15591
876.906	15523
877.034	15587
877.162	15652
877.29	15641
877.418	15675
877.546	15644
877.674	15618
877.802	15622
877.93	15644
878.058	15557
878.185	15447
878.313	15534
878.441	15591
878.568	15515
878.696	15568
878.824	15599
878.951	15652
879.079	15770
879.206	15922
879.333	15873
879.461	15705
879.588	15736
879.715	15770
879.842	15865
879.97	15660
880.097	15466
880.224	15397
880.351	15530
880.478	15416
880.605	15416
880.732	15424
880.859	15705
880.986	15549
881.112	15519
881.239	15287
881.366	15214
881.493	15058
881.619	15093
881.746	15180
881.872	15062
881.999	15085
882.125	15081
882.252	15218
882.378	15237
882.505	15230
882.631	15070
882.757	14982
882.883	14982
883.01	14906
883.136	14902
883.262	14830
883.388	14708
883.514	14952
883.64	14891
883.766	14876
883.892	14682
884.018	14735
884.143	14963
884.269	14990
884.395	14629
884.52	14686
884.646	14804
884.772	14522
884.897	14613
885.023	14781
885.148	14773
885.274	14750
885.399	14735
885.524	14590
885.65	14632
885.775	14575
885.9	14640
886.025	14739
886.15	14746
886.275	14537
886.4	14492
886.525	14651
886.65	14556
886.775	14522
886.9	14735
887.025	14902
887.149	14621
887.274	14476
887.399	14408
887.523	14415
887.648	14438
887.773	14370
887.897	14552
888.021	14526
888.146	14393
888.27	14606
888.395	14610
888.519	14484
888.643	14473
888.767	14602
888.891	14457
889.015	14374
889.139	14377
889.263	14412
889.387	14457
889.511	14442
889.635	14423
889.759	14214
889.883	14362
890.006	14298
890.13	14450
890.254	14313
890.377	14259
890.501	14157
890.624	14195
890.748	14206
890.871	14115
890.995	14043
891.118	14027
891.241	14088
891.364	14008
891.488	14142
891.611	14031
891.734	13982
891.857	14142
891.98	14084
892.103	14130
892.226	14065
892.349	13967
892.471	13898
892.594	13917
892.717	14005
892.839	13955
892.962	14103
893.085	14115
893.207	14107
893.33	13944
893.452	13997
893.575	14073
893.697	14020
893.819	14214
893.941	14233
894.064	14195
894.186	14111
894.308	13989
894.43	14191
894.552	14290
894.674	14252
894.796	13993
894.918	14081
895.04	14046
895.161	14138
895.283	14267
895.405	14077
895.526	14115
895.648	14168
895.769	14164
895.891	14107
896.012	14252
896.134	14202
896.255	14206
896.376	14069
896.498	14199
896.619	14431
896.74	14180
896.861	14370
896.982	14552
897.103	14655
897.224	14564
897.345	14499
897.466	14412
897.587	14556
897.708	14750
897.828	14579
897.949	14518
898.07	14343
898.19	14434
898.311	14598
898.431	14423
898.552	14560
898.672	14610
898.792	14602
898.913	14621
899.033	14541
899.153	14324
899.273	14313
899.393	14423
899.513	14419
899.633	14377
899.753	14377
899.873	14412
899.993	14507
900.113	14442
900.232	14438
900.352	14446
900.472	14408
900.591	14374
900.711	14240
900.83	14267
900.95	14385
901.069	14461
901.189	14301
901.308	14065
901.427	13970
901.546	13978
901.665	13963
901.784	14001
901.904	13830
902.023	13799
902.141	13556
902.26	13476
902.379	13609
902.498	13548
902.617	13578
902.735	13609
902.854	13422
902.973	13373
903.091	13312
903.21	13213
903.328	13270
903.446	13236
903.565	13053
903.683	13122
903.801	13065
903.919	13084
904.038	13072
904.156	12878
904.274	12951
904.392	12890
904.51	12886
904.627	12951
904.745	12939
904.863	13038
904.981	12707
905.098	12509
905.216	12620
905.334	12616
905.451	12585
905.569	12684
905.686	12684
905.803	12608
905.921	12407
906.038	12467
906.155	12429
906.272	12346
906.389	12323
906.506	12220
906.623	12216
906.74	12213
906.857	12140
906.974	12152
907.091	12243
907.208	12285
907.324	12232
907.441	12121
907.557	11961
907.674	11901
907.79	11893
907.907	11889
908.023	11954
908.139	12045
908.256	11851
908.372	11935
908.488	11863
908.604	11748
908.72	11646
908.836	11783
908.952	11710
909.068	11741
909.184	11836
909.3	11676
909.415	11771
909.531	11737
909.647	11421
909.762	11444
909.878	11444
909.993	11471
910.108	11486
910.224	11360
910.339	11524
910.454	11398
910.57	11372
910.685	11277
910.8	11554
910.915	11482
911.03	11277
911.145	11159
911.259	11189
911.374	11189
911.489	11124
911.604	11064
911.718	10976
911.833	10934
911.947	10828
912.062	10763
912.176	10976
912.291	10965
912.405	10892
912.519	11083
912.633	11121
912.748	11006
912.862	10927
912.976	10729
913.09	10675
913.204	10793
913.318	10927
913.431	10984
913.545	10938
913.659	10904
913.772	10782
913.886	10656
914	10634
914.113	10725
914.226	10927
914.34	10805
914.453	10618
914.566	10755
914.68	10634
914.793	10611
914.906	10436
915.019	10424
915.132	10344
915.245	10443
915.358	10497
915.47	10508
915.583	10447
915.696	10440
915.809	10527
915.921	10672
916.034	10436
916.146	10390
916.259	10375
916.371	10470
916.483	10531
916.595	10379
916.708	10371
916.82	10394
916.932	10402
917.044	10344
917.156	10348
917.268	10238
917.38	10325
917.491	10196
917.603	10207
917.715	10344
917.826	10379
917.938	10253
918.049	10173
918.161	10333
918.272	10398
918.384	10424
918.495	10272
918.606	10154
918.717	10120
918.828	10200
918.939	10200
919.05	10109
919.161	10105
919.272	9972
919.383	10025
919.494	10242
919.604	10424
919.715	10162
919.826	10101
919.936	10158
920.047	10257
920.157	10128
920.267	10443
920.378	10253
920.488	10162
920.598	10466
920.708	10565
920.818	10405
920.928	10348
921.038	10542
921.148	10554
921.258	10204
921.368	10124
921.477	10120
921.587	10013
921.697	9899
921.806	9987
921.916	9926
922.025	9785
922.134	9762
922.244	9675
922.353	9854
922.462	9629
922.571	9629
922.68	9405
922.789	9416
922.898	9519
923.007	9401
923.116	9450
923.224	9469
923.333	9450
923.442	9313
923.55	9249
923.659	9264
923.767	9401
923.876	9355
923.984	9302
924.092	9199
924.201	9291
924.309	9310
924.417	9321
924.525	9184
924.633	9245
924.741	10207
924.849	9070
924.956	9230
925.064	9062
925.172	9017
925.279	9017
925.387	9135
925.494	9066
925.602	9272
925.709	9154
925.816	8986
925.924	9138
926.031	9180
926.138	9146
926.245	9104
926.352	9112
926.459	9123
926.566	9214
926.673	9062
926.779	8941
926.886	8933
926.993	8773
927.099	8796
927.206	8792
927.312	8705
927.419	8861
927.525	8769
927.631	8819
927.737	8727
927.843	8659
927.95	8564
928.056	8689
928.162	8701
928.267	8792
928.373	9344
928.479	8830
928.585	8598
928.69	8769
928.796	8758
928.901	8651
929.007	8495
929.112	8743
929.218	8579
929.323	8541
929.428	8541
929.533	8606
929.638	8537
929.743	8450
929.848	8594
929.953	8518
930.058	8423
930.163	8259
930.267	8347
930.372	8355
930.477	8279
930.581	8476
930.685	8374
930.79	8149
930.894	8286
930.998	8126
931.103	8389
931.207	8062
931.311	7940
931.415	7913
931.519	7761
931.623	7746
