Data from test_V78500241_544.txt Node
Date: Fri Mar 25 14:37:30 CST 2022
User: usil
Spectrometer: V785-0024
Trigger mode: 0
Integration Time (sec): 4.000000E-1
Scans to average: 1
Nonlinearity correction enabled: false
Boxcar width: 0
Storing dark spectrum: false
XAxis mode: Wavelengths
Number of Pixels in Spectrum: 1024
>>>>>Begin Spectral Data<<<<<
801.071	27317
801.214	27329
801.356	27062
801.499	26883
801.641	26720
801.783	26655
801.926	26796
802.068	26617
802.211	26583
802.353	26499
802.496	26412
802.638	26362
802.78	26237
802.923	26218
803.065	26168
803.208	26142
803.35	26317
803.492	26488
803.635	26339
803.777	26309
803.919	26377
804.061	26617
804.204	26358
804.346	26431
804.488	26275
804.63	26393
804.773	26218
804.915	26469
805.057	26465
805.199	26419
805.341	26541
805.483	26705
805.626	26469
805.768	26537
805.91	26522
806.052	26625
806.194	26670
806.336	26925
806.478	26864
806.62	26754
806.762	27062
806.904	27207
807.046	27778
807.188	27698
807.33	27892
807.472	27941
807.614	28341
807.756	28504
807.898	28919
808.04	29493
808.182	30353
808.324	31327
808.465	32480
808.607	33705
808.749	34812
808.891	35554
809.033	35406
809.174	34797
809.316	33641
809.458	32351
809.6	31171
809.741	30159
809.883	29345
810.025	28999
810.166	28679
810.308	28257
810.45	28120
810.591	27808
810.733	27572
810.875	27287
811.016	27112
811.158	27055
811.299	27211
811.441	27332
811.582	27161
811.724	26979
811.865	26834
812.007	26921
812.148	26956
812.29	26823
812.431	26956
812.573	26994
812.714	27112
812.855	27195
812.997	27203
813.138	27408
813.279	27291
813.421	27188
813.562	27165
813.703	26994
813.845	26750
813.986	26427
814.127	26385
814.268	26244
814.41	26134
814.551	26145
814.692	26305
814.833	25955
814.974	26058
815.115	26081
815.256	25864
815.397	25982
815.539	26020
815.68	25757
815.821	25674
815.962	25837
816.103	25715
816.244	25620
816.385	25419
816.526	25304
816.666	25236
816.807	25145
816.948	25198
817.089	25289
817.23	25179
817.371	25023
817.512	25034
817.653	25080
817.793	25129
817.934	25057
818.075	25038
818.216	25126
818.356	24992
818.497	24894
818.638	24726
818.778	24730
818.919	24859
819.06	24867
819.2	24932
819.341	24966
819.481	24992
819.622	24992
819.762	25324
819.903	25183
820.043	25065
820.184	25038
820.324	24913
820.465	25129
820.605	25084
820.746	25137
820.886	24913
821.026	24867
821.167	24973
821.307	25137
821.447	24886
821.588	24661
821.728	24673
821.868	24509
822.008	24346
822.149	24289
822.289	24220
822.429	24041
822.569	24018
822.709	23916
822.849	23775
822.99	23813
823.13	23676
823.27	23771
823.41	23554
823.55	23433
823.69	23600
823.83	23467
823.97	23444
824.11	23356
824.25	23376
824.389	23326
824.529	23440
824.669	23292
824.809	23433
824.949	23345
825.089	23387
825.228	23311
825.368	23006
825.508	23197
825.648	23010
825.787	23147
825.927	23170
826.067	23025
826.206	23083
826.346	23098
826.485	23113
826.625	23079
826.765	23109
826.904	23102
827.044	22938
827.183	22862
827.323	22721
827.462	22725
827.601	22774
827.741	22645
827.88	22748
828.02	22778
828.159	22630
828.298	22816
828.437	22927
828.577	22687
828.716	22866
828.855	22675
828.994	22584
829.134	22459
829.273	22523
829.412	22519
829.551	22363
829.69	22363
829.829	22500
829.968	22573
830.107	22550
830.246	22363
830.385	22333
830.524	22363
830.663	22238
830.802	22181
830.941	22067
831.08	21937
831.219	22143
831.357	22067
831.496	22253
831.635	21994
831.774	22013
831.913	21987
832.051	21747
832.19	21770
832.329	21827
832.467	21755
832.606	21641
832.744	21705
832.883	21835
833.022	21766
833.16	21842
833.299	21892
833.437	21968
833.576	22074
833.714	22036
833.852	22051
833.991	22139
834.129	22242
834.267	22280
834.406	22097
834.544	22177
834.682	22013
834.821	21888
834.959	22067
835.097	21941
835.235	21960
835.373	21751
835.511	21793
835.65	21774
835.788	21743
835.926	21477
836.064	21485
836.202	21393
836.34	21568
836.478	21667
836.615	21488
836.753	21466
836.891	21511
837.029	21542
837.167	21564
837.305	21416
837.443	21454
837.58	21332
837.718	21439
837.856	21294
837.993	21351
838.131	21397
838.269	21256
838.406	21226
838.544	21214
838.681	20944
838.819	20963
838.956	20773
839.094	20838
839.231	20880
839.369	20937
839.506	21249
839.643	20982
839.781	20845
839.918	20701
840.055	20853
840.193	20769
840.33	20720
840.467	20739
840.604	20701
840.742	20921
840.879	20568
841.016	20579
841.153	20609
841.29	20697
841.427	20686
841.564	20682
841.701	20758
841.838	20583
841.975	20663
842.112	20583
842.249	20518
842.385	20465
842.522	20701
842.659	20590
842.796	20419
842.933	20461
843.069	20465
843.206	20484
843.343	20587
843.479	20457
843.616	20526
843.752	20267
843.889	20404
844.025	20609
844.162	20332
844.298	20476
844.435	20503
844.571	20408
844.708	20613
844.844	20823
844.98	21112
845.117	21169
845.253	21595
845.389	22036
845.525	23292
845.661	25232
845.798	27831
845.934	29756
846.07	30635
846.206	30311
846.342	28736
846.478	26103
846.614	23855
846.75	22177
846.886	21374
847.022	20944
847.158	20579
847.294	20233
847.429	20164
847.565	20069
847.701	20107
847.837	19670
847.972	19651
848.108	19704
848.244	19556
848.379	19449
848.515	19343
848.65	19312
848.786	19384
848.921	19445
849.057	19400
849.192	19556
849.328	19365
849.463	19350
849.598	19255
849.734	19160
849.869	19148
850.004	19095
850.14	19107
850.275	19160
850.41	18962
850.545	18951
850.68	18928
850.815	19012
850.95	19069
851.085	19118
851.22	19168
851.355	18981
851.49	18905
851.625	18943
851.76	18951
851.895	18897
852.03	18951
852.165	19031
852.299	18962
852.434	19038
852.569	19103
852.703	18909
852.838	19050
852.973	19175
853.107	19152
853.242	18890
853.376	18947
853.511	18848
853.645	18821
853.78	19008
853.914	19000
854.048	18886
854.183	18996
854.317	18981
854.451	19110
854.585	18977
854.72	18897
854.854	19091
854.988	18954
855.122	18878
855.256	18783
855.39	18840
855.524	18973
855.658	18897
855.792	18932
855.926	18909
856.06	18878
856.194	19000
856.327	18768
856.461	18791
856.595	18798
856.729	18692
856.862	18935
856.996	18939
857.13	18985
857.263	18886
857.397	18977
857.53	18810
857.664	18920
857.797	18943
857.931	18913
858.064	18749
858.197	18749
858.331	18681
858.464	18753
858.597	18665
858.731	18692
858.864	18700
858.997	18635
859.13	18779
859.263	18798
859.396	18905
859.529	18730
859.662	18753
859.795	18730
859.928	18856
860.061	18798
860.194	18909
860.327	18749
860.46	18722
860.592	18806
860.725	18954
860.858	18916
860.99	18616
861.123	18738
861.256	18612
861.388	18715
861.521	19449
861.653	18597
861.786	18585
861.918	18608
862.05	18684
862.183	18749
862.315	18734
862.447	18795
862.58	18669
862.712	18521
862.844	18426
862.976	18525
863.108	18483
863.24	18715
863.372	18388
863.504	18395
863.636	18372
863.768	18502
863.9	18296
864.032	18433
864.164	18380
864.296	18448
864.428	18506
864.559	18460
864.691	18467
864.823	18369
864.954	18403
865.086	18414
865.217	18338
865.349	18216
865.48	18391
865.612	18338
865.743	18422
865.875	18437
866.006	18315
866.137	18429
866.269	18258
866.4	18353
866.531	18289
866.662	18323
866.793	18167
866.924	18232
867.055	18338
867.186	18254
867.317	18300
867.448	18194
867.579	18159
867.71	18171
867.841	18220
867.972	18323
868.103	18228
868.233	18350
868.364	18330
868.495	18388
868.625	18490
868.756	18563
868.886	18433
869.017	18494
869.147	18665
869.278	18601
869.408	18532
869.539	18426
869.669	18642
869.799	18494
869.929	18551
870.06	18688
870.19	18852
870.32	18856
870.45	18951
870.58	18916
870.71	19076
870.84	19027
870.97	19027
871.1	18928
871.23	19160
871.36	19187
871.489	18977
871.619	19168
871.749	19145
871.879	19187
872.008	19297
872.138	19247
872.267	19187
872.397	19050
872.526	19042
872.656	19012
872.785	19057
872.915	19266
873.044	19388
873.173	19160
873.303	19232
873.432	19362
873.561	19392
873.69	19339
873.819	19259
873.948	19480
874.077	19293
874.206	19327
874.335	19411
874.464	19575
874.593	19586
874.722	19582
874.851	19624
874.979	19750
875.108	19765
875.237	19464
875.365	19518
875.494	19681
875.623	19818
875.751	19689
875.88	19921
876.008	19963
876.136	20005
876.265	20294
876.393	20366
876.521	20252
876.65	20256
876.778	20271
876.906	20244
877.034	20248
877.162	20294
877.29	20256
877.418	20396
877.546	20408
877.674	20488
877.802	20461
877.93	20427
878.058	20590
878.185	20533
878.313	20689
878.441	20853
878.568	21020
878.696	21249
878.824	21462
878.951	22074
879.079	22573
879.206	23490
879.333	24197
879.461	24837
879.588	25346
879.715	25316
879.842	25114
879.97	24228
880.097	23299
880.224	22485
880.351	22230
880.478	21835
880.605	21526
880.732	21454
880.859	21679
880.986	21298
881.112	21401
881.239	21287
881.366	21055
881.493	20914
881.619	20849
881.746	21028
881.872	20807
881.999	20998
882.125	20941
882.252	20990
882.378	20933
882.505	21176
882.631	20986
882.757	20781
882.883	20792
883.01	20785
883.136	20674
883.262	20609
883.388	20598
883.514	20796
883.64	20701
883.766	20674
883.892	20564
884.018	20484
884.143	20826
884.269	20758
884.395	20514
884.52	20351
884.646	20480
884.772	20415
884.897	20298
885.023	20332
885.148	20533
885.274	20499
885.399	20484
885.524	20263
885.65	20313
885.775	20248
885.9	20081
886.025	20282
886.15	20134
886.275	19959
886.4	19928
886.525	19894
886.65	19852
886.775	19776
886.9	19864
887.025	19928
887.149	19712
887.274	19537
887.399	19426
887.523	19400
887.648	19270
887.773	19388
887.897	19415
888.021	19392
888.146	19190
888.27	19339
888.395	19240
888.519	19384
888.643	19236
888.767	19240
888.891	19084
889.015	18970
889.139	19019
889.263	18993
889.387	19027
889.511	19179
889.635	19084
889.759	18913
889.883	18867
890.006	18806
890.13	18882
890.254	18776
890.377	18741
890.501	18635
890.624	18506
890.748	18753
890.871	18506
890.995	18422
891.118	18346
891.241	18464
891.364	18448
891.488	18486
891.611	18273
891.734	18334
891.857	18296
891.98	18407
892.103	18395
892.226	18403
892.349	18213
892.471	18148
892.594	18148
892.717	18247
892.839	18125
892.962	18155
893.085	18327
893.207	18254
893.33	18110
893.452	17923
893.575	18152
893.697	18121
893.819	18296
893.941	18235
894.064	18273
894.186	18106
894.308	18019
894.43	18201
894.552	18296
894.674	18178
894.796	17836
894.918	18167
895.04	18095
895.161	18068
895.283	18041
895.405	17954
895.526	18114
895.648	18022
895.769	18083
895.891	17999
896.012	18057
896.134	18053
896.255	18049
896.376	18064
896.498	18007
896.619	18102
896.74	18087
896.861	18102
896.982	18338
897.103	18494
897.224	18285
897.345	18289
897.466	18102
897.587	18292
897.708	18372
897.828	18285
897.949	18209
898.07	18133
898.19	18121
898.311	18228
898.431	18228
898.552	18121
898.672	18304
898.792	18327
898.913	18178
899.033	18159
899.153	18060
899.273	17908
899.393	18057
899.513	18045
899.633	18057
899.753	17996
899.873	18011
899.993	18007
900.113	17874
900.232	17992
900.352	17984
900.472	17874
900.591	17710
900.711	17726
900.83	17748
900.95	17950
901.069	18015
901.189	17798
901.308	17471
901.427	17539
901.546	17493
901.665	17356
901.784	17421
901.904	17246
902.023	17212
902.141	17022
902.26	16919
902.379	17018
902.498	16984
902.617	16919
902.735	17033
902.854	16896
902.973	16778
903.091	16634
903.21	16660
903.328	16538
903.446	16398
903.565	16421
903.683	16447
903.801	16230
903.919	16432
904.038	16295
904.156	16173
904.274	16295
904.392	16181
904.51	16181
904.627	16196
904.745	16162
904.863	16242
904.981	15994
905.098	15930
905.216	15831
905.334	15884
905.451	15842
905.569	15808
905.686	15865
905.803	15835
905.921	15644
906.038	15762
906.155	15660
906.272	15348
906.389	15488
906.506	15473
906.623	15431
906.74	15374
906.857	15298
906.974	15241
907.091	15485
907.208	15523
907.324	15313
907.441	15287
907.557	15165
907.674	15142
907.79	15055
907.907	15009
908.023	15051
908.139	15085
908.256	14937
908.372	15062
908.488	14979
908.604	14845
908.72	14708
908.836	14777
908.952	14785
909.068	14765
909.184	14807
909.3	14804
909.415	14834
909.531	14762
909.647	14545
909.762	14476
909.878	14454
909.993	14507
910.108	14526
910.224	14495
910.339	14465
910.454	14290
910.57	14355
910.685	14180
910.8	14564
910.915	14526
911.03	14374
911.145	14145
911.259	14221
911.374	14153
911.489	14012
911.604	14054
911.718	13864
911.833	13902
911.947	13856
912.062	13639
912.176	13852
912.291	13890
912.405	13765
912.519	13982
912.633	14119
912.748	13921
912.862	13875
912.976	13712
913.09	13613
913.204	13590
913.318	13658
913.431	13875
913.545	13723
913.659	13746
913.772	13731
913.886	13559
914	13502
914.113	13502
914.226	13590
914.34	13658
914.453	13468
914.566	13491
914.68	13449
914.793	13422
914.906	13346
915.019	13133
915.132	13145
915.245	13209
915.358	13289
915.47	13278
915.583	13126
915.696	13259
915.809	13285
915.921	13331
916.034	13194
916.146	13023
916.259	13137
916.371	13190
916.483	13198
916.595	13103
916.708	13080
916.82	13141
916.932	13129
917.044	13122
917.156	12932
917.268	12890
917.38	13031
917.491	12913
917.603	12878
917.715	12973
917.826	12981
917.938	12916
918.049	12852
918.161	12905
918.272	13046
918.384	13023
918.495	12985
918.606	12776
918.717	12703
918.828	12639
918.939	12802
919.05	12658
919.161	12620
919.272	12513
919.383	12578
919.494	12684
919.604	12730
919.715	12692
919.826	12578
919.936	12597
920.047	12753
920.157	12593
920.267	12878
920.378	12768
920.488	12620
920.598	12833
920.708	13103
920.818	12833
920.928	12848
921.038	13012
921.148	12890
921.258	12604
921.368	12608
921.477	12414
921.587	12399
921.697	12270
921.806	12547
921.916	12357
922.025	12110
922.134	12136
922.244	12114
922.353	12098
922.462	12030
922.571	11866
922.68	11790
922.789	11821
922.898	11847
923.007	11668
923.116	11824
923.224	11790
923.333	11737
923.442	11558
923.55	11570
923.659	11623
923.767	11691
923.876	11535
923.984	11604
924.092	11543
924.201	11638
924.309	11532
924.417	11520
924.525	11535
924.633	11566
924.741	12266
924.849	11292
924.956	11463
925.064	11395
925.172	11280
925.279	11269
925.387	11318
925.494	11334
925.602	11334
925.709	11376
925.816	11288
925.924	11261
926.031	11322
926.138	11258
926.245	11273
926.352	11170
926.459	11349
926.566	11318
926.673	11204
926.779	11060
926.886	11025
926.993	10854
927.099	10942
927.206	10896
927.312	10828
927.419	10919
927.525	10885
927.631	10930
927.737	10793
927.843	10767
927.95	10721
928.056	10820
928.162	10778
928.267	10839
928.373	11288
928.479	10866
928.585	10611
928.69	10698
928.796	10809
928.901	10637
929.007	10519
929.112	10691
929.218	10584
929.323	10580
929.428	10424
929.533	10637
929.638	10504
929.743	10546
929.848	10516
929.953	10577
930.058	10344
930.163	10192
930.267	10261
930.372	10318
930.477	10219
930.581	10447
930.685	10333
930.79	10093
930.894	10192
930.998	10055
931.103	10310
931.207	9895
931.311	9816
931.415	9751
931.519	9534
931.623	9614
