Data from test_V78500241_1159.txt Node
Date: Fri Mar 25 14:41:47 CST 2022
User: usil
Spectrometer: V785-0024
Trigger mode: 0
Integration Time (sec): 4.000000E-1
Scans to average: 1
Nonlinearity correction enabled: false
Boxcar width: 0
Storing dark spectrum: false
XAxis mode: Wavelengths
Number of Pixels in Spectrum: 1024
>>>>>Begin Spectral Data<<<<<
801.071	22550
801.214	22474
801.356	22078
801.499	21994
801.641	21960
801.783	21854
801.926	21899
802.068	21812
802.211	21846
802.353	21618
802.496	21447
802.638	21397
802.78	21332
802.923	21298
803.065	21237
803.208	21230
803.35	21192
803.492	21230
803.635	21233
803.777	21351
803.919	21176
804.061	21492
804.204	21302
804.346	21131
804.488	21013
804.63	21108
804.773	21024
804.915	21173
805.057	21287
805.199	21203
805.341	21279
805.483	21180
805.626	21291
805.768	20994
805.91	21096
806.052	20963
806.194	21070
806.336	21268
806.478	21127
806.62	21127
806.762	21283
806.904	21386
807.046	21549
807.188	21431
807.33	21393
807.472	21599
807.614	21515
807.756	21564
807.898	21321
808.04	21294
808.182	21408
808.324	21317
808.465	21382
808.607	21599
808.749	21690
808.891	21850
809.033	21838
809.174	21728
809.316	21553
809.458	21603
809.6	21637
809.741	21637
809.883	21641
810.025	21823
810.166	21671
810.308	21842
810.45	21671
810.591	21713
810.733	21412
810.875	21359
811.016	21233
811.158	21222
811.299	21378
811.441	21458
811.582	21439
811.724	21325
811.865	21302
812.007	21393
812.148	21317
812.29	21382
812.431	21473
812.573	21713
812.714	21625
812.855	21762
812.997	21907
813.138	22013
813.279	21911
813.421	21812
813.562	21701
813.703	21675
813.845	21549
813.986	21157
814.127	21043
814.268	20937
814.41	20921
814.551	20971
814.692	20944
814.833	20815
814.974	20796
815.115	20906
815.256	20788
815.397	20727
815.539	20727
815.68	20579
815.821	20530
815.962	20602
816.103	20457
816.244	20530
816.385	20492
816.526	20366
816.666	20142
816.807	20024
816.948	20134
817.089	20191
817.23	20111
817.371	20077
817.512	20054
817.653	20130
817.793	20058
817.934	19982
818.075	20046
818.216	20119
818.356	20001
818.497	19917
818.638	19696
818.778	19696
818.919	19784
819.06	19791
819.2	19909
819.341	19989
819.481	20001
819.622	20092
819.762	20115
819.903	20149
820.043	20187
820.184	20031
820.324	19970
820.465	19982
820.605	20027
820.746	20111
820.886	19852
821.026	20050
821.167	19951
821.307	20069
821.447	19982
821.588	19864
821.728	19746
821.868	19609
822.008	19411
822.149	19415
822.289	19384
822.429	19114
822.569	19095
822.709	19091
822.849	18958
822.99	18920
823.13	18905
823.27	18894
823.41	18757
823.55	18616
823.69	18684
823.83	18741
823.97	18559
824.11	18456
824.25	18566
824.389	18490
824.529	18623
824.669	18627
824.809	18711
824.949	18608
825.089	18582
825.228	18464
825.368	18304
825.508	18273
825.648	18232
825.787	18407
825.927	18224
826.067	18239
826.206	18277
826.346	18403
826.485	18281
826.625	18372
826.765	18300
826.904	18262
827.044	18060
827.183	18015
827.323	18091
827.462	18022
827.601	17984
827.741	17973
827.88	17927
828.02	17870
828.159	17958
828.298	18007
828.437	18026
828.577	18045
828.716	18015
828.855	17942
828.994	17767
829.134	17718
829.273	17828
829.412	17726
829.551	17684
829.69	17710
829.829	17760
829.968	17790
830.107	17813
830.246	17798
830.385	17745
830.524	17611
830.663	17570
830.802	17414
830.941	17383
831.08	17395
831.219	17444
831.357	17436
831.496	17585
831.635	17318
831.774	17284
831.913	17227
832.051	17155
832.19	17174
832.329	17231
832.467	17025
832.606	17083
832.744	17071
832.883	17071
833.022	17098
833.16	17113
833.299	17128
833.437	17048
833.576	17098
833.714	17071
833.852	17189
833.991	17162
834.129	17288
834.267	17239
834.406	17132
834.544	17231
834.682	17102
834.821	17109
834.959	17299
835.097	17041
835.235	17140
835.373	17105
835.511	16995
835.65	16976
835.788	17083
835.926	16812
836.064	16839
836.202	16820
836.34	16999
836.478	17132
836.615	17025
836.753	17041
836.891	17117
837.029	17022
837.167	17014
837.305	16915
837.443	16957
837.58	16877
837.718	16999
837.856	16847
837.993	16953
838.131	16968
838.269	16831
838.406	16850
838.544	16793
838.681	16603
838.819	16538
838.956	16436
839.094	16363
839.231	16455
839.369	16649
839.506	16759
839.643	16672
839.781	16470
839.918	16341
840.055	16440
840.193	16375
840.33	16394
840.467	16489
840.604	16421
840.742	16752
840.879	16306
841.016	16348
841.153	16291
841.29	16554
841.427	16538
841.564	16428
841.701	16485
841.838	16386
841.975	16344
842.112	16379
842.249	16192
842.385	16226
842.522	16474
842.659	16280
842.796	16230
842.933	16211
843.069	16154
843.206	16112
843.343	16276
843.479	16223
843.616	16207
843.752	15968
843.889	15903
844.025	16188
844.162	15991
844.298	16013
844.435	15983
844.571	16006
844.708	16188
844.844	16219
844.98	16166
845.117	16078
845.253	15922
845.389	16017
845.525	15915
845.661	16040
845.798	15926
845.934	16040
846.07	15915
846.206	16044
846.342	16120
846.478	15888
846.614	15694
846.75	15644
846.886	15500
847.022	15717
847.158	15679
847.294	15648
847.429	15515
847.565	15523
847.701	15789
847.837	15287
847.972	15291
848.108	15363
848.244	15462
848.379	15233
848.515	15104
848.65	15180
848.786	15237
848.921	15184
849.057	15150
849.192	15249
849.328	15370
849.463	15161
849.598	15268
849.734	15138
849.869	15039
850.004	14967
850.14	14979
850.275	14956
850.41	14868
850.545	14864
850.68	14982
850.815	14948
850.95	14944
851.085	15146
851.22	15062
851.355	14925
851.49	14868
851.625	14864
851.76	14963
851.895	14914
852.03	14785
852.165	14937
852.299	15020
852.434	15081
852.569	14963
852.703	15077
852.838	14918
852.973	15192
853.107	15085
853.242	14868
853.376	14918
853.511	14708
853.645	14773
853.78	14960
853.914	14868
854.048	14796
854.183	14834
854.317	14845
854.451	14925
854.585	14853
854.72	14800
854.854	14838
854.988	14785
855.122	14815
855.256	14632
855.39	14838
855.524	14944
855.658	14864
855.792	14804
855.926	14842
856.06	14891
856.194	14906
856.327	14861
856.461	14800
856.595	14796
856.729	14777
856.862	14910
856.996	14883
857.13	14979
857.263	14990
857.397	14948
857.53	14876
857.664	14925
857.797	14952
857.931	14948
858.064	14819
858.197	14937
858.331	14849
858.464	14868
858.597	14644
858.731	14826
858.864	14769
858.997	14910
859.13	14861
859.263	14880
859.396	14986
859.529	14815
859.662	14781
859.795	14815
859.928	14857
860.061	14933
860.194	15020
860.327	14902
860.46	14842
860.592	15001
860.725	15005
860.858	15070
860.99	14777
861.123	14792
861.256	14807
861.388	14842
861.521	15584
861.653	14621
861.786	14632
861.918	14625
862.05	14727
862.183	14670
862.315	14815
862.447	14804
862.58	14716
862.712	14648
862.844	14545
862.976	14777
863.108	14640
863.24	14986
863.372	14568
863.504	14476
863.636	14640
863.768	14575
863.9	14659
864.032	14503
864.164	14541
864.296	14617
864.428	14640
864.559	14727
864.691	14663
864.823	14648
864.954	14670
865.086	14670
865.217	14667
865.349	14476
865.48	14549
865.612	14575
865.743	14731
865.875	14590
866.006	14644
866.137	14598
866.269	14610
866.4	14514
866.531	14568
866.662	14499
866.793	14526
866.924	14492
867.055	14598
867.186	14587
867.317	14503
867.448	14571
867.579	14499
867.71	14434
867.841	14396
867.972	14564
868.103	14549
868.233	14571
868.364	14503
868.495	14594
868.625	14773
868.756	14982
868.886	14731
869.017	14796
869.147	14876
869.278	14902
869.408	14857
869.539	14716
869.669	14906
869.799	14781
869.929	14925
870.06	14944
870.19	15093
870.32	15081
870.45	15157
870.58	15165
870.71	15370
870.84	15332
870.97	15256
871.1	15195
871.23	15462
871.36	15351
871.489	15313
871.619	15382
871.749	15405
871.879	15443
872.008	15564
872.138	15485
872.267	15245
872.397	15283
872.526	15218
872.656	15218
872.785	15211
872.915	15431
873.044	15561
873.173	15447
873.303	15549
873.432	15454
873.561	15568
873.69	15397
873.819	15443
873.948	15519
874.077	15485
874.206	15458
874.335	15545
874.464	15652
874.593	15736
874.722	15633
874.851	15907
874.979	15831
875.108	15739
875.237	15701
875.365	15637
875.494	15751
875.623	15850
875.751	15797
875.88	15865
876.008	15937
876.136	15972
876.265	16246
876.393	16337
876.521	16211
876.65	16318
876.778	16257
876.906	16078
877.034	16188
877.162	16238
877.29	16166
877.418	16124
877.546	16234
877.674	16188
877.802	16154
877.93	16188
878.058	16158
878.185	16063
878.313	16185
878.441	16162
878.568	16059
878.696	16230
878.824	16219
878.951	16322
879.079	16394
879.206	16550
879.333	16428
879.461	16318
879.588	16306
879.715	16451
879.842	16664
879.97	16325
880.097	16071
880.224	16112
880.351	16093
880.478	16048
880.605	16051
880.732	15994
880.859	16322
880.986	16036
881.112	16093
881.239	16002
881.366	15770
881.493	15690
881.619	15743
881.746	15819
881.872	15732
881.999	15610
882.125	15694
882.252	15762
882.378	15793
882.505	15846
882.631	15606
882.757	15530
882.883	15606
883.01	15485
883.136	15477
883.262	15294
883.388	15302
883.514	15603
883.64	15572
883.766	15504
883.892	15321
884.018	15393
884.143	15534
884.269	15538
884.395	15241
884.52	15207
884.646	15241
884.772	15176
884.897	15047
885.023	15325
885.148	15363
885.274	15249
885.399	15306
885.524	15199
885.65	15249
885.775	15199
885.9	15203
886.025	15291
886.15	15237
886.275	15142
886.4	15146
886.525	15108
886.65	15142
886.775	15112
886.9	15329
887.025	15481
887.149	15237
887.274	15028
887.399	15043
887.523	14986
887.648	14963
887.773	14941
887.897	15176
888.021	15051
888.146	15043
888.27	14990
888.395	15233
888.519	15036
888.643	15123
888.767	15188
888.891	14937
889.015	14929
889.139	14868
889.263	14743
889.387	15009
889.511	14994
889.635	15112
889.759	14819
889.883	14823
890.006	14933
890.13	15093
890.254	14777
890.377	14819
890.501	14651
890.624	14735
890.748	14693
890.871	14644
890.995	14511
891.118	14530
891.241	14594
891.364	14537
891.488	14670
891.611	14606
891.734	14629
891.857	14693
891.98	14552
892.103	14686
892.226	14613
892.349	14564
892.471	14431
892.594	14469
892.717	14579
892.839	14530
892.962	14514
893.085	14644
893.207	14613
893.33	14393
893.452	14522
893.575	14579
893.697	14461
893.819	14655
893.941	14705
894.064	14743
894.186	14499
894.308	14541
894.43	14800
894.552	14762
894.674	14731
894.796	14545
894.918	14651
895.04	14606
895.161	14667
895.283	14598
895.405	14556
895.526	14594
895.648	14644
895.769	14773
895.891	14697
896.012	14762
896.134	14716
896.255	14720
896.376	14689
896.498	14701
896.619	14716
896.74	14651
896.861	14731
896.982	15077
897.103	15074
897.224	15009
897.345	14948
897.466	14906
897.587	15032
897.708	15169
897.828	15085
897.949	14941
898.07	14876
898.19	14895
898.311	15116
898.431	15005
898.552	15062
898.672	15138
898.792	15093
898.913	15150
899.033	15024
899.153	14872
899.273	14845
899.393	14925
899.513	14918
899.633	14918
899.753	14902
899.873	14941
899.993	14838
900.113	14880
900.232	14933
900.352	14819
900.472	14823
900.591	14689
900.711	14823
900.83	14746
900.95	14800
901.069	14842
901.189	14667
901.308	14442
901.427	14271
901.546	14396
901.665	14419
901.784	14446
901.904	14252
902.023	14187
902.141	14039
902.26	13982
902.379	14050
902.498	13970
902.617	13841
902.735	14065
902.854	14016
902.973	13909
903.091	13753
903.21	13712
903.328	13693
903.446	13628
903.565	13537
903.683	13563
903.801	13514
903.919	13495
904.038	13525
904.156	13358
904.274	13415
904.392	13362
904.51	13270
904.627	13289
904.745	13369
904.863	13419
904.981	13129
905.098	13042
905.216	13061
905.334	13103
905.451	13027
905.569	12993
905.686	13149
905.803	13015
905.921	12871
906.038	12897
906.155	12863
906.272	12741
906.389	12844
906.506	12635
906.623	12604
906.74	12642
906.857	12418
906.974	12612
907.091	12772
907.208	12829
907.324	12654
907.441	12513
907.557	12407
907.674	12376
907.79	12311
907.907	12334
908.023	12414
908.139	12414
908.256	12289
908.372	12251
908.488	12205
908.604	12121
908.72	12106
908.836	12136
908.952	12129
909.068	12148
909.184	12216
909.3	12159
909.415	12129
909.531	12076
909.647	11992
909.762	11893
909.878	11904
909.993	11969
910.108	11874
910.224	11824
910.339	11912
910.454	11745
910.57	11775
910.685	11756
910.8	11958
910.915	11897
911.03	11813
911.145	11570
911.259	11653
911.374	11627
911.489	11551
911.604	11459
911.718	11307
911.833	11334
911.947	11204
912.062	11159
912.176	11242
912.291	11315
912.405	11269
912.519	11486
912.633	11490
912.748	11440
912.862	11307
912.976	11242
913.09	11140
913.204	11170
913.318	11269
913.431	11197
913.545	11269
913.659	11349
913.772	11159
913.886	11090
914	11098
914.113	11185
914.226	11166
914.34	11220
914.453	11018
914.566	11220
914.68	11029
914.793	11029
914.906	10889
915.019	10790
915.132	10839
915.245	10816
915.358	10858
915.47	10816
915.583	10877
915.696	10805
915.809	11003
915.921	10991
916.034	10771
916.146	10729
916.259	10774
916.371	10984
916.483	10850
916.595	10774
916.708	10797
916.82	10782
916.932	10812
917.044	10656
917.156	10687
917.268	10622
917.38	10630
917.491	10645
917.603	10683
917.715	10801
917.826	10710
917.938	10691
918.049	10485
918.161	10717
918.272	10797
918.384	10748
918.495	10744
918.606	10580
918.717	10428
918.828	10573
918.939	10512
919.05	10443
919.161	10466
919.272	10375
919.383	10386
919.494	10653
919.604	10820
919.715	10577
919.826	10455
919.936	10535
920.047	10550
920.157	10535
920.267	10771
920.378	10637
920.488	10550
920.598	10736
920.708	10923
920.818	10763
920.928	10729
921.038	10862
921.148	10930
921.258	10592
921.368	10508
921.477	10443
921.587	10402
921.697	10276
921.806	10295
921.916	10291
922.025	10181
922.134	10109
922.244	10055
922.353	10166
922.462	9953
922.571	10006
922.68	9808
922.789	9720
922.898	9808
923.007	9797
923.116	9816
923.224	9808
923.333	9819
923.442	9720
923.55	9656
923.659	9759
923.767	9781
923.876	9603
923.984	9713
924.092	9561
924.201	9675
924.309	9705
924.417	9660
924.525	9656
924.633	9610
924.741	10310
924.849	9458
924.956	9538
925.064	9378
925.172	9351
925.279	9431
925.387	9431
925.494	9435
925.602	9557
925.709	9561
925.816	9492
925.924	9382
926.031	9599
926.138	9469
926.245	9473
926.352	9370
926.459	9568
926.566	9545
926.673	9405
926.779	9199
926.886	9359
926.993	9165
927.099	9135
927.206	9066
927.312	9085
927.419	9146
927.525	9180
927.631	9214
927.737	9051
927.843	9001
927.95	8990
928.056	8925
928.162	9089
928.267	9009
928.373	9652
928.479	9142
928.585	8971
928.69	8944
928.796	9108
928.901	8914
929.007	8807
929.112	8906
929.218	8830
929.323	8895
929.428	8880
929.533	8933
929.638	8746
929.743	8788
929.848	8925
929.953	8792
930.058	8754
930.163	8602
930.267	8667
930.372	8678
930.477	8579
930.581	8762
930.685	8640
930.79	8533
930.894	8613
930.998	8598
931.103	8708
931.207	8317
931.311	8282
931.415	8145
931.519	8065
931.623	8050
