Data from test_V78500241_2480.txt Node
Date: Fri Mar 25 14:50:58 CST 2022
User: usil
Spectrometer: V785-0024
Trigger mode: 0
Integration Time (sec): 4.000000E-1
Scans to average: 1
Nonlinearity correction enabled: false
Boxcar width: 0
Storing dark spectrum: false
XAxis mode: Wavelengths
Number of Pixels in Spectrum: 1024
>>>>>Begin Spectral Data<<<<<
801.071	22112
801.214	21964
801.356	21660
801.499	21656
801.641	21496
801.783	21416
801.926	21401
802.068	21340
802.211	21359
802.353	21211
802.496	20967
802.638	20853
802.78	20906
802.923	20861
803.065	20765
803.208	20716
803.35	20838
803.492	20819
803.635	20914
803.777	20697
803.919	20956
804.061	21157
804.204	20845
804.346	20663
804.488	20758
804.63	20899
804.773	20750
804.915	20636
805.057	20781
805.199	20705
805.341	20765
805.483	20883
805.626	20823
805.768	20674
805.91	20716
806.052	20819
806.194	20552
806.336	20872
806.478	20598
806.62	20769
806.762	20792
806.904	20910
807.046	21161
807.188	21020
807.33	21009
807.472	21116
807.614	20941
807.756	20864
807.898	20769
808.04	20746
808.182	20762
808.324	20857
808.465	20777
808.607	20944
808.749	21093
808.891	21176
809.033	21264
809.174	21154
809.316	20929
809.458	21009
809.6	20998
809.741	21104
809.883	21127
810.025	21112
810.166	21249
810.308	21306
810.45	21138
810.591	21062
810.733	20925
810.875	20861
811.016	20716
811.158	20659
811.299	20823
811.441	20952
811.582	20948
811.724	20800
811.865	20762
812.007	20800
812.148	20708
812.29	20788
812.431	20971
812.573	21108
812.714	21157
812.855	21241
812.997	21447
813.138	21511
813.279	21389
813.421	21294
813.562	21184
813.703	21039
813.845	21089
813.986	20811
814.127	20552
814.268	20336
814.41	20317
814.551	20381
814.692	20488
814.833	20313
814.974	20362
815.115	20381
815.256	20218
815.397	20256
815.539	20259
815.68	20005
815.821	20012
815.962	20054
816.103	20012
816.244	19883
816.385	19841
816.526	19940
816.666	19594
816.807	19537
816.948	19643
817.089	19643
817.23	19506
817.371	19563
817.512	19624
817.653	19590
817.793	19358
817.934	19449
818.075	19563
818.216	19441
818.356	19430
818.497	19263
818.638	19133
818.778	19255
818.919	19198
819.06	19266
819.2	19266
819.341	19407
819.481	19365
819.622	19502
819.762	19811
819.903	19544
820.043	19586
820.184	19571
820.324	19449
820.465	19396
820.605	19510
820.746	19392
820.886	19407
821.026	19601
821.167	19377
821.307	19567
821.447	19400
821.588	19289
821.728	19179
821.868	19034
822.008	18882
822.149	18875
822.289	18962
822.429	18646
822.569	18544
822.709	18635
822.849	18357
822.99	18376
823.13	18323
823.27	18247
823.41	18205
823.55	18144
823.69	18159
823.83	18117
823.97	18182
824.11	18060
824.25	17912
824.389	17939
824.529	17980
824.669	17984
824.809	18064
824.949	18022
825.089	18038
825.228	17946
825.368	17851
825.508	17627
825.648	17722
825.787	17840
825.927	17836
826.067	17676
826.206	17653
826.346	17798
826.485	17638
826.625	17760
826.765	17870
826.904	17805
827.044	17573
827.183	17524
827.323	17360
827.462	17589
827.601	17630
827.741	17482
827.88	17444
828.02	17273
828.159	17474
828.298	17387
828.437	17524
828.577	17474
828.716	17589
828.855	17463
828.994	17197
829.134	17204
829.273	17227
829.412	17181
829.551	17258
829.69	17208
829.829	17239
829.968	17360
830.107	17227
830.246	17337
830.385	17223
830.524	17060
830.663	17022
830.802	16915
830.941	16835
831.08	16812
831.219	16942
831.357	16927
831.496	17090
831.635	16812
831.774	16877
831.913	16694
832.051	16630
832.19	16634
832.329	16668
832.467	16535
832.606	16421
832.744	16546
832.883	16592
833.022	16550
833.16	16580
833.299	16599
833.437	16512
833.576	16577
833.714	16645
833.852	16538
833.991	16565
834.129	16698
834.267	16580
834.406	16653
834.544	16573
834.682	16592
834.821	16489
834.959	16672
835.097	16588
835.235	16622
835.373	16675
835.511	16588
835.65	16474
835.788	16516
835.926	16291
836.064	16257
836.202	16295
836.34	16451
836.478	16618
836.615	16424
836.753	16535
836.891	16592
837.029	16512
837.167	16470
837.305	16417
837.443	16386
837.58	16352
837.718	16478
837.856	16352
837.993	16226
838.131	16360
838.269	16306
838.406	16207
838.544	16291
838.681	16071
838.819	16017
838.956	15907
839.094	15949
839.231	16017
839.369	15987
839.506	16249
839.643	16090
839.781	15949
839.918	15804
840.055	15854
840.193	15842
840.33	15797
840.467	15895
840.604	15907
840.742	16215
840.879	15720
841.016	15800
841.153	15800
841.29	15968
841.427	15888
841.564	15892
841.701	15968
841.838	15895
841.975	15808
842.112	15800
842.249	15633
842.385	15778
842.522	15915
842.659	15720
842.796	15644
842.933	15720
843.069	15641
843.206	15610
843.343	15747
843.479	15644
843.616	15698
843.752	15515
843.889	15595
844.025	15618
844.162	15458
844.298	15564
844.435	15469
844.571	15401
844.708	15530
844.844	15675
844.98	15553
845.117	15561
845.253	15458
845.389	15256
845.525	15336
845.661	15397
845.798	15291
845.934	15389
846.07	15291
846.206	15260
846.342	15386
846.478	15283
846.614	15138
846.75	15017
846.886	15020
847.022	15192
847.158	14937
847.294	15119
847.429	15104
847.565	14982
847.701	15393
847.837	14842
847.972	14773
848.108	14880
848.244	14876
848.379	14693
848.515	14651
848.65	14617
848.786	14583
848.921	14594
849.057	14727
849.192	14701
849.328	14689
849.463	14712
849.598	14598
849.734	14518
849.869	14507
850.004	14423
850.14	14442
850.275	14366
850.41	14286
850.545	14393
850.68	14408
850.815	14427
850.95	14454
851.085	14602
851.22	14507
851.355	14457
851.49	14328
851.625	14366
851.76	14469
851.895	14355
852.03	14263
852.165	14275
852.299	14347
852.434	14461
852.569	14434
852.703	14434
852.838	14503
852.973	14526
853.107	14590
853.242	14366
853.376	14183
853.511	14183
853.645	14229
853.78	14385
853.914	14252
854.048	14256
854.183	14168
854.317	14282
854.451	14427
854.585	14271
854.72	14210
854.854	14336
854.988	14221
855.122	14309
855.256	14138
855.39	14233
855.524	14320
855.658	14339
855.792	14313
855.926	14259
856.06	14400
856.194	14351
856.327	14301
856.461	14225
856.595	14237
856.729	14271
856.862	14362
856.996	14309
857.13	14324
857.263	14305
857.397	14457
857.53	14320
857.664	14298
857.797	14370
857.931	14320
858.064	14244
858.197	14370
858.331	14301
858.464	14233
858.597	14221
858.731	14298
858.864	14267
858.997	14225
859.13	14366
859.263	14317
859.396	14389
859.529	14328
859.662	14252
859.795	14225
859.928	14252
860.061	14503
860.194	14374
860.327	14343
860.46	14298
860.592	14347
860.725	14313
860.858	14423
860.99	14336
861.123	14187
861.256	14168
861.388	14240
861.521	14899
861.653	14183
861.786	14168
861.918	14153
862.05	14275
862.183	14199
862.315	14214
862.447	14381
862.58	14202
862.712	14100
862.844	13967
862.976	14145
863.108	14161
863.24	14374
863.372	13989
863.504	13993
863.636	13986
863.768	14138
863.9	14065
864.032	13967
864.164	14081
864.296	14130
864.428	14073
864.559	14088
864.691	14218
864.823	14092
864.954	14005
865.086	14096
865.217	14035
865.349	13982
865.48	13967
865.612	14012
865.743	14191
865.875	13967
866.006	13997
866.137	14050
866.269	14058
866.4	14012
866.531	14031
866.662	13978
866.793	13993
866.924	13963
867.055	14046
867.186	13917
867.317	14008
867.448	13963
867.579	13833
867.71	13898
867.841	13959
867.972	14001
868.103	14031
868.233	14043
868.364	14096
868.495	14199
868.625	14259
868.756	14362
868.886	14252
869.017	14229
869.147	14370
869.278	14362
869.408	14259
869.539	14385
869.669	14366
869.799	14347
869.929	14370
870.06	14400
870.19	14587
870.32	14716
870.45	14648
870.58	14655
870.71	14781
870.84	14758
870.97	14720
871.1	14632
871.23	14807
871.36	14918
871.489	14868
871.619	14842
871.749	14914
871.879	14872
872.008	14906
872.138	14872
872.267	14788
872.397	14765
872.526	14629
872.656	14640
872.785	14746
872.915	14899
873.044	14963
873.173	14967
873.303	14971
873.432	14963
873.561	14975
873.69	14933
873.819	14918
873.948	15108
874.077	14899
874.206	14880
874.335	14902
874.464	15100
874.593	15161
874.722	15135
874.851	15332
874.979	15211
875.108	15428
875.237	15230
875.365	15150
875.494	15230
875.623	15294
875.751	15230
875.88	15226
876.008	15420
876.136	15481
876.265	15682
876.393	15736
876.521	15739
876.65	15724
876.778	15648
876.906	15564
877.034	15595
877.162	15606
877.29	15599
877.418	15736
877.546	15720
877.674	15591
877.802	15606
877.93	15648
878.058	15637
878.185	15462
878.313	15595
878.441	15675
878.568	15500
878.696	15587
878.824	15800
878.951	15660
879.079	15759
879.206	15960
879.333	15880
879.461	15705
879.588	15800
879.715	15865
879.842	16010
879.97	15755
880.097	15447
880.224	15374
880.351	15564
880.478	15515
880.605	15462
880.732	15488
880.859	15762
880.986	15492
881.112	15515
881.239	15412
881.366	15283
881.493	15207
881.619	15214
881.746	15150
881.872	15176
881.999	15138
882.125	15070
882.252	15135
882.378	15184
882.505	15287
882.631	15127
882.757	15005
882.883	14975
883.01	14952
883.136	14918
883.262	14880
883.388	14731
883.514	15024
883.64	14971
883.766	14929
883.892	14693
884.018	14826
884.143	14967
884.269	15104
884.395	14659
884.52	14632
884.646	14712
884.772	14712
884.897	14594
885.023	14648
885.148	14746
885.274	14921
885.399	14804
885.524	14655
885.65	14769
885.775	14678
885.9	14743
886.025	14857
886.15	14929
886.275	14602
886.4	14541
886.525	14663
886.65	14625
886.775	14564
886.9	14731
887.025	14895
887.149	14724
887.274	14503
887.399	14514
887.523	14450
887.648	14374
887.773	14377
887.897	14549
888.021	14621
888.146	14381
888.27	14655
888.395	14617
888.519	14545
888.643	14560
888.767	14594
888.891	14438
889.015	14298
889.139	14446
889.263	14343
889.387	14488
889.511	14602
889.635	14549
889.759	14313
889.883	14324
890.006	14454
890.13	14560
890.254	14336
890.377	14294
890.501	14183
890.624	14221
890.748	14309
890.871	14001
890.995	14031
891.118	13967
891.241	14145
891.364	14138
891.488	14195
891.611	14096
891.734	14050
891.857	14138
891.98	14043
892.103	14168
892.226	14134
892.349	14058
892.471	13970
892.594	14054
892.717	14233
892.839	14069
892.962	14130
893.085	14058
893.207	14111
893.33	13947
893.452	13894
893.575	14206
893.697	14077
893.819	14210
893.941	14263
894.064	14248
894.186	14065
894.308	14039
894.43	14191
894.552	14339
894.674	14248
894.796	14081
894.918	14084
895.04	14149
895.161	14233
895.283	14088
895.405	14164
895.526	14142
895.648	14183
895.769	14172
895.891	14229
896.012	14313
896.134	14256
896.255	14294
896.376	14164
896.498	14290
896.619	14252
896.74	14263
896.861	14301
896.982	14613
897.103	14762
897.224	14480
897.345	14571
897.466	14347
897.587	14446
897.708	14625
897.828	14564
897.949	14507
898.07	14347
898.19	14499
898.311	14632
898.431	14518
898.552	14556
898.672	14781
898.792	14636
898.913	14625
899.033	14526
899.153	14419
899.273	14423
899.393	14389
899.513	14473
899.633	14492
899.753	14522
899.873	14438
899.993	14495
900.113	14545
900.232	14533
900.352	14495
900.472	14355
900.591	14313
900.711	14282
900.83	14252
900.95	14499
901.069	14484
901.189	14210
901.308	14069
901.427	13974
901.546	13898
901.665	14020
901.784	13970
901.904	13807
902.023	13830
902.141	13632
902.26	13544
902.379	13647
902.498	13396
902.617	13628
902.735	13510
902.854	13521
902.973	13472
903.091	13312
903.21	13304
903.328	13297
903.446	13213
903.565	13122
903.683	13202
903.801	13088
903.919	13152
904.038	13141
904.156	12916
904.274	13004
904.392	12958
904.51	12935
904.627	12935
904.745	13012
904.863	12966
904.981	12745
905.098	12601
905.216	12620
905.334	12715
905.451	12749
905.569	12593
905.686	12711
905.803	12677
905.921	12407
906.038	12597
906.155	12464
906.272	12315
906.389	12445
906.506	12277
906.623	12239
906.74	12243
906.857	12133
906.974	12060
907.091	12159
907.208	12361
907.324	12319
907.441	12155
907.557	12022
907.674	12064
907.79	11885
907.907	11977
908.023	11988
908.139	11935
908.256	11901
908.372	11885
908.488	11889
908.604	11760
908.72	11703
908.836	11707
908.952	11767
909.068	11760
909.184	11863
909.3	11756
909.415	11707
909.531	11821
909.647	11570
909.762	11478
909.878	11505
909.993	11493
910.108	11520
910.224	11474
910.339	11490
910.454	11417
910.57	11341
910.685	11216
910.8	11630
910.915	11455
911.03	11471
911.145	11242
911.259	11159
911.374	11265
911.489	11170
911.604	11128
911.718	11033
911.833	10976
911.947	10957
912.062	10717
912.176	11006
912.291	10904
912.405	10923
912.519	11201
912.633	11239
912.748	11098
912.862	10923
912.976	10843
913.09	10786
913.204	10831
913.318	10854
913.431	10930
913.545	10961
913.659	10987
913.772	10828
913.886	10759
914	10641
914.113	10828
914.226	10847
914.34	10877
914.453	10611
914.566	10812
914.68	10630
914.793	10664
914.906	10462
915.019	10478
915.132	10398
915.245	10436
915.358	10489
915.47	10573
915.583	10569
915.696	10512
915.809	10607
915.921	10542
916.034	10390
916.146	10394
916.259	10432
916.371	10497
916.483	10550
916.595	10443
916.708	10493
916.82	10409
916.932	10363
917.044	10329
917.156	10333
917.268	10284
917.38	10303
917.491	10272
917.603	10257
917.715	10341
917.826	10325
917.938	10375
918.049	10215
918.161	10299
918.272	10493
918.384	10402
918.495	10329
918.606	10204
918.717	10124
918.828	10249
918.939	10173
919.05	10090
919.161	10238
919.272	9956
919.383	10040
919.494	10329
919.604	10402
919.715	10215
919.826	10131
919.936	10215
920.047	10291
920.157	10192
920.267	10398
920.378	10295
920.488	10162
920.598	10409
920.708	10516
920.818	10398
920.928	10432
921.038	10618
921.148	10470
921.258	10227
921.368	10166
921.477	10120
921.587	10013
921.697	9941
921.806	10135
921.916	9888
922.025	9816
922.134	9789
922.244	9701
922.353	9800
922.462	9625
922.571	9629
922.68	9424
922.789	9439
922.898	9519
923.007	9416
923.116	9511
923.224	9443
923.333	9481
923.442	9329
923.55	9249
923.659	9382
923.767	9393
923.876	9367
923.984	9447
924.092	9165
924.201	9340
924.309	9329
924.417	9344
924.525	9298
924.633	9233
924.741	10036
924.849	9085
924.956	9249
925.064	9135
925.172	9043
925.279	9077
925.387	9051
925.494	9157
925.602	9332
925.709	9184
925.816	9062
925.924	9077
926.031	9214
926.138	9039
926.245	9154
926.352	9119
926.459	9138
926.566	9157
926.673	8998
926.779	8963
926.886	8994
926.993	8883
927.099	8857
927.206	8735
927.312	8842
927.419	8876
927.525	8864
927.631	8887
927.737	8766
927.843	8750
927.95	8610
928.056	8754
928.162	8716
928.267	8777
928.373	9382
928.479	8838
928.585	8602
928.69	8701
928.796	8754
928.901	8667
929.007	8488
929.112	8617
929.218	8651
929.323	8560
929.428	8522
929.533	8705
929.638	8503
929.743	8495
929.848	8579
929.953	8511
930.058	8507
930.163	8271
930.267	8393
930.372	8454
930.477	8347
930.581	8522
930.685	8412
930.79	8248
930.894	8332
930.998	8271
931.103	8408
931.207	8111
931.311	7993
931.415	7974
931.519	7788
931.623	7776
