Data from test_V78500241_1190.txt Node
Date: Fri Mar 25 14:42:00 CST 2022
User: usil
Spectrometer: V785-0024
Trigger mode: 0
Integration Time (sec): 4.000000E-1
Scans to average: 1
Nonlinearity correction enabled: false
Boxcar width: 0
Storing dark spectrum: false
XAxis mode: Wavelengths
Number of Pixels in Spectrum: 1024
>>>>>Begin Spectral Data<<<<<
801.071	22432
801.214	22405
801.356	22215
801.499	22051
801.641	21827
801.783	21823
801.926	21838
802.068	21724
802.211	21599
802.353	21652
802.496	21397
802.638	21241
802.78	21317
802.923	21195
803.065	21165
803.208	21161
803.35	21192
803.492	21252
803.635	21211
803.777	21157
803.919	21142
804.061	21477
804.204	21214
804.346	21055
804.488	21154
804.63	21135
804.773	21100
804.915	21100
805.057	21142
805.199	21005
805.341	21123
805.483	21237
805.626	21074
805.768	21001
805.91	21036
806.052	21100
806.194	20986
806.336	21138
806.478	21104
806.62	20994
806.762	21211
806.904	21272
807.046	21530
807.188	21397
807.33	21287
807.472	21477
807.614	21378
807.756	21310
807.898	21287
808.04	21154
808.182	21211
808.324	21207
808.465	21218
808.607	21393
808.749	21458
808.891	21629
809.033	21724
809.174	21587
809.316	21587
809.458	21610
809.6	21439
809.741	21515
809.883	21542
810.025	21595
810.166	21675
810.308	21644
810.45	21606
810.591	21443
810.733	21408
810.875	21256
811.016	21188
811.158	21154
811.299	21241
811.441	21408
811.582	21397
811.724	21329
811.865	21207
812.007	21195
812.148	21222
812.29	21233
812.431	21443
812.573	21587
812.714	21629
812.855	21808
812.997	21823
813.138	22048
813.279	21789
813.421	21743
813.562	21599
813.703	21488
813.845	21412
813.986	21100
814.127	20910
814.268	20796
814.41	20861
814.551	20868
814.692	20845
814.833	20651
814.974	20708
815.115	20750
815.256	20507
815.397	20651
815.539	20549
815.68	20579
815.821	20533
815.962	20514
816.103	20484
816.244	20518
816.385	20237
816.526	20309
816.666	20096
816.807	19902
816.948	20035
817.089	20065
817.23	19986
817.371	19982
817.512	20016
817.653	19906
817.793	19879
817.934	19959
818.075	19993
818.216	20005
818.356	19818
818.497	19772
818.638	19639
818.778	19609
818.919	19655
819.06	19662
819.2	19719
819.341	19803
819.481	19837
819.622	20001
819.762	20100
819.903	20077
820.043	19932
820.184	19917
820.324	19917
820.465	20058
820.605	19967
820.746	19993
820.886	19765
821.026	19928
821.167	19936
821.307	19959
821.447	19822
821.588	19822
821.728	19563
821.868	19476
822.008	19407
822.149	19331
822.289	19255
822.429	19072
822.569	19008
822.709	18993
822.849	18848
822.99	18905
823.13	18802
823.27	18776
823.41	18738
823.55	18593
823.69	18688
823.83	18627
823.97	18616
824.11	18426
824.25	18452
824.389	18574
824.529	18547
824.669	18418
824.809	18452
824.949	18528
825.089	18506
825.228	18464
825.368	18342
825.508	18213
825.648	18266
825.787	18315
825.927	18346
826.067	18159
826.206	18197
826.346	18159
826.485	18285
826.625	18216
826.765	18353
826.904	18232
827.044	18102
827.183	18022
827.323	17954
827.462	17965
827.601	17939
827.741	17920
827.88	18030
828.02	17779
828.159	17931
828.298	17916
828.437	17958
828.577	17969
828.716	18102
828.855	17893
828.994	17832
829.134	17714
829.273	17703
829.412	17691
829.551	17649
829.69	17611
829.829	17703
829.968	17737
830.107	17737
830.246	17726
830.385	17554
830.524	17630
830.663	17509
830.802	17368
830.941	17292
831.08	17315
831.219	17444
831.357	17337
831.496	17509
831.635	17258
831.774	17261
831.913	17227
832.051	17128
832.19	17155
832.329	17200
832.467	17067
832.606	16987
832.744	16965
832.883	16995
833.022	16976
833.16	16930
833.299	16995
833.437	17041
833.576	17003
833.714	17014
833.852	17022
833.991	17102
834.129	17174
834.267	17128
834.406	17060
834.544	17067
834.682	17052
834.821	17014
834.959	17227
835.097	17025
835.235	17147
835.373	17090
835.511	17090
835.65	16934
835.788	16984
835.926	16824
836.064	16866
836.202	16873
836.34	16995
836.478	17022
836.615	16896
836.753	17018
836.891	17079
837.029	17075
837.167	16904
837.305	16885
837.443	16805
837.58	16748
837.718	17075
837.856	16873
837.993	16820
838.131	16873
838.269	16736
838.406	16687
838.544	16744
838.681	16489
838.819	16485
838.956	16367
839.094	16382
839.231	16360
839.369	16516
839.506	16809
839.643	16584
839.781	16306
839.918	16451
840.055	16348
840.193	16337
840.33	16371
840.467	16382
840.604	16405
840.742	16618
840.879	16268
841.016	16344
841.153	16295
841.29	16497
841.427	16367
841.564	16500
841.701	16398
841.838	16291
841.975	16257
842.112	16329
842.249	16162
842.385	16036
842.522	16322
842.659	16181
842.796	16109
842.933	16303
843.069	16074
843.206	16150
843.343	16314
843.479	16086
843.616	16238
843.752	16010
843.889	15892
844.025	16192
844.162	15918
844.298	15953
844.435	15975
844.571	15823
844.708	15983
844.844	16074
844.98	16158
845.117	16139
845.253	16006
845.389	15934
845.525	15861
845.661	15934
845.798	15774
845.934	15945
846.07	15842
846.206	15937
846.342	15956
846.478	15861
846.614	15587
846.75	15500
846.886	15492
847.022	15584
847.158	15568
847.294	15553
847.429	15519
847.565	15526
847.701	15728
847.837	15340
847.972	15294
848.108	15302
848.244	15199
848.379	15192
848.515	15028
848.65	15150
848.786	15036
848.921	15169
849.057	15180
849.192	15184
849.328	15214
849.463	15173
849.598	15112
849.734	15085
849.869	15093
850.004	14823
850.14	14891
850.275	14788
850.41	14796
850.545	14804
850.68	14792
850.815	14804
850.95	14963
851.085	14967
851.22	14994
851.355	14990
851.49	14804
851.625	14838
851.76	14941
851.895	14735
852.03	14838
852.165	14876
852.299	14842
852.434	14910
852.569	14899
852.703	14902
852.838	14925
852.973	15024
853.107	15020
853.242	14815
853.376	14857
853.511	14705
853.645	14724
853.78	14815
853.914	14807
854.048	14712
854.183	14750
854.317	14785
854.451	14925
854.585	14716
854.72	14693
854.854	14788
854.988	14701
855.122	14754
855.256	14636
855.39	14674
855.524	14762
855.658	14811
855.792	14754
855.926	14746
856.06	14800
856.194	14845
856.327	14674
856.461	14720
856.595	14648
856.729	14610
856.862	14883
856.996	14754
857.13	14834
857.263	14918
857.397	14815
857.53	14735
857.664	14811
857.797	14899
857.931	14872
858.064	14762
858.197	14906
858.331	14758
858.464	14788
858.597	14636
858.731	14773
858.864	14720
858.997	14693
859.13	14842
859.263	14796
859.396	14750
859.529	14746
859.662	14727
859.795	14720
859.928	14819
860.061	14895
860.194	14929
860.327	14792
860.46	14819
860.592	14830
860.725	14880
860.858	14921
860.99	14746
861.123	14636
861.256	14617
861.388	14804
861.521	15500
861.653	14533
861.786	14571
861.918	14560
862.05	14659
862.183	14678
862.315	14807
862.447	14788
862.58	14640
862.712	14587
862.844	14419
862.976	14651
863.108	14469
863.24	14880
863.372	14476
863.504	14545
863.636	14541
863.768	14629
863.9	14362
864.032	14381
864.164	14503
864.296	14457
864.428	14598
864.559	14610
864.691	14629
864.823	14533
864.954	14564
865.086	14602
865.217	14480
865.349	14480
865.48	14522
865.612	14526
865.743	14606
865.875	14564
866.006	14377
866.137	14507
866.269	14457
866.4	14473
866.531	14396
866.662	14419
866.793	14469
866.924	14381
867.055	14507
867.186	14594
867.317	14438
867.448	14385
867.579	14400
867.71	14393
867.841	14423
867.972	14457
868.103	14480
868.233	14507
868.364	14434
868.495	14552
868.625	14644
868.756	14758
868.886	14667
869.017	14727
869.147	14880
869.278	14868
869.408	14758
869.539	14697
869.669	14773
869.799	14785
869.929	14792
870.06	14857
870.19	14948
870.32	14933
870.45	15024
870.58	15142
870.71	15207
870.84	15165
870.97	15154
871.1	15077
871.23	15374
871.36	15340
871.489	15154
871.619	15249
871.749	15287
871.879	15344
872.008	15401
872.138	15336
872.267	15214
872.397	15176
872.526	15211
872.656	15233
872.785	15089
872.915	15378
873.044	15431
873.173	15374
873.303	15447
873.432	15435
873.561	15496
873.69	15363
873.819	15454
873.948	15416
874.077	15397
874.206	15466
874.335	15428
874.464	15466
874.593	15652
874.722	15652
874.851	15698
874.979	15717
875.108	15679
875.237	15591
875.365	15610
875.494	15641
875.623	15728
875.751	15713
875.88	15808
876.008	15838
876.136	15979
876.265	16067
876.393	16169
876.521	16192
876.65	16128
876.778	16162
876.906	16029
877.034	15998
877.162	16154
877.29	16032
877.418	16051
877.546	16120
877.674	16166
877.802	16071
877.93	16158
878.058	16128
878.185	15975
878.313	16173
878.441	16169
878.568	15991
878.696	16055
878.824	16097
878.951	16158
879.079	16352
879.206	16489
879.333	16352
879.461	16181
879.588	16135
879.715	16424
879.842	16474
879.97	16181
880.097	16010
880.224	15922
880.351	16078
880.478	15953
880.605	15861
880.732	15804
880.859	16272
880.986	16086
881.112	16059
881.239	15918
881.366	15759
881.493	15587
881.619	15648
881.746	15671
881.872	15694
881.999	15610
882.125	15644
882.252	15698
882.378	15660
882.505	15800
882.631	15511
882.757	15382
882.883	15542
883.01	15386
883.136	15389
883.262	15199
883.388	15321
883.514	15424
883.64	15447
883.766	15317
883.892	15306
884.018	15173
884.143	15477
884.269	15477
884.395	15169
884.52	15176
884.646	15047
884.772	15058
884.897	15001
885.023	15169
885.148	15184
885.274	15272
885.399	15165
885.524	15085
885.65	15100
885.775	15135
885.9	15112
886.025	15123
886.15	15203
886.275	15055
886.4	15100
886.525	15074
886.65	15093
886.775	15176
886.9	15268
887.025	15325
887.149	15119
887.274	15055
887.399	15017
887.523	14895
887.648	14880
887.773	14880
887.897	14948
888.021	15009
888.146	14963
888.27	14994
888.395	15081
888.519	15001
888.643	14937
888.767	15058
888.891	14845
889.015	14804
889.139	14941
889.263	14712
889.387	14838
889.511	14887
889.635	14872
889.759	14720
889.883	14834
890.006	14899
890.13	14952
890.254	14731
890.377	14838
890.501	14454
890.624	14552
890.748	14602
890.871	14518
890.995	14469
891.118	14412
891.241	14484
891.364	14526
891.488	14560
891.611	14450
891.734	14427
891.857	14514
891.98	14431
892.103	14594
892.226	14480
892.349	14461
892.471	14351
892.594	14476
892.717	14503
892.839	14419
892.962	14571
893.085	14560
893.207	14423
893.33	14339
893.452	14396
893.575	14541
893.697	14434
893.819	14667
893.941	14712
894.064	14598
894.186	14507
894.308	14385
894.43	14610
894.552	14564
894.674	14655
894.796	14484
894.918	14568
895.04	14461
895.161	14610
895.283	14568
895.405	14480
895.526	14594
895.648	14655
895.769	14598
895.891	14610
896.012	14632
896.134	14720
896.255	14606
896.376	14541
896.498	14625
896.619	14606
896.74	14606
896.861	14708
896.982	15013
897.103	15100
897.224	15017
897.345	14868
897.466	14758
897.587	14910
897.708	15005
897.828	14982
897.949	14910
898.07	14777
898.19	14849
898.311	14982
898.431	14902
898.552	14982
898.672	15097
898.792	14937
898.913	14963
899.033	14883
899.153	14868
899.273	14777
899.393	14796
899.513	14796
899.633	14899
899.753	14834
899.873	14739
899.993	14864
900.113	14807
900.232	14739
900.352	14697
900.472	14800
900.591	14644
900.711	14663
900.83	14663
900.95	14712
901.069	14800
901.189	14583
901.308	14442
901.427	14374
901.546	14320
901.665	14438
901.784	14381
901.904	14320
902.023	14214
902.141	14005
902.26	13875
902.379	14016
902.498	13864
902.617	13898
902.735	14050
902.854	13959
902.973	13890
903.091	13689
903.21	13594
903.328	13628
903.446	13510
903.565	13441
903.683	13464
903.801	13312
903.919	13464
904.038	13396
904.156	13320
904.274	13365
904.392	13266
904.51	13308
904.627	13403
904.745	13343
904.863	13339
904.981	13095
905.098	12977
905.216	12943
905.334	13038
905.451	13038
905.569	12905
905.686	12939
905.803	13046
905.921	12814
906.038	12924
906.155	12825
906.272	12669
906.389	12730
906.506	12616
906.623	12627
906.74	12498
906.857	12410
906.974	12547
907.091	12639
907.208	12768
907.324	12582
907.441	12555
907.557	12361
907.674	12266
907.79	12239
907.907	12300
908.023	12353
908.139	12254
908.256	12285
908.372	12243
908.488	12254
908.604	12136
908.72	11984
908.836	12019
908.952	12083
909.068	12125
909.184	12251
909.3	12072
909.415	12060
909.531	12106
909.647	11824
909.762	11920
909.878	11843
909.993	11863
910.108	11805
910.224	11737
910.339	11733
910.454	11710
910.57	11668
910.685	11581
910.8	11939
910.915	11859
911.03	11726
911.145	11627
911.259	11532
911.374	11543
911.489	11402
911.604	11436
911.718	11254
911.833	11296
911.947	11155
912.062	11124
912.176	11258
912.291	11334
912.405	11318
912.519	11512
912.633	11402
912.748	11368
912.862	11322
912.976	11136
913.09	11071
913.204	11094
913.318	11174
913.431	11299
913.545	11330
913.659	11265
913.772	11155
913.886	11124
914	10980
914.113	11105
914.226	11159
914.34	11098
914.453	11014
914.566	11037
914.68	11056
914.793	11014
914.906	10805
915.019	10717
915.132	10694
915.245	10774
915.358	10767
915.47	10805
915.583	10854
915.696	10820
915.809	10900
915.921	10877
916.034	10744
916.146	10694
916.259	10771
916.371	10805
916.483	10752
916.595	10706
916.708	10714
916.82	10660
916.932	10721
917.044	10512
917.156	10668
917.268	10615
917.38	10626
917.491	10527
917.603	10577
917.715	10630
917.826	10687
917.938	10519
918.049	10424
918.161	10634
918.272	10702
918.384	10664
918.495	10569
918.606	10428
918.717	10459
918.828	10493
918.939	10512
919.05	10375
919.161	10413
919.272	10238
919.383	10325
919.494	10504
919.604	10759
919.715	10459
919.826	10421
919.936	10493
920.047	10542
920.157	10478
920.267	10660
920.378	10481
920.488	10485
920.598	10607
920.708	10843
920.818	10615
920.928	10668
921.038	10824
921.148	10759
921.258	10512
921.368	10398
921.477	10287
921.587	10341
921.697	10185
921.806	10333
921.916	10230
922.025	10021
922.134	9983
922.244	10010
922.353	10040
922.462	10006
922.571	9895
922.68	9675
922.789	9713
922.898	9724
923.007	9641
923.116	9819
923.224	9743
923.333	9785
923.442	9641
923.55	9523
923.659	9580
923.767	9648
923.876	9572
923.984	9682
924.092	9534
924.201	9595
924.309	9572
924.417	9542
924.525	9572
924.633	9633
924.741	10295
924.849	9317
924.956	9526
925.064	9253
925.172	9287
925.279	9329
925.387	9378
925.494	9466
925.602	9477
925.709	9454
925.816	9313
925.924	9382
926.031	9458
926.138	9355
926.245	9367
926.352	9253
926.459	9420
926.566	9351
926.673	9313
926.779	9222
926.886	9085
926.993	9051
927.099	9024
927.206	9058
927.312	8982
927.419	9077
927.525	9043
927.631	9138
927.737	9074
927.843	8979
927.95	8849
928.056	8864
928.162	8948
928.267	8918
928.373	9572
928.479	9081
928.585	8838
928.69	8906
928.796	8986
928.901	8823
929.007	8731
929.112	8868
929.218	8845
929.323	8766
929.428	8762
929.533	8933
929.638	8708
929.743	8868
929.848	8781
929.953	8701
930.058	8678
930.163	8480
930.267	8571
930.372	8659
930.477	8533
930.581	8811
930.685	8594
930.79	8465
930.894	8533
930.998	8404
931.103	8594
931.207	8256
931.311	8168
931.415	8145
931.519	7997
931.623	7909
