Data from test_V78500241_1820.txt Node
Date: Fri Mar 25 14:46:23 CST 2022
User: usil
Spectrometer: V785-0024
Trigger mode: 0
Integration Time (sec): 4.000000E-1
Scans to average: 1
Nonlinearity correction enabled: false
Boxcar width: 0
Storing dark spectrum: false
XAxis mode: Wavelengths
Number of Pixels in Spectrum: 1024
>>>>>Begin Spectral Data<<<<<
801.071	22223
801.214	22158
801.356	21778
801.499	21686
801.641	21603
801.783	21473
801.926	21587
802.068	21473
802.211	21389
802.353	21245
802.496	21039
802.638	21039
802.78	21047
802.923	20853
803.065	20895
803.208	20708
803.35	20834
803.492	20914
803.635	21039
803.777	20861
803.919	20967
804.061	21096
804.204	21020
804.346	20800
804.488	20625
804.63	20880
804.773	20720
804.915	20830
805.057	20823
805.199	20678
805.341	20754
805.483	20838
805.626	20773
805.768	20674
805.91	20777
806.052	20804
806.194	20621
806.336	20842
806.478	20727
806.62	20716
806.762	20792
806.904	21070
807.046	21256
807.188	21074
807.33	21116
807.472	21123
807.614	20895
807.756	21001
807.898	20857
808.04	20826
808.182	20800
808.324	20876
808.465	20902
808.607	20963
808.749	21043
808.891	21294
809.033	21260
809.174	21176
809.316	21085
809.458	21119
809.6	21070
809.741	21298
809.883	21226
810.025	21291
810.166	21260
810.308	21310
810.45	21291
810.591	21249
810.733	21062
810.875	20967
811.016	20868
811.158	20834
811.299	21009
811.441	21062
811.582	21017
811.724	20941
811.865	20952
812.007	20883
812.148	20918
812.29	20899
812.431	21184
812.573	21218
812.714	21195
812.855	21393
812.997	21511
813.138	21507
813.279	21500
813.421	21511
813.562	21332
813.703	21070
813.845	21058
813.986	20769
814.127	20701
814.268	20571
814.41	20583
814.551	20355
814.692	20492
814.833	20381
814.974	20339
815.115	20583
815.256	20298
815.397	20332
815.539	20263
815.68	20256
815.821	20145
815.962	20237
816.103	20134
816.244	20168
816.385	19978
816.526	19951
816.666	19776
816.807	19548
816.948	19658
817.089	19731
817.23	19704
817.371	19620
817.512	19639
817.653	19476
817.793	19571
817.934	19597
818.075	19655
818.216	19548
818.356	19563
818.497	19495
818.638	19350
818.778	19236
818.919	19213
819.06	19339
819.2	19460
819.341	19373
819.481	19434
819.622	19582
819.762	19826
819.903	19719
820.043	19693
820.184	19632
820.324	19586
820.465	19655
820.605	19601
820.746	19620
820.886	19449
821.026	19445
821.167	19556
821.307	19613
821.447	19575
821.588	19430
821.728	19354
821.868	19034
822.008	19042
822.149	18954
822.289	18901
822.429	18757
822.569	18711
822.709	18646
822.849	18460
822.99	18376
823.13	18612
823.27	18483
823.41	18353
823.55	18235
823.69	18254
823.83	18414
823.97	18273
824.11	18038
824.25	18076
824.389	17996
824.529	18121
824.669	17988
824.809	18186
824.949	18041
825.089	18121
825.228	18064
825.368	17836
825.508	17828
825.648	17843
825.787	17893
825.927	17851
826.067	17809
826.206	17859
826.346	17927
826.485	17878
826.625	17878
826.765	18034
826.904	17889
827.044	17642
827.183	17577
827.323	17512
827.462	17649
827.601	17474
827.741	17600
827.88	17501
828.02	17433
828.159	17471
828.298	17501
828.437	17634
828.577	17490
828.716	17554
828.855	17623
828.994	17345
829.134	17315
829.273	17330
829.412	17360
829.551	17246
829.69	17204
829.829	17364
829.968	17455
830.107	17379
830.246	17372
830.385	17254
830.524	17208
830.663	17208
830.802	16987
830.941	16915
831.08	16908
831.219	16915
831.357	16957
831.496	17140
831.635	16942
831.774	16831
831.913	16869
832.051	16660
832.19	16637
832.329	16752
832.467	16634
832.606	16618
832.744	16691
832.883	16645
833.022	16615
833.16	16626
833.299	16649
833.437	16653
833.576	16660
833.714	16607
833.852	16672
833.991	16584
834.129	16649
834.267	16653
834.406	16561
834.544	16664
834.682	16713
834.821	16664
834.959	16904
835.097	16672
835.235	16698
835.373	16786
835.511	16691
835.65	16554
835.788	16596
835.926	16367
836.064	16402
836.202	16375
836.34	16569
836.478	16752
836.615	16592
836.753	16546
836.891	16698
837.029	16565
837.167	16554
837.305	16470
837.443	16481
837.58	16447
837.718	16558
837.856	16519
837.993	16341
838.131	16325
838.269	16382
838.406	16382
838.544	16325
838.681	16204
838.819	16071
838.956	16044
839.094	15907
839.231	16067
839.369	16032
839.506	16424
839.643	16139
839.781	16010
839.918	15941
840.055	16032
840.193	16002
840.33	15953
840.467	16029
840.604	16051
840.742	16234
840.879	15895
841.016	15835
841.153	15941
841.29	16055
841.427	15922
841.564	16078
841.701	15991
841.838	15918
841.975	15903
842.112	15964
842.249	15861
842.385	15793
842.522	15972
842.659	15785
842.796	15743
842.933	15823
843.069	15720
843.206	15701
843.343	15888
843.479	15838
843.616	15793
843.752	15591
843.889	15641
844.025	15789
844.162	15591
844.298	15633
844.435	15530
844.571	15454
844.708	15671
844.844	15572
844.98	15663
845.117	15698
845.253	15530
845.389	15496
845.525	15534
845.661	15454
845.798	15363
845.934	15401
846.07	15378
846.206	15412
846.342	15424
846.478	15389
846.614	15203
846.75	15066
846.886	14986
847.022	15169
847.158	15161
847.294	15188
847.429	15291
847.565	15074
847.701	15256
847.837	14925
847.972	14880
848.108	15036
848.244	15051
848.379	14720
848.515	14708
848.65	14678
848.786	14739
848.921	14781
849.057	14864
849.192	14807
849.328	14762
849.463	14800
849.598	14777
849.734	14712
849.869	14575
850.004	14670
850.14	14568
850.275	14511
850.41	14374
850.545	14423
850.68	14465
850.815	14511
850.95	14594
851.085	14659
851.22	14629
851.355	14503
851.49	14541
851.625	14552
851.76	14450
851.895	14389
852.03	14305
852.165	14507
852.299	14507
852.434	14564
852.569	14556
852.703	14533
852.838	14659
852.973	14625
853.107	14640
853.242	14488
853.376	14343
853.511	14252
853.645	14332
853.78	14522
853.914	14374
854.048	14370
854.183	14362
854.317	14461
854.451	14465
854.585	14362
854.72	14377
854.854	14431
854.988	14278
855.122	14332
855.256	14206
855.39	14347
855.524	14495
855.658	14446
855.792	14374
855.926	14377
856.06	14351
856.194	14503
856.327	14465
856.461	14336
856.595	14317
856.729	14408
856.862	14377
856.996	14480
857.13	14438
857.263	14450
857.397	14484
857.53	14324
857.664	14442
857.797	14476
857.931	14412
858.064	14385
858.197	14457
858.331	14419
858.464	14301
858.597	14229
858.731	14358
858.864	14377
858.997	14370
859.13	14347
859.263	14336
859.396	14480
859.529	14317
859.662	14431
859.795	14271
859.928	14347
860.061	14590
860.194	14625
860.327	14347
860.46	14351
860.592	14438
860.725	14461
860.858	14518
860.99	14381
861.123	14317
861.256	14343
861.388	14393
861.521	15089
861.653	14199
861.786	14233
861.918	14298
862.05	14275
862.183	14267
862.315	14408
862.447	14374
862.58	14317
862.712	14035
862.844	14187
862.976	14218
863.108	14130
863.24	14408
863.372	14096
863.504	14134
863.636	14092
863.768	14077
863.9	14107
864.032	14077
864.164	14149
864.296	14229
864.428	14256
864.559	14225
864.691	14229
864.823	14206
864.954	14115
865.086	14088
865.217	14176
865.349	14088
865.48	14233
865.612	14153
865.743	14301
865.875	14176
866.006	14062
866.137	14168
866.269	14153
866.4	14195
866.531	14050
866.662	14012
866.793	14103
866.924	14157
867.055	14153
867.186	14191
867.317	14119
867.448	13989
867.579	14176
867.71	14046
867.841	14062
867.972	14134
868.103	14187
868.233	14157
868.364	14123
868.495	14244
868.625	14343
868.756	14530
868.886	14313
869.017	14450
869.147	14427
869.278	14514
869.408	14370
869.539	14396
869.669	14518
869.799	14415
869.929	14522
870.06	14492
870.19	14667
870.32	14838
870.45	14682
870.58	14762
870.71	14948
870.84	14876
870.97	14823
871.1	14754
871.23	14982
871.36	15009
871.489	14842
871.619	14960
871.749	15039
871.879	14948
872.008	15199
872.138	15062
872.267	14937
872.397	14777
872.526	14861
872.656	14872
872.785	14826
872.915	15070
873.044	15127
873.173	15001
873.303	15097
873.432	15104
873.561	15100
873.69	15104
873.819	15112
873.948	15211
874.077	15074
874.206	15104
874.335	15104
874.464	15233
874.593	15367
874.722	15332
874.851	15408
874.979	15462
875.108	15367
875.237	15336
875.365	15211
875.494	15416
875.623	15420
875.751	15313
875.88	15416
876.008	15606
876.136	15587
876.265	15766
876.393	15983
876.521	15831
876.65	15873
876.778	15838
876.906	15720
877.034	15743
877.162	15694
877.29	15663
877.418	15713
877.546	15743
877.674	15770
877.802	15705
877.93	15789
878.058	15747
878.185	15652
878.313	15865
878.441	15880
878.568	15606
878.696	15755
878.824	15899
878.951	15827
879.079	15956
879.206	16105
879.333	15960
879.461	15781
879.588	15907
879.715	15888
879.842	16051
879.97	15922
880.097	15713
880.224	15641
880.351	15709
880.478	15679
880.605	15614
880.732	15610
880.859	15915
880.986	15660
881.112	15762
881.239	15500
881.366	15382
881.493	15340
881.619	15218
881.746	15325
881.872	15260
881.999	15275
882.125	15325
882.252	15348
882.378	15294
882.505	15367
882.631	15188
882.757	15150
882.883	15108
883.01	15112
883.136	15070
883.262	15077
883.388	14948
883.514	15188
883.64	15260
883.766	15028
883.892	14952
884.018	15024
884.143	14994
884.269	15074
884.395	14857
884.52	14765
884.646	14826
884.772	14724
884.897	14750
885.023	14842
885.148	14899
885.274	14910
885.399	14823
885.524	14788
885.65	14724
885.775	14842
885.9	14891
886.025	14937
886.15	14800
886.275	14712
886.4	14750
886.525	14819
886.65	14659
886.775	14720
886.9	15009
887.025	15024
887.149	14849
887.274	14659
887.399	14697
887.523	14541
887.648	14564
887.773	14476
887.897	14648
888.021	14648
888.146	14674
888.27	14746
888.395	14800
888.519	14727
888.643	14693
888.767	14636
888.891	14484
889.015	14431
889.139	14560
889.263	14343
889.387	14636
889.511	14731
889.635	14716
889.759	14473
889.883	14526
890.006	14545
890.13	14549
890.254	14438
890.377	14465
890.501	14328
890.624	14294
890.748	14415
890.871	14240
890.995	14123
891.118	14081
891.241	14199
891.364	14225
891.488	14252
891.611	14275
891.734	14267
891.857	14343
891.98	14313
892.103	14286
892.226	14229
892.349	14149
892.471	14020
892.594	14161
892.717	14221
892.839	14180
892.962	14263
893.085	14267
893.207	14351
893.33	14138
893.452	14142
893.575	14271
893.697	14126
893.819	14324
893.941	14404
894.064	14381
894.186	14256
894.308	14157
894.43	14358
894.552	14476
894.674	14355
894.796	14191
894.918	14187
895.04	14290
895.161	14313
895.283	14278
895.405	14142
895.526	14332
895.648	14259
895.769	14324
895.891	14332
896.012	14457
896.134	14351
896.255	14317
896.376	14355
896.498	14309
896.619	14480
896.74	14355
896.861	14434
896.982	14716
897.103	14735
897.224	14659
897.345	14552
897.466	14465
897.587	14625
897.708	14754
897.828	14610
897.949	14655
898.07	14571
898.19	14583
898.311	14781
898.431	14655
898.552	14640
898.672	14849
898.792	14750
898.913	14754
899.033	14720
899.153	14579
899.273	14488
899.393	14533
899.513	14560
899.633	14625
899.753	14610
899.873	14495
899.993	14625
900.113	14571
900.232	14579
900.352	14503
900.472	14511
900.591	14377
900.711	14385
900.83	14313
900.95	14533
901.069	14530
901.189	14377
901.308	14123
901.427	14065
901.546	14111
901.665	14024
901.784	14054
901.904	13955
902.023	13894
902.141	13662
902.26	13689
902.379	13708
902.498	13643
902.617	13582
902.735	13727
902.854	13613
902.973	13601
903.091	13373
903.21	13400
903.328	13403
903.446	13354
903.565	13266
903.683	13240
903.801	13076
903.919	13149
904.038	13285
904.156	13034
904.274	13038
904.392	13015
904.51	12973
904.627	13042
904.745	13164
904.863	13126
904.981	12814
905.098	12719
905.216	12749
905.334	12753
905.451	12783
905.569	12715
905.686	12768
905.803	12696
905.921	12555
906.038	12608
906.155	12525
906.272	12418
906.389	12456
906.506	12350
906.623	12365
906.74	12251
906.857	12197
906.974	12235
907.091	12445
907.208	12494
907.324	12357
907.441	12327
907.557	12079
907.674	12064
907.79	11984
907.907	12030
908.023	12083
908.139	12076
908.256	12015
908.372	12026
908.488	12068
908.604	11912
908.72	11756
908.836	11851
908.952	11783
909.068	11935
909.184	11866
909.3	11889
909.415	11927
909.531	11836
909.647	11596
909.762	11589
909.878	11604
909.993	11634
910.108	11581
910.224	11600
910.339	11634
910.454	11421
910.57	11444
910.685	11391
910.8	11649
910.915	11615
911.03	11501
911.145	11303
911.259	11326
911.374	11235
911.489	11330
911.604	11174
911.718	11117
911.833	11090
911.947	10980
912.062	10934
912.176	11041
912.291	11067
912.405	11052
912.519	11296
912.633	11322
912.748	11124
912.862	11083
912.976	11010
913.09	10831
913.204	10946
913.318	10942
913.431	10972
913.545	11041
913.659	11083
913.772	11033
913.886	10839
914	10801
914.113	10934
914.226	10946
914.34	10991
914.453	10786
914.566	10976
914.68	10714
914.793	10729
914.906	10656
915.019	10542
915.132	10516
915.245	10538
915.358	10626
915.47	10573
915.583	10626
915.696	10721
915.809	10694
915.921	10679
916.034	10577
916.146	10462
916.259	10485
916.371	10523
916.483	10603
916.595	10409
916.708	10459
916.82	10436
916.932	10519
917.044	10428
917.156	10421
917.268	10306
917.38	10413
917.491	10424
917.603	10440
917.715	10474
917.826	10516
917.938	10348
918.049	10333
918.161	10356
918.272	10481
918.384	10531
918.495	10462
918.606	10287
918.717	10253
918.828	10295
918.939	10310
919.05	10185
919.161	10215
919.272	10029
919.383	10207
919.494	10386
919.604	10512
919.715	10265
919.826	10230
919.936	10310
920.047	10382
920.157	10291
920.267	10466
920.378	10329
920.488	10299
920.598	10474
920.708	10679
920.818	10466
920.928	10428
921.038	10580
921.148	10618
921.258	10337
921.368	10299
921.477	10143
921.587	10097
921.697	10071
921.806	10169
921.916	10109
922.025	9880
922.134	9918
922.244	9732
922.353	9926
922.462	9717
922.571	9679
922.68	9564
922.789	9511
922.898	9507
923.007	9656
923.116	9614
923.224	9458
923.333	9526
923.442	9389
923.55	9412
923.659	9492
923.767	9424
923.876	9447
923.984	9428
924.092	9389
924.201	9435
924.309	9428
924.417	9370
924.525	9340
924.633	9336
924.741	10284
924.849	9176
924.956	9256
925.064	9157
925.172	9070
925.279	9135
925.387	9207
925.494	9203
925.602	9294
925.709	9253
925.816	9207
925.924	9211
926.031	9211
926.138	9184
926.245	9211
926.352	9062
926.459	9211
926.566	9272
926.673	9104
926.779	9032
926.886	9017
926.993	8899
927.099	8864
927.206	8849
927.312	8853
927.419	8918
927.525	8895
927.631	8963
927.737	8891
927.843	8773
927.95	8708
928.056	8788
928.162	8804
928.267	8830
928.373	9466
928.479	8868
928.585	8549
928.69	8735
928.796	8815
928.901	8678
929.007	8564
929.112	8682
929.218	8693
929.323	8511
929.428	8640
929.533	8697
929.638	8545
929.743	8632
929.848	8617
929.953	8610
930.058	8530
930.163	8347
930.267	8374
930.372	8526
930.477	8370
930.581	8602
930.685	8423
930.79	8294
930.894	8374
930.998	8324
931.103	8473
931.207	8058
931.311	8046
931.415	8005
931.519	7845
931.623	7776
