Data from test_V78500241_3706.txt Node
Date: Fri Mar 25 14:59:31 CST 2022
User: usil
Spectrometer: V785-0024
Trigger mode: 0
Integration Time (sec): 4.000000E-1
Scans to average: 1
Nonlinearity correction enabled: false
Boxcar width: 0
Storing dark spectrum: false
XAxis mode: Wavelengths
Number of Pixels in Spectrum: 1024
>>>>>Begin Spectral Data<<<<<
801.071	21915
801.214	21732
801.356	21542
801.499	21416
801.641	21268
801.783	21161
801.926	21325
802.068	21241
802.211	21138
802.353	21127
802.496	20944
802.638	20868
802.78	20834
802.923	20663
803.065	20590
803.208	20552
803.35	20648
803.492	20655
803.635	20689
803.777	20560
803.919	20724
804.061	20963
804.204	20712
804.346	20454
804.488	20590
804.63	20579
804.773	20423
804.915	20488
805.057	20518
805.199	20522
805.341	20651
805.483	20613
805.626	20476
805.768	20400
805.91	20484
806.052	20427
806.194	20393
806.336	20632
806.478	20473
806.62	20427
806.762	20632
806.904	20686
807.046	20872
807.188	20667
807.33	20785
807.472	20849
807.614	20716
807.756	20750
807.898	20648
808.04	20476
808.182	20480
808.324	20533
808.465	20663
808.607	20705
808.749	20842
808.891	20982
809.033	21093
809.174	20887
809.316	20800
809.458	20724
809.6	20735
809.741	20933
809.883	20937
810.025	20994
810.166	21013
810.308	20952
810.45	20902
810.591	20815
810.733	20667
810.875	20727
811.016	20518
811.158	20427
811.299	20697
811.441	20781
811.582	20765
811.724	20712
811.865	20613
812.007	20598
812.148	20613
812.29	20644
812.431	20678
812.573	21001
812.714	21005
812.855	21077
812.997	21131
813.138	21291
813.279	21241
813.421	21135
813.562	21005
813.703	20834
813.845	20785
813.986	20533
814.127	20396
814.268	20237
814.41	20142
814.551	20233
814.692	20214
814.833	20031
814.974	20050
815.115	20126
815.256	20096
815.397	20024
815.539	20020
815.68	19997
815.821	19852
815.962	19833
816.103	19974
816.244	19791
816.385	19643
816.526	19613
816.666	19396
816.807	19244
816.948	19415
817.089	19400
817.23	19373
817.371	19228
817.512	19259
817.653	19274
817.793	19202
817.934	19266
818.075	19324
818.216	19278
818.356	19263
818.497	19023
818.638	18939
818.778	19069
818.919	18973
819.06	19072
819.2	19168
819.341	19133
819.481	19118
819.622	19388
819.762	19419
819.903	19422
820.043	19415
820.184	19270
820.324	19213
820.465	19422
820.605	19179
820.746	19274
820.886	19042
821.026	19152
821.167	19168
821.307	19217
821.447	19251
821.588	19179
821.728	19000
821.868	18875
822.008	18741
822.149	18760
822.289	18525
822.429	18399
822.569	18452
822.709	18327
822.849	18140
822.99	18163
823.13	18209
823.27	18117
823.41	17973
823.55	17866
823.69	18095
823.83	18060
823.97	17802
824.11	17627
824.25	17745
824.389	17695
824.529	17840
824.669	17703
824.809	17813
824.949	17729
825.089	17836
825.228	17714
825.368	17551
825.508	17615
825.648	17524
825.787	17524
825.927	17566
826.067	17436
826.206	17509
826.346	17551
826.485	17642
826.625	17611
826.765	17634
826.904	17539
827.044	17284
827.183	17269
827.323	17197
827.462	17216
827.601	17269
827.741	17231
827.88	17212
828.02	17143
828.159	17151
828.298	17181
828.437	17303
828.577	17220
828.716	17288
828.855	17075
828.994	17022
829.134	17018
829.273	17098
829.412	16953
829.551	16919
829.69	16999
829.829	16934
829.968	17041
830.107	17025
830.246	16987
830.385	16923
830.524	16763
830.663	16805
830.802	16729
830.941	16603
831.08	16653
831.219	16752
831.357	16717
831.496	16782
831.635	16561
831.774	16474
831.913	16489
832.051	16348
832.19	16325
832.329	16356
832.467	16322
832.606	16280
832.744	16242
832.883	16215
833.022	16242
833.16	16158
833.299	16413
833.437	16386
833.576	16379
833.714	16303
833.852	16352
833.991	16352
834.129	16386
834.267	16417
834.406	16329
834.544	16417
834.682	16424
834.821	16253
834.959	16485
835.097	16402
835.235	16440
835.373	16379
835.511	16337
835.65	16276
835.788	16268
835.926	16131
836.064	16185
836.202	16143
836.34	16249
836.478	16249
836.615	16211
836.753	16299
836.891	16306
837.029	16253
837.167	16257
837.305	16158
837.443	16166
837.58	16200
837.718	16257
837.856	16154
837.993	16109
838.131	16204
838.269	16048
838.406	16074
838.544	15972
838.681	15869
838.819	15880
838.956	15739
839.094	15667
839.231	15766
839.369	15846
839.506	16177
839.643	15979
839.781	15873
839.918	15728
840.055	15682
840.193	15739
840.33	15774
840.467	15701
840.604	15580
840.742	15964
840.879	15587
841.016	15568
841.153	15625
841.29	15800
841.427	15709
841.564	15781
841.701	15804
841.838	15652
841.975	15568
842.112	15709
842.249	15606
842.385	15614
842.522	15739
842.659	15572
842.796	15477
842.933	15435
843.069	15504
843.206	15458
843.343	15576
843.479	15530
843.616	15515
843.752	15340
843.889	15313
844.025	15511
844.162	15264
844.298	15344
844.435	15336
844.571	15169
844.708	15283
844.844	15389
844.98	15485
845.117	15408
845.253	15264
845.389	15074
845.525	15169
845.661	15245
845.798	15108
845.934	15154
846.07	14963
846.206	15119
846.342	15207
846.478	15005
846.614	14842
846.75	14819
846.886	14830
847.022	14956
847.158	14902
847.294	14838
847.429	14750
847.565	14716
847.701	15070
847.837	14636
847.972	14590
848.108	14735
848.244	14701
848.379	14492
848.515	14511
848.65	14495
848.786	14396
848.921	14484
849.057	14530
849.192	14530
849.328	14541
849.463	14454
849.598	14408
849.734	14419
849.869	14355
850.004	14183
850.14	14256
850.275	14267
850.41	14244
850.545	14176
850.68	14172
850.815	14180
850.95	14195
851.085	14488
851.22	14252
851.355	14168
851.49	14199
851.625	14199
851.76	14153
851.895	14088
852.03	14073
852.165	14142
852.299	14301
852.434	14347
852.569	14259
852.703	14305
852.838	14263
852.973	14351
853.107	14320
853.242	14130
853.376	14134
853.511	13967
853.645	14024
853.78	14180
853.914	14073
854.048	14077
854.183	14065
854.317	14092
854.451	14248
854.585	14145
854.72	14069
854.854	14195
854.988	14035
855.122	14081
855.256	13894
855.39	14065
855.524	14195
855.658	14172
855.792	14172
855.926	14115
856.06	14142
856.194	14252
856.327	14221
856.461	14027
856.595	14001
856.729	14111
856.862	14164
856.996	14073
857.13	14096
857.263	14271
857.397	14290
857.53	14069
857.664	14092
857.797	14119
857.931	14252
858.064	14058
858.197	14164
858.331	14103
858.464	14123
858.597	14001
858.731	14073
858.864	14092
858.997	13997
859.13	14115
859.263	14065
859.396	14248
859.529	14035
859.662	14065
859.795	14039
859.928	14039
860.061	14191
860.194	14225
860.327	14111
860.46	14050
860.592	14256
860.725	14294
860.858	14244
860.99	14107
861.123	14092
861.256	14024
861.388	14157
861.521	14823
861.653	13967
861.786	13898
861.918	13871
862.05	14077
862.183	14058
862.315	14035
862.447	14130
862.58	13959
862.712	13856
862.844	13769
862.976	13986
863.108	13947
863.24	14408
863.372	13849
863.504	13909
863.636	13879
863.768	14008
863.9	13936
864.032	13818
864.164	13830
864.296	13925
864.428	13997
864.559	14039
864.691	14001
864.823	13898
864.954	13879
865.086	13906
865.217	13830
865.349	13898
865.48	13837
865.612	13978
865.743	14001
865.875	13803
866.006	13818
866.137	13822
866.269	13849
866.4	13887
866.531	13932
866.662	13761
866.793	13803
866.924	13772
867.055	13833
867.186	13841
867.317	13887
867.448	13830
867.579	13826
867.71	13811
867.841	13811
867.972	13909
868.103	13830
868.233	13902
868.364	13906
868.495	13967
868.625	14039
868.756	14240
868.886	13894
869.017	14016
869.147	14214
869.278	14221
869.408	14218
869.539	14172
869.669	14161
869.799	14161
869.929	14290
870.06	14195
870.19	14476
870.32	14434
870.45	14427
870.58	14530
870.71	14613
870.84	14533
870.97	14587
871.1	14556
871.23	14716
871.36	14610
871.489	14590
871.619	14705
871.749	14731
871.879	14800
872.008	14823
872.138	14674
872.267	14705
872.397	14537
872.526	14545
872.656	14590
872.785	14579
872.915	14754
873.044	14838
873.173	14788
873.303	14762
873.432	14842
873.561	14800
873.69	14785
873.819	14807
873.948	14857
874.077	14815
874.206	14796
874.335	14826
874.464	14880
874.593	15146
874.722	14895
874.851	15066
874.979	15024
875.108	15089
875.237	15081
875.365	14979
875.494	15058
875.623	15070
875.751	15066
875.88	15188
876.008	15310
876.136	15260
876.265	15466
876.393	15587
876.521	15606
876.65	15515
876.778	15622
876.906	15473
877.034	15374
877.162	15450
877.29	15378
877.418	15492
877.546	15481
877.674	15576
877.802	15557
877.93	15542
878.058	15435
878.185	15348
878.313	15443
878.441	15526
878.568	15416
878.696	15511
878.824	15523
878.951	15469
879.079	15812
879.206	15945
879.333	15743
879.461	15644
879.588	15584
879.715	15797
879.842	15808
879.97	15553
880.097	15325
880.224	15355
880.351	15378
880.478	15370
880.605	15378
880.732	15355
880.859	15652
880.986	15412
881.112	15351
881.239	15245
881.366	15138
881.493	15146
881.619	15001
881.746	14982
881.872	15024
881.999	15131
882.125	15047
882.252	15062
882.378	15036
882.505	15176
882.631	15013
882.757	14796
882.883	14902
883.01	14838
883.136	14807
883.262	14511
883.388	14712
883.514	14910
883.64	14830
883.766	14705
883.892	14682
884.018	14701
884.143	14834
884.269	14872
884.395	14511
884.52	14457
884.646	14556
884.772	14381
884.897	14488
885.023	14594
885.148	14587
885.274	14724
885.399	14705
885.524	14568
885.65	14560
885.775	14587
885.9	14541
886.025	14613
886.15	14594
886.275	14602
886.4	14465
886.525	14530
886.65	14473
886.775	14476
886.9	14636
887.025	14857
887.149	14598
887.274	14450
887.399	14332
887.523	14377
887.648	14282
887.773	14168
887.897	14385
888.021	14412
888.146	14351
888.27	14450
888.395	14526
888.519	14457
888.643	14370
888.767	14393
888.891	14298
889.015	14176
889.139	14267
889.263	14240
889.387	14370
889.511	14469
889.635	14434
889.759	14195
889.883	14339
890.006	14256
890.13	14336
890.254	14199
890.377	14244
890.501	14008
890.624	14058
890.748	14123
890.871	14020
890.995	13906
891.118	13852
891.241	13970
891.364	13982
891.488	13993
891.611	13951
891.734	13955
891.857	13974
891.98	13967
892.103	14043
892.226	13986
892.349	13887
892.471	13837
892.594	13989
892.717	14012
892.839	13913
892.962	13978
893.085	13989
893.207	13955
893.33	13845
893.452	13936
893.575	14103
893.697	13947
893.819	14081
893.941	14267
894.064	14088
894.186	13883
894.308	13826
894.43	14145
894.552	14157
894.674	14084
894.796	13963
894.918	13909
895.04	13978
895.161	14176
895.283	14043
895.405	13967
895.526	14107
895.648	14054
895.769	14050
895.891	14081
896.012	14111
896.134	14164
896.255	14157
896.376	14077
896.498	14043
896.619	14229
896.74	14195
896.861	14191
896.982	14545
897.103	14522
897.224	14415
897.345	14415
897.466	14377
897.587	14377
897.708	14514
897.828	14393
897.949	14317
898.07	14301
898.19	14358
898.311	14575
898.431	14317
898.552	14583
898.672	14625
898.792	14473
898.913	14465
899.033	14377
899.153	14286
899.273	14271
899.393	14305
899.513	14271
899.633	14355
899.753	14377
899.873	14244
899.993	14328
900.113	14351
900.232	14259
900.352	14358
900.472	14298
900.591	14123
900.711	14206
900.83	14119
900.95	14233
901.069	14355
901.189	14084
901.308	14008
901.427	13799
901.546	13757
901.665	13799
901.784	13826
901.904	13742
902.023	13518
902.141	13472
902.26	13438
902.379	13502
902.498	13381
902.617	13369
902.735	13426
902.854	13472
902.973	13377
903.091	13110
903.21	13187
903.328	13202
903.446	13168
903.565	13095
903.683	13034
903.801	12939
903.919	12920
904.038	12966
904.156	12856
904.274	12993
904.392	12806
904.51	12882
904.627	12825
904.745	12939
904.863	12825
904.981	12646
905.098	12525
905.216	12532
905.334	12540
905.451	12509
905.569	12559
905.686	12494
905.803	12525
905.921	12369
906.038	12403
906.155	12414
906.272	12239
906.389	12323
906.506	12117
906.623	12087
906.74	12178
906.857	11980
906.974	12041
907.091	12277
907.208	12251
907.324	12213
907.441	12106
907.557	11992
907.674	11931
907.79	11745
907.907	11889
908.023	11958
908.139	11863
908.256	11794
908.372	11794
908.488	11821
908.604	11695
908.72	11589
908.836	11638
908.952	11653
909.068	11665
909.184	11752
909.3	11646
909.415	11688
909.531	11570
909.647	11486
909.762	11471
909.878	11364
909.993	11452
910.108	11429
910.224	11349
910.339	11448
910.454	11360
910.57	11193
910.685	11273
910.8	11474
910.915	11444
911.03	11326
911.145	11075
911.259	11109
911.374	11064
911.489	11071
911.604	10987
911.718	10812
911.833	10869
911.947	10767
912.062	10698
912.176	10965
912.291	10858
912.405	10839
912.519	10999
912.633	11041
912.748	10949
912.862	10915
912.976	10759
913.09	10725
913.204	10717
913.318	10744
913.431	10797
913.545	10835
913.659	10866
913.772	10759
913.886	10698
914	10558
914.113	10649
914.226	10672
914.34	10641
914.453	10577
914.566	10702
914.68	10611
914.793	10527
914.906	10402
915.019	10291
915.132	10341
915.245	10348
915.358	10409
915.47	10398
915.583	10333
915.696	10428
915.809	10527
915.921	10527
916.034	10314
916.146	10363
916.259	10291
916.371	10405
916.483	10421
916.595	10265
916.708	10272
916.82	10284
916.932	10314
917.044	10272
917.156	10333
917.268	10173
917.38	10272
917.491	10173
917.603	10192
917.715	10303
917.826	10242
917.938	10211
918.049	10090
918.161	10177
918.272	10325
918.384	10341
918.495	10253
918.606	10074
918.717	10074
918.828	10067
918.939	10105
919.05	10017
919.161	10029
919.272	9895
919.383	9907
919.494	10116
919.604	10329
919.715	10139
919.826	10010
919.936	10036
920.047	10207
920.157	10063
920.267	10291
920.378	10173
920.488	10131
920.598	10344
920.708	10481
920.818	10310
920.928	10284
921.038	10519
921.148	10485
921.258	10185
921.368	10071
921.477	9987
921.587	9937
921.697	9854
921.806	9953
921.916	9903
922.025	9770
922.134	9671
922.244	9641
922.353	9774
922.462	9526
922.571	9469
922.68	9344
922.789	9291
922.898	9374
923.007	9287
923.116	9450
923.224	9336
923.333	9401
923.442	9249
923.55	9226
923.659	9256
923.767	9416
923.876	9222
923.984	9264
924.092	9154
924.201	9245
924.309	9283
924.417	9237
924.525	9207
924.633	9161
924.741	10207
924.849	9005
924.956	9131
925.064	9077
925.172	8986
925.279	9017
925.387	9066
925.494	9005
925.602	9180
925.709	9123
925.816	8979
925.924	9020
926.031	9100
926.138	9024
926.245	9058
926.352	8956
926.459	9055
926.566	9142
926.673	8967
926.779	8967
926.886	8895
926.993	8777
927.099	8724
927.206	8659
927.312	8686
927.419	8849
927.525	8796
927.631	8746
927.737	8655
927.843	8663
927.95	8514
928.056	8659
928.162	8655
928.267	8724
928.373	9199
928.479	8739
928.585	8537
928.69	8659
928.796	8674
928.901	8571
929.007	8415
929.112	8552
929.218	8564
929.323	8476
929.428	8469
929.533	8590
929.638	8423
929.743	8431
929.848	8457
929.953	8450
930.058	8355
930.163	8233
930.267	8176
930.372	8374
930.477	8119
930.581	8408
930.685	8286
930.79	8168
930.894	8271
930.998	8180
931.103	8301
931.207	8050
931.311	7837
931.415	7894
931.519	7734
931.623	7677
