Data from test_V78500241_979.txt Node
Date: Fri Mar 25 14:40:32 CST 2022
User: usil
Spectrometer: V785-0024
Trigger mode: 0
Integration Time (sec): 4.000000E-1
Scans to average: 1
Nonlinearity correction enabled: false
Boxcar width: 0
Storing dark spectrum: false
XAxis mode: Wavelengths
Number of Pixels in Spectrum: 1024
>>>>>Begin Spectral Data<<<<<
801.071	23303
801.214	23159
801.356	22995
801.499	22843
801.641	22729
801.783	22645
801.926	22683
802.068	22561
802.211	22451
802.353	22519
802.496	22093
802.638	22154
802.78	22131
802.923	22055
803.065	22051
803.208	22025
803.35	22109
803.492	22135
803.635	22196
803.777	22032
803.919	21934
804.061	22375
804.204	21998
804.346	22040
804.488	21907
804.63	22010
804.773	21876
804.915	21949
805.057	22093
805.199	21941
805.341	22029
805.483	22040
805.626	22025
805.768	21899
805.91	22032
806.052	22025
806.194	21895
806.336	22200
806.478	21998
806.62	22036
806.762	22120
806.904	22333
807.046	22538
807.188	22527
807.33	22694
807.472	22607
807.614	22584
807.756	22630
807.898	22542
808.04	22725
808.182	22782
808.324	22949
808.465	23136
808.607	23592
808.749	23805
808.891	24030
809.033	24121
809.174	23893
809.316	23714
809.458	23315
809.6	23132
809.741	23003
809.883	22881
810.025	22911
810.166	22896
810.308	22850
810.45	22733
810.591	22649
810.733	22535
810.875	22360
811.016	22341
811.158	22291
811.299	22341
811.441	22390
811.582	22314
811.724	22173
811.865	22265
812.007	22188
812.148	22131
812.29	22204
812.431	22573
812.573	22672
812.714	22538
812.855	22664
812.997	22828
813.138	22877
813.279	22763
813.421	22584
813.562	22573
813.703	22485
813.845	22398
813.986	22067
814.127	21949
814.268	21793
814.41	21823
814.551	21656
814.692	21899
814.833	21739
814.974	21591
815.115	21778
815.256	21599
815.397	21603
815.539	21488
815.68	21408
815.821	21317
815.962	21424
816.103	21458
816.244	21367
816.385	21150
816.526	21089
816.666	20956
816.807	20792
816.948	20956
817.089	20952
817.23	20895
817.371	20754
817.512	20857
817.653	20925
817.793	20929
817.934	20895
818.075	20914
818.216	20842
818.356	20891
818.497	20682
818.638	20454
818.778	20526
818.919	20606
819.06	20549
819.2	20674
819.341	20667
819.481	20674
819.622	20960
819.762	21116
819.903	20986
820.043	20948
820.184	20979
820.324	20872
820.465	20849
820.605	20800
820.746	20834
820.886	20705
821.026	20773
821.167	20765
821.307	20781
821.447	20758
821.588	20587
821.728	20469
821.868	20339
822.008	20244
822.149	20218
822.289	20172
822.429	19997
822.569	19871
822.709	19818
822.849	19811
822.99	19620
823.13	19639
823.27	19632
823.41	19365
823.55	19487
823.69	19533
823.83	19422
823.97	19464
824.11	19285
824.25	19206
824.389	19297
824.529	19392
824.669	19217
824.809	19411
824.949	19369
825.089	19350
825.228	19221
825.368	19133
825.508	19004
825.648	19190
825.787	19240
825.927	19042
826.067	19110
826.206	19019
826.346	19015
826.485	19031
826.625	19023
826.765	19069
826.904	19110
827.044	18776
827.183	18817
827.323	18593
827.462	18779
827.601	18604
827.741	18681
827.88	18738
828.02	18582
828.159	18585
828.298	18696
828.437	18848
828.577	18741
828.716	18897
828.855	18620
828.994	18551
829.134	18414
829.273	18483
829.412	18456
829.551	18467
829.69	18566
829.829	18429
829.968	18623
830.107	18521
830.246	18547
830.385	18369
830.524	18342
830.663	18334
830.802	18178
830.941	18133
831.08	18110
831.219	18186
831.357	18315
831.496	18372
831.635	18133
831.774	18007
831.913	17969
832.051	17832
832.19	17904
832.329	18007
832.467	17767
832.606	17691
832.744	17824
832.883	17863
833.022	17741
833.16	17840
833.299	17931
833.437	17897
833.576	17874
833.714	17893
833.852	17958
833.991	18102
834.129	18087
834.267	17912
834.406	17859
834.544	17912
834.682	17916
834.821	17908
834.959	18064
835.097	17855
835.235	17897
835.373	17893
835.511	17824
835.65	17729
835.788	17813
835.926	17691
836.064	17581
836.202	17589
836.34	17741
836.478	17790
836.615	17627
836.753	17748
836.891	17866
837.029	17821
837.167	17767
837.305	17570
837.443	17577
837.58	17592
837.718	17718
837.856	17703
837.993	17482
838.131	17562
838.269	17482
838.406	17539
838.544	17353
838.681	17356
838.819	17337
838.956	17014
839.094	17216
839.231	17189
839.369	17261
839.506	17528
839.643	17292
839.781	16957
839.918	17006
840.055	17235
840.193	17121
840.33	17136
840.467	17067
840.604	17128
840.742	17273
840.879	16957
841.016	17003
841.153	17025
841.29	17216
841.427	16991
841.564	17128
841.701	17162
841.838	16972
841.975	17025
842.112	17048
842.249	16824
842.385	16786
842.522	17067
842.659	16873
842.796	16850
842.933	16805
843.069	16771
843.206	16809
843.343	17041
843.479	16820
843.616	16911
843.752	16694
843.889	16637
844.025	16774
844.162	16637
844.298	16755
844.435	16729
844.571	16653
844.708	16683
844.844	16957
844.98	16972
845.117	16839
845.253	16786
845.389	16820
845.525	17121
845.661	17505
845.798	17813
845.934	18300
846.07	18357
846.206	18296
846.342	18152
846.478	17680
846.614	17006
846.75	16618
846.886	16561
847.022	16512
847.158	16382
847.294	16268
847.429	16249
847.565	16200
847.701	16371
847.837	15945
847.972	15934
848.108	16029
848.244	15960
848.379	15907
848.515	15857
848.65	15660
848.786	15808
848.921	15804
849.057	15956
849.192	15983
849.328	15827
849.463	15732
849.598	15770
849.734	15690
849.869	15637
850.004	15553
850.14	15625
850.275	15561
850.41	15481
850.545	15477
850.68	15492
850.815	15595
850.95	15561
851.085	15812
851.22	15637
851.355	15485
851.49	15469
851.625	15469
851.76	15454
851.895	15462
852.03	15374
852.165	15576
852.299	15526
852.434	15580
852.569	15557
852.703	15538
852.838	15530
852.973	15709
853.107	15705
853.242	15561
853.376	15420
853.511	15268
853.645	15294
853.78	15545
853.914	15359
854.048	15469
854.183	15321
854.317	15420
854.451	15625
854.585	15412
854.72	15355
854.854	15488
854.988	15401
855.122	15344
855.256	15214
855.39	15332
855.524	15428
855.658	15359
855.792	15447
855.926	15355
856.06	15424
856.194	15564
856.327	15458
856.461	15329
856.595	15287
856.729	15405
856.862	15591
856.996	15408
857.13	15553
857.263	15488
857.397	15523
857.53	15428
857.664	15454
857.797	15485
857.931	15454
858.064	15428
858.197	15401
858.331	15363
858.464	15321
858.597	15230
858.731	15283
858.864	15313
858.997	15321
859.13	15401
859.263	15485
859.396	15397
859.529	15256
859.662	15386
859.795	15336
859.928	15329
860.061	15629
860.194	15557
860.327	15428
860.46	15393
860.592	15458
860.725	15378
860.858	15523
860.99	15359
861.123	15291
861.256	15344
861.388	15435
861.521	16017
861.653	15283
861.786	15264
861.918	15249
862.05	15306
862.183	15317
862.315	15359
862.447	15336
862.58	15283
862.712	15154
862.844	15043
862.976	15218
863.108	15127
863.24	15587
863.372	15062
863.504	15161
863.636	15097
863.768	15104
863.9	15173
864.032	15028
864.164	15070
864.296	15062
864.428	15252
864.559	15180
864.691	15218
864.823	15226
864.954	15146
865.086	15112
865.217	15093
865.349	15032
865.48	15055
865.612	15119
865.743	15302
865.875	15173
866.006	15150
866.137	15089
866.269	15020
866.4	15043
866.531	14979
866.662	14979
866.793	15017
866.924	15066
867.055	15066
867.186	15070
867.317	15093
867.448	14998
867.579	15062
867.71	14967
867.841	15032
867.972	15093
868.103	15036
868.233	15020
868.364	15154
868.495	15195
868.625	15344
868.756	15454
868.886	15287
869.017	15329
869.147	15386
869.278	15332
869.408	15268
869.539	15359
869.669	15378
869.799	15382
869.929	15584
870.06	15496
870.19	15637
870.32	15648
870.45	15622
870.58	15705
870.71	15850
870.84	15831
870.97	15698
871.1	15736
871.23	15903
871.36	15827
871.489	15846
871.619	15857
871.749	15869
871.879	15972
872.008	16105
872.138	15934
872.267	15949
872.397	15857
872.526	15778
872.656	15789
872.785	15800
872.915	15918
873.044	16128
873.173	15964
873.303	15972
873.432	15934
873.561	16006
873.69	16025
873.819	15949
873.948	16025
874.077	16013
874.206	15987
874.335	16002
874.464	16055
874.593	16303
874.722	16337
874.851	16303
874.979	16341
875.108	16360
875.237	16215
875.365	16295
875.494	16417
875.623	16333
875.751	16329
875.88	16360
876.008	16432
876.136	16611
876.265	16755
876.393	16858
876.521	16782
876.65	16767
876.778	16763
876.906	16755
877.034	16759
877.162	16774
877.29	16717
877.418	16721
877.546	16767
877.674	16736
877.802	16797
877.93	16790
878.058	16637
878.185	16687
878.313	16881
878.441	16919
878.568	16774
878.696	16873
878.824	16930
878.951	16972
879.079	17322
879.206	17600
879.333	17665
879.461	17695
879.588	17790
879.715	17733
879.842	17870
879.97	17615
880.097	17197
880.224	16957
880.351	16961
880.478	16949
880.605	16919
880.732	16778
880.859	16995
880.986	16862
881.112	16805
881.239	16660
881.366	16653
881.493	16447
881.619	16322
881.746	16519
881.872	16470
881.999	16390
882.125	16478
882.252	16489
882.378	16466
882.505	16580
882.631	16485
882.757	16272
882.883	16287
883.01	16284
883.136	16226
883.262	16166
883.388	16120
883.514	16284
883.64	16363
883.766	16268
883.892	16071
884.018	15998
884.143	16238
884.269	16284
884.395	15991
884.52	15975
884.646	16010
884.772	15972
884.897	15823
885.023	16025
885.148	15979
885.274	16173
885.399	16029
885.524	15956
885.65	15994
885.775	15861
885.9	15911
886.025	15983
886.15	16029
886.275	15785
886.4	15747
886.525	15804
886.65	15827
886.775	15720
886.9	15926
887.025	16082
887.149	15774
887.274	15800
887.399	15667
887.523	15587
887.648	15538
887.773	15557
887.897	15671
888.021	15652
888.146	15584
888.27	15724
888.395	15694
888.519	15618
888.643	15637
888.767	15690
888.891	15553
889.015	15439
889.139	15473
889.263	15519
889.387	15553
889.511	15644
889.635	15656
889.759	15344
889.883	15336
890.006	15549
890.13	15572
890.254	15230
890.377	15439
890.501	15184
890.624	15230
890.748	15348
890.871	15104
890.995	15173
891.118	15009
891.241	15146
891.364	15173
891.488	15230
891.611	15047
891.734	15146
891.857	15226
891.98	14994
892.103	15180
892.226	15112
892.349	15013
892.471	14906
892.594	14971
892.717	14960
892.839	15058
892.962	14990
893.085	15165
893.207	15108
893.33	14971
893.452	15017
893.575	15119
893.697	14963
893.819	15283
893.941	15252
894.064	15249
894.186	15070
894.308	15047
894.43	15127
894.552	15184
894.674	15116
894.796	15055
894.918	15135
895.04	15123
895.161	15112
895.283	15142
895.405	15036
895.526	15093
895.648	15112
895.769	15241
895.891	15180
896.012	15302
896.134	15192
896.255	15150
896.376	15199
896.498	15272
896.619	15268
896.74	15188
896.861	15306
896.982	15576
897.103	15606
897.224	15454
897.345	15393
897.466	15351
897.587	15545
897.708	15637
897.828	15545
897.949	15469
898.07	15226
898.19	15450
898.311	15534
898.431	15405
898.552	15519
898.672	15542
898.792	15580
898.913	15660
899.033	15458
899.153	15382
899.273	15268
899.393	15450
899.513	15424
899.633	15367
899.753	15431
899.873	15428
899.993	15389
900.113	15393
900.232	15401
900.352	15310
900.472	15245
900.591	15203
900.711	15279
900.83	15214
900.95	15249
901.069	15332
901.189	15138
901.308	15005
901.427	14880
901.546	14960
901.665	14963
901.784	14929
901.904	14838
902.023	14625
902.141	14545
902.26	14419
902.379	14541
902.498	14446
902.617	14431
902.735	14454
902.854	14465
902.973	14324
903.091	14123
903.21	14195
903.328	14096
903.446	14012
903.565	14008
903.683	13986
903.801	13982
903.919	14005
904.038	13883
904.156	13860
904.274	13833
904.392	13772
904.51	13803
904.627	13761
904.745	13807
904.863	13818
904.981	13586
905.098	13533
905.216	13472
905.334	13518
905.451	13518
905.569	13476
905.686	13457
905.803	13460
905.921	13343
906.038	13365
906.155	13316
906.272	13179
906.389	13164
906.506	13038
906.623	13000
906.74	12943
906.857	12913
906.974	12947
907.091	13072
907.208	13171
907.324	13057
907.441	12943
907.557	12719
907.674	12730
907.79	12734
907.907	12745
908.023	12810
908.139	12798
908.256	12673
908.372	12593
908.488	12700
908.604	12604
908.72	12399
908.836	12540
908.952	12521
909.068	12525
909.184	12673
909.3	12475
909.415	12540
909.531	12456
909.647	12315
909.762	12262
909.878	12296
909.993	12315
910.108	12197
910.224	12334
910.339	12289
910.454	12194
910.57	12102
910.685	12163
910.8	12338
910.915	12353
911.03	12117
911.145	11984
911.259	11923
911.374	11927
911.489	11836
911.604	11824
911.718	11710
911.833	11634
911.947	11611
912.062	11532
912.176	11649
912.291	11737
912.405	11691
912.519	11912
912.633	11920
912.748	11767
912.862	11684
912.976	11573
913.09	11459
913.204	11520
913.318	11547
913.431	11585
913.545	11668
913.659	11577
913.772	11543
913.886	11452
914	11433
914.113	11566
914.226	11562
914.34	11436
914.453	11387
914.566	11501
914.68	11421
914.793	11337
914.906	11117
915.019	11147
915.132	11079
915.245	11178
915.358	11197
915.47	11151
915.583	11170
915.696	11189
915.809	11265
915.921	11273
916.034	11193
916.146	11067
916.259	11094
916.371	11212
916.483	11064
916.595	11128
916.708	11079
916.82	11121
916.932	11079
917.044	11079
917.156	11033
917.268	10976
917.38	10965
917.491	10980
917.603	10968
917.715	11048
917.826	10976
917.938	10961
918.049	10816
918.161	10930
918.272	11090
918.384	11102
918.495	10949
918.606	10866
918.717	10740
918.828	10820
918.939	10892
919.05	10725
919.161	10752
919.272	10622
919.383	10733
919.494	10923
919.604	11052
919.715	10881
919.826	10759
919.936	10767
920.047	10930
920.157	10854
920.267	11029
920.378	10877
920.488	10843
920.598	11003
920.708	11162
920.818	11022
920.928	11071
921.038	11140
921.148	11174
921.258	10892
921.368	10733
921.477	10687
921.587	10649
921.697	10508
921.806	10698
921.916	10489
922.025	10356
922.134	10333
922.244	10352
922.353	10447
922.462	10246
922.571	10200
922.68	10067
922.789	10029
922.898	10040
923.007	10021
923.116	10036
923.224	10040
923.333	10032
923.442	9979
923.55	9918
923.659	9949
923.767	10013
923.876	9823
923.984	9941
924.092	9766
924.201	9979
924.309	9865
924.417	9876
924.525	9781
924.633	9861
924.741	10797
924.849	9713
924.956	9819
925.064	9713
925.172	9564
925.279	9652
925.387	9633
925.494	9641
925.602	9823
925.709	9797
925.816	9633
925.924	9686
926.031	9686
926.138	9614
926.245	9667
926.352	9591
926.459	9713
926.566	9812
926.673	9656
926.779	9523
926.886	9515
926.993	9363
927.099	9351
927.206	9310
927.312	9256
927.419	9428
927.525	9443
927.631	9428
927.737	9291
927.843	9260
927.95	9150
928.056	9222
928.162	9245
928.267	9218
928.373	9823
928.479	9374
928.585	9089
928.69	9233
928.796	9287
928.901	9100
929.007	9077
929.112	9165
929.218	9176
929.323	9123
929.428	8994
929.533	9291
929.638	8963
929.743	9135
929.848	9131
929.953	9081
930.058	8986
930.163	8868
930.267	8864
930.372	9001
930.477	8807
930.581	9066
930.685	8887
930.79	8769
930.894	8788
930.998	8727
931.103	8895
931.207	8564
931.311	8587
931.415	8465
931.519	8138
931.623	8187
