Data from test_V78500241_1968.txt Node
Date: Fri Mar 25 14:47:24 CST 2022
User: usil
Spectrometer: V785-0024
Trigger mode: 0
Integration Time (sec): 4.000000E-1
Scans to average: 1
Nonlinearity correction enabled: false
Boxcar width: 0
Storing dark spectrum: false
XAxis mode: Wavelengths
Number of Pixels in Spectrum: 1024
>>>>>Begin Spectral Data<<<<<
801.071	22109
801.214	21911
801.356	21781
801.499	21671
801.641	21542
801.783	21424
801.926	21500
802.068	21370
802.211	21302
802.353	21355
802.496	21047
802.638	20933
802.78	21013
802.923	20868
803.065	20785
803.208	20689
803.35	20811
803.492	20971
803.635	20895
803.777	20823
803.919	20765
804.061	21096
804.204	20727
804.346	20670
804.488	20617
804.63	20773
804.773	20625
804.915	20773
805.057	20933
805.199	20765
805.341	20868
805.483	20834
805.626	20754
805.768	20716
805.91	20724
806.052	20655
806.194	20655
806.336	20819
806.478	20632
806.62	20632
806.762	20712
806.904	20876
807.046	21252
807.188	20925
807.33	21017
807.472	21013
807.614	20971
807.756	20952
807.898	20746
808.04	20739
808.182	20746
808.324	20834
808.465	20765
808.607	20906
808.749	21112
808.891	21207
809.033	21306
809.174	21146
809.316	21051
809.458	21024
809.6	21123
809.741	21123
809.883	21096
810.025	21211
810.166	21123
810.308	21329
810.45	21211
810.591	21161
810.733	20921
810.875	20765
811.016	20731
811.158	20785
811.299	20811
811.441	20956
811.582	20914
811.724	20777
811.865	20727
812.007	20819
812.148	20864
812.29	20883
812.431	20929
812.573	21176
812.714	21180
812.855	21420
812.997	21363
813.138	21496
813.279	21317
813.421	21386
813.562	21241
813.703	21043
813.845	20986
813.986	20670
814.127	20575
814.268	20374
814.41	20450
814.551	20518
814.692	20454
814.833	20282
814.974	20438
815.115	20358
815.256	20195
815.397	20305
815.539	20282
815.68	20161
815.821	20020
815.962	20153
816.103	20107
816.244	19974
816.385	19879
816.526	19814
816.666	19700
816.807	19616
816.948	19647
817.089	19753
817.23	19708
817.371	19624
817.512	19514
817.653	19510
817.793	19525
817.934	19521
818.075	19525
818.216	19548
818.356	19552
818.497	19369
818.638	19133
818.778	19171
818.919	19278
819.06	19164
819.2	19285
819.341	19400
819.481	19430
819.622	19556
819.762	19685
819.903	19734
820.043	19601
820.184	19632
820.324	19434
820.465	19628
820.605	19563
820.746	19537
820.886	19449
821.026	19453
821.167	19483
821.307	19548
821.447	19388
821.588	19350
821.728	19225
821.868	19072
822.008	19042
822.149	18829
822.289	18947
822.429	18578
822.569	18578
822.709	18669
822.849	18365
822.99	18502
823.13	18437
823.27	18437
823.41	18190
823.55	18224
823.69	18190
823.83	18209
823.97	18186
824.11	18064
824.25	18022
824.389	17950
824.529	18072
824.669	17969
824.809	18140
824.949	18117
825.089	17996
825.228	17965
825.368	17824
825.508	17771
825.648	17885
825.787	17855
825.927	17802
826.067	17707
826.206	17737
826.346	17828
826.485	17794
826.625	17802
826.765	17893
826.904	17726
827.044	17581
827.183	17558
827.323	17482
827.462	17532
827.601	17497
827.741	17493
827.88	17532
828.02	17379
828.159	17349
828.298	17474
828.437	17634
828.577	17444
828.716	17589
828.855	17459
828.994	17303
829.134	17280
829.273	17208
829.412	17220
829.551	17261
829.69	17197
829.829	17292
829.968	17395
830.107	17315
830.246	17299
830.385	17098
830.524	17185
830.663	16984
830.802	16968
830.941	16812
831.08	16850
831.219	16957
831.357	16885
831.496	17014
831.635	16923
831.774	16820
831.913	16793
832.051	16717
832.19	16782
832.329	16675
832.467	16550
832.606	16504
832.744	16561
832.883	16504
833.022	16478
833.16	16618
833.299	16588
833.437	16599
833.576	16584
833.714	16538
833.852	16554
833.991	16698
834.129	16786
834.267	16573
834.406	16626
834.544	16618
834.682	16656
834.821	16565
834.959	16782
835.097	16428
835.235	16656
835.373	16626
835.511	16683
835.65	16485
835.788	16531
835.926	16318
836.064	16268
836.202	16322
836.34	16634
836.478	16618
836.615	16432
836.753	16611
836.891	16615
837.029	16565
837.167	16466
837.305	16451
837.443	16432
837.58	16394
837.718	16424
837.856	16466
837.993	16341
838.131	16459
838.269	16375
838.406	16371
838.544	16207
838.681	16128
838.819	16192
838.956	15903
839.094	15983
839.231	16044
839.369	16246
839.506	16405
839.643	16219
839.781	15956
839.918	15838
840.055	15968
840.193	15964
840.33	15895
840.467	16025
840.604	15960
840.742	16226
840.879	15770
841.016	15880
841.153	15857
841.29	16093
841.427	16013
841.564	16074
841.701	15892
841.838	15922
841.975	15937
842.112	15720
842.249	15823
842.385	15774
842.522	16002
842.659	15804
842.796	15660
842.933	15793
843.069	15641
843.206	15667
843.343	15842
843.479	15728
843.616	15755
843.752	15599
843.889	15511
844.025	15637
844.162	15408
844.298	15663
844.435	15424
844.571	15454
844.708	15515
844.844	15694
844.98	15660
845.117	15618
845.253	15397
845.389	15405
845.525	15389
845.661	15431
845.798	15264
845.934	15302
846.07	15245
846.206	15306
846.342	15443
846.478	15329
846.614	15146
846.75	15081
846.886	15081
847.022	15169
847.158	15161
847.294	15131
847.429	15195
847.565	15028
847.701	15306
847.837	14819
847.972	14731
848.108	14918
848.244	14902
848.379	14682
848.515	14667
848.65	14724
848.786	14724
848.921	14712
849.057	14735
849.192	14758
849.328	14678
849.463	14708
849.598	14674
849.734	14625
849.869	14541
850.004	14545
850.14	14469
850.275	14507
850.41	14431
850.545	14522
850.68	14419
850.815	14488
850.95	14431
851.085	14606
851.22	14492
851.355	14492
851.49	14450
851.625	14446
851.76	14415
851.895	14324
852.03	14442
852.165	14431
852.299	14473
852.434	14522
852.569	14488
852.703	14461
852.838	14522
852.973	14541
853.107	14541
853.242	14393
853.376	14339
853.511	14263
853.645	14259
853.78	14431
853.914	14339
854.048	14324
854.183	14267
854.317	14347
854.451	14480
854.585	14415
854.72	14294
854.854	14358
854.988	14240
855.122	14358
855.256	14176
855.39	14313
855.524	14461
855.658	14419
855.792	14240
855.926	14294
856.06	14396
856.194	14434
856.327	14351
856.461	14210
856.595	14229
856.729	14221
856.862	14408
856.996	14313
857.13	14370
857.263	14377
857.397	14358
857.53	14332
857.664	14332
857.797	14389
857.931	14370
858.064	14370
858.197	14454
858.331	14351
858.464	14275
858.597	14221
858.731	14324
858.864	14294
858.997	14267
859.13	14351
859.263	14317
859.396	14415
859.529	14305
859.662	14317
859.795	14362
859.928	14415
860.061	14431
860.194	14400
860.327	14385
860.46	14324
860.592	14404
860.725	14438
860.858	14469
860.99	14244
861.123	14218
861.256	14351
861.388	14290
861.521	15077
861.653	14199
861.786	14103
861.918	14142
862.05	14214
862.183	14267
862.315	14351
862.447	14362
862.58	14320
862.712	14077
862.844	14050
862.976	14145
863.108	14164
863.24	14446
863.372	14096
863.504	14050
863.636	14157
863.768	14199
863.9	14130
864.032	14050
864.164	14088
864.296	14077
864.428	14199
864.559	14199
864.691	14229
864.823	14138
864.954	14240
865.086	14134
865.217	14073
865.349	14027
865.48	14058
865.612	14096
865.743	14244
865.875	14058
866.006	14077
866.137	14092
866.269	14031
866.4	14107
866.531	14107
866.662	13936
866.793	14065
866.924	14058
867.055	14115
867.186	14012
867.317	13951
867.448	14008
867.579	13974
867.71	13932
867.841	13986
867.972	14138
868.103	14130
868.233	14123
868.364	14107
868.495	14218
868.625	14275
868.756	14469
868.886	14317
869.017	14313
869.147	14431
869.278	14465
869.408	14362
869.539	14423
869.669	14423
869.799	14381
869.929	14568
870.06	14419
870.19	14739
870.32	14686
870.45	14735
870.58	14769
870.71	14880
870.84	14800
870.97	14739
871.1	14701
871.23	14914
871.36	14906
871.489	14830
871.619	14880
871.749	14925
871.879	14902
872.008	15055
872.138	14941
872.267	14906
872.397	14826
872.526	14807
872.656	14670
872.785	14735
872.915	14902
873.044	15001
873.173	14944
873.303	15036
873.432	14990
873.561	15154
873.69	14944
873.819	15055
873.948	15074
874.077	15108
874.206	14876
874.335	14925
874.464	15104
874.593	15370
874.722	15218
874.851	15294
874.979	15272
875.108	15389
875.237	15230
875.365	15176
875.494	15214
875.623	15329
875.751	15230
875.88	15332
876.008	15481
876.136	15538
876.265	15778
876.393	15808
876.521	15842
876.65	15808
876.778	15797
876.906	15625
877.034	15656
877.162	15538
877.29	15625
877.418	15682
877.546	15694
877.674	15888
877.802	15690
877.93	15808
878.058	15648
878.185	15633
878.313	15690
878.441	15736
878.568	15511
878.696	15759
878.824	15667
878.951	15774
879.079	16029
879.206	16040
879.333	15926
879.461	15701
879.588	15808
879.715	15831
879.842	15964
879.97	15842
880.097	15622
880.224	15481
880.351	15652
880.478	15584
880.605	15469
880.732	15576
880.859	15842
880.986	15618
881.112	15686
881.239	15477
881.366	15287
881.493	15268
881.619	15180
881.746	15264
881.872	15142
881.999	15211
882.125	15093
882.252	15218
882.378	15279
882.505	15313
882.631	15211
882.757	15077
882.883	15157
883.01	15066
883.136	14963
883.262	14952
883.388	14918
883.514	15058
883.64	15131
883.766	14857
883.892	14876
884.018	14876
884.143	15077
884.269	15020
884.395	14838
884.52	14644
884.646	14655
884.772	14670
884.897	14731
885.023	14724
885.148	14807
885.274	14876
885.399	14845
885.524	14731
885.65	14750
885.775	14853
885.9	14754
886.025	14868
886.15	14788
886.275	14765
886.4	14712
886.525	14724
886.65	14659
886.775	14625
886.9	14842
887.025	15009
887.149	14682
887.274	14617
887.399	14594
887.523	14552
887.648	14575
887.773	14351
887.897	14720
888.021	14667
888.146	14537
888.27	14651
888.395	14785
888.519	14720
888.643	14621
888.767	14636
888.891	14552
889.015	14301
889.139	14461
889.263	14514
889.387	14705
889.511	14739
889.635	14606
889.759	14450
889.883	14389
890.006	14412
890.13	14530
890.254	14427
890.377	14381
890.501	14172
890.624	14256
890.748	14294
890.871	14252
890.995	14054
891.118	14050
891.241	14191
891.364	14214
891.488	14317
891.611	14142
891.734	14172
891.857	14259
891.98	14073
892.103	14267
892.226	14145
892.349	14111
892.471	14001
892.594	14062
892.717	14142
892.839	14092
892.962	14183
893.085	14180
893.207	14115
893.33	14077
893.452	13967
893.575	14183
893.697	14126
893.819	14263
893.941	14370
894.064	14290
894.186	14069
894.308	14138
894.43	14313
894.552	14404
894.674	14320
894.796	14119
894.918	14138
895.04	14237
895.161	14275
895.283	14168
895.405	14096
895.526	14176
895.648	14244
895.769	14290
895.891	14343
896.012	14408
896.134	14263
896.255	14301
896.376	14237
896.498	14355
896.619	14366
896.74	14278
896.861	14347
896.982	14720
897.103	14826
897.224	14594
897.345	14552
897.466	14454
897.587	14533
897.708	14674
897.828	14571
897.949	14579
898.07	14286
898.19	14492
898.311	14640
898.431	14602
898.552	14613
898.672	14708
898.792	14678
898.913	14670
899.033	14610
899.153	14594
899.273	14377
899.393	14552
899.513	14473
899.633	14579
899.753	14499
899.873	14412
899.993	14610
900.113	14583
900.232	14514
900.352	14503
900.472	14393
900.591	14301
900.711	14381
900.83	14301
900.95	14370
901.069	14492
901.189	14294
901.308	14046
901.427	14020
901.546	13986
901.665	14043
901.784	14058
901.904	14005
902.023	13833
902.141	13677
902.26	13620
902.379	13677
902.498	13616
902.617	13616
902.735	13681
902.854	13578
902.973	13487
903.091	13369
903.21	13339
903.328	13396
903.446	13316
903.565	13209
903.683	13107
903.801	13118
903.919	13084
904.038	13232
904.156	12993
904.274	13137
904.392	12924
904.51	12962
904.627	12916
904.745	13076
904.863	13023
904.981	12779
905.098	12673
905.216	12646
905.334	12738
905.451	12741
905.569	12684
905.686	12768
905.803	12738
905.921	12498
906.038	12662
906.155	12547
906.272	12403
906.389	12445
906.506	12311
906.623	12289
906.74	12251
906.857	12190
906.974	12201
907.091	12350
907.208	12445
907.324	12289
907.441	12148
907.557	12049
907.674	12102
907.79	11942
907.907	11931
908.023	12076
908.139	11992
908.256	11942
908.372	11958
908.488	11969
908.604	11847
908.72	11729
908.836	11771
908.952	11779
909.068	11817
909.184	11923
909.3	11764
909.415	11843
909.531	11809
909.647	11539
909.762	11566
909.878	11566
909.993	11512
910.108	11577
910.224	11455
910.339	11676
910.454	11444
910.57	11341
910.685	11376
910.8	11554
910.915	11657
911.03	11410
911.145	11395
911.259	11288
911.374	11189
911.489	11094
911.604	11223
911.718	10987
911.833	11056
911.947	10896
912.062	10927
912.176	11033
912.291	10991
912.405	10927
912.519	11204
912.633	11208
912.748	11056
912.862	11083
912.976	10904
913.09	10809
913.204	10831
913.318	10889
913.431	10949
913.545	10919
913.659	11025
913.772	10885
913.886	10805
914	10752
914.113	10858
914.226	10892
914.34	10790
914.453	10752
914.566	10877
914.68	10755
914.793	10717
914.906	10512
915.019	10447
915.132	10497
915.245	10531
915.358	10516
915.47	10615
915.583	10538
915.696	10497
915.809	10721
915.921	10679
916.034	10512
916.146	10481
916.259	10497
916.371	10554
916.483	10550
916.595	10440
916.708	10481
916.82	10462
916.932	10531
917.044	10402
917.156	10447
917.268	10375
917.38	10363
917.491	10337
917.603	10367
917.715	10451
917.826	10424
917.938	10299
918.049	10185
918.161	10451
918.272	10519
918.384	10474
918.495	10322
918.606	10230
918.717	10177
918.828	10169
918.939	10280
919.05	10150
919.161	10227
919.272	9991
919.383	10086
919.494	10299
919.604	10436
919.715	10223
919.826	10223
919.936	10188
920.047	10261
920.157	10280
920.267	10500
920.378	10238
920.488	10287
920.598	10451
920.708	10470
920.818	10447
920.928	10470
921.038	10546
921.148	10599
921.258	10246
921.368	10173
921.477	10093
921.587	10093
921.697	9983
921.806	10109
921.916	10010
922.025	9804
922.134	9800
922.244	9747
922.353	9827
922.462	9724
922.571	9610
922.68	9530
922.789	9488
922.898	9458
923.007	9450
923.116	9504
923.224	9485
923.333	9408
923.442	9443
923.55	9344
923.659	9393
923.767	9393
923.876	9348
923.984	9466
924.092	9249
924.201	9466
924.309	9283
924.417	9370
924.525	9291
924.633	9272
924.741	10253
924.849	9184
924.956	9302
925.064	9097
925.172	9062
925.279	9127
925.387	9180
925.494	9127
925.602	9264
925.709	9275
925.816	9039
925.924	9074
926.031	9203
926.138	9161
926.245	9237
926.352	9104
926.459	9283
926.566	9283
926.673	9161
926.779	9013
926.886	8982
926.993	8864
927.099	8853
927.206	8849
927.312	8830
927.419	8887
927.525	8781
927.631	8880
927.737	8746
927.843	8769
927.95	8594
928.056	8754
928.162	8697
928.267	8807
928.373	9367
928.479	8838
928.585	8602
928.69	8731
928.796	8811
928.901	8670
929.007	8602
929.112	8720
929.218	8659
929.323	8564
929.428	8533
929.533	8712
929.638	8556
929.743	8587
929.848	8621
929.953	8613
930.058	8476
930.163	8332
930.267	8366
930.372	8469
930.477	8301
930.581	8549
930.685	8446
930.79	8214
930.894	8294
930.998	8290
931.103	8484
931.207	8058
931.311	7978
931.415	7921
931.519	7864
931.623	7757
