Data from test_V78500241_3183.txt Node
Date: Fri Mar 25 14:55:52 CST 2022
User: usil
Spectrometer: V785-0024
Trigger mode: 0
Integration Time (sec): 4.000000E-1
Scans to average: 1
Nonlinearity correction enabled: false
Boxcar width: 0
Storing dark spectrum: false
XAxis mode: Wavelengths
Number of Pixels in Spectrum: 1024
>>>>>Begin Spectral Data<<<<<
801.071	22051
801.214	22010
801.356	21720
801.499	21572
801.641	21526
801.783	21435
801.926	21431
802.068	21340
802.211	21340
802.353	21241
802.496	21104
802.638	20864
802.78	20868
802.923	20788
803.065	20701
803.208	20739
803.35	20876
803.492	20876
803.635	20933
803.777	20777
803.919	20796
804.061	21039
804.204	20705
804.346	20823
804.488	20514
804.63	20750
804.773	20587
804.915	20781
805.057	20838
805.199	20659
805.341	20724
805.483	20807
805.626	20663
805.768	20632
805.91	20636
806.052	20720
806.194	20560
806.336	20792
806.478	20750
806.62	20560
806.762	20689
806.904	20811
807.046	21070
807.188	20967
807.33	20929
807.472	21074
807.614	20891
807.756	20906
807.898	20727
808.04	20731
808.182	20594
808.324	20697
808.465	20815
808.607	20906
808.749	20971
808.891	21154
809.033	21233
809.174	21226
809.316	20952
809.458	20963
809.6	21009
809.741	21135
809.883	21028
810.025	21222
810.166	21222
810.308	21207
810.45	21161
810.591	21024
810.733	20876
810.875	20743
811.016	20724
811.158	20724
811.299	20902
811.441	21028
811.582	20937
811.724	20788
811.865	20872
812.007	20796
812.148	20819
812.29	20830
812.431	21017
812.573	21070
812.714	21211
812.855	21287
812.997	21443
813.138	21469
813.279	21344
813.421	21264
813.562	21268
813.703	21051
813.845	20849
813.986	20739
814.127	20492
814.268	20423
814.41	20366
814.551	20290
814.692	20446
814.833	20324
814.974	20381
815.115	20332
815.256	20237
815.397	20271
815.539	20187
815.68	20180
815.821	19982
815.962	20024
816.103	20031
816.244	19860
816.385	19807
816.526	19795
816.666	19647
816.807	19552
816.948	19571
817.089	19548
817.23	19643
817.371	19559
817.512	19434
817.653	19434
817.793	19430
817.934	19396
818.075	19438
818.216	19552
818.356	19426
818.497	19244
818.638	19228
818.778	19160
818.919	19126
819.06	19225
819.2	19278
819.341	19331
819.481	19358
819.622	19453
819.762	19605
819.903	19575
820.043	19392
820.184	19445
820.324	19350
820.465	19559
820.605	19384
820.746	19472
820.886	19251
821.026	19407
821.167	19419
821.307	19453
821.447	19419
821.588	19293
821.728	19183
821.868	19084
822.008	18871
822.149	18867
822.289	18852
822.429	18547
822.569	18445
822.709	18467
822.849	18414
822.99	18319
823.13	18144
823.27	18296
823.41	18121
823.55	18098
823.69	18254
823.83	18079
823.97	17996
824.11	17870
824.25	17802
824.389	17901
824.529	18060
824.669	17916
824.809	17965
824.949	18087
825.089	17984
825.228	17935
825.368	17756
825.508	17745
825.648	17676
825.787	17745
825.927	17745
826.067	17577
826.206	17585
826.346	17760
826.485	17615
826.625	17672
826.765	17832
826.904	17741
827.044	17395
827.183	17444
827.323	17372
827.462	17444
827.601	17429
827.741	17402
827.88	17406
828.02	17269
828.159	17383
828.298	17429
828.437	17345
828.577	17410
828.716	17486
828.855	17311
828.994	17109
829.134	17048
829.273	17109
829.412	16995
829.551	17113
829.69	17162
829.829	17136
829.968	17220
830.107	17269
830.246	17083
830.385	17022
830.524	17037
830.663	16915
830.802	16854
830.941	16771
831.08	16736
831.219	16717
831.357	16782
831.496	16965
831.635	16748
831.774	16675
831.913	16592
832.051	16538
832.19	16615
832.329	16523
832.467	16459
832.606	16398
832.744	16382
832.883	16447
833.022	16322
833.16	16356
833.299	16356
833.437	16413
833.576	16478
833.714	16508
833.852	16459
833.991	16535
834.129	16523
834.267	16478
834.406	16542
834.544	16500
834.682	16443
834.821	16493
834.959	16493
835.097	16390
835.235	16596
835.373	16519
835.511	16512
835.65	16459
835.788	16386
835.926	16196
836.064	16238
836.202	16295
836.34	16344
836.478	16470
836.615	16329
836.753	16314
836.891	16538
837.029	16409
837.167	16413
837.305	16215
837.443	16226
837.58	16333
837.718	16314
837.856	16211
837.993	16147
838.131	16234
838.269	16188
838.406	16177
838.544	16128
838.681	16006
838.819	15949
838.956	15823
839.094	15804
839.231	15892
839.369	15899
839.506	16207
839.643	15983
839.781	15797
839.918	15736
840.055	15762
840.193	15823
840.33	15732
840.467	15625
840.604	15816
840.742	16017
840.879	15622
841.016	15690
841.153	15686
841.29	15884
841.427	15823
841.564	15797
841.701	15709
841.838	15770
841.975	15736
842.112	15686
842.249	15606
842.385	15530
842.522	15717
842.659	15694
842.796	15564
842.933	15557
843.069	15595
843.206	15603
843.343	15644
843.479	15652
843.616	15656
843.752	15298
843.889	15416
844.025	15439
844.162	15321
844.298	15439
844.435	15408
844.571	15351
844.708	15401
844.844	15591
844.98	15511
845.117	15538
845.253	15233
845.389	15146
845.525	15325
845.661	15237
845.798	15214
845.934	15275
846.07	15081
846.206	15192
846.342	15332
846.478	15192
846.614	15020
846.75	14838
846.886	14944
847.022	15062
847.158	14914
847.294	14929
847.429	14967
847.565	14921
847.701	15108
847.837	14613
847.972	14629
848.108	14781
848.244	14705
848.379	14583
848.515	14518
848.65	14442
848.786	14495
848.921	14564
849.057	14606
849.192	14716
849.328	14568
849.463	14499
849.598	14549
849.734	14454
849.869	14404
850.004	14309
850.14	14317
850.275	14328
850.41	14263
850.545	14240
850.68	14320
850.815	14355
850.95	14389
851.085	14587
851.22	14431
851.355	14358
851.49	14214
851.625	14278
851.76	14259
851.895	14206
852.03	14240
852.165	14336
852.299	14286
852.434	14408
852.569	14423
852.703	14351
852.838	14290
852.973	14461
853.107	14465
853.242	14164
853.376	14168
853.511	14084
853.645	14100
853.78	14301
853.914	14233
854.048	14176
854.183	14123
854.317	14187
854.451	14347
854.585	14180
854.72	14103
854.854	14225
854.988	14103
855.122	14180
855.256	14096
855.39	14161
855.524	14221
855.658	14229
855.792	14183
855.926	14176
856.06	14278
856.194	14240
856.327	14172
856.461	14168
856.595	14084
856.729	14145
856.862	14225
856.996	14202
857.13	14237
857.263	14248
857.397	14263
857.53	14229
857.664	14164
857.797	14237
857.931	14339
858.064	14164
858.197	14176
858.331	14065
858.464	14115
858.597	14157
858.731	14157
858.864	14130
858.997	14233
859.13	14149
859.263	14172
859.396	14320
859.529	14164
859.662	14107
859.795	14088
859.928	14202
860.061	14469
860.194	14377
860.327	14317
860.46	14202
860.592	14202
860.725	14237
860.858	14248
860.99	14229
861.123	14119
861.256	14088
861.388	14271
861.521	14990
861.653	14111
861.786	13993
861.918	14145
862.05	14035
862.183	14161
862.315	14161
862.447	14130
862.58	14050
862.712	13841
862.844	13932
862.976	14024
863.108	14031
863.24	14275
863.372	13875
863.504	13959
863.636	13940
863.768	13928
863.9	13921
864.032	13909
864.164	13989
864.296	13951
864.428	14039
864.559	14069
864.691	14123
864.823	13989
864.954	14043
865.086	13974
865.217	13898
865.349	13970
865.48	14027
865.612	13967
865.743	14058
865.875	13978
866.006	13803
866.137	13974
866.269	13970
866.4	13890
866.531	13822
866.662	13826
866.793	13883
866.924	13925
867.055	13959
867.186	13906
867.317	13940
867.448	13887
867.579	13788
867.71	13791
867.841	13807
867.972	13940
868.103	13955
868.233	13970
868.364	13856
868.495	14126
868.625	14115
868.756	14225
868.886	14176
869.017	14077
869.147	14317
869.278	14374
869.408	14328
869.539	14164
869.669	14290
869.799	14256
869.929	14305
870.06	14256
870.19	14480
870.32	14412
870.45	14533
870.58	14594
870.71	14689
870.84	14632
870.97	14533
871.1	14522
871.23	14891
871.36	14811
871.489	14648
871.619	14781
871.749	14746
871.879	14785
872.008	14807
872.138	14876
872.267	14754
872.397	14583
872.526	14610
872.656	14598
872.785	14689
872.915	14861
873.044	14944
873.173	14849
873.303	14842
873.432	14792
873.561	14834
873.69	14876
873.819	14758
873.948	14864
874.077	14956
874.206	14868
874.335	14785
874.464	14910
874.593	15070
874.722	15062
874.851	15150
874.979	15169
875.108	15127
875.237	15116
875.365	15081
875.494	15058
875.623	15252
875.751	15146
875.88	15192
876.008	15264
876.136	15431
876.265	15584
876.393	15747
876.521	15648
876.65	15679
876.778	15466
876.906	15443
877.034	15526
877.162	15515
877.29	15473
877.418	15641
877.546	15648
877.674	15652
877.802	15580
877.93	15599
878.058	15564
878.185	15511
878.313	15538
878.441	15572
878.568	15386
878.696	15466
878.824	15641
878.951	15652
879.079	15785
879.206	15770
879.333	15728
879.461	15599
879.588	15717
879.715	15789
879.842	15709
879.97	15614
880.097	15374
880.224	15420
880.351	15466
880.478	15507
880.605	15378
880.732	15412
880.859	15667
880.986	15450
881.112	15469
881.239	15294
881.366	15203
881.493	15104
881.619	15104
881.746	15066
881.872	15089
881.999	15055
882.125	14956
882.252	15207
882.378	15051
882.505	15287
882.631	14975
882.757	14887
882.883	14906
883.01	14834
883.136	14834
883.262	14796
883.388	14754
883.514	14948
883.64	14956
883.766	14914
883.892	14815
884.018	14804
884.143	14864
884.269	14967
884.395	14727
884.52	14571
884.646	14537
884.772	14511
884.897	14526
885.023	14636
885.148	14727
885.274	14785
885.399	14651
885.524	14663
885.65	14689
885.775	14686
885.9	14526
886.025	14769
886.15	14640
886.275	14594
886.4	14511
886.525	14625
886.65	14503
886.775	14457
886.9	14785
887.025	14788
887.149	14644
887.274	14412
887.399	14419
887.523	14438
887.648	14282
887.773	14362
887.897	14518
888.021	14419
888.146	14461
888.27	14530
888.395	14575
888.519	14454
888.643	14514
888.767	14476
888.891	14339
889.015	14275
889.139	14343
889.263	14214
889.387	14396
889.511	14560
889.635	14434
889.759	14191
889.883	14267
890.006	14309
890.13	14408
890.254	14202
890.377	14309
890.501	14058
890.624	14050
890.748	14164
890.871	13989
890.995	13989
891.118	13993
891.241	13963
891.364	13944
891.488	14031
891.611	14016
891.734	13906
891.857	14134
891.98	14062
892.103	14107
892.226	13932
892.349	13963
892.471	13875
892.594	13974
892.717	14050
892.839	14024
892.962	14043
893.085	14043
893.207	14081
893.33	14008
893.452	13955
893.575	14062
893.697	13967
893.819	14218
893.941	14298
894.064	14145
894.186	13993
894.308	14046
894.43	14142
894.552	14225
894.674	14180
894.796	13982
894.918	14073
895.04	14062
895.161	14199
895.283	14077
895.405	14031
895.526	14145
895.648	14107
895.769	14176
895.891	14210
896.012	14229
896.134	14180
896.255	14130
896.376	14084
896.498	14119
896.619	14294
896.74	14248
896.861	14298
896.982	14560
897.103	14712
897.224	14488
897.345	14507
897.466	14355
897.587	14457
897.708	14648
897.828	14560
897.949	14370
898.07	14351
898.19	14412
898.311	14625
898.431	14511
898.552	14469
898.672	14629
898.792	14590
898.913	14606
899.033	14454
899.153	14377
899.273	14195
899.393	14499
899.513	14370
899.633	14431
899.753	14324
899.873	14404
899.993	14537
900.113	14381
900.232	14389
900.352	14396
900.472	14404
900.591	14199
900.711	14278
900.83	14218
900.95	14339
901.069	14347
901.189	14263
901.308	13986
901.427	13849
901.546	13986
901.665	13921
901.784	14054
901.904	13902
902.023	13791
902.141	13529
902.26	13548
902.379	13559
902.498	13582
902.617	13407
902.735	13502
902.854	13445
902.973	13426
903.091	13118
903.21	13263
903.328	13145
903.446	13164
903.565	13061
903.683	13046
903.801	12989
903.919	13012
904.038	13046
904.156	12886
904.274	12954
904.392	12882
904.51	12806
904.627	12897
904.745	12886
904.863	12947
904.981	12745
905.098	12578
905.216	12547
905.334	12597
905.451	12566
905.569	12517
905.686	12627
905.803	12525
905.921	12323
906.038	12471
906.155	12429
906.272	12346
906.389	12300
906.506	12163
906.623	12194
906.74	12114
906.857	12091
906.974	12064
907.091	12300
907.208	12300
907.324	12220
907.441	12171
907.557	11840
907.674	11942
907.79	11855
907.907	11908
908.023	11828
908.139	11939
908.256	11840
908.372	11824
908.488	11920
908.604	11657
908.72	11653
908.836	11688
908.952	11691
909.068	11676
909.184	11767
909.3	11695
909.415	11729
909.531	11703
909.647	11482
909.762	11459
909.878	11459
909.993	11520
910.108	11497
910.224	11433
910.339	11482
910.454	11337
910.57	11189
910.685	11181
910.8	11524
910.915	11406
911.03	11360
911.145	11117
911.259	11159
911.374	11113
911.489	11079
911.604	11113
911.718	10927
911.833	10850
911.947	10862
912.062	10759
912.176	10965
912.291	10908
912.405	10896
912.519	11045
912.633	11109
912.748	10923
912.862	10900
912.976	10763
913.09	10653
913.204	10725
913.318	10824
913.431	10843
913.545	10881
913.659	10892
913.772	10831
913.886	10744
914	10622
914.113	10771
914.226	10809
914.34	10691
914.453	10611
914.566	10714
914.68	10607
914.793	10577
914.906	10436
915.019	10337
915.132	10413
915.245	10318
915.358	10402
915.47	10386
915.583	10478
915.696	10516
915.809	10554
915.921	10596
916.034	10333
916.146	10363
916.259	10356
916.371	10428
916.483	10386
916.595	10390
916.708	10318
916.82	10375
916.932	10356
917.044	10318
917.156	10276
917.268	10227
917.38	10246
917.491	10207
917.603	10306
917.715	10409
917.826	10272
917.938	10265
918.049	10128
918.161	10299
918.272	10329
918.384	10432
918.495	10360
918.606	10158
918.717	9979
918.828	10086
918.939	10158
919.05	10093
919.161	10181
919.272	9941
919.383	9998
919.494	10215
919.604	10333
919.715	10147
919.826	10078
919.936	10093
920.047	10185
920.157	10219
920.267	10356
920.378	10200
920.488	10082
920.598	10348
920.708	10428
920.818	10284
920.928	10371
921.038	10565
921.148	10466
921.258	10090
921.368	10128
921.477	10013
921.587	10025
921.697	9869
921.806	9979
921.916	9892
922.025	9690
922.134	9671
922.244	9644
922.353	9755
922.462	9644
922.571	9606
922.68	9466
922.789	9401
922.898	9435
923.007	9336
923.116	9431
923.224	9359
923.333	9393
923.442	9302
923.55	9283
923.659	9355
923.767	9340
923.876	9154
923.984	9370
924.092	9233
924.201	9237
924.309	9336
924.417	9218
924.525	9188
924.633	9207
924.741	10234
924.849	9047
924.956	9176
925.064	9047
925.172	8998
925.279	9055
925.387	9047
925.494	9089
925.602	9188
925.709	9070
925.816	9017
925.924	9123
926.031	9142
926.138	9074
926.245	9104
926.352	8960
926.459	9207
926.566	9058
926.673	9013
926.779	8910
926.886	8929
926.993	8769
927.099	8754
927.206	8788
927.312	8804
927.419	8826
927.525	8746
927.631	8826
927.737	8682
927.843	8708
927.95	8552
928.056	8667
928.162	8705
928.267	8781
928.373	9275
928.479	8788
928.585	8545
928.69	8621
928.796	8762
928.901	8571
929.007	8469
929.112	8617
929.218	8541
929.323	8610
929.428	8450
929.533	8606
929.638	8442
929.743	8507
929.848	8503
929.953	8469
930.058	8450
930.163	8275
930.267	8339
930.372	8385
930.477	8263
930.581	8522
930.685	8336
930.79	8183
930.894	8248
930.998	8153
931.103	8362
931.207	8012
931.311	7928
931.415	7879
931.519	7708
931.623	7750
