Data from test_V78500241_421.txt Node
Date: Fri Mar 25 14:36:39 CST 2022
User: usil
Spectrometer: V785-0024
Trigger mode: 0
Integration Time (sec): 4.000000E-1
Scans to average: 1
Nonlinearity correction enabled: false
Boxcar width: 0
Storing dark spectrum: false
XAxis mode: Wavelengths
Number of Pixels in Spectrum: 1024
>>>>>Begin Spectral Data<<<<<
801.071	26727
801.214	26457
801.356	26282
801.499	26290
801.641	26134
801.783	26031
801.926	26100
802.068	25951
802.211	25784
802.353	25856
802.496	25693
802.638	25712
802.78	25666
802.923	25552
803.065	25590
803.208	25518
803.35	25518
803.492	25704
803.635	25746
803.777	25597
803.919	25761
804.061	25864
804.204	25609
804.346	25571
804.488	25400
804.63	25575
804.773	25403
804.915	25449
805.057	25704
805.199	25548
805.341	25655
805.483	25731
805.626	25571
805.768	25521
805.91	25514
806.052	25635
806.194	25537
806.336	25898
806.478	25670
806.62	25624
806.762	25757
806.904	25868
807.046	26050
807.188	25925
807.33	25925
807.472	26161
807.614	25906
807.756	25883
807.898	25780
808.04	25723
808.182	25693
808.324	25795
808.465	25719
808.607	25989
808.749	25928
808.891	26214
809.033	26450
809.174	26362
809.316	26081
809.458	26088
809.6	26111
809.741	26077
809.883	26130
810.025	26164
810.166	26351
810.308	26225
810.45	26195
810.591	26259
810.733	26073
810.875	25917
811.016	25875
811.158	25864
811.299	26046
811.441	25898
811.582	26062
811.724	26012
811.865	25890
812.007	25799
812.148	25818
812.29	25944
812.431	25963
812.573	26210
812.714	26298
812.855	26408
812.997	26651
813.138	26579
813.279	26499
813.421	26545
813.562	26404
813.703	26263
813.845	26107
813.986	25845
814.127	25632
814.268	25457
814.41	25601
814.551	25544
814.692	25453
814.833	25426
814.974	25426
815.115	25278
815.256	25335
815.397	25316
815.539	25384
815.68	25293
815.821	25228
815.962	25232
816.103	25251
816.244	25076
816.385	25065
816.526	25012
816.666	24753
816.807	24696
816.948	24791
817.089	24700
817.23	24623
817.371	24627
817.512	24532
817.653	24479
817.793	24650
817.934	24608
818.075	24525
818.216	24570
818.356	24498
818.497	24475
818.638	24365
818.778	24330
818.919	24270
819.06	24361
819.2	24388
819.341	24350
819.481	24502
819.622	24570
819.762	24970
819.903	24802
820.043	24681
820.184	24635
820.324	24547
820.465	24635
820.605	24757
820.746	24597
820.886	24528
821.026	24536
821.167	24509
821.307	24700
821.447	24395
821.588	24346
821.728	24292
821.868	23912
822.008	24038
822.149	23927
822.289	24034
822.429	23676
822.569	23661
822.709	23623
822.849	23455
822.99	23406
823.13	23436
823.27	23334
823.41	23250
823.55	23136
823.69	23124
823.83	23258
823.97	23181
824.11	22984
824.25	22862
824.389	22953
824.529	23143
824.669	23060
824.809	23128
824.949	22957
825.089	23029
825.228	22976
825.368	22774
825.508	22744
825.648	22660
825.787	22820
825.927	22687
826.067	22725
826.206	22729
826.346	22854
826.485	22828
826.625	22801
826.765	22786
826.904	22805
827.044	22607
827.183	22497
827.323	22371
827.462	22440
827.601	22417
827.741	22535
827.88	22417
828.02	22344
828.159	22337
828.298	22519
828.437	22367
828.577	22352
828.716	22531
828.855	22318
828.994	22177
829.134	22242
829.273	22074
829.412	22078
829.551	22021
829.69	22162
829.829	22021
829.968	22097
830.107	22090
830.246	22067
830.385	22078
830.524	21964
830.663	21854
830.802	21869
830.941	21652
831.08	21705
831.219	21857
831.357	21762
831.496	21899
831.635	21686
831.774	21504
831.913	21439
832.051	21454
832.19	21401
832.329	21477
832.467	21382
832.606	21363
832.744	21336
832.883	21310
833.022	21218
833.16	21355
833.299	21344
833.437	21473
833.576	21458
833.714	21439
833.852	21367
833.991	21428
834.129	21447
834.267	21439
834.406	21355
834.544	21424
834.682	21378
834.821	21450
834.959	21458
835.097	21393
835.235	21275
835.373	21393
835.511	21363
835.65	21222
835.788	21226
835.926	21108
836.064	20925
836.202	21039
836.34	21241
836.478	21272
836.615	21074
836.753	21230
836.891	21317
837.029	21241
837.167	21135
837.305	21085
837.443	21077
837.58	21062
837.718	21169
837.856	21104
837.993	21020
838.131	21089
838.269	21001
838.406	21062
838.544	20785
838.681	20716
838.819	20743
838.956	20511
839.094	20541
839.231	20495
839.369	20701
839.506	20872
839.643	20705
839.781	20450
839.918	20415
840.055	20518
840.193	20469
840.33	20442
840.467	20412
840.604	20309
840.742	20621
840.879	20252
841.016	20351
841.153	20298
841.29	20518
841.427	20385
841.564	20537
841.701	20427
841.838	20187
841.975	20221
842.112	20271
842.249	20119
842.385	20084
842.522	20366
842.659	20191
842.796	20073
842.933	20069
843.069	20115
843.206	20107
843.343	20210
843.479	20054
843.616	20111
843.752	19902
843.889	19913
844.025	20039
844.162	19841
844.298	19932
844.435	19902
844.571	19830
844.708	19978
844.844	19955
844.98	20054
845.117	19978
845.253	19769
845.389	19791
845.525	19871
845.661	19830
845.798	19772
845.934	19780
846.07	19658
846.206	19833
846.342	19696
846.478	19674
846.614	19586
846.75	19255
846.886	19335
847.022	19400
847.158	19388
847.294	19419
847.429	19419
847.565	19282
847.701	19700
847.837	19114
847.972	19133
848.108	19194
848.244	19183
848.379	18878
848.515	18856
848.65	18928
848.786	18840
848.921	18916
849.057	19023
849.192	18989
849.328	18943
849.463	18871
849.598	18825
849.734	18844
849.869	18722
850.004	18802
850.14	18738
850.275	18715
850.41	18722
850.545	18563
850.68	18627
850.815	18734
850.95	18681
851.085	18867
851.22	18741
851.355	18779
851.49	18654
851.625	18490
851.76	18589
851.895	18566
852.03	18582
852.165	18601
852.299	18726
852.434	18825
852.569	18684
852.703	18700
852.838	18642
852.973	18658
853.107	18791
853.242	18623
853.376	18525
853.511	18357
853.645	18479
853.78	18681
853.914	18506
854.048	18483
854.183	18429
854.317	18635
854.451	18490
854.585	18452
854.72	18441
854.854	18566
854.988	18342
855.122	18525
855.256	18251
855.39	18399
855.524	18532
855.658	18445
855.792	18528
855.926	18490
856.06	18452
856.194	18582
856.327	18426
856.461	18437
856.595	18395
856.729	18353
856.862	18555
856.996	18479
857.13	18464
857.263	18441
857.397	18517
857.53	18433
857.664	18525
857.797	18566
857.931	18525
858.064	18448
858.197	18555
858.331	18285
858.464	18483
858.597	18388
858.731	18372
858.864	18346
858.997	18460
859.13	18391
859.263	18509
859.396	18471
859.529	18330
859.662	18319
859.795	18330
859.928	18418
860.061	18639
860.194	18566
860.327	18494
860.46	18422
860.592	18509
860.725	18646
860.858	18407
860.99	18418
861.123	18311
861.256	18395
861.388	18490
861.521	19179
861.653	18327
861.786	18194
861.918	18311
862.05	18346
862.183	18456
862.315	18452
862.447	18525
862.58	18471
862.712	18201
862.844	18152
862.976	18232
863.108	18144
863.24	18475
863.372	18159
863.504	18098
863.636	18095
863.768	18140
863.9	18144
864.032	18068
864.164	18064
864.296	18034
864.428	18232
864.559	18117
864.691	18243
864.823	18038
864.954	18171
865.086	18182
865.217	18068
865.349	18030
865.48	18030
865.612	17973
865.743	18190
865.875	17977
866.006	17996
866.137	18095
866.269	17942
866.4	18038
866.531	18057
866.662	17954
866.793	17908
866.924	17999
867.055	18057
867.186	18038
867.317	17961
867.448	17954
867.579	17866
867.71	17965
867.841	17950
867.972	18076
868.103	17977
868.233	18068
868.364	18007
868.495	18106
868.625	18372
868.756	18281
868.886	18178
869.017	18098
869.147	18311
869.278	18213
869.408	18296
869.539	18144
869.669	18323
869.799	18334
869.929	18285
870.06	18342
870.19	18574
870.32	18513
870.45	18608
870.58	18642
870.71	18734
870.84	18612
870.97	18661
871.1	18684
871.23	18764
871.36	18829
871.489	18658
871.619	18935
871.749	18890
871.879	18939
872.008	19008
872.138	18894
872.267	18848
872.397	18722
872.526	18627
872.656	18734
872.785	18604
872.915	18920
873.044	18905
873.173	18817
873.303	18924
873.432	18837
873.561	18973
873.69	18795
873.819	18802
873.948	18996
874.077	18890
874.206	18810
874.335	18875
874.464	18981
874.593	19099
874.722	19015
874.851	19187
874.979	19152
875.108	19152
875.237	19187
875.365	19050
875.494	18985
875.623	19202
875.751	19114
875.88	19110
876.008	19202
876.136	19320
876.265	19605
876.393	19635
876.521	19586
876.65	19575
876.778	19647
876.906	19525
877.034	19434
877.162	19601
877.29	19556
877.418	19510
877.546	19582
877.674	19582
877.802	19426
877.93	19502
878.058	19464
878.185	19487
878.313	19396
878.441	19540
878.568	19388
878.696	19365
878.824	19441
878.951	19491
879.079	19753
879.206	19765
879.333	19620
879.461	19609
879.588	19662
879.715	19765
879.842	19860
879.97	19715
880.097	19308
880.224	19301
880.351	19335
880.478	19373
880.605	19331
880.732	19514
880.859	19666
880.986	19460
881.112	19392
881.239	19312
881.366	19263
881.493	19065
881.619	18928
881.746	18939
881.872	18962
881.999	18939
882.125	18954
882.252	19061
882.378	18985
882.505	19072
882.631	18890
882.757	18673
882.883	18837
883.01	18715
883.136	18783
883.262	18658
883.388	18521
883.514	18753
883.64	18837
883.766	18783
883.892	18490
884.018	18559
884.143	18764
884.269	18696
884.395	18574
884.52	18475
884.646	18376
884.772	18357
884.897	18285
885.023	18407
885.148	18597
885.274	18639
885.399	18566
885.524	18399
885.65	18437
885.775	18414
885.9	18338
886.025	18509
886.15	18391
886.275	18357
886.4	18270
886.525	18342
886.65	18216
886.775	18338
886.9	18528
887.025	18654
887.149	18380
887.274	18224
887.399	18171
887.523	18216
887.648	18114
887.773	18038
887.897	18197
888.021	18205
888.146	18152
888.27	18239
888.395	18266
888.519	18197
888.643	18121
888.767	18174
888.891	17977
889.015	18057
889.139	18064
889.263	17996
889.387	18129
889.511	18117
889.635	18125
889.759	18060
889.883	17939
890.006	17935
890.13	18064
890.254	17965
890.377	17866
890.501	17710
890.624	17646
890.748	17870
890.871	17657
890.995	17627
891.118	17539
891.241	17581
891.364	17554
891.488	17714
891.611	17703
891.734	17695
891.857	17745
891.98	17642
892.103	17676
892.226	17680
892.349	17653
892.471	17425
892.594	17486
892.717	17634
892.839	17501
892.962	17471
893.085	17608
893.207	17623
893.33	17372
893.452	17398
893.575	17570
893.697	17684
893.819	17665
893.941	17764
894.064	17680
894.186	17554
894.308	17387
894.43	17630
894.552	17790
894.674	17779
894.796	17573
894.918	17608
895.04	17589
895.161	17680
895.283	17672
895.405	17474
895.526	17737
895.648	17486
895.769	17573
895.891	17611
896.012	17687
896.134	17726
896.255	17570
896.376	17566
896.498	17566
896.619	17737
896.74	17668
896.861	17596
896.982	17912
897.103	18136
897.224	17942
897.345	17912
897.466	17760
897.587	17748
897.708	17942
897.828	17847
897.949	17821
898.07	17657
898.19	17779
898.311	17996
898.431	17767
898.552	17882
898.672	17939
898.792	17965
898.913	17745
899.033	17707
899.153	17764
899.273	17539
899.393	17611
899.513	17707
899.633	17615
899.753	17619
899.873	17604
899.993	17756
900.113	17638
900.232	17581
900.352	17611
900.472	17558
900.591	17402
900.711	17547
900.83	17311
900.95	17687
901.069	17627
901.189	17482
901.308	17159
901.427	17098
901.546	17098
901.665	17098
901.784	17124
901.904	16976
902.023	16869
902.141	16744
902.26	16558
902.379	16622
902.498	16641
902.617	16592
902.735	16653
902.854	16542
902.973	16535
903.091	16424
903.21	16337
903.328	16268
903.446	16314
903.565	16139
903.683	16204
903.801	16051
903.919	16063
904.038	16082
904.156	15895
904.274	16044
904.392	15937
904.51	15899
904.627	15922
904.745	16021
904.863	15949
904.981	15766
905.098	15549
905.216	15542
905.334	15545
905.451	15473
905.569	15686
905.686	15599
905.803	15572
905.921	15428
906.038	15443
906.155	15355
906.272	15336
906.389	15233
906.506	15283
906.623	15218
906.74	15127
906.857	15028
906.974	15089
907.091	15203
907.208	15260
907.324	15226
907.441	15043
907.557	14830
907.674	14830
907.79	14788
907.907	14724
908.023	14830
908.139	14868
908.256	14708
908.372	14629
908.488	14724
908.604	14476
908.72	14617
908.836	14549
908.952	14518
909.068	14552
909.184	14621
909.3	14526
909.415	14537
909.531	14511
909.647	14278
909.762	14393
909.878	14290
909.993	14305
910.108	14259
910.224	14320
910.339	14290
910.454	14176
910.57	14142
910.685	14027
910.8	14313
910.915	14298
911.03	14005
911.145	13947
911.259	13845
911.374	13822
911.489	13818
911.604	13788
911.718	13677
911.833	13643
911.947	13571
912.062	13464
912.176	13636
912.291	13636
912.405	13559
912.519	13826
912.633	13864
912.748	13734
912.862	13685
912.976	13548
913.09	13392
913.204	13457
913.318	13362
913.431	13624
913.545	13605
913.659	13605
913.772	13491
913.886	13362
914	13346
914.113	13426
914.226	13441
914.34	13411
914.453	13183
914.566	13358
914.68	13255
914.793	13221
914.906	13103
915.019	12924
915.132	12894
915.245	13008
915.358	13027
915.47	13072
915.583	12993
915.696	13133
915.809	13126
915.921	13183
916.034	13008
916.146	12894
916.259	12848
916.371	12947
916.483	12973
916.595	12882
916.708	12848
916.82	12810
916.932	12821
917.044	12817
917.156	12806
917.268	12707
917.38	12722
917.491	12776
917.603	12760
917.715	12817
917.826	12783
917.938	12692
918.049	12627
918.161	12719
918.272	12795
918.384	12852
918.495	12673
918.606	12525
918.717	12483
918.828	12574
918.939	12589
919.05	12376
919.161	12422
919.272	12346
919.383	12388
919.494	12498
919.604	12639
919.715	12494
919.826	12456
919.936	12456
920.047	12566
920.157	12475
920.267	12745
920.378	12490
920.488	12464
920.598	12642
920.708	12760
920.818	12597
920.928	12642
921.038	12806
921.148	12776
921.258	12418
921.368	12410
921.477	12277
921.587	12296
921.697	12091
921.806	12266
921.916	12197
922.025	11969
922.134	11950
922.244	11935
922.353	11969
922.462	11767
922.571	11756
922.68	11608
922.789	11657
922.898	11596
923.007	11524
923.116	11577
923.224	11543
923.333	11566
923.442	11509
923.55	11436
923.659	11516
923.767	11467
923.876	11376
923.984	11554
924.092	11330
924.201	11398
924.309	11364
924.417	11410
924.525	11326
924.633	11383
924.741	12266
924.849	11143
924.956	11258
925.064	11162
925.172	11056
925.279	11064
925.387	11151
925.494	11083
925.602	11326
925.709	11151
925.816	11128
925.924	11147
926.031	11220
926.138	11056
926.245	11117
926.352	10938
926.459	11166
926.566	11147
926.673	11003
926.779	10911
926.886	10953
926.993	10763
927.099	10714
927.206	10725
927.312	10698
927.419	10759
927.525	10752
927.631	10793
927.737	10626
927.843	10649
927.95	10569
928.056	10558
928.162	10664
928.267	10729
928.373	11250
928.479	10653
928.585	10443
928.69	10611
928.796	10611
928.901	10497
929.007	10306
929.112	10542
929.218	10474
929.323	10405
929.428	10325
929.533	10504
929.638	10291
929.743	10344
929.848	10348
929.953	10337
930.058	10246
930.163	10093
930.267	10093
930.372	10261
930.477	10067
930.581	10268
930.685	10143
930.79	9945
930.894	10048
930.998	9941
931.103	10071
931.207	9747
931.311	9694
931.415	9622
931.519	9458
931.623	9408
