Data from test_V78500241_2334.txt Node
Date: Fri Mar 25 14:49:57 CST 2022
User: usil
Spectrometer: V785-0024
Trigger mode: 0
Integration Time (sec): 4.000000E-1
Scans to average: 1
Nonlinearity correction enabled: false
Boxcar width: 0
Storing dark spectrum: false
XAxis mode: Wavelengths
Number of Pixels in Spectrum: 1024
>>>>>Begin Spectral Data<<<<<
801.071	22109
801.214	22154
801.356	21705
801.499	21720
801.641	21549
801.783	21523
801.926	21580
802.068	21416
802.211	21363
802.353	21344
802.496	21138
802.638	21032
802.78	20944
802.923	20876
803.065	20842
803.208	20811
803.35	20902
803.492	21005
803.635	21013
803.777	20800
803.919	20948
804.061	21218
804.204	20948
804.346	20895
804.488	20864
804.63	20830
804.773	20632
804.915	20716
805.057	20800
805.199	20918
805.341	20765
805.483	20933
805.626	20937
805.768	20739
805.91	20804
806.052	20948
806.194	20762
806.336	21009
806.478	20773
806.62	20788
806.762	20975
806.904	20982
807.046	21207
807.188	21028
807.33	21039
807.472	21157
807.614	20937
807.756	21036
807.898	20914
808.04	20826
808.182	20826
808.324	20899
808.465	20941
808.607	21096
808.749	21127
808.891	21310
809.033	21378
809.174	21287
809.316	21138
809.458	21192
809.6	21203
809.741	21123
809.883	21291
810.025	21340
810.166	21256
810.308	21374
810.45	21317
810.591	21165
810.733	21013
810.875	21066
811.016	20952
811.158	20727
811.299	21028
811.441	20975
811.582	21039
811.724	20880
811.865	20941
812.007	21058
812.148	20963
812.29	21036
812.431	21074
812.573	21310
812.714	21230
812.855	21477
812.997	21629
813.138	21633
813.279	21580
813.421	21332
813.562	21317
813.703	21161
813.845	21089
813.986	20811
814.127	20537
814.268	20579
814.41	20579
814.551	20431
814.692	20541
814.833	20370
814.974	20412
815.115	20450
815.256	20450
815.397	20221
815.539	20305
815.68	20301
815.821	20088
815.962	20187
816.103	20237
816.244	20119
816.385	19913
816.526	19898
816.666	19795
816.807	19601
816.948	19708
817.089	19780
817.23	19639
817.371	19635
817.512	19693
817.653	19685
817.793	19662
817.934	19544
818.075	19662
818.216	19643
818.356	19552
818.497	19422
818.638	19289
818.778	19232
818.919	19312
819.06	19346
819.2	19441
819.341	19453
819.481	19597
819.622	19704
819.762	19712
819.903	19788
820.043	19666
820.184	19715
820.324	19521
820.465	19674
820.605	19605
820.746	19639
820.886	19449
821.026	19571
821.167	19563
821.307	19575
821.447	19556
821.588	19289
821.728	19278
821.868	19156
822.008	19008
822.149	19004
822.289	18867
822.429	18734
822.569	18665
822.709	18745
822.849	18585
822.99	18551
823.13	18361
823.27	18437
823.41	18395
823.55	18262
823.69	18232
823.83	18319
823.97	18133
824.11	18034
824.25	18159
824.389	18091
824.529	18167
824.669	18015
824.809	18148
824.949	18034
825.089	18064
825.228	18049
825.368	17832
825.508	17878
825.648	17992
825.787	17950
825.927	17859
826.067	17874
826.206	17764
826.346	17824
826.485	17783
826.625	17809
826.765	17874
826.904	17859
827.044	17623
827.183	17554
827.323	17608
827.462	17600
827.601	17440
827.741	17478
827.88	17554
828.02	17440
828.159	17410
828.298	17532
828.437	17585
828.577	17406
828.716	17627
828.855	17486
828.994	17341
829.134	17311
829.273	17273
829.412	17121
829.551	17284
829.69	17231
829.829	17223
829.968	17436
830.107	17318
830.246	17174
830.385	17197
830.524	17117
830.663	17029
830.802	16976
830.941	16862
831.08	16904
831.219	16904
831.357	16915
831.496	17174
831.635	16896
831.774	16759
831.913	16752
832.051	16653
832.19	16649
832.329	16755
832.467	16542
832.606	16580
832.744	16527
832.883	16546
833.022	16485
833.16	16596
833.299	16607
833.437	16611
833.576	16527
833.714	16645
833.852	16630
833.991	16592
834.129	16618
834.267	16637
834.406	16653
834.544	16607
834.682	16580
834.821	16554
834.959	16816
835.097	16588
835.235	16656
835.373	16687
835.511	16637
835.65	16455
835.788	16447
835.926	16341
836.064	16337
836.202	16428
836.34	16508
836.478	16615
836.615	16481
836.753	16485
836.891	16519
837.029	16565
837.167	16451
837.305	16424
837.443	16409
837.58	16337
837.718	16390
837.856	16386
837.993	16318
838.131	16386
838.269	16314
838.406	16322
838.544	16215
838.681	16120
838.819	16032
838.956	15926
839.094	15998
839.231	15987
839.369	16013
839.506	16375
839.643	16109
839.781	15926
839.918	15922
840.055	15998
840.193	15888
840.33	15861
840.467	15926
840.604	15922
840.742	16188
840.879	15747
841.016	15793
841.153	15838
841.29	16090
841.427	15873
841.564	16048
841.701	15960
841.838	15835
841.975	15770
842.112	15762
842.249	15781
842.385	15660
842.522	15903
842.659	15724
842.796	15553
842.933	15709
843.069	15724
843.206	15519
843.343	15751
843.479	15637
843.616	15717
843.752	15485
843.889	15523
844.025	15542
844.162	15458
844.298	15637
844.435	15580
844.571	15549
844.708	15462
844.844	15675
844.98	15663
845.117	15534
845.253	15348
845.389	15264
845.525	15336
845.661	15249
845.798	15214
845.934	15325
846.07	15237
846.206	15325
846.342	15393
846.478	15241
846.614	15104
846.75	14994
846.886	14990
847.022	15211
847.158	15074
847.294	15081
847.429	15055
847.565	15047
847.701	15359
847.837	14842
847.972	14754
848.108	14796
848.244	14868
848.379	14701
848.515	14575
848.65	14648
848.786	14617
848.921	14590
849.057	14644
849.192	14708
849.328	14701
849.463	14693
849.598	14663
849.734	14621
849.869	14492
850.004	14457
850.14	14461
850.275	14457
850.41	14351
850.545	14355
850.68	14442
850.815	14381
850.95	14370
851.085	14552
851.22	14408
851.355	14404
851.49	14339
851.625	14389
851.76	14336
851.895	14275
852.03	14237
852.165	14404
852.299	14446
852.434	14438
852.569	14503
852.703	14488
852.838	14484
852.973	14488
853.107	14488
853.242	14317
853.376	14252
853.511	14206
853.645	14244
853.78	14385
853.914	14351
854.048	14317
854.183	14153
854.317	14225
854.451	14514
854.585	14278
854.72	14183
854.854	14347
854.988	14282
855.122	14240
855.256	14138
855.39	14168
855.524	14377
855.658	14324
855.792	14214
855.926	14286
856.06	14202
856.194	14366
856.327	14313
856.461	14206
856.595	14305
856.729	14267
856.862	14374
856.996	14408
857.13	14328
857.263	14465
857.397	14446
857.53	14248
857.664	14347
857.797	14408
857.931	14385
858.064	14290
858.197	14347
858.331	14244
858.464	14210
858.597	14180
858.731	14229
858.864	14317
858.997	14290
859.13	14309
859.263	14233
859.396	14362
859.529	14294
859.662	14301
859.795	14218
859.928	14294
860.061	14503
860.194	14488
860.327	14225
860.46	14164
860.592	14404
860.725	14358
860.858	14385
860.99	14301
861.123	14221
861.256	14275
861.388	14248
861.521	14807
861.653	14153
861.786	14027
861.918	14172
862.05	14180
862.183	14271
862.315	14358
862.447	14271
862.58	14145
862.712	13997
862.844	13951
862.976	14111
863.108	14096
863.24	14271
863.372	13963
863.504	14005
863.636	14058
863.768	14138
863.9	14027
864.032	13978
864.164	13963
864.296	14123
864.428	14191
864.559	14153
864.691	14180
864.823	14153
864.954	14008
865.086	14142
865.217	14008
865.349	14054
865.48	14016
865.612	14054
865.743	14153
865.875	13989
866.006	13963
866.137	14058
866.269	14062
866.4	14035
866.531	14008
866.662	13944
866.793	13986
866.924	13947
867.055	14065
867.186	13986
867.317	13947
867.448	13833
867.579	13997
867.71	13955
867.841	14020
867.972	13959
868.103	13989
868.233	14027
868.364	13982
868.495	14199
868.625	14244
868.756	14328
868.886	14142
869.017	14294
869.147	14396
869.278	14457
869.408	14210
869.539	14225
869.669	14389
869.799	14336
869.929	14377
870.06	14336
870.19	14659
870.32	14560
870.45	14552
870.58	14781
870.71	14800
870.84	14819
870.97	14765
871.1	14785
871.23	14910
871.36	14876
871.489	14804
871.619	14826
871.749	14849
871.879	14910
872.008	15070
872.138	14849
872.267	14891
872.397	14708
872.526	14720
872.656	14727
872.785	14693
872.915	14902
873.044	14941
873.173	14914
873.303	14891
873.432	14960
873.561	14975
873.69	14925
873.819	14948
873.948	14956
874.077	14963
874.206	14887
874.335	14868
874.464	15100
874.593	15077
874.722	15203
874.851	15279
874.979	15199
875.108	15298
875.237	15207
875.365	15176
875.494	15188
875.623	15245
875.751	15218
875.88	15321
876.008	15378
876.136	15412
876.265	15610
876.393	15739
876.521	15736
876.65	15831
876.778	15675
876.906	15614
877.034	15622
877.162	15656
877.29	15504
877.418	15720
877.546	15656
877.674	15625
877.802	15698
877.93	15603
878.058	15538
878.185	15618
878.313	15534
878.441	15679
878.568	15447
878.696	15568
878.824	15591
878.951	15732
879.079	15785
879.206	15968
879.333	15838
879.461	15713
879.588	15789
879.715	15865
879.842	15850
879.97	15774
880.097	15477
880.224	15378
880.351	15534
880.478	15507
880.605	15511
880.732	15473
880.859	15793
880.986	15580
881.112	15496
881.239	15412
881.366	15218
881.493	15150
881.619	15138
881.746	15230
881.872	15173
881.999	15116
882.125	15146
882.252	15173
882.378	15211
882.505	15348
882.631	15108
882.757	15066
882.883	14994
883.01	14979
883.136	14868
883.262	14876
883.388	14826
883.514	15005
883.64	15047
883.766	15047
883.892	14777
884.018	14819
884.143	14929
884.269	15077
884.395	14758
884.52	14670
884.646	14724
884.772	14610
884.897	14602
885.023	14640
885.148	14739
885.274	14849
885.399	14777
885.524	14735
885.65	14629
885.775	14712
885.9	14701
886.025	14765
886.15	14811
886.275	14644
886.4	14625
886.525	14674
886.65	14705
886.775	14610
886.9	14746
887.025	14979
887.149	14689
887.274	14560
887.399	14495
887.523	14590
887.648	14469
887.773	14381
887.897	14640
888.021	14602
888.146	14431
888.27	14655
888.395	14663
888.519	14636
888.643	14533
888.767	14549
888.891	14408
889.015	14446
889.139	14423
889.263	14332
889.387	14457
889.511	14625
889.635	14415
889.759	14423
889.883	14431
890.006	14446
890.13	14514
890.254	14332
890.377	14355
890.501	14199
890.624	14111
890.748	14237
890.871	14126
890.995	14046
891.118	14046
891.241	14077
891.364	14077
891.488	14244
891.611	14138
891.734	14145
891.857	14195
891.98	14119
892.103	14035
892.226	14126
892.349	14054
892.471	13928
892.594	14161
892.717	14084
892.839	13993
892.962	14111
893.085	14138
893.207	14084
893.33	14065
893.452	13936
893.575	14130
893.697	14039
893.819	14214
893.941	14362
894.064	14225
894.186	13940
894.308	14107
894.43	14199
894.552	14351
894.674	14229
894.796	14077
894.918	14123
895.04	14134
895.161	14123
895.283	14225
895.405	14084
895.526	14130
895.648	14195
895.769	14187
895.891	14252
896.012	14317
896.134	14248
896.255	14233
896.376	14157
896.498	14301
896.619	14332
896.74	14267
896.861	14339
896.982	14606
897.103	14705
897.224	14533
897.345	14408
897.466	14419
897.587	14450
897.708	14678
897.828	14636
897.949	14469
898.07	14278
898.19	14461
898.311	14705
898.431	14522
898.552	14686
898.672	14750
898.792	14686
898.913	14663
899.033	14587
899.153	14503
899.273	14328
899.393	14366
899.513	14381
899.633	14469
899.753	14526
899.873	14465
899.993	14518
900.113	14419
900.232	14442
900.352	14347
900.472	14320
900.591	14286
900.711	14374
900.83	14332
900.95	14381
901.069	14419
901.189	14233
901.308	14012
901.427	14039
901.546	13963
901.665	14050
901.784	14130
901.904	13906
902.023	13780
902.141	13601
902.26	13636
902.379	13643
902.498	13495
902.617	13529
902.735	13616
902.854	13723
902.973	13502
903.091	13293
903.21	13285
903.328	13324
903.446	13316
903.565	13103
903.683	13183
903.801	13141
903.919	13175
904.038	13160
904.156	12989
904.274	13046
904.392	13008
904.51	12951
904.627	12977
904.745	13103
904.863	13088
904.981	12730
905.098	12681
905.216	12677
905.334	12677
905.451	12703
905.569	12631
905.686	12646
905.803	12734
905.921	12521
906.038	12563
906.155	12486
906.272	12414
906.389	12422
906.506	12251
906.623	12323
906.74	12228
906.857	12133
906.974	12209
907.091	12319
907.208	12429
907.324	12315
907.441	12133
907.557	11999
907.674	11999
907.79	11885
907.907	11988
908.023	11988
908.139	12060
908.256	11939
908.372	11965
908.488	11851
908.604	11809
908.72	11722
908.836	11756
908.952	11718
909.068	11794
909.184	11832
909.3	11718
909.415	11775
909.531	11779
909.647	11539
909.762	11570
909.878	11596
909.993	11516
910.108	11478
910.224	11448
910.339	11539
910.454	11414
910.57	11376
910.685	11326
910.8	11615
910.915	11554
911.03	11410
911.145	11269
911.259	11223
911.374	11239
911.489	11132
911.604	11128
911.718	10938
911.833	10980
911.947	10858
912.062	10850
912.176	10972
912.291	11041
912.405	10965
912.519	11193
912.633	11197
912.748	11079
912.862	10869
912.976	10881
913.09	10847
913.204	10820
913.318	10854
913.431	10923
913.545	10858
913.659	10934
913.772	10854
913.886	10679
914	10710
914.113	10858
914.226	10828
914.34	10869
914.453	10698
914.566	10847
914.68	10656
914.793	10622
914.906	10512
915.019	10466
915.132	10451
915.245	10512
915.358	10550
915.47	10485
915.583	10565
915.696	10554
915.809	10634
915.921	10641
916.034	10432
916.146	10455
916.259	10390
916.371	10508
916.483	10531
916.595	10352
916.708	10451
916.82	10409
916.932	10474
917.044	10367
917.156	10367
917.268	10287
917.38	10337
917.491	10268
917.603	10341
917.715	10394
917.826	10405
917.938	10306
918.049	10207
918.161	10329
918.272	10478
918.384	10512
918.495	10341
918.606	10234
918.717	10120
918.828	10188
918.939	10227
919.05	10139
919.161	10150
919.272	9991
919.383	10112
919.494	10303
919.604	10360
919.715	10238
919.826	10128
919.936	10131
920.047	10322
920.157	10207
920.267	10497
920.378	10272
920.488	10150
920.598	10436
920.708	10569
920.818	10432
920.928	10390
921.038	10611
921.148	10516
921.258	10242
921.368	10124
921.477	10082
921.587	10059
921.697	9800
921.806	10162
921.916	10025
922.025	9823
922.134	9759
922.244	9675
922.353	9778
922.462	9675
922.571	9584
922.68	9386
922.789	9439
922.898	9492
923.007	9405
923.116	9557
923.224	9458
923.333	9481
923.442	9317
923.55	9344
923.659	9313
923.767	9439
923.876	9367
923.984	9363
924.092	9272
924.201	9370
924.309	9256
924.417	9393
924.525	9310
924.633	9279
924.741	10002
924.849	9100
924.956	9302
925.064	9230
925.172	9066
925.279	9112
925.387	9112
925.494	9161
925.602	9283
925.709	9195
925.816	9104
925.924	9100
926.031	9127
926.138	9074
926.245	9165
926.352	9032
926.459	9230
926.566	9154
926.673	9036
926.779	8948
926.886	8971
926.993	8872
927.099	8785
927.206	8842
927.312	8769
927.419	8910
927.525	8830
927.631	8842
927.737	8739
927.843	8716
927.95	8670
928.056	8632
928.162	8731
928.267	8716
928.373	9332
928.479	8834
928.585	8568
928.69	8701
928.796	8769
928.901	8651
929.007	8461
929.112	8606
929.218	8590
929.323	8590
929.428	8579
929.533	8708
929.638	8552
929.743	8533
929.848	8579
929.953	8556
930.058	8454
930.163	8301
930.267	8408
930.372	8434
930.477	8271
930.581	8571
930.685	8454
930.79	8240
930.894	8279
930.998	8275
931.103	8362
931.207	8058
931.311	7982
931.415	7921
931.519	7757
931.623	7780
