Data from test_V78500241_2981.txt Node
Date: Fri Mar 25 14:54:28 CST 2022
User: usil
Spectrometer: V785-0024
Trigger mode: 0
Integration Time (sec): 4.000000E-1
Scans to average: 1
Nonlinearity correction enabled: false
Boxcar width: 0
Storing dark spectrum: false
XAxis mode: Wavelengths
Number of Pixels in Spectrum: 1024
>>>>>Begin Spectral Data<<<<<
801.071	22036
801.214	21983
801.356	21610
801.499	21675
801.641	21492
801.783	21363
801.926	21424
802.068	21386
802.211	21321
802.353	21180
802.496	21062
802.638	20963
802.78	20975
802.923	20868
803.065	20743
803.208	20788
803.35	20902
803.492	20872
803.635	20963
803.777	20781
803.919	20918
804.061	21127
804.204	20872
804.346	20716
804.488	20693
804.63	20792
804.773	20659
804.915	20708
805.057	20712
805.199	20705
805.341	20651
805.483	20800
805.626	20682
805.768	20743
805.91	20682
806.052	20830
806.194	20583
806.336	20765
806.478	20750
806.62	20682
806.762	20724
806.904	20925
807.046	21127
807.188	21077
807.33	21017
807.472	21051
807.614	21051
807.756	20956
807.898	20887
808.04	20796
808.182	20815
808.324	20815
808.465	20804
808.607	21036
808.749	21058
808.891	21146
809.033	21294
809.174	21169
809.316	20952
809.458	21127
809.6	21055
809.741	21161
809.883	21184
810.025	21272
810.166	21275
810.308	21195
810.45	21184
810.591	21161
810.733	21039
810.875	20872
811.016	20868
811.158	20636
811.299	20849
811.441	20971
811.582	20880
811.724	20872
811.865	20819
812.007	20785
812.148	20880
812.29	20765
812.431	20986
812.573	21093
812.714	21237
812.855	21302
812.997	21523
813.138	21656
813.279	21515
813.421	21370
813.562	21283
813.703	21093
813.845	21013
813.986	20686
814.127	20541
814.268	20415
814.41	20434
814.551	20324
814.692	20374
814.833	20362
814.974	20351
815.115	20339
815.256	20275
815.397	20221
815.539	20286
815.68	20176
815.821	20031
815.962	20248
816.103	20191
816.244	20050
816.385	19864
816.526	19936
816.666	19647
816.807	19472
816.948	19616
817.089	19647
817.23	19544
817.371	19559
817.512	19575
817.653	19430
817.793	19460
817.934	19445
818.075	19540
818.216	19575
818.356	19529
818.497	19312
818.638	19259
818.778	19274
818.919	19152
819.06	19324
819.2	19384
819.341	19373
819.481	19396
819.622	19453
819.762	19586
819.903	19609
820.043	19468
820.184	19563
820.324	19521
820.465	19582
820.605	19468
820.746	19457
820.886	19362
821.026	19453
821.167	19514
821.307	19521
821.447	19377
821.588	19350
821.728	19145
821.868	19061
822.008	18837
822.149	18859
822.289	18943
822.429	18673
822.569	18681
822.709	18570
822.849	18353
822.99	18410
823.13	18456
823.27	18384
823.41	18224
823.55	18038
823.69	18167
823.83	18281
823.97	18148
824.11	18030
824.25	17889
824.389	17965
824.529	18022
824.669	17901
824.809	18106
824.949	18083
825.089	18041
825.228	17927
825.368	17893
825.508	17851
825.648	17878
825.787	17809
825.927	17824
826.067	17756
826.206	17627
826.346	17878
826.485	17786
826.625	17726
826.765	17840
826.904	17771
827.044	17520
827.183	17532
827.323	17482
827.462	17562
827.601	17429
827.741	17425
827.88	17539
828.02	17292
828.159	17368
828.298	17516
828.437	17490
828.577	17444
828.716	17535
828.855	17497
828.994	17258
829.134	17181
829.273	17296
829.412	17143
829.551	17212
829.69	17208
829.829	17185
829.968	17269
830.107	17216
830.246	17140
830.385	17166
830.524	17109
830.663	17090
830.802	16839
830.941	16831
831.08	16900
831.219	16896
831.357	16744
831.496	17143
831.635	16744
831.774	16805
831.913	16744
832.051	16626
832.19	16687
832.329	16641
832.467	16512
832.606	16493
832.744	16500
832.883	16485
833.022	16489
833.16	16455
833.299	16535
833.437	16592
833.576	16485
833.714	16565
833.852	16573
833.991	16603
834.129	16558
834.267	16561
834.406	16531
834.544	16615
834.682	16599
834.821	16478
834.959	16691
835.097	16428
835.235	16561
835.373	16611
835.511	16516
835.65	16428
835.788	16413
835.926	16318
836.064	16253
836.202	16261
836.34	16474
836.478	16538
836.615	16402
836.753	16554
836.891	16546
837.029	16440
837.167	16382
837.305	16284
837.443	16325
837.58	16337
837.718	16436
837.856	16310
837.993	16329
838.131	16261
838.269	16265
838.406	16223
838.544	16230
838.681	16097
838.819	15998
838.956	15827
839.094	15888
839.231	15994
839.369	15968
839.506	16348
839.643	16162
839.781	15994
839.918	15759
840.055	15884
840.193	15842
840.33	15728
840.467	15827
840.604	15899
840.742	16112
840.879	15701
841.016	15705
841.153	15728
841.29	15960
841.427	15915
841.564	15903
841.701	15888
841.838	15895
841.975	15755
842.112	15785
842.249	15713
842.385	15538
842.522	15854
842.659	15709
842.796	15663
842.933	15603
843.069	15614
843.206	15557
843.343	15682
843.479	15599
843.616	15584
843.752	15542
843.889	15424
844.025	15580
844.162	15370
844.298	15511
844.435	15469
844.571	15374
844.708	15469
844.844	15587
844.98	15576
845.117	15542
845.253	15332
845.389	15195
845.525	15325
845.661	15306
845.798	15218
845.934	15321
846.07	15192
846.206	15260
846.342	15405
846.478	15268
846.614	15020
846.75	15047
846.886	14990
847.022	15039
847.158	15047
847.294	15024
847.429	15036
847.565	14979
847.701	15188
847.837	14667
847.972	14659
848.108	14777
848.244	14815
848.379	14735
848.515	14606
848.65	14651
848.786	14533
848.921	14552
849.057	14587
849.192	14735
849.328	14629
849.463	14636
849.598	14446
849.734	14499
849.869	14434
850.004	14412
850.14	14461
850.275	14320
850.41	14275
850.545	14377
850.68	14195
850.815	14412
850.95	14366
851.085	14522
851.22	14446
851.355	14480
851.49	14431
851.625	14206
851.76	14347
851.895	14199
852.03	14214
852.165	14305
852.299	14358
852.434	14438
852.569	14324
852.703	14389
852.838	14377
852.973	14537
853.107	14495
853.242	14278
853.376	14100
853.511	14065
853.645	14263
853.78	14339
853.914	14233
854.048	14142
854.183	14225
854.317	14259
854.451	14313
854.585	14183
854.72	14240
854.854	14282
854.988	14206
855.122	14191
855.256	14065
855.39	14199
855.524	14286
855.658	14278
855.792	14248
855.926	14256
856.06	14202
856.194	14320
856.327	14187
856.461	14180
856.595	14199
856.729	14233
856.862	14366
856.996	14252
857.13	14286
857.263	14263
857.397	14396
857.53	14290
857.664	14248
857.797	14267
857.931	14240
858.064	14248
858.197	14427
858.331	14195
858.464	14134
858.597	14054
858.731	14225
858.864	14195
858.997	14149
859.13	14248
859.263	14206
859.396	14317
859.529	14176
859.662	14157
859.795	14202
859.928	14271
860.061	14454
860.194	14370
860.327	14225
860.46	14115
860.592	14244
860.725	14309
860.858	14404
860.99	14183
861.123	14111
861.256	14126
861.388	14210
861.521	14887
861.653	14176
861.786	14119
861.918	14001
862.05	14107
862.183	14161
862.315	14168
862.447	14282
862.58	14123
862.712	13970
862.844	13982
862.976	14111
863.108	13963
863.24	14442
863.372	13940
863.504	14020
863.636	13986
863.768	14005
863.9	13883
864.032	13928
864.164	13982
864.296	14077
864.428	14073
864.559	14073
864.691	14062
864.823	14088
864.954	14020
865.086	14005
865.217	13913
865.349	13947
865.48	13970
865.612	13963
865.743	14096
865.875	14031
866.006	14001
866.137	13959
866.269	13951
866.4	13932
866.531	13898
866.662	13875
866.793	13837
866.924	13928
867.055	14008
867.186	13909
867.317	13909
867.448	13917
867.579	13928
867.71	13909
867.841	13917
867.972	13947
868.103	14031
868.233	14035
868.364	14073
868.495	14123
868.625	14183
868.756	14389
868.886	14058
869.017	14199
869.147	14301
869.278	14301
869.408	14347
869.539	14240
869.669	14385
869.799	14267
869.929	14366
870.06	14298
870.19	14518
870.32	14522
870.45	14556
870.58	14670
870.71	14823
870.84	14663
870.97	14571
871.1	14560
871.23	14754
871.36	14853
871.489	14598
871.619	14823
871.749	14960
871.879	14849
872.008	14971
872.138	14823
872.267	14830
872.397	14682
872.526	14651
872.656	14682
872.785	14682
872.915	14834
873.044	14937
873.173	14845
873.303	14918
873.432	14906
873.561	14986
873.69	14823
873.819	14933
873.948	14918
874.077	14925
874.206	14804
874.335	14849
874.464	15013
874.593	15127
874.722	15097
874.851	15066
874.979	15245
875.108	15233
875.237	15150
875.365	15066
875.494	15024
875.623	15237
875.751	15169
875.88	15329
876.008	15283
876.136	15450
876.265	15557
876.393	15690
876.521	15785
876.65	15679
876.778	15606
876.906	15587
877.034	15534
877.162	15641
877.29	15458
877.418	15701
877.546	15557
877.674	15557
877.802	15545
877.93	15701
878.058	15557
878.185	15534
878.313	15523
878.441	15564
878.568	15450
878.696	15545
878.824	15656
878.951	15686
879.079	15770
879.206	15972
879.333	15728
879.461	15637
879.588	15701
879.715	15808
879.842	15884
879.97	15701
880.097	15454
880.224	15496
880.351	15435
880.478	15420
880.605	15443
880.732	15473
880.859	15663
880.986	15580
881.112	15477
881.239	15230
881.366	15249
881.493	15119
881.619	15097
881.746	15112
881.872	15154
881.999	15108
882.125	15058
882.252	15180
882.378	15135
882.505	15237
882.631	15039
882.757	14952
882.883	14925
883.01	14838
883.136	14849
883.262	14754
883.388	14735
883.514	14921
883.64	15013
883.766	14925
883.892	14792
884.018	14861
884.143	14864
884.269	14982
884.395	14686
884.52	14583
884.646	14769
884.772	14514
884.897	14571
885.023	14564
885.148	14788
885.274	14804
885.399	14773
885.524	14613
885.65	14720
885.775	14678
885.9	14621
886.025	14689
886.15	14689
886.275	14617
886.4	14473
886.525	14537
886.65	14518
886.775	14621
886.9	14720
887.025	14800
887.149	14579
887.274	14545
887.399	14415
887.523	14461
887.648	14431
887.773	14339
887.897	14499
888.021	14469
888.146	14465
888.27	14583
888.395	14579
888.519	14587
888.643	14571
888.767	14552
888.891	14415
889.015	14237
889.139	14450
889.263	14309
889.387	14328
889.511	14598
889.635	14511
889.759	14286
889.883	14271
890.006	14332
890.13	14427
890.254	14294
890.377	14271
890.501	14077
890.624	14119
890.748	14199
890.871	14081
890.995	14008
891.118	14005
891.241	14149
891.364	14096
891.488	14065
891.611	14024
891.734	14107
891.857	14092
891.98	14142
892.103	14149
892.226	13963
892.349	14046
892.471	13837
892.594	13974
892.717	14008
892.839	13963
892.962	13997
893.085	14138
893.207	14012
893.33	13902
893.452	13967
893.575	14005
893.697	13989
893.819	14111
893.941	14157
894.064	14191
894.186	13928
894.308	14012
894.43	14164
894.552	14202
894.674	14225
894.796	14081
894.918	13978
895.04	14062
895.161	14096
895.283	14115
895.405	14016
895.526	14107
895.648	14172
895.769	14294
895.891	14229
896.012	14324
896.134	14210
896.255	14092
896.376	14119
896.498	14157
896.619	14206
896.74	14214
896.861	14275
896.982	14556
897.103	14617
897.224	14526
897.345	14473
897.466	14450
897.587	14583
897.708	14644
897.828	14526
897.949	14396
898.07	14423
898.19	14438
898.311	14659
898.431	14423
898.552	14590
898.672	14644
898.792	14575
898.913	14705
899.033	14568
899.153	14332
899.273	14313
899.393	14362
899.513	14450
899.633	14317
899.753	14427
899.873	14469
899.993	14560
900.113	14465
900.232	14396
900.352	14396
900.472	14423
900.591	14218
900.711	14263
900.83	14214
900.95	14400
901.069	14351
901.189	14237
901.308	14062
901.427	13967
901.546	13982
901.665	14027
901.784	14058
901.904	13860
902.023	13772
902.141	13609
902.26	13480
902.379	13521
902.498	13548
902.617	13464
902.735	13480
902.854	13529
902.973	13502
903.091	13198
903.21	13126
903.328	13282
903.446	13190
903.565	13031
903.683	13209
903.801	13050
903.919	13194
904.038	12954
904.156	13019
904.274	13000
904.392	12905
904.51	12939
904.627	12985
904.745	12996
904.863	13008
904.981	12738
905.098	12658
905.216	12616
905.334	12722
905.451	12593
905.569	12582
905.686	12597
905.803	12582
905.921	12471
906.038	12456
906.155	12433
906.272	12338
906.389	12353
906.506	12213
906.623	12190
906.74	12175
906.857	12083
906.974	12121
907.091	12281
907.208	12315
907.324	12175
907.441	12186
907.557	11973
907.674	11969
907.79	11904
907.907	11897
908.023	12034
908.139	11893
908.256	11851
908.372	11942
908.488	11897
908.604	11722
908.72	11585
908.836	11619
908.952	11676
909.068	11752
909.184	11824
909.3	11741
909.415	11767
909.531	11688
909.647	11482
909.762	11497
909.878	11459
909.993	11478
910.108	11505
910.224	11414
910.339	11395
910.454	11398
910.57	11337
910.685	11223
910.8	11455
910.915	11490
911.03	11353
911.145	11155
911.259	11136
911.374	11113
911.489	11132
911.604	10972
911.718	10904
911.833	10991
911.947	10771
912.062	10736
912.176	10934
912.291	10915
912.405	10873
912.519	11071
912.633	11223
912.748	11048
912.862	10915
912.976	10862
913.09	10736
913.204	10812
913.318	10862
913.431	10889
913.545	11029
913.659	10938
913.772	10862
913.886	10763
914	10706
914.113	10843
914.226	10900
914.34	10736
914.453	10599
914.566	10729
914.68	10569
914.793	10653
914.906	10447
915.019	10440
915.132	10382
915.245	10325
915.358	10504
915.47	10379
915.583	10519
915.696	10489
915.809	10538
915.921	10615
916.034	10428
916.146	10409
916.259	10394
916.371	10462
916.483	10474
916.595	10352
916.708	10436
916.82	10363
916.932	10386
917.044	10379
917.156	10341
917.268	10131
917.38	10268
917.491	10135
917.603	10295
917.715	10356
917.826	10356
917.938	10211
918.049	10147
918.161	10242
918.272	10421
918.384	10348
918.495	10325
918.606	10162
918.717	10071
918.828	10147
918.939	10192
919.05	10059
919.161	10109
919.272	9964
919.383	10040
919.494	10188
919.604	10360
919.715	10188
919.826	10063
919.936	10097
920.047	10268
920.157	10124
920.267	10402
920.378	10211
920.488	10185
920.598	10371
920.708	10474
920.818	10375
920.928	10352
921.038	10470
921.148	10417
921.258	10200
921.368	10082
921.477	10025
921.587	10006
921.697	9907
921.806	10139
921.916	9873
922.025	9793
922.134	9759
922.244	9701
922.353	9736
922.462	9629
922.571	9568
922.68	9416
922.789	9439
922.898	9473
923.007	9321
923.116	9458
923.224	9416
923.333	9405
923.442	9370
923.55	9222
923.659	9306
923.767	9431
923.876	9382
923.984	9389
924.092	9112
924.201	9253
924.309	9291
924.417	9233
924.525	9279
924.633	9226
924.741	10135
924.849	9104
924.956	9199
925.064	9058
925.172	8982
925.279	9043
925.387	9165
925.494	9123
925.602	9176
925.709	9112
925.816	9009
925.924	9184
926.031	9173
926.138	9020
926.245	9131
926.352	8979
926.459	9112
926.566	9176
926.673	9024
926.779	9009
926.886	8937
926.993	8834
927.099	8785
927.206	8785
927.312	8785
927.419	8819
927.525	8830
927.631	8826
927.737	8727
927.843	8693
927.95	8575
928.056	8648
928.162	8735
928.267	8727
928.373	9351
928.479	8800
928.585	8583
928.69	8716
928.796	8727
928.901	8655
929.007	8503
929.112	8667
929.218	8613
929.323	8518
929.428	8560
929.533	8640
929.638	8511
929.743	8492
929.848	8549
929.953	8560
930.058	8423
930.163	8244
930.267	8275
930.372	8415
930.477	8279
930.581	8454
930.685	8309
930.79	8145
930.894	8263
930.998	8256
931.103	8351
931.207	8088
931.311	8024
931.415	7902
931.519	7715
931.623	7719
