Data from test_V78500241_3105.txt Node
Date: Fri Mar 25 14:55:20 CST 2022
User: usil
Spectrometer: V785-0024
Trigger mode: 0
Integration Time (sec): 4.000000E-1
Scans to average: 1
Nonlinearity correction enabled: false
Boxcar width: 0
Storing dark spectrum: false
XAxis mode: Wavelengths
Number of Pixels in Spectrum: 1024
>>>>>Begin Spectral Data<<<<<
801.071	22109
801.214	21987
801.356	21724
801.499	21736
801.641	21435
801.783	21538
801.926	21462
802.068	21393
802.211	21382
802.353	21260
802.496	21070
802.638	20986
802.78	20971
802.923	20762
803.065	20705
803.208	20693
803.35	20788
803.492	20975
803.635	20967
803.777	20777
803.919	20918
804.061	21138
804.204	20830
804.346	20636
804.488	20533
804.63	20674
804.773	20632
804.915	20746
805.057	20762
805.199	20769
805.341	20765
805.483	20819
805.626	20716
805.768	20659
805.91	20731
806.052	20754
806.194	20564
806.336	20842
806.478	20686
806.62	20678
806.762	20731
806.904	20872
807.046	21047
807.188	20887
807.33	20872
807.472	21047
807.614	20883
807.756	20941
807.898	20800
808.04	20773
808.182	20872
808.324	20735
808.465	20826
808.607	20864
808.749	21058
808.891	21188
809.033	21173
809.174	21020
809.316	20971
809.458	21032
809.6	21062
809.741	21051
809.883	21161
810.025	21279
810.166	21241
810.308	21226
810.45	21154
810.591	21157
810.733	20857
810.875	20956
811.016	20667
811.158	20769
811.299	20948
811.441	21074
811.582	20883
811.724	20891
811.865	20746
812.007	20632
812.148	20762
812.29	20830
812.431	20975
812.573	21116
812.714	21135
812.855	21325
812.997	21504
813.138	21576
813.279	21545
813.421	21310
813.562	21184
813.703	21074
813.845	20979
813.986	20682
814.127	20541
814.268	20571
814.41	20465
814.551	20465
814.692	20476
814.833	20225
814.974	20404
815.115	20309
815.256	20233
815.397	20324
815.539	20237
815.68	20145
815.821	19986
815.962	20126
816.103	20069
816.244	19974
816.385	19776
816.526	19719
816.666	19677
816.807	19480
816.948	19639
817.089	19521
817.23	19430
817.371	19495
817.512	19426
817.653	19445
817.793	19533
817.934	19510
818.075	19597
818.216	19441
818.356	19411
818.497	19293
818.638	19160
818.778	19263
818.919	19194
819.06	19240
819.2	19384
819.341	19350
819.481	19304
819.622	19529
819.762	19696
819.903	19563
820.043	19525
820.184	19426
820.324	19445
820.465	19445
820.605	19457
820.746	19460
820.886	19335
821.026	19434
821.167	19327
821.307	19377
821.447	19403
821.588	19339
821.728	19190
821.868	19061
822.008	18913
822.149	18905
822.289	18878
822.429	18517
822.569	18616
822.709	18513
822.849	18357
822.99	18289
823.13	18273
823.27	18228
823.41	18136
823.55	18239
823.69	18194
823.83	18140
823.97	18038
824.11	18022
824.25	18072
824.389	17923
824.529	18076
824.669	18064
824.809	18072
824.949	17939
825.089	18011
825.228	17904
825.368	17798
825.508	17748
825.648	17779
825.787	17737
825.927	17790
826.067	17760
826.206	17676
826.346	17771
826.485	17657
826.625	17707
826.765	17798
826.904	17798
827.044	17543
827.183	17478
827.323	17360
827.462	17471
827.601	17402
827.741	17429
827.88	17391
828.02	17326
828.159	17395
828.298	17364
828.437	17600
828.577	17356
828.716	17543
828.855	17326
828.994	17239
829.134	17140
829.273	17170
829.412	17098
829.551	17128
829.69	17162
829.829	17220
829.968	17227
830.107	17181
830.246	17086
830.385	17136
830.524	17033
830.663	16938
830.802	16904
830.941	16786
831.08	16740
831.219	16828
831.357	16774
831.496	16934
831.635	16820
831.774	16584
831.913	16782
832.051	16577
832.19	16531
832.329	16584
832.467	16459
832.606	16367
832.744	16535
832.883	16451
833.022	16424
833.16	16424
833.299	16558
833.437	16424
833.576	16596
833.714	16546
833.852	16459
833.991	16481
834.129	16523
834.267	16504
834.406	16417
834.544	16580
834.682	16489
834.821	16443
834.959	16725
835.097	16409
835.235	16558
835.373	16466
835.511	16417
835.65	16409
835.788	16409
835.926	16287
836.064	16272
836.202	16173
836.34	16424
836.478	16443
836.615	16352
836.753	16413
836.891	16417
837.029	16375
837.167	16371
837.305	16356
837.443	16314
837.58	16215
837.718	16310
837.856	16280
837.993	16341
838.131	16253
838.269	16200
838.406	16204
838.544	16188
838.681	15945
838.819	15876
838.956	15732
839.094	15812
839.231	15774
839.369	15972
839.506	16261
839.643	16006
839.781	15846
839.918	15747
840.055	15827
840.193	15778
840.33	15755
840.467	15736
840.604	15915
840.742	16128
840.879	15667
841.016	15675
841.153	15728
841.29	15926
841.427	15808
841.564	15880
841.701	15789
841.838	15755
841.975	15812
842.112	15743
842.249	15671
842.385	15526
842.522	15854
842.659	15523
842.796	15564
842.933	15625
843.069	15538
843.206	15599
843.343	15732
843.479	15519
843.616	15618
843.752	15340
843.889	15431
844.025	15473
844.162	15374
844.298	15519
844.435	15378
844.571	15313
844.708	15424
844.844	15523
844.98	15549
845.117	15462
845.253	15382
845.389	15260
845.525	15302
845.661	15279
845.798	15184
845.934	15329
846.07	15116
846.206	15344
846.342	15351
846.478	15233
846.614	15093
846.75	15024
846.886	15089
847.022	15097
847.158	14914
847.294	15009
847.429	15020
847.565	14990
847.701	15180
847.837	14792
847.972	14556
848.108	14853
848.244	14819
848.379	14644
848.515	14575
848.65	14541
848.786	14568
848.921	14560
849.057	14651
849.192	14617
849.328	14644
849.463	14552
849.598	14629
849.734	14404
849.869	14518
850.004	14362
850.14	14324
850.275	14362
850.41	14290
850.545	14294
850.68	14355
850.815	14427
850.95	14317
851.085	14537
851.22	14457
851.355	14336
851.49	14423
851.625	14259
851.76	14214
851.895	14157
852.03	14199
852.165	14275
852.299	14389
852.434	14328
852.569	14362
852.703	14332
852.838	14400
852.973	14545
853.107	14499
853.242	14161
853.376	14206
853.511	14180
853.645	14157
853.78	14370
853.914	14107
854.048	14206
854.183	14119
854.317	14252
854.451	14313
854.585	14180
854.72	14206
854.854	14301
854.988	14111
855.122	14267
855.256	14126
855.39	14183
855.524	14294
855.658	14263
855.792	14271
855.926	14210
856.06	14324
856.194	14313
856.327	14164
856.461	14157
856.595	14153
856.729	14195
856.862	14313
856.996	14259
857.13	14324
857.263	14347
857.397	14366
857.53	14180
857.664	14244
857.797	14328
857.931	14298
858.064	14259
858.197	14362
858.331	14362
858.464	14199
858.597	14046
858.731	14301
858.864	14081
858.997	14191
859.13	14309
859.263	14286
859.396	14259
859.529	14199
859.662	14199
859.795	14115
859.928	14267
860.061	14355
860.194	14358
860.327	14237
860.46	14161
860.592	14347
860.725	14396
860.858	14263
860.99	14145
861.123	14103
861.256	14187
861.388	14168
861.521	14982
861.653	14065
861.786	13947
861.918	14050
862.05	14149
862.183	14229
862.315	14259
862.447	14191
862.58	14157
862.712	13967
862.844	13955
862.976	14001
863.108	14012
863.24	14362
863.372	13947
863.504	13963
863.636	13974
863.768	13955
863.9	13887
864.032	13894
864.164	13951
864.296	13894
864.428	14092
864.559	14073
864.691	14123
864.823	14035
864.954	14073
865.086	14054
865.217	13967
865.349	13894
865.48	14031
865.612	13947
865.743	14183
865.875	14069
866.006	13944
866.137	13986
866.269	14008
866.4	13845
866.531	13894
866.662	13871
866.793	14050
866.924	13955
867.055	14039
867.186	14084
867.317	13944
867.448	13894
867.579	13955
867.71	13894
867.841	13890
867.972	14062
868.103	13902
868.233	14035
868.364	13989
868.495	14065
868.625	14126
868.756	14248
868.886	14123
869.017	14123
869.147	14248
869.278	14320
869.408	14183
869.539	14240
869.669	14252
869.799	14339
869.929	14358
870.06	14290
870.19	14560
870.32	14514
870.45	14484
870.58	14701
870.71	14743
870.84	14743
870.97	14556
871.1	14560
871.23	14868
871.36	14811
871.489	14689
871.619	14788
871.749	14807
871.879	14842
872.008	14982
872.138	14823
872.267	14880
872.397	14655
872.526	14674
872.656	14568
872.785	14670
872.915	14781
873.044	14967
873.173	14921
873.303	14864
873.432	14918
873.561	14982
873.69	14876
873.819	14838
873.948	14902
874.077	14807
874.206	14853
874.335	14933
874.464	15085
874.593	15104
874.722	15104
874.851	15218
874.979	15279
875.108	15260
875.237	15226
875.365	15097
875.494	15043
875.623	15313
875.751	15123
875.88	15233
876.008	15393
876.136	15382
876.265	15698
876.393	15778
876.521	15675
876.65	15603
876.778	15637
876.906	15553
877.034	15545
877.162	15481
877.29	15538
877.418	15587
877.546	15534
877.674	15515
877.802	15542
877.93	15595
878.058	15538
878.185	15367
878.313	15542
878.441	15557
878.568	15477
878.696	15534
878.824	15690
878.951	15660
879.079	15603
879.206	15926
879.333	15690
879.461	15675
879.588	15690
879.715	15827
879.842	15797
879.97	15622
880.097	15408
880.224	15447
880.351	15435
880.478	15428
880.605	15412
880.732	15458
880.859	15648
880.986	15431
881.112	15458
881.239	15336
881.366	15245
881.493	15157
881.619	15085
881.746	15119
881.872	15123
881.999	15058
882.125	15100
882.252	15214
882.378	15180
882.505	15245
882.631	15005
882.757	14902
882.883	14971
883.01	14960
883.136	14902
883.262	14895
883.388	14724
883.514	14971
883.64	15013
883.766	14963
883.892	14750
884.018	14746
884.143	14975
884.269	15039
884.395	14689
884.52	14579
884.646	14594
884.772	14617
884.897	14549
885.023	14632
885.148	14705
885.274	14754
885.399	14701
885.524	14632
885.65	14606
885.775	14606
885.9	14575
886.025	14701
886.15	14693
886.275	14659
886.4	14533
886.525	14598
886.65	14560
886.775	14537
886.9	14754
887.025	14921
887.149	14629
887.274	14385
887.399	14415
887.523	14431
887.648	14294
887.773	14301
887.897	14545
888.021	14473
888.146	14389
888.27	14625
888.395	14571
888.519	14473
888.643	14457
888.767	14533
888.891	14404
889.015	14290
889.139	14328
889.263	14271
889.387	14488
889.511	14507
889.635	14450
889.759	14286
889.883	14328
890.006	14358
890.13	14400
890.254	14301
890.377	14377
890.501	14115
890.624	14115
890.748	14168
890.871	14020
890.995	14024
891.118	13963
891.241	13947
891.364	14069
891.488	14183
891.611	14020
891.734	14039
891.857	14073
891.98	13997
892.103	14126
892.226	14130
892.349	13947
892.471	13864
892.594	14016
892.717	13951
892.839	14005
892.962	13932
893.085	14058
893.207	14138
893.33	13963
893.452	13963
893.575	14058
893.697	14031
893.819	14218
893.941	14252
894.064	14221
894.186	13993
894.308	13925
894.43	14218
894.552	14168
894.674	14237
894.796	14012
894.918	14062
895.04	14073
895.161	14191
895.283	14088
895.405	14084
895.526	14092
895.648	14218
895.769	14187
895.891	14218
896.012	14214
896.134	14153
896.255	14187
896.376	14149
896.498	14157
896.619	14176
896.74	14134
896.861	14286
896.982	14473
897.103	14655
897.224	14549
897.345	14400
897.466	14385
897.587	14434
897.708	14552
897.828	14541
897.949	14385
898.07	14347
898.19	14495
898.311	14587
898.431	14480
898.552	14484
898.672	14640
898.792	14606
898.913	14594
899.033	14549
899.153	14362
899.273	14275
899.393	14271
899.513	14454
899.633	14454
899.753	14400
899.873	14381
899.993	14499
900.113	14377
900.232	14438
900.352	14305
900.472	14298
900.591	14267
900.711	14343
900.83	14210
900.95	14419
901.069	14347
901.189	14115
901.308	14054
901.427	13959
901.546	13875
901.665	14031
901.784	13925
901.904	13818
902.023	13849
902.141	13578
902.26	13563
902.379	13586
902.498	13487
902.617	13483
902.735	13552
902.854	13529
902.973	13487
903.091	13324
903.21	13259
903.328	13217
903.446	13183
903.565	13190
903.683	13126
903.801	13091
903.919	13076
904.038	13057
904.156	12859
904.274	12958
904.392	12871
904.51	12871
904.627	12947
904.745	12909
904.863	12909
904.981	12730
905.098	12566
905.216	12574
905.334	12597
905.451	12642
905.569	12570
905.686	12570
905.803	12578
905.921	12372
906.038	12490
906.155	12399
906.272	12277
906.389	12270
906.506	12102
906.623	12289
906.74	12171
906.857	12136
906.974	12106
907.091	12182
907.208	12289
907.324	12285
907.441	12144
907.557	11984
907.674	11931
907.79	11965
907.907	11923
908.023	11931
908.139	11946
908.256	11973
908.372	11847
908.488	11832
908.604	11661
908.72	11668
908.836	11581
908.952	11729
909.068	11688
909.184	11745
909.3	11653
909.415	11756
909.531	11733
909.647	11558
909.762	11463
909.878	11395
909.993	11440
910.108	11417
910.224	11425
910.339	11417
910.454	11337
910.57	11284
910.685	11277
910.8	11520
910.915	11486
911.03	11349
911.145	11197
911.259	11166
911.374	11121
911.489	11067
911.604	10961
911.718	10919
911.833	10877
911.947	10801
912.062	10752
912.176	10927
912.291	10904
912.405	11006
912.519	11098
912.633	11094
912.748	10968
912.862	10892
912.976	10744
913.09	10733
913.204	10748
913.318	10793
913.431	10911
913.545	10820
913.659	10980
913.772	10782
913.886	10691
914	10736
914.113	10736
914.226	10752
914.34	10740
914.453	10558
914.566	10790
914.68	10721
914.793	10611
914.906	10478
915.019	10371
915.132	10348
915.245	10284
915.358	10402
915.47	10451
915.583	10432
915.696	10478
915.809	10542
915.921	10630
916.034	10398
916.146	10402
916.259	10341
916.371	10485
916.483	10413
916.595	10367
916.708	10306
916.82	10379
916.932	10405
917.044	10356
917.156	10337
917.268	10234
917.38	10268
917.491	10276
917.603	10291
917.715	10306
917.826	10367
917.938	10204
918.049	10143
918.161	10268
918.272	10451
918.384	10436
918.495	10306
918.606	10181
918.717	10120
918.828	10177
918.939	10261
919.05	10101
919.161	10173
919.272	9880
919.383	10032
919.494	10154
919.604	10382
919.715	10109
919.826	10029
919.936	10169
920.047	10185
920.157	10265
920.267	10322
920.378	10230
920.488	10150
920.598	10363
920.708	10546
920.818	10371
920.928	10348
921.038	10402
921.148	10500
921.258	10246
921.368	10147
921.477	10017
921.587	9903
921.697	9823
921.806	10032
921.916	9937
922.025	9740
922.134	9701
922.244	9709
922.353	9686
922.462	9549
922.571	9530
922.68	9363
922.789	9401
922.898	9416
923.007	9378
923.116	9458
923.224	9408
923.333	9405
923.442	9348
923.55	9294
923.659	9321
923.767	9367
923.876	9233
923.984	9325
924.092	9184
924.201	9325
924.309	9192
924.417	9176
924.525	9218
924.633	9226
924.741	10173
924.849	8963
924.956	9207
925.064	9024
925.172	8914
925.279	8990
925.387	9043
925.494	9017
925.602	9169
925.709	9142
925.816	9017
925.924	9036
926.031	9085
926.138	9097
926.245	9100
926.352	9070
926.459	9161
926.566	9150
926.673	9077
926.779	8891
926.886	8921
926.993	8876
927.099	8743
927.206	8727
927.312	8716
927.419	8785
927.525	8804
927.631	8811
927.737	8727
927.843	8686
927.95	8518
928.056	8697
928.162	8682
928.267	8716
928.373	9249
928.479	8807
928.585	8583
928.69	8708
928.796	8689
928.901	8621
929.007	8492
929.112	8594
929.218	8575
929.323	8514
929.428	8537
929.533	8708
929.638	8415
929.743	8476
929.848	8564
929.953	8457
930.058	8377
930.163	8218
930.267	8347
930.372	8362
930.477	8271
930.581	8492
930.685	8290
930.79	8195
930.894	8221
930.998	8191
931.103	8393
931.207	8084
931.311	7947
931.415	7970
931.519	7727
931.623	7731
