Data from test_V78500241_1362.txt Node
Date: Fri Mar 25 14:43:11 CST 2022
User: usil
Spectrometer: V785-0024
Trigger mode: 0
Integration Time (sec): 4.000000E-1
Scans to average: 1
Nonlinearity correction enabled: false
Boxcar width: 0
Storing dark spectrum: false
XAxis mode: Wavelengths
Number of Pixels in Spectrum: 1024
>>>>>Begin Spectral Data<<<<<
801.071	22554
801.214	22390
801.356	22013
801.499	22093
801.641	21930
801.783	21728
801.926	21827
802.068	21808
802.211	21625
802.353	21576
802.496	21511
802.638	21329
802.78	21089
802.923	21245
803.065	21077
803.208	21081
803.35	21260
803.492	21218
803.635	21435
803.777	21188
803.919	21214
804.061	21416
804.204	21207
804.346	21066
804.488	21051
804.63	21036
804.773	21024
804.915	21089
805.057	21249
805.199	21051
805.341	21157
805.483	21313
805.626	21142
805.768	21024
805.91	21062
806.052	21066
806.194	20986
806.336	21180
806.478	21051
806.62	21066
806.762	21199
806.904	21249
807.046	21515
807.188	21466
807.33	21488
807.472	21466
807.614	21336
807.756	21450
807.898	21298
808.04	21188
808.182	21245
808.324	21256
808.465	21416
808.607	21610
808.749	21816
808.891	21865
809.033	21861
809.174	21774
809.316	21587
809.458	21622
809.6	21469
809.741	21568
809.883	21443
810.025	21747
810.166	21747
810.308	21614
810.45	21648
810.591	21428
810.733	21416
810.875	21211
811.016	21291
811.158	21058
811.299	21310
811.441	21428
811.582	21431
811.724	21272
811.865	21226
812.007	21317
812.148	21184
812.29	21211
812.431	21447
812.573	21553
812.714	21667
812.855	21793
812.997	21838
813.138	21918
813.279	21838
813.421	21759
813.562	21709
813.703	21504
813.845	21405
813.986	21138
814.127	20941
814.268	20819
814.41	20925
814.551	20883
814.692	20967
814.833	20678
814.974	20746
815.115	20712
815.256	20632
815.397	20731
815.539	20670
815.68	20583
815.821	20541
815.962	20549
816.103	20533
816.244	20324
816.385	20328
816.526	20347
816.666	20157
816.807	19951
816.948	20081
817.089	20012
817.23	19989
817.371	19913
817.512	19928
817.653	19864
817.793	19898
817.934	19959
818.075	20081
818.216	19974
818.356	19852
818.497	19795
818.638	19700
818.778	19559
818.919	19529
819.06	19620
819.2	19791
819.341	19715
819.481	19795
819.622	19974
819.762	20134
819.903	20084
820.043	19871
820.184	19967
820.324	19928
820.465	19955
820.605	19951
820.746	19936
820.886	19803
821.026	19799
821.167	19909
821.307	19883
821.447	19715
821.588	19803
821.728	19620
821.868	19445
822.008	19232
822.149	19343
822.289	19304
822.429	19095
822.569	19065
822.709	19053
822.849	18825
822.99	18886
823.13	18738
823.27	18719
823.41	18726
823.55	18563
823.69	18650
823.83	18604
823.97	18540
824.11	18445
824.25	18254
824.389	18361
824.529	18479
824.669	18292
824.809	18593
824.949	18528
825.089	18376
825.228	18334
825.368	18186
825.508	18155
825.648	18129
825.787	18273
825.927	18121
826.067	18091
826.206	18224
826.346	18159
826.485	18243
826.625	18155
826.765	18235
826.904	18174
827.044	17897
827.183	17950
827.323	17722
827.462	17935
827.601	17916
827.741	17760
827.88	17859
828.02	17710
828.159	17878
828.298	17847
828.437	17927
828.577	17855
828.716	17977
828.855	17752
828.994	17539
829.134	17615
829.273	17680
829.412	17589
829.551	17566
829.69	17653
829.829	17710
829.968	17710
830.107	17752
830.246	17566
830.385	17733
830.524	17547
830.663	17425
830.802	17356
830.941	17117
831.08	17197
831.219	17258
831.357	17261
831.496	17414
831.635	17292
831.774	17193
831.913	17159
832.051	16995
832.19	17060
832.329	17067
832.467	16984
832.606	16930
832.744	16782
832.883	16961
833.022	16797
833.16	16923
833.299	16919
833.437	16957
833.576	16980
833.714	16946
833.852	17033
833.991	16976
834.129	17067
834.267	17075
834.406	17003
834.544	17037
834.682	16930
834.821	16991
834.959	17273
835.097	17094
835.235	17132
835.373	17022
835.511	16938
835.65	16873
835.788	16812
835.926	16866
836.064	16710
836.202	16748
836.34	16942
836.478	16980
836.615	16900
836.753	16854
836.891	16965
837.029	16873
837.167	16824
837.305	16835
837.443	16778
837.58	16687
837.718	16778
837.856	16927
837.993	16637
838.131	16790
838.269	16645
838.406	16622
838.544	16634
838.681	16443
838.819	16440
838.956	16295
839.094	16341
839.231	16291
839.369	16421
839.506	16729
839.643	16588
839.781	16299
839.918	16310
840.055	16295
840.193	16310
840.33	16291
840.467	16272
840.604	16382
840.742	16508
840.879	16200
841.016	16261
841.153	16131
841.29	16367
841.427	16443
841.564	16303
841.701	16261
841.838	16207
841.975	16124
842.112	16223
842.249	16124
842.385	15987
842.522	16226
842.659	16036
842.796	16059
842.933	16071
843.069	16029
843.206	16059
843.343	16086
843.479	16090
843.616	16059
843.752	15747
843.889	15876
844.025	16093
844.162	15895
844.298	16029
844.435	15865
844.571	15819
844.708	15907
844.844	16017
844.98	16051
845.117	15953
845.253	15873
845.389	15823
845.525	15911
845.661	15979
845.798	15865
845.934	16021
846.07	15926
846.206	16002
846.342	15949
846.478	15774
846.614	15587
846.75	15519
846.886	15389
847.022	15504
847.158	15481
847.294	15492
847.429	15397
847.565	15431
847.701	15724
847.837	15211
847.972	15100
848.108	15241
848.244	15275
848.379	15009
848.515	14872
848.65	14918
848.786	15085
848.921	14982
849.057	15070
849.192	15077
849.328	15001
849.463	14952
849.598	14990
849.734	14864
849.869	14910
850.004	14899
850.14	14864
850.275	14765
850.41	14644
850.545	14682
850.68	14731
850.815	14781
850.95	14785
851.085	14929
851.22	14857
851.355	14739
851.49	14697
851.625	14739
851.76	14712
851.895	14678
852.03	14724
852.165	14705
852.299	14712
852.434	14773
852.569	14830
852.703	14777
852.838	14902
852.973	14960
853.107	14941
853.242	14800
853.376	14651
853.511	14587
853.645	14651
853.78	14743
853.914	14629
854.048	14632
854.183	14678
854.317	14617
854.451	14895
854.585	14594
854.72	14640
854.854	14724
854.988	14659
855.122	14530
855.256	14484
855.39	14613
855.524	14792
855.658	14644
855.792	14648
855.926	14621
856.06	14670
856.194	14712
856.327	14705
856.461	14610
856.595	14568
856.729	14602
856.862	14731
856.996	14625
857.13	14754
857.263	14655
857.397	14796
857.53	14583
857.664	14758
857.797	14769
857.931	14758
858.064	14621
858.197	14659
858.331	14648
858.464	14610
858.597	14575
858.731	14594
858.864	14636
858.997	14583
859.13	14621
859.263	14689
859.396	14724
859.529	14560
859.662	14556
859.795	14610
859.928	14663
860.061	14735
860.194	14868
860.327	14625
860.46	14674
860.592	14769
860.725	14727
860.858	14735
860.99	14613
861.123	14625
861.256	14560
861.388	14533
861.521	15466
861.653	14514
861.786	14450
861.918	14495
862.05	14568
862.183	14617
862.315	14511
862.447	14659
862.58	14590
862.712	14450
862.844	14377
862.976	14560
863.108	14412
863.24	14777
863.372	14374
863.504	14415
863.636	14431
863.768	14412
863.9	14507
864.032	14267
864.164	14381
864.296	14431
864.428	14518
864.559	14556
864.691	14507
864.823	14541
864.954	14473
865.086	14480
865.217	14400
865.349	14347
865.48	14476
865.612	14488
865.743	14484
865.875	14396
866.006	14362
866.137	14446
866.269	14396
866.4	14480
866.531	14259
866.662	14366
866.793	14377
866.924	14320
867.055	14503
867.186	14393
867.317	14328
867.448	14267
867.579	14237
867.71	14317
867.841	14282
867.972	14415
868.103	14298
868.233	14286
868.364	14332
868.495	14511
868.625	14469
868.756	14708
868.886	14511
869.017	14564
869.147	14602
869.278	14689
869.408	14590
869.539	14587
869.669	14716
869.799	14610
869.929	14735
870.06	14788
870.19	14948
870.32	14967
870.45	14941
870.58	15070
870.71	15173
870.84	15116
870.97	15009
871.1	15043
871.23	15325
871.36	15249
871.489	15203
871.619	15340
871.749	15180
871.879	15169
872.008	15272
872.138	15275
872.267	15226
872.397	15074
872.526	15074
872.656	15039
872.785	15055
872.915	15283
873.044	15321
873.173	15313
873.303	15370
873.432	15344
873.561	15348
873.69	15237
873.819	15272
873.948	15374
874.077	15321
874.206	15336
874.335	15218
874.464	15481
874.593	15622
874.722	15507
874.851	15610
874.979	15698
875.108	15568
875.237	15538
875.365	15549
875.494	15701
875.623	15610
875.751	15580
875.88	15675
876.008	15846
876.136	15854
876.265	16017
876.393	16124
876.521	16147
876.65	16135
876.778	16093
876.906	15994
877.034	15930
877.162	16025
877.29	15975
877.418	16063
877.546	16059
877.674	16093
877.802	15945
877.93	16029
878.058	15922
878.185	16002
878.313	16029
878.441	16093
878.568	15861
878.696	16071
878.824	16105
878.951	16169
879.079	16249
879.206	16432
879.333	16344
879.461	16249
879.588	16276
879.715	16333
879.842	16504
879.97	16158
880.097	15903
880.224	15991
880.351	16067
880.478	16040
880.605	16017
880.732	15991
880.859	16200
880.986	15960
881.112	15945
881.239	15838
881.366	15675
881.493	15622
881.619	15557
881.746	15553
881.872	15443
881.999	15614
882.125	15477
882.252	15682
882.378	15679
882.505	15717
882.631	15504
882.757	15515
882.883	15447
883.01	15523
883.136	15291
883.262	15249
883.388	15275
883.514	15473
883.64	15447
883.766	15340
883.892	15310
884.018	15245
884.143	15272
884.269	15496
884.395	15241
884.52	15135
884.646	15017
884.772	15081
884.897	15020
885.023	15036
885.148	15188
885.274	15298
885.399	15321
885.524	15062
885.65	15058
885.775	15142
885.9	15066
886.025	15169
886.15	15135
886.275	15043
886.4	14979
886.525	14990
886.65	15055
886.775	15017
886.9	15214
887.025	15378
887.149	15062
887.274	14956
887.399	14925
887.523	14933
887.648	14800
887.773	14785
887.897	15001
888.021	15024
888.146	14861
888.27	14941
888.395	15043
888.519	15104
888.643	15043
888.767	14963
888.891	14914
889.015	14735
889.139	14720
889.263	14769
889.387	14807
889.511	14956
889.635	14849
889.759	14781
889.883	14750
890.006	14777
890.13	14864
890.254	14720
890.377	14701
890.501	14571
890.624	14473
890.748	14571
890.871	14537
890.995	14351
891.118	14457
891.241	14518
891.364	14473
891.488	14518
891.611	14492
891.734	14400
891.857	14492
891.98	14476
892.103	14560
892.226	14446
892.349	14412
892.471	14305
892.594	14427
892.717	14431
892.839	14457
892.962	14377
893.085	14469
893.207	14511
893.33	14431
893.452	14358
893.575	14442
893.697	14336
893.819	14632
893.941	14632
894.064	14613
894.186	14495
894.308	14438
894.43	14541
894.552	14701
894.674	14556
894.796	14431
894.918	14552
895.04	14427
895.161	14590
895.283	14545
895.405	14457
895.526	14518
895.648	14450
895.769	14686
895.891	14598
896.012	14636
896.134	14689
896.255	14579
896.376	14598
896.498	14606
896.619	14621
896.74	14663
896.861	14659
896.982	14960
897.103	15058
897.224	14914
897.345	14785
897.466	14785
897.587	14838
897.708	15009
897.828	14868
897.949	14891
898.07	14705
898.19	14861
898.311	14994
898.431	14944
898.552	14971
898.672	15058
898.792	14979
898.913	14971
899.033	14925
899.153	14819
899.273	14568
899.393	14830
899.513	14686
899.633	14906
899.753	14872
899.873	14758
899.993	14868
900.113	14792
900.232	14857
900.352	14792
900.472	14693
900.591	14571
900.711	14758
900.83	14621
900.95	14845
901.069	14773
901.189	14617
901.308	14336
901.427	14240
901.546	14343
901.665	14446
901.784	14454
901.904	14183
902.023	14065
902.141	13947
902.26	13849
902.379	13932
902.498	13887
902.617	13879
902.735	13925
902.854	13841
902.973	13757
903.091	13567
903.21	13636
903.328	13601
903.446	13476
903.565	13426
903.683	13472
903.801	13308
903.919	13457
904.038	13403
904.156	13327
904.274	13221
904.392	13259
904.51	13232
904.627	13179
904.745	13301
904.863	13377
904.981	13065
905.098	12920
905.216	13015
905.334	13008
905.451	13031
905.569	12833
905.686	12996
905.803	12913
905.921	12745
906.038	12829
906.155	12791
906.272	12684
906.389	12662
906.506	12483
906.623	12506
906.74	12521
906.857	12372
906.974	12456
907.091	12555
907.208	12715
907.324	12570
907.441	12422
907.557	12395
907.674	12251
907.79	12254
907.907	12228
908.023	12338
908.139	12273
908.256	12247
908.372	12182
908.488	12175
908.604	12106
908.72	12057
908.836	12079
908.952	12007
909.068	12015
909.184	12140
909.3	12026
909.415	12072
909.531	12064
909.647	11821
909.762	11783
909.878	11863
909.993	11809
910.108	11851
910.224	11786
910.339	11802
910.454	11741
910.57	11680
910.685	11600
910.8	11805
910.915	11843
911.03	11714
911.145	11566
911.259	11478
911.374	11448
911.489	11436
911.604	11379
911.718	11235
911.833	11246
911.947	11105
912.062	11045
912.176	11174
912.291	11170
912.405	11277
912.519	11452
912.633	11478
912.748	11318
912.862	11311
912.976	11162
913.09	11022
913.204	11010
913.318	11102
913.431	11147
913.545	11193
913.659	11239
913.772	11113
913.886	11006
914	10968
914.113	11086
914.226	11117
914.34	11079
914.453	10942
914.566	11045
914.68	10866
914.793	10987
914.906	10767
915.019	10733
915.132	10668
915.245	10736
915.358	10782
915.47	10710
915.583	10740
915.696	10786
915.809	10831
915.921	10923
916.034	10622
916.146	10786
916.259	10691
916.371	10786
916.483	10782
916.595	10641
916.708	10653
916.82	10622
916.932	10634
917.044	10611
917.156	10607
917.268	10538
917.38	10535
917.491	10535
917.603	10558
917.715	10615
917.826	10618
917.938	10512
918.049	10413
918.161	10592
918.272	10622
918.384	10618
918.495	10611
918.606	10489
918.717	10303
918.828	10428
918.939	10455
919.05	10314
919.161	10436
919.272	10227
919.383	10295
919.494	10485
919.604	10729
919.715	10440
919.826	10325
919.936	10436
920.047	10485
920.157	10451
920.267	10611
920.378	10508
920.488	10424
920.598	10618
920.708	10782
920.818	10596
920.928	10656
921.038	10911
921.148	10748
921.258	10474
921.368	10356
921.477	10318
921.587	10299
921.697	10207
921.806	10303
921.916	10188
922.025	10048
922.134	10036
922.244	10055
922.353	9994
922.462	9831
922.571	9838
922.68	9682
922.789	9667
922.898	9694
923.007	9606
923.116	9686
923.224	9641
923.333	9766
923.442	9564
923.55	9568
923.659	9606
923.767	9568
923.876	9511
923.984	9622
924.092	9549
924.201	9507
924.309	9591
924.417	9488
924.525	9431
924.633	9454
924.741	10428
924.849	9367
924.956	9458
925.064	9310
925.172	9245
925.279	9268
925.387	9351
925.494	9344
925.602	9389
925.709	9424
925.816	9283
925.924	9264
926.031	9386
926.138	9340
926.245	9374
926.352	9272
926.459	9370
926.566	9431
926.673	9325
926.779	9112
926.886	9214
926.993	9043
927.099	9066
927.206	8971
927.312	9013
927.419	9081
927.525	9005
927.631	9112
927.737	9047
927.843	8864
927.95	8804
928.056	8876
928.162	8944
928.267	8986
928.373	9633
928.479	8948
928.585	8849
928.69	8891
928.796	8899
928.901	8727
929.007	8769
929.112	8857
929.218	8785
929.323	8686
929.428	8708
929.533	8864
929.638	8678
929.743	8735
929.848	8750
929.953	8849
930.058	8625
930.163	8522
930.267	8537
930.372	8636
930.477	8488
930.581	8766
930.685	8499
930.79	8415
930.894	8514
930.998	8514
931.103	8545
931.207	8332
931.311	8195
931.415	8145
931.519	7925
931.623	7989
