Data from test_V78500241_1952.txt Node
Date: Fri Mar 25 14:47:18 CST 2022
User: usil
Spectrometer: V785-0024
Trigger mode: 0
Integration Time (sec): 4.000000E-1
Scans to average: 1
Nonlinearity correction enabled: false
Boxcar width: 0
Storing dark spectrum: false
XAxis mode: Wavelengths
Number of Pixels in Spectrum: 1024
>>>>>Begin Spectral Data<<<<<
801.071	22105
801.214	21911
801.356	21618
801.499	21682
801.641	21450
801.783	21378
801.926	21576
802.068	21348
802.211	21359
802.353	21211
802.496	21055
802.638	20982
802.78	20921
802.923	20857
803.065	20758
803.208	20727
803.35	20705
803.492	20800
803.635	20838
803.777	20716
803.919	21043
804.061	21116
804.204	20906
804.346	20689
804.488	20609
804.63	20708
804.773	20640
804.915	20701
805.057	20804
805.199	20575
805.341	20712
805.483	20868
805.626	20785
805.768	20705
805.91	20735
806.052	20750
806.194	20674
806.336	20845
806.478	20640
806.62	20606
806.762	20792
806.904	20910
807.046	21184
807.188	21013
807.33	21013
807.472	21047
807.614	20895
807.756	21028
807.898	20773
808.04	20811
808.182	20800
808.324	20777
808.465	20891
808.607	20952
808.749	21062
808.891	21233
809.033	21260
809.174	21161
809.316	21154
809.458	21020
809.6	20975
809.741	21161
809.883	21173
810.025	21233
810.166	21310
810.308	21226
810.45	21222
810.591	21207
810.733	20944
810.875	20948
811.016	20769
811.158	20670
811.299	20785
811.441	20872
811.582	20937
811.724	20716
811.865	20868
812.007	20800
812.148	20743
812.29	20994
812.431	21020
812.573	21203
812.714	21260
812.855	21367
812.997	21435
813.138	21572
813.279	21351
813.421	21260
813.562	21211
813.703	21062
813.845	20952
813.986	20682
814.127	20537
814.268	20526
814.41	20514
814.551	20438
814.692	20442
814.833	20290
814.974	20396
815.115	20328
815.256	20111
815.397	20271
815.539	20259
815.68	20168
815.821	19936
815.962	20126
816.103	20012
816.244	19928
816.385	19974
816.526	19811
816.666	19685
816.807	19571
816.948	19578
817.089	19613
817.23	19491
817.371	19407
817.512	19571
817.653	19556
817.793	19377
817.934	19521
818.075	19670
818.216	19556
818.356	19403
818.497	19343
818.638	19236
818.778	19240
818.919	19114
819.06	19312
819.2	19285
819.341	19312
819.481	19350
819.622	19563
819.762	19670
819.903	19635
820.043	19662
820.184	19480
820.324	19609
820.465	19575
820.605	19502
820.746	19388
820.886	19411
821.026	19487
821.167	19419
821.307	19468
821.447	19377
821.588	19365
821.728	19251
821.868	19194
822.008	18871
822.149	18897
822.289	18837
822.429	18719
822.569	18604
822.709	18703
822.849	18441
822.99	18289
823.13	18422
823.27	18327
823.41	18262
823.55	18171
823.69	18182
823.83	18277
823.97	18152
824.11	18060
824.25	17904
824.389	17996
824.529	17931
824.669	17901
824.809	18041
824.949	18129
825.089	18098
825.228	17946
825.368	17809
825.508	17745
825.648	17737
825.787	17714
825.927	17737
826.067	17714
826.206	17665
826.346	17851
826.485	17775
826.625	17733
826.765	17901
826.904	17847
827.044	17539
827.183	17528
827.323	17543
827.462	17520
827.601	17512
827.741	17455
827.88	17509
828.02	17326
828.159	17368
828.298	17452
828.437	17570
828.577	17376
828.716	17551
828.855	17455
828.994	17239
829.134	17284
829.273	17166
829.412	17178
829.551	17136
829.69	17220
829.829	17181
829.968	17383
830.107	17239
830.246	17242
830.385	17166
830.524	17143
830.663	17041
830.802	16930
830.941	16858
831.08	16793
831.219	16892
831.357	16869
831.496	17090
831.635	16824
831.774	16786
831.913	16691
832.051	16630
832.19	16558
832.329	16653
832.467	16535
832.606	16508
832.744	16470
832.883	16546
833.022	16409
833.16	16531
833.299	16634
833.437	16622
833.576	16519
833.714	16588
833.852	16649
833.991	16645
834.129	16668
834.267	16675
834.406	16558
834.544	16637
834.682	16649
834.821	16599
834.959	16721
835.097	16615
835.235	16630
835.373	16668
835.511	16611
835.65	16550
835.788	16413
835.926	16344
836.064	16360
836.202	16394
836.34	16443
836.478	16649
836.615	16459
836.753	16535
836.891	16672
837.029	16485
837.167	16432
837.305	16523
837.443	16386
837.58	16474
837.718	16352
837.856	16409
837.993	16443
838.131	16314
838.269	16246
838.406	16325
838.544	16287
838.681	16055
838.819	16078
838.956	15918
839.094	15842
839.231	15991
839.369	16074
839.506	16261
839.643	16143
839.781	15983
839.918	15823
840.055	15922
840.193	15960
840.33	15835
840.467	15953
840.604	16017
840.742	16101
840.879	15937
841.016	15816
841.153	15846
841.29	16013
841.427	16010
841.564	16040
841.701	15934
841.838	15991
841.975	15880
842.112	15819
842.249	15819
842.385	15690
842.522	15918
842.659	15755
842.796	15648
842.933	15747
843.069	15644
843.206	15603
843.343	15762
843.479	15762
843.616	15778
843.752	15488
843.889	15481
844.025	15603
844.162	15477
844.298	15781
844.435	15542
844.571	15466
844.708	15656
844.844	15728
844.98	15587
845.117	15557
845.253	15481
845.389	15492
845.525	15405
845.661	15431
845.798	15367
845.934	15408
846.07	15241
846.206	15374
846.342	15306
846.478	15249
846.614	15218
846.75	15051
846.886	14921
847.022	15199
847.158	15135
847.294	15112
847.429	15100
847.565	14963
847.701	15279
847.837	14872
847.972	14781
848.108	14933
848.244	14921
848.379	14800
848.515	14594
848.65	14659
848.786	14708
848.921	14682
849.057	14765
849.192	14731
849.328	14727
849.463	14682
849.598	14720
849.734	14610
849.869	14556
850.004	14484
850.14	14476
850.275	14419
850.41	14351
850.545	14343
850.68	14434
850.815	14385
850.95	14480
851.085	14670
851.22	14583
851.355	14450
851.49	14404
851.625	14419
851.76	14408
851.895	14240
852.03	14301
852.165	14461
852.299	14377
852.434	14488
852.569	14476
852.703	14503
852.838	14549
852.973	14568
853.107	14610
853.242	14400
853.376	14317
853.511	14168
853.645	14229
853.78	14533
853.914	14317
854.048	14237
854.183	14221
854.317	14309
854.451	14526
854.585	14275
854.72	14237
854.854	14301
854.988	14305
855.122	14286
855.256	14206
855.39	14317
855.524	14370
855.658	14393
855.792	14290
855.926	14282
856.06	14400
856.194	14423
856.327	14309
856.461	14343
856.595	14240
856.729	14282
856.862	14366
856.996	14374
857.13	14446
857.263	14415
857.397	14541
857.53	14423
857.664	14393
857.797	14415
857.931	14476
858.064	14366
858.197	14434
858.331	14355
858.464	14225
858.597	14199
858.731	14275
858.864	14317
858.997	14267
859.13	14286
859.263	14419
859.396	14374
859.529	14355
859.662	14252
859.795	14294
859.928	14313
860.061	14423
860.194	14438
860.327	14377
860.46	14294
860.592	14454
860.725	14412
860.858	14564
860.99	14252
861.123	14271
861.256	14278
861.388	14267
861.521	15089
861.653	14180
861.786	14126
861.918	14183
862.05	14225
862.183	14332
862.315	14202
862.447	14294
862.58	14229
862.712	14130
862.844	14046
862.976	14180
863.108	14088
863.24	14476
863.372	14054
863.504	14130
863.636	14073
863.768	14164
863.9	14020
864.032	14058
864.164	14111
864.296	14096
864.428	14130
864.559	14229
864.691	14195
864.823	14202
864.954	14168
865.086	14172
865.217	14054
865.349	14039
865.48	14081
865.612	14050
865.743	14267
865.875	14111
866.006	13986
866.137	14081
866.269	14111
866.4	14058
866.531	14027
866.662	14123
866.793	13955
866.924	14123
867.055	14100
867.186	14103
867.317	14077
867.448	14031
867.579	14073
867.71	14035
867.841	13944
867.972	14069
868.103	14084
868.233	14050
868.364	14130
868.495	14180
868.625	14267
868.756	14438
868.886	14252
869.017	14233
869.147	14434
869.278	14461
869.408	14309
869.539	14305
869.669	14408
869.799	14362
869.929	14389
870.06	14400
870.19	14735
870.32	14659
870.45	14533
870.58	14731
870.71	14872
870.84	14773
870.97	14708
871.1	14689
871.23	14925
871.36	14861
871.489	14819
871.619	14960
871.749	14975
871.879	14910
872.008	15066
872.138	14967
872.267	14941
872.397	14807
872.526	14731
872.656	14648
872.785	14716
872.915	15043
873.044	14971
873.173	14986
873.303	15032
873.432	15074
873.561	15074
873.69	15036
873.819	14967
873.948	15165
874.077	14960
874.206	14941
874.335	14963
874.464	15104
874.593	15340
874.722	15207
874.851	15310
874.979	15272
875.108	15374
875.237	15222
875.365	15260
875.494	15313
875.623	15450
875.751	15283
875.88	15344
876.008	15523
876.136	15485
876.265	15713
876.393	15846
876.521	15895
876.65	15747
876.778	15736
876.906	15652
877.034	15625
877.162	15660
877.29	15641
877.418	15648
877.546	15751
877.674	15701
877.802	15759
877.93	15667
878.058	15656
878.185	15610
878.313	15648
878.441	15682
878.568	15454
878.696	15690
878.824	15698
878.951	15705
879.079	15956
879.206	16021
879.333	15831
879.461	15755
879.588	15838
879.715	15930
879.842	15998
879.97	15899
880.097	15591
880.224	15606
880.351	15625
880.478	15561
880.605	15545
880.732	15553
880.859	15739
880.986	15622
881.112	15599
881.239	15439
881.366	15332
881.493	15275
881.619	15230
881.746	15279
881.872	15218
881.999	15214
882.125	15138
882.252	15279
882.378	15207
882.505	15393
882.631	15142
882.757	15047
882.883	15093
883.01	15047
883.136	14963
883.262	14887
883.388	14853
883.514	15093
883.64	15123
883.766	14918
883.892	14777
884.018	14838
884.143	14979
884.269	15173
884.395	14785
884.52	14697
884.646	14804
884.772	14689
884.897	14617
885.023	14765
885.148	14777
885.274	14811
885.399	14777
885.524	14739
885.65	14625
885.775	14670
885.9	14777
886.025	14819
886.15	14815
886.275	14773
886.4	14708
886.525	14674
886.65	14693
886.775	14667
886.9	14796
887.025	15001
887.149	14727
887.274	14511
887.399	14484
887.523	14434
887.648	14537
887.773	14404
887.897	14617
888.021	14625
888.146	14545
888.27	14655
888.395	14613
888.519	14655
888.643	14735
888.767	14602
888.891	14454
889.015	14469
889.139	14480
889.263	14366
889.387	14579
889.511	14644
889.635	14537
889.759	14511
889.883	14507
890.006	14476
890.13	14507
890.254	14366
890.377	14457
890.501	14263
890.624	14286
890.748	14259
890.871	14153
890.995	14027
891.118	14142
891.241	14142
891.364	14111
891.488	14248
891.611	14164
891.734	14103
891.857	14229
891.98	14024
892.103	14187
892.226	14172
892.349	14077
892.471	14119
892.594	14100
892.717	14149
892.839	14081
892.962	14183
893.085	14111
893.207	14119
893.33	13944
893.452	14020
893.575	14157
893.697	14100
893.819	14263
893.941	14286
894.064	14294
894.186	14031
894.308	14180
894.43	14206
894.552	14362
894.674	14229
894.796	14050
894.918	14172
895.04	14168
895.161	14278
895.283	14237
895.405	14180
895.526	14286
895.648	14225
895.769	14210
895.891	14336
896.012	14362
896.134	14313
896.255	14233
896.376	14259
896.498	14282
896.619	14263
896.74	14374
896.861	14389
896.982	14670
897.103	14815
897.224	14644
897.345	14522
897.466	14446
897.587	14526
897.708	14727
897.828	14629
897.949	14484
898.07	14446
898.19	14514
898.311	14670
898.431	14621
898.552	14602
898.672	14735
898.792	14731
898.913	14750
899.033	14495
899.153	14457
899.273	14374
899.393	14587
899.513	14541
899.633	14484
899.753	14473
899.873	14434
899.993	14568
900.113	14533
900.232	14545
900.352	14514
900.472	14450
900.591	14286
900.711	14404
900.83	14366
900.95	14476
901.069	14545
901.189	14271
901.308	14039
901.427	13989
901.546	13970
901.665	14092
901.784	14130
901.904	13868
902.023	13833
902.141	13639
902.26	13677
902.379	13571
902.498	13594
902.617	13586
902.735	13582
902.854	13525
902.973	13510
903.091	13282
903.21	13331
903.328	13335
903.446	13293
903.565	13190
903.683	13107
903.801	13118
903.919	13137
904.038	13187
904.156	12993
904.274	13061
904.392	13042
904.51	12973
904.627	12916
904.745	13050
904.863	13023
904.981	12665
905.098	12650
905.216	12608
905.334	12681
905.451	12627
905.569	12662
905.686	12768
905.803	12662
905.921	12547
906.038	12547
906.155	12566
906.272	12353
906.389	12521
906.506	12311
906.623	12262
906.74	12266
906.857	12171
906.974	12213
907.091	12270
907.208	12357
907.324	12399
907.441	12182
907.557	12140
907.674	12072
907.79	11916
907.907	12030
908.023	12003
908.139	11999
908.256	12045
908.372	11942
908.488	11980
908.604	11824
908.72	11707
908.836	11813
908.952	11752
909.068	11733
909.184	11882
909.3	11752
909.415	11809
909.531	11783
909.647	11512
909.762	11589
909.878	11558
909.993	11539
910.108	11524
910.224	11535
910.339	11630
910.454	11436
910.57	11349
910.685	11410
910.8	11570
910.915	11657
911.03	11512
911.145	11242
911.259	11189
911.374	11246
911.489	11204
911.604	11201
911.718	11094
911.833	11056
911.947	10946
912.062	10885
912.176	11010
912.291	11037
912.405	11014
912.519	11185
912.633	11223
912.748	11079
912.862	10965
912.976	10904
913.09	10736
913.204	10778
913.318	10904
913.431	10946
913.545	11006
913.659	11022
913.772	10885
913.886	10847
914	10717
914.113	10854
914.226	10908
914.34	10862
914.453	10721
914.566	10862
914.68	10714
914.793	10702
914.906	10485
915.019	10508
915.132	10497
915.245	10512
915.358	10493
915.47	10500
915.583	10512
915.696	10561
915.809	10668
915.921	10714
916.034	10531
916.146	10523
916.259	10451
916.371	10561
916.483	10512
916.595	10424
916.708	10459
916.82	10470
916.932	10447
917.044	10497
917.156	10390
917.268	10341
917.38	10390
917.491	10329
917.603	10337
917.715	10440
917.826	10417
917.938	10341
918.049	10265
918.161	10322
918.272	10462
918.384	10516
918.495	10367
918.606	10257
918.717	10192
918.828	10272
918.939	10223
919.05	10116
919.161	10291
919.272	10074
919.383	10036
919.494	10280
919.604	10440
919.715	10268
919.826	10147
919.936	10215
920.047	10287
920.157	10204
920.267	10398
920.378	10333
920.488	10223
920.598	10436
920.708	10535
920.818	10398
920.928	10424
921.038	10554
921.148	10615
921.258	10246
921.368	10162
921.477	10071
921.587	10036
921.697	9953
921.806	10086
921.916	10013
922.025	9861
922.134	9781
922.244	9698
922.353	9876
922.462	9728
922.571	9576
922.68	9466
922.789	9435
922.898	9561
923.007	9500
923.116	9507
923.224	9443
923.333	9477
923.442	9313
923.55	9420
923.659	9272
923.767	9397
923.876	9332
923.984	9416
924.092	9317
924.201	9332
924.309	9306
924.417	9370
924.525	9313
924.633	9310
924.741	10299
924.849	9100
924.956	9218
925.064	9165
925.172	9058
925.279	9089
925.387	9142
925.494	9127
925.602	9256
925.709	9253
925.816	9093
925.924	9131
926.031	9138
926.138	9165
926.245	9138
926.352	9066
926.459	9192
926.566	9310
926.673	9138
926.779	9001
926.886	9005
926.993	8902
927.099	8899
927.206	8864
927.312	8826
927.419	8872
927.525	8880
927.631	8963
927.737	8739
927.843	8758
927.95	8659
928.056	8678
928.162	8743
928.267	8785
928.373	9416
928.479	8838
928.585	8575
928.69	8796
928.796	8758
928.901	8682
929.007	8480
929.112	8746
929.218	8621
929.323	8587
929.428	8598
929.533	8724
929.638	8434
929.743	8587
929.848	8590
929.953	8575
930.058	8514
930.163	8320
930.267	8298
930.372	8484
930.477	8279
930.581	8503
930.685	8431
930.79	8263
930.894	8275
930.998	8267
931.103	8393
931.207	8031
931.311	8058
931.415	7951
931.519	7723
931.623	7807
