Data from test_V78500241_3385.txt Node
Date: Fri Mar 25 14:57:17 CST 2022
User: usil
Spectrometer: V785-0024
Trigger mode: 0
Integration Time (sec): 4.000000E-1
Scans to average: 1
Nonlinearity correction enabled: false
Boxcar width: 0
Storing dark spectrum: false
XAxis mode: Wavelengths
Number of Pixels in Spectrum: 1024
>>>>>Begin Spectral Data<<<<<
801.071	21934
801.214	21800
801.356	21603
801.499	21458
801.641	21416
801.783	21313
801.926	21237
802.068	21203
802.211	21176
802.353	21017
802.496	20842
802.638	20826
802.78	20705
802.923	20716
803.065	20629
803.208	20587
803.35	20598
803.492	20773
803.635	20796
803.777	20617
803.919	20788
804.061	20914
804.204	20708
804.346	20583
804.488	20503
804.63	20670
804.773	20366
804.915	20480
805.057	20594
805.199	20587
805.341	20590
805.483	20514
805.626	20594
805.768	20552
805.91	20537
806.052	20609
806.194	20454
806.336	20724
806.478	20408
806.62	20613
806.762	20560
806.904	20701
807.046	21020
807.188	20914
807.33	20910
807.472	20872
807.614	20910
807.756	20853
807.898	20762
808.04	20590
808.182	20473
808.324	20606
808.465	20579
808.607	20842
808.749	20762
808.891	20914
809.033	21028
809.174	20952
809.316	20750
809.458	20902
809.6	20743
809.741	20861
809.883	20986
810.025	20967
810.166	21001
810.308	20937
810.45	20967
810.591	20906
810.733	20746
810.875	20762
811.016	20716
811.158	20511
811.299	20663
811.441	20705
811.582	20739
811.724	20659
811.865	20670
812.007	20606
812.148	20575
812.29	20727
812.431	20834
812.573	21077
812.714	21058
812.855	21108
812.997	21336
813.138	21386
813.279	21378
813.421	21085
813.562	21119
813.703	20807
813.845	20739
813.986	20518
814.127	20301
814.268	20317
814.41	20206
814.551	20290
814.692	20267
814.833	20164
814.974	20275
815.115	20248
815.256	20088
815.397	19997
815.539	20065
815.68	19928
815.821	19875
815.962	20001
816.103	19852
816.244	19795
816.385	19719
816.526	19597
816.666	19350
816.807	19263
816.948	19506
817.089	19453
817.23	19316
817.371	19240
817.512	19274
817.653	19308
817.793	19187
817.934	19247
818.075	19388
818.216	19426
818.356	19316
818.497	19141
818.638	19076
818.778	18886
818.919	19019
819.06	18924
819.2	19057
819.341	19278
819.481	19190
819.622	19388
819.762	19476
819.903	19419
820.043	19358
820.184	19274
820.324	19251
820.465	19381
820.605	19324
820.746	19255
820.886	19206
821.026	19244
821.167	19156
821.307	19225
821.447	19232
821.588	19164
821.728	19000
821.868	18825
822.008	18719
822.149	18646
822.289	18684
822.429	18464
822.569	18365
822.709	18414
822.849	18205
822.99	18254
823.13	18232
823.27	18182
823.41	17942
823.55	18007
823.69	17931
823.83	17988
823.97	17977
824.11	17764
824.25	17718
824.389	17817
824.529	17840
824.669	17783
824.809	17843
824.949	17843
825.089	17863
825.228	17718
825.368	17596
825.508	17547
825.648	17482
825.787	17532
825.927	17676
826.067	17562
826.206	17619
826.346	17589
826.485	17539
826.625	17619
826.765	17604
826.904	17524
827.044	17337
827.183	17349
827.323	17242
827.462	17330
827.601	17261
827.741	17170
827.88	17364
828.02	17113
828.159	17220
828.298	17288
828.437	17277
828.577	17265
828.716	17334
828.855	17250
828.994	17052
829.134	16980
829.273	17086
829.412	16885
829.551	16915
829.69	16949
829.829	17025
829.968	17075
830.107	17029
830.246	17006
830.385	16892
830.524	16930
830.663	16820
830.802	16740
830.941	16729
831.08	16573
831.219	16744
831.357	16721
831.496	16892
831.635	16649
831.774	16588
831.913	16573
832.051	16443
832.19	16436
832.329	16497
832.467	16443
832.606	16246
832.744	16276
832.883	16318
833.022	16371
833.16	16409
833.299	16299
833.437	16348
833.576	16356
833.714	16421
833.852	16409
833.991	16367
834.129	16462
834.267	16459
834.406	16478
834.544	16409
834.682	16424
834.821	16402
834.959	16527
835.097	16284
835.235	16455
835.373	16466
835.511	16356
835.65	16284
835.788	16344
835.926	16246
836.064	16109
836.202	16272
836.34	16181
836.478	16462
836.615	16272
836.753	16348
836.891	16360
837.029	16299
837.167	16246
837.305	16295
837.443	16268
837.58	16207
837.718	16192
837.856	16124
837.993	16109
838.131	16200
838.269	16109
838.406	16158
838.544	16105
838.681	15945
838.819	15899
838.956	15717
839.094	15785
839.231	15804
839.369	15934
839.506	16097
839.643	15930
839.781	15781
839.918	15686
840.055	15709
840.193	15736
840.33	15759
840.467	15682
840.604	15732
840.742	16032
840.879	15542
841.016	15580
841.153	15614
841.29	15835
841.427	15705
841.564	15789
841.701	15709
841.838	15606
841.975	15629
842.112	15717
842.249	15580
842.385	15561
842.522	15766
842.659	15542
842.796	15614
842.933	15580
843.069	15485
843.206	15416
843.343	15561
843.479	15542
843.616	15526
843.752	15332
843.889	15317
844.025	15439
844.162	15374
844.298	15454
844.435	15294
844.571	15294
844.708	15329
844.844	15370
844.98	15401
845.117	15359
845.253	15199
845.389	15233
845.525	15260
845.661	15154
845.798	15119
845.934	15249
846.07	15074
846.206	15074
846.342	15249
846.478	15116
846.614	14967
846.75	14826
846.886	14914
847.022	15009
847.158	14994
847.294	14762
847.429	14910
847.565	14830
847.701	15154
847.837	14663
847.972	14579
848.108	14678
848.244	14762
848.379	14564
848.515	14533
848.65	14488
848.786	14545
848.921	14488
849.057	14552
849.192	14590
849.328	14526
849.463	14587
849.598	14400
849.734	14366
849.869	14301
850.004	14233
850.14	14301
850.275	14347
850.41	14183
850.545	14218
850.68	14244
850.815	14282
850.95	14221
851.085	14412
851.22	14343
851.355	14305
851.49	14248
851.625	14286
851.76	14134
851.895	14119
852.03	14119
852.165	14229
852.299	14256
852.434	14259
852.569	14259
852.703	14240
852.838	14339
852.973	14324
853.107	14355
853.242	14256
853.376	14229
853.511	13970
853.645	14054
853.78	14286
853.914	14111
854.048	14081
854.183	14103
854.317	14142
854.451	14282
854.585	14142
854.72	14084
854.854	14229
854.988	14050
855.122	14058
855.256	13906
855.39	14046
855.524	14161
855.658	14065
855.792	14138
855.926	14168
856.06	14176
856.194	14214
856.327	14016
856.461	13986
856.595	14103
856.729	14081
856.862	14244
856.996	14149
857.13	14244
857.263	14263
857.397	14267
857.53	14096
857.664	14183
857.797	14115
857.931	14271
858.064	14130
858.197	14202
858.331	14092
858.464	14107
858.597	13986
858.731	14096
858.864	14161
858.997	14138
859.13	14092
859.263	14115
859.396	14221
859.529	14005
859.662	14123
859.795	14046
859.928	14096
860.061	14275
860.194	14332
860.327	14073
860.46	14096
860.592	14221
860.725	14218
860.858	14164
860.99	14046
861.123	14115
861.256	14103
861.388	14107
861.521	14967
861.653	14012
861.786	14039
861.918	14039
862.05	13963
862.183	14054
862.315	14153
862.447	14115
862.58	14100
862.712	13837
862.844	13803
862.976	13940
863.108	13925
863.24	14370
863.372	13879
863.504	13879
863.636	13944
863.768	13921
863.9	13959
864.032	13776
864.164	13883
864.296	13925
864.428	13978
864.559	14084
864.691	14058
864.823	13959
864.954	14016
865.086	13951
865.217	13791
865.349	13795
865.48	13887
865.612	13959
865.743	14069
865.875	14024
866.006	13845
866.137	13860
866.269	13875
866.4	13917
866.531	13822
866.662	13814
866.793	13814
866.924	13921
867.055	13989
867.186	13902
867.317	13849
867.448	13750
867.579	13925
867.71	13875
867.841	13788
867.972	13868
868.103	13830
868.233	13890
868.364	13932
868.495	13925
868.625	14164
868.756	14218
868.886	14065
869.017	14195
869.147	14225
869.278	14267
869.408	14183
869.539	14077
869.669	14309
869.799	14161
869.929	14271
870.06	14237
870.19	14434
870.32	14385
870.45	14545
870.58	14560
870.71	14655
870.84	14663
870.97	14469
871.1	14518
871.23	14735
871.36	14712
871.489	14590
871.619	14678
871.749	14716
871.879	14781
872.008	14826
872.138	14819
872.267	14781
872.397	14686
872.526	14610
872.656	14541
872.785	14651
872.915	14785
873.044	14845
873.173	14769
873.303	14727
873.432	14781
873.561	14906
873.69	14746
873.819	14830
873.948	14883
874.077	14857
874.206	14659
874.335	14906
874.464	14971
874.593	15085
874.722	15058
874.851	15119
874.979	15199
875.108	15169
875.237	15028
875.365	15070
875.494	15104
875.623	15070
875.751	15089
875.88	15214
876.008	15237
876.136	15351
876.265	15511
876.393	15682
876.521	15724
876.65	15587
876.778	15580
876.906	15538
877.034	15557
877.162	15595
877.29	15542
877.418	15488
877.546	15553
877.674	15466
877.802	15545
877.93	15606
878.058	15511
878.185	15420
878.313	15515
878.441	15568
878.568	15332
878.696	15595
878.824	15572
878.951	15641
879.079	15686
879.206	15888
879.333	15713
879.461	15549
879.588	15637
879.715	15713
879.842	15831
879.97	15576
880.097	15454
880.224	15317
880.351	15374
880.478	15336
880.605	15268
880.732	15378
880.859	15587
880.986	15443
881.112	15435
881.239	15291
881.366	15169
881.493	15214
881.619	14998
881.746	15146
881.872	15119
881.999	15070
882.125	15028
882.252	15093
882.378	15077
882.505	15112
882.631	14952
882.757	14921
882.883	14918
883.01	14849
883.136	14754
883.262	14663
883.388	14731
883.514	14811
883.64	14933
883.766	14727
883.892	14667
884.018	14655
884.143	14880
884.269	14853
884.395	14663
884.52	14507
884.646	14579
884.772	14450
884.897	14499
885.023	14560
885.148	14651
885.274	14667
885.399	14743
885.524	14629
885.65	14708
885.775	14644
885.9	14610
886.025	14762
886.15	14659
886.275	14552
886.4	14499
886.525	14530
886.65	14549
886.775	14469
886.9	14785
887.025	14807
887.149	14610
887.274	14419
887.399	14495
887.523	14469
887.648	14336
887.773	14328
887.897	14537
888.021	14469
888.146	14324
888.27	14549
888.395	14488
888.519	14446
888.643	14541
888.767	14579
888.891	14317
889.015	14336
889.139	14336
889.263	14244
889.387	14400
889.511	14514
889.635	14434
889.759	14263
889.883	14377
890.006	14408
890.13	14446
890.254	14176
890.377	14252
890.501	14031
890.624	14069
890.748	14271
890.871	14130
890.995	13925
891.118	13833
891.241	13982
891.364	14031
891.488	14138
891.611	14065
891.734	14111
891.857	14088
891.98	14024
892.103	14077
892.226	14024
892.349	13974
892.471	13909
892.594	13944
892.717	13989
892.839	13902
892.962	13955
893.085	14008
893.207	14016
893.33	13879
893.452	14031
893.575	14149
893.697	13978
893.819	14164
893.941	14252
894.064	14195
894.186	13947
894.308	13959
894.43	14062
894.552	14259
894.674	14176
894.796	13925
894.918	14050
895.04	14043
895.161	14168
895.283	14145
895.405	14024
895.526	14100
895.648	14096
895.769	14168
895.891	14259
896.012	14202
896.134	14172
896.255	14191
896.376	14130
896.498	14180
896.619	14290
896.74	14164
896.861	14271
896.982	14530
897.103	14777
897.224	14473
897.345	14499
897.466	14358
897.587	14476
897.708	14571
897.828	14514
897.949	14469
898.07	14252
898.19	14370
898.311	14575
898.431	14473
898.552	14499
898.672	14651
898.792	14701
898.913	14461
899.033	14431
899.153	14366
899.273	14278
899.393	14282
899.513	14358
899.633	14385
899.753	14400
899.873	14358
899.993	14469
900.113	14389
900.232	14423
900.352	14393
900.472	14278
900.591	14221
900.711	14221
900.83	14088
900.95	14366
901.069	14305
901.189	14191
901.308	13982
901.427	13871
901.546	13856
901.665	13940
901.784	13913
901.904	13738
902.023	13723
902.141	13495
902.26	13480
902.379	13563
902.498	13441
902.617	13476
902.735	13381
902.854	13434
902.973	13468
903.091	13274
903.21	13190
903.328	13175
903.446	13179
903.565	13053
903.683	13107
903.801	12962
903.919	13072
904.038	13065
904.156	12890
904.274	12935
904.392	12886
904.51	12962
904.627	12897
904.745	12935
904.863	12909
904.981	12673
905.098	12544
905.216	12555
905.334	12509
905.451	12608
905.569	12585
905.686	12540
905.803	12563
905.921	12395
906.038	12471
906.155	12490
906.272	12289
906.389	12346
906.506	12228
906.623	12152
906.74	12178
906.857	12015
906.974	12079
907.091	12235
907.208	12300
907.324	12243
907.441	12171
907.557	11904
907.674	11901
907.79	11870
907.907	11882
908.023	11965
908.139	11874
908.256	11904
908.372	11851
908.488	11817
908.604	11718
908.72	11695
908.836	11649
908.952	11661
909.068	11665
909.184	11726
909.3	11684
909.415	11680
909.531	11653
909.647	11459
909.762	11425
909.878	11402
909.993	11539
910.108	11505
910.224	11448
910.339	11436
910.454	11417
910.57	11265
910.685	11296
910.8	11493
910.915	11490
911.03	11349
911.145	11223
911.259	11174
911.374	11212
911.489	11113
911.604	11052
911.718	10991
911.833	10919
911.947	10763
912.062	10801
912.176	10900
912.291	10850
912.405	10877
912.519	11067
912.633	11109
912.748	10953
912.862	10972
912.976	10858
913.09	10702
913.204	10782
913.318	10763
913.431	10892
913.545	10873
913.659	10869
913.772	10801
913.886	10725
914	10721
914.113	10706
914.226	10866
914.34	10759
914.453	10519
914.566	10771
914.68	10664
914.793	10561
914.906	10409
915.019	10451
915.132	10352
915.245	10409
915.358	10348
915.47	10531
915.583	10409
915.696	10565
915.809	10527
915.921	10603
916.034	10306
916.146	10386
916.259	10394
916.371	10500
916.483	10478
916.595	10314
916.708	10341
916.82	10333
916.932	10375
917.044	10325
917.156	10306
917.268	10234
917.38	10253
917.491	10257
917.603	10261
917.715	10303
917.826	10367
917.938	10314
918.049	10185
918.161	10223
918.272	10337
918.384	10352
918.495	10314
918.606	10139
918.717	10124
918.828	10188
918.939	10219
919.05	10055
919.161	10067
919.272	9941
919.383	10063
919.494	10200
919.604	10352
919.715	10074
919.826	10135
919.936	9979
920.047	10219
920.157	10185
920.267	10322
920.378	10147
920.488	10181
920.598	10375
920.708	10508
920.818	10386
920.928	10413
921.038	10535
921.148	10531
921.258	10196
921.368	10120
921.477	10082
921.587	9987
921.697	9831
921.806	10051
921.916	9873
922.025	9778
922.134	9709
922.244	9709
922.353	9812
922.462	9568
922.571	9557
922.68	9435
922.789	9416
922.898	9401
923.007	9378
923.116	9450
923.224	9424
923.333	9412
923.442	9253
923.55	9317
923.659	9317
923.767	9310
923.876	9241
923.984	9367
924.092	9207
924.201	9302
924.309	9367
924.417	9294
924.525	9241
924.633	9249
924.741	10196
924.849	9055
924.956	9157
925.064	9100
925.172	8971
925.279	9074
925.387	9039
925.494	9085
925.602	9203
925.709	9154
925.816	8990
925.924	9032
926.031	9070
926.138	9093
926.245	9085
926.352	8979
926.459	9138
926.566	9165
926.673	9001
926.779	8982
926.886	8933
926.993	8830
927.099	8769
927.206	8716
927.312	8712
927.419	8823
927.525	8766
927.631	8872
927.737	8670
927.843	8682
927.95	8549
928.056	8651
928.162	8708
928.267	8727
928.373	9363
928.479	8758
928.585	8533
928.69	8594
928.796	8689
928.901	8644
929.007	8454
929.112	8587
929.218	8621
929.323	8545
929.428	8484
929.533	8705
929.638	8442
929.743	8461
929.848	8446
929.953	8438
930.058	8389
930.163	8309
930.267	8305
930.372	8358
930.477	8244
930.581	8530
930.685	8317
930.79	8199
930.894	8199
930.998	8225
931.103	8374
931.207	8084
931.311	7928
931.415	7871
931.519	7712
931.623	7746
