Data from test_V78500241_456.txt Node
Date: Fri Mar 25 14:36:53 CST 2022
User: usil
Spectrometer: V785-0024
Trigger mode: 0
Integration Time (sec): 4.000000E-1
Scans to average: 1
Nonlinearity correction enabled: false
Boxcar width: 0
Storing dark spectrum: false
XAxis mode: Wavelengths
Number of Pixels in Spectrum: 1024
>>>>>Begin Spectral Data<<<<<
801.071	26560
801.214	26552
801.356	26225
801.499	26142
801.641	25951
801.783	26024
801.926	26039
802.068	25913
802.211	25822
802.353	25681
802.496	25559
802.638	25464
802.78	25616
802.923	25449
803.065	25438
803.208	25381
803.35	25354
803.492	25594
803.635	25601
803.777	25438
803.919	25609
804.061	25742
804.204	25578
804.346	25491
804.488	25381
804.63	25476
804.773	25266
804.915	25373
805.057	25685
805.199	25457
805.341	25422
805.483	25552
805.626	25571
805.768	25396
805.91	25495
806.052	25453
806.194	25483
806.336	25575
806.478	25571
806.62	25537
806.762	25518
806.904	25791
807.046	26062
807.188	25814
807.33	25841
807.472	26027
807.614	25765
807.756	25799
807.898	25647
808.04	25609
808.182	25670
808.324	25651
808.465	25731
808.607	25761
808.749	26035
808.891	26111
809.033	26100
809.174	26103
809.316	26046
809.458	26115
809.6	25989
809.741	26054
809.883	26005
810.025	26294
810.166	26100
810.308	26130
810.45	26157
810.591	26084
810.733	25955
810.875	25723
811.016	25712
811.158	25658
811.299	26024
811.441	25982
811.582	25917
811.724	25795
811.865	25708
812.007	25761
812.148	25879
812.29	25871
812.431	25871
812.573	26119
812.714	26187
812.855	26233
812.997	26298
813.138	26602
813.279	26533
813.421	26355
813.562	26339
813.703	26168
813.845	25993
813.986	25723
814.127	25521
814.268	25339
814.41	25472
814.551	25350
814.692	25521
814.833	25384
814.974	25259
815.115	25373
815.256	25164
815.397	25110
815.539	25289
815.68	25156
815.821	24973
815.962	25084
816.103	25133
816.244	24981
816.385	24817
816.526	24745
816.666	24601
816.807	24479
816.948	24597
817.089	24631
817.23	24464
817.371	24365
817.512	24414
817.653	24490
817.793	24464
817.934	24467
818.075	24532
818.216	24498
818.356	24502
818.497	24197
818.638	24095
818.778	24273
818.919	24087
819.06	24270
819.2	24277
819.341	24342
819.481	24308
819.622	24509
819.762	24707
819.903	24627
820.043	24585
820.184	24433
820.324	24517
820.465	24536
820.605	24498
820.746	24509
820.886	24338
821.026	24471
821.167	24391
821.307	24471
821.447	24532
821.588	24220
821.728	24133
821.868	24015
822.008	23878
822.149	23901
822.289	23756
822.429	23551
822.569	23573
822.709	23471
822.849	23261
822.99	23376
823.13	23250
823.27	23162
823.41	23048
823.55	23003
823.69	23105
823.83	23174
823.97	22892
824.11	22866
824.25	22774
824.389	22873
824.529	22892
824.669	22862
824.809	23056
824.949	22976
825.089	22965
825.228	22904
825.368	22668
825.508	22744
825.648	22565
825.787	22584
825.927	22573
826.067	22523
826.206	22759
826.346	22584
826.485	22569
826.625	22752
826.765	22755
826.904	22713
827.044	22402
827.183	22428
827.323	22344
827.462	22512
827.601	22257
827.741	22291
827.88	22272
828.02	22204
828.159	22280
828.298	22363
828.437	22207
828.577	22223
828.716	22295
828.855	22196
828.994	22139
829.134	22017
829.273	22124
829.412	21884
829.551	22063
829.69	21956
829.829	22006
829.968	22093
830.107	21998
830.246	21934
830.385	21915
830.524	21880
830.663	21991
830.802	21701
830.941	21549
831.08	21462
831.219	21641
831.357	21736
831.496	21648
831.635	21553
831.774	21405
831.913	21568
832.051	21359
832.19	21378
832.329	21424
832.467	21104
832.606	21294
832.744	21150
832.883	21116
833.022	21188
833.16	21344
833.299	21230
833.437	21214
833.576	21302
833.714	21249
833.852	21237
833.991	21287
834.129	21367
834.267	21275
834.406	21192
834.544	21382
834.682	21329
834.821	21291
834.959	21408
835.097	21127
835.235	21173
835.373	21161
835.511	21199
835.65	21146
835.788	21180
835.926	20925
836.064	21001
836.202	20910
836.34	21176
836.478	21291
836.615	21093
836.753	21176
836.891	21127
837.029	21074
837.167	20982
837.305	20975
837.443	21123
837.58	20811
837.718	21028
837.856	21009
837.993	20872
838.131	20956
838.269	20769
838.406	20906
838.544	20777
838.681	20564
838.819	20552
838.956	20465
839.094	20488
839.231	20351
839.369	20511
839.506	20849
839.643	20632
839.781	20431
839.918	20225
840.055	20396
840.193	20320
840.33	20370
840.467	20381
840.604	20290
840.742	20609
840.879	20161
841.016	20233
841.153	20142
841.29	20492
841.427	20313
841.564	20320
841.701	20259
841.838	20191
841.975	20180
842.112	20081
842.249	20054
842.385	19997
842.522	20183
842.659	20153
842.796	19978
842.933	20122
843.069	20024
843.206	19978
843.343	20134
843.479	20062
843.616	19921
843.752	19738
843.889	19856
844.025	19875
844.162	19780
844.298	19909
844.435	19780
844.571	19814
844.708	19765
844.844	19947
844.98	19883
845.117	20001
845.253	19742
845.389	19681
845.525	19693
845.661	19731
845.798	19521
845.934	19571
846.07	19506
846.206	19575
846.342	19689
846.478	19460
846.614	19403
846.75	19308
846.886	19133
847.022	19407
847.158	19278
847.294	19175
847.429	19289
847.565	19244
847.701	19438
847.837	19038
847.972	18939
848.108	19141
848.244	19012
848.379	18859
848.515	18814
848.65	18768
848.786	18844
848.921	18859
849.057	18882
849.192	18848
849.328	18810
849.463	18897
849.598	18924
849.734	18730
849.869	18757
850.004	18471
850.14	18681
850.275	18665
850.41	18471
850.545	18665
850.68	18483
850.815	18597
850.95	18582
851.085	18722
851.22	18677
851.355	18582
851.49	18566
851.625	18551
851.76	18429
851.895	18437
852.03	18445
852.165	18513
852.299	18601
852.434	18627
852.569	18540
852.703	18528
852.838	18544
852.973	18684
853.107	18639
853.242	18486
853.376	18414
853.511	18327
853.645	18391
853.78	18570
853.914	18357
854.048	18338
854.183	18342
854.317	18281
854.451	18574
854.585	18273
854.72	18247
854.854	18494
854.988	18403
855.122	18391
855.256	18216
855.39	18342
855.524	18369
855.658	18429
855.792	18311
855.926	18407
856.06	18346
856.194	18445
856.327	18243
856.461	18254
856.595	18262
856.729	18277
856.862	18585
856.996	18380
857.13	18433
857.263	18452
857.397	18384
857.53	18330
857.664	18357
857.797	18414
857.931	18448
858.064	18346
858.197	18471
858.331	18380
858.464	18372
858.597	18213
858.731	18254
858.864	18289
858.997	18266
859.13	18369
859.263	18361
859.396	18528
859.529	18281
859.662	18239
859.795	18304
859.928	18258
860.061	18448
860.194	18467
860.327	18346
860.46	18254
860.592	18380
860.725	18559
860.858	18467
860.99	18311
861.123	18194
861.256	18323
861.388	18357
861.521	19008
861.653	18174
861.786	18258
861.918	18251
862.05	18304
862.183	18361
862.315	18445
862.447	18372
862.58	18243
862.712	18136
862.844	17992
862.976	18140
863.108	18079
863.24	18403
863.372	17912
863.504	18064
863.636	18026
863.768	18076
863.9	18038
864.032	17912
864.164	17977
864.296	17988
864.428	18007
864.559	18038
864.691	18133
864.823	18026
864.954	18114
865.086	17961
865.217	18072
865.349	17885
865.48	17977
865.612	18019
865.743	18144
865.875	18022
866.006	17832
866.137	17958
866.269	17999
866.4	17999
866.531	17939
866.662	17859
866.793	17756
866.924	17912
867.055	17904
867.186	17897
867.317	17760
867.448	17863
867.579	17885
867.71	17885
867.841	17897
867.972	17866
868.103	17893
868.233	17885
868.364	18003
868.495	17961
868.625	18079
868.756	18186
868.886	18083
869.017	18163
869.147	18205
869.278	18213
869.408	18125
869.539	18167
869.669	18216
869.799	18144
869.929	18281
870.06	18247
870.19	18555
870.32	18494
870.45	18486
870.58	18502
870.71	18608
870.84	18570
870.97	18559
871.1	18502
871.23	18768
871.36	18703
871.489	18646
871.619	18642
871.749	18707
871.879	18654
872.008	18776
872.138	18700
872.267	18738
872.397	18498
872.526	18521
872.656	18559
872.785	18513
872.915	18730
873.044	18928
873.173	18764
873.303	18837
873.432	18932
873.561	18817
873.69	18715
873.819	18798
873.948	18741
874.077	18768
874.206	18829
874.335	18764
874.464	18886
874.593	19091
874.722	19072
874.851	19008
874.979	19114
875.108	19023
875.237	18973
875.365	18939
875.494	19076
875.623	19168
875.751	19050
875.88	19107
876.008	19164
876.136	19160
876.265	19445
876.393	19639
876.521	19529
876.65	19506
876.778	19540
876.906	19419
877.034	19419
877.162	19502
877.29	19316
877.418	19415
877.546	19422
877.674	19373
877.802	19491
877.93	19377
878.058	19529
878.185	19217
878.313	19339
878.441	19521
878.568	19297
878.696	19282
878.824	19537
878.951	19552
879.079	19491
879.206	19742
879.333	19643
879.461	19495
879.588	19643
879.715	19582
879.842	19723
879.97	19339
880.097	19190
880.224	19247
880.351	19247
880.478	19228
880.605	19297
880.732	19263
880.859	19365
880.986	19171
881.112	19324
881.239	19232
881.366	19103
881.493	18962
881.619	18852
881.746	18939
881.872	18985
881.999	18859
882.125	18825
882.252	19008
882.378	18840
882.505	19027
882.631	18738
882.757	18681
882.883	18688
883.01	18726
883.136	18673
883.262	18582
883.388	18456
883.514	18696
883.64	18711
883.766	18513
883.892	18528
884.018	18540
884.143	18646
884.269	18696
884.395	18407
884.52	18441
884.646	18334
884.772	18197
884.897	18247
885.023	18407
885.148	18464
885.274	18517
885.399	18460
885.524	18262
885.65	18304
885.775	18273
885.9	18300
886.025	18570
886.15	18289
886.275	18292
886.4	18247
886.525	18224
886.65	18289
886.775	18182
886.9	18490
887.025	18506
887.149	18311
887.274	18186
887.399	18022
887.523	18053
887.648	18030
887.773	17988
887.897	18095
888.021	18091
888.146	17961
888.27	18163
888.395	18194
888.519	17999
888.643	18003
888.767	18117
888.891	17992
889.015	17912
889.139	17901
889.263	17859
889.387	17958
889.511	18098
889.635	18057
889.759	17916
889.883	17798
890.006	17901
890.13	17988
890.254	17882
890.377	17707
890.501	17707
890.624	17649
890.748	17707
890.871	17623
890.995	17478
891.118	17406
891.241	17592
891.364	17509
891.488	17722
891.611	17535
891.734	17566
891.857	17687
891.98	17497
892.103	17668
892.226	17528
892.349	17467
892.471	17269
892.594	17414
892.717	17490
892.839	17505
892.962	17493
893.085	17501
893.207	17421
893.33	17318
893.452	17341
893.575	17516
893.697	17471
893.819	17638
893.941	17638
894.064	17649
894.186	17448
894.308	17334
894.43	17543
894.552	17695
894.674	17615
894.796	17345
894.918	17448
895.04	17455
895.161	17554
895.283	17524
895.405	17421
895.526	17509
895.648	17524
895.769	17421
895.891	17543
896.012	17672
896.134	17623
896.255	17577
896.376	17532
896.498	17589
896.619	17619
896.74	17554
896.861	17687
896.982	17897
897.103	18019
897.224	17897
897.345	17786
897.466	17703
897.587	17832
897.708	17942
897.828	17821
897.949	17802
898.07	17627
898.19	17786
898.311	17874
898.431	17764
898.552	17790
898.672	17805
898.792	17988
898.913	17783
899.033	17767
899.153	17638
899.273	17448
899.393	17600
899.513	17554
899.633	17455
899.753	17604
899.873	17493
899.993	17680
900.113	17577
900.232	17562
900.352	17570
900.472	17463
900.591	17440
900.711	17512
900.83	17452
900.95	17474
901.069	17471
901.189	17360
901.308	17124
901.427	17060
901.546	17052
901.665	17014
901.784	17018
901.904	16835
902.023	16862
902.141	16664
902.26	16599
902.379	16584
902.498	16508
902.617	16599
902.735	16565
902.854	16481
902.973	16424
903.091	16272
903.21	16207
903.328	16204
903.446	16120
903.565	16055
903.683	15983
903.801	15937
903.919	16120
904.038	16036
904.156	15804
904.274	15892
904.392	15793
904.51	15842
904.627	15747
904.745	15831
904.863	15915
904.981	15595
905.098	15538
905.216	15466
905.334	15576
905.451	15610
905.569	15549
905.686	15610
905.803	15507
905.921	15241
906.038	15374
906.155	15344
906.272	15241
906.389	15218
906.506	15097
906.623	15047
906.74	15146
906.857	14944
906.974	14941
907.091	15173
907.208	15146
907.324	15047
907.441	14998
907.557	14883
907.674	14838
907.79	14651
907.907	14731
908.023	14716
908.139	14735
908.256	14727
908.372	14670
908.488	14606
908.604	14514
908.72	14431
908.836	14530
908.952	14473
909.068	14476
909.184	14560
909.3	14461
909.415	14587
909.531	14488
909.647	14161
909.762	14176
909.878	14191
909.993	14233
910.108	14130
910.224	14195
910.339	14210
910.454	14084
910.57	14062
910.685	13963
910.8	14275
910.915	14130
911.03	14035
911.145	13978
911.259	13818
911.374	13799
911.489	13811
911.604	13719
911.718	13609
911.833	13571
911.947	13491
912.062	13499
912.176	13544
912.291	13628
912.405	13559
912.519	13830
912.633	13811
912.748	13647
912.862	13548
912.976	13472
913.09	13266
913.204	13335
913.318	13441
913.431	13567
913.545	13487
913.659	13407
913.772	13388
913.886	13282
914	13194
914.113	13441
914.226	13358
914.34	13346
914.453	13137
914.566	13274
914.68	13156
914.793	13145
914.906	13031
915.019	12939
915.132	12878
915.245	12939
915.358	12943
915.47	13019
915.583	12977
915.696	12977
915.809	13065
915.921	13061
916.034	12901
916.146	12856
916.259	12920
916.371	12928
916.483	12882
916.595	12856
916.708	12848
916.82	12779
916.932	12783
917.044	12840
917.156	12848
917.268	12669
917.38	12650
917.491	12631
917.603	12662
917.715	12741
917.826	12768
917.938	12601
918.049	12498
918.161	12639
918.272	12802
918.384	12734
918.495	12642
918.606	12544
918.717	12384
918.828	12460
918.939	12433
919.05	12391
919.161	12399
919.272	12224
919.383	12285
919.494	12517
919.604	12654
919.715	12471
919.826	12330
919.936	12426
920.047	12521
920.157	12475
920.267	12623
920.378	12448
920.488	12403
920.598	12612
920.708	12791
920.818	12601
920.928	12555
921.038	12669
921.148	12779
921.258	12395
921.368	12365
921.477	12167
921.587	12285
921.697	12015
921.806	12262
921.916	12129
922.025	11935
922.134	11931
922.244	11897
922.353	11935
922.462	11836
922.571	11695
922.68	11634
922.789	11516
922.898	11600
923.007	11581
923.116	11577
923.224	11543
923.333	11581
923.442	11326
923.55	11455
923.659	11459
923.767	11486
923.876	11360
923.984	11360
924.092	11269
924.201	11425
924.309	11330
924.417	11261
924.525	11258
924.633	11383
924.741	12224
924.849	11151
924.956	11242
925.064	11083
925.172	10984
925.279	11052
925.387	11086
925.494	11064
925.602	11147
925.709	11079
925.816	11029
925.924	11090
926.031	11121
926.138	11006
926.245	11155
926.352	10949
926.459	11037
926.566	11124
926.673	10976
926.779	10911
926.886	10866
926.993	10824
927.099	10717
927.206	10672
927.312	10626
927.419	10790
927.525	10653
927.631	10717
927.737	10672
927.843	10573
927.95	10443
928.056	10569
928.162	10649
928.267	10538
928.373	11223
928.479	10634
928.585	10379
928.69	10466
928.796	10535
928.901	10405
929.007	10284
929.112	10474
929.218	10451
929.323	10322
929.428	10337
929.533	10428
929.638	10219
929.743	10341
929.848	10356
929.953	10280
930.058	10234
930.163	10029
930.267	10002
930.372	10215
930.477	9979
930.581	10238
930.685	10078
930.79	9934
930.894	9960
930.998	9934
931.103	10036
931.207	9709
931.311	9641
931.415	9542
931.519	9374
931.623	9389
