Data from test_V78500241_1229.txt Node
Date: Fri Mar 25 14:42:16 CST 2022
User: usil
Spectrometer: V785-0024
Trigger mode: 0
Integration Time (sec): 4.000000E-1
Scans to average: 1
Nonlinearity correction enabled: false
Boxcar width: 0
Storing dark spectrum: false
XAxis mode: Wavelengths
Number of Pixels in Spectrum: 1024
>>>>>Begin Spectral Data<<<<<
801.071	22447
801.214	22242
801.356	21975
801.499	21987
801.641	21675
801.783	21800
801.926	21755
802.068	21587
802.211	21534
802.353	21485
802.496	21249
802.638	21283
802.78	21298
802.923	21203
803.065	21077
803.208	21066
803.35	21154
803.492	21203
803.635	21138
803.777	21032
803.919	21173
804.061	21401
804.204	21123
804.346	21085
804.488	20887
804.63	21013
804.773	20853
804.915	21077
805.057	21142
805.199	21131
805.341	21047
805.483	21154
805.626	21028
805.768	20979
805.91	21039
806.052	20937
806.194	20857
806.336	21150
806.478	21036
806.62	20876
806.762	20994
806.904	21180
807.046	21420
807.188	21272
807.33	21306
807.472	21302
807.614	21222
807.756	21241
807.898	21256
808.04	21032
808.182	21081
808.324	21024
808.465	21176
808.607	21321
808.749	21473
808.891	21485
809.033	21629
809.174	21542
809.316	21447
809.458	21389
809.6	21359
809.741	21466
809.883	21553
810.025	21534
810.166	21622
810.308	21542
810.45	21538
810.591	21359
810.733	21317
810.875	21195
811.016	21062
811.158	21066
811.299	21214
811.441	21317
811.582	21256
811.724	21074
811.865	21116
812.007	21195
812.148	21188
812.29	21249
812.431	21298
812.573	21473
812.714	21431
812.855	21610
812.997	21797
813.138	21941
813.279	21591
813.421	21637
813.562	21561
813.703	21389
813.845	21317
813.986	21096
814.127	20845
814.268	20785
814.41	20895
814.551	20811
814.692	20739
814.833	20621
814.974	20640
815.115	20693
815.256	20613
815.397	20552
815.539	20587
815.68	20377
815.821	20381
815.962	20526
816.103	20431
816.244	20305
816.385	20180
816.526	20252
816.666	20126
816.807	19822
816.948	19925
817.089	19947
817.23	19997
817.371	19917
817.512	19913
817.653	19856
817.793	19830
817.934	19818
818.075	19982
818.216	19860
818.356	19795
818.497	19795
818.638	19502
818.778	19723
818.919	19430
819.06	19578
819.2	19670
819.341	19807
819.481	19776
819.622	19811
819.762	20043
819.903	20054
820.043	19909
820.184	19875
820.324	19830
820.465	19951
820.605	19936
820.746	19993
820.886	19833
821.026	19845
821.167	19818
821.307	19944
821.447	19788
821.588	19639
821.728	19643
821.868	19430
822.008	19202
822.149	19198
822.289	19225
822.429	18973
822.569	18962
822.709	19015
822.849	18738
822.99	18760
823.13	18722
823.27	18741
823.41	18604
823.55	18498
823.69	18540
823.83	18650
823.97	18441
824.11	18323
824.25	18338
824.389	18357
824.529	18410
824.669	18429
824.809	18338
824.949	18380
825.089	18342
825.228	18342
825.368	18216
825.508	18129
825.648	18148
825.787	18125
825.927	18201
826.067	18068
826.206	18034
826.346	18060
826.485	18129
826.625	18178
826.765	18163
826.904	18174
827.044	17893
827.183	17904
827.323	17779
827.462	17889
827.601	17832
827.741	17843
827.88	17790
828.02	17760
828.159	17863
828.298	17813
828.437	17847
828.577	17874
828.716	17984
828.855	17843
828.994	17570
829.134	17596
829.273	17707
829.412	17539
829.551	17478
829.69	17528
829.829	17512
829.968	17722
830.107	17608
830.246	17577
830.385	17490
830.524	17429
830.663	17532
830.802	17307
830.941	17174
831.08	17178
831.219	17379
831.357	17296
831.496	17395
831.635	17090
831.774	17124
831.913	17136
832.051	17010
832.19	17037
832.329	17048
832.467	16953
832.606	16976
832.744	16854
832.883	16938
833.022	16805
833.16	17014
833.299	16915
833.437	16938
833.576	16908
833.714	16972
833.852	16904
833.991	17003
834.129	17045
834.267	16942
834.406	16999
834.544	17006
834.682	16881
834.821	16908
834.959	17079
835.097	16972
835.235	17048
835.373	16972
835.511	16942
835.65	16900
835.788	16904
835.926	16668
836.064	16713
836.202	16729
836.34	16900
836.478	16965
836.615	16862
836.753	16915
836.891	16911
837.029	16858
837.167	16763
837.305	16850
837.443	16782
837.58	16645
837.718	16911
837.856	16790
837.993	16615
838.131	16694
838.269	16717
838.406	16698
838.544	16672
838.681	16421
838.819	16417
838.956	16329
839.094	16322
839.231	16394
839.369	16504
839.506	16721
839.643	16538
839.781	16440
839.918	16253
840.055	16287
840.193	16257
840.33	16352
840.467	16238
840.604	16382
840.742	16649
840.879	16246
841.016	16181
841.153	16169
841.29	16375
841.427	16375
841.564	16310
841.701	16421
841.838	16219
841.975	16192
842.112	16207
842.249	16124
842.385	16074
842.522	16249
842.659	16002
842.796	16044
842.933	16090
843.069	16044
843.206	16078
843.343	16162
843.479	16074
843.616	16192
843.752	15941
843.889	15789
844.025	15987
844.162	15873
844.298	15937
844.435	15888
844.571	15804
844.708	15926
844.844	15975
844.98	16032
845.117	15888
845.253	15766
845.389	15663
845.525	15838
845.661	15778
845.798	15793
845.934	15838
846.07	15633
846.206	15800
846.342	15892
846.478	15686
846.614	15625
846.75	15374
846.886	15500
847.022	15576
847.158	15401
847.294	15416
847.429	15542
847.565	15420
847.701	15675
847.837	15233
847.972	15237
848.108	15313
848.244	15241
848.379	15157
848.515	15009
848.65	14948
848.786	15051
848.921	15089
849.057	15180
849.192	15157
849.328	15089
849.463	15081
849.598	14971
849.734	14929
849.869	14880
850.004	14876
850.14	14830
850.275	14773
850.41	14735
850.545	14746
850.68	14762
850.815	14800
850.95	14735
851.085	14925
851.22	14842
851.355	14781
851.49	14834
851.625	14724
851.76	14785
851.895	14674
852.03	14610
852.165	14697
852.299	14800
852.434	14857
852.569	14899
852.703	14857
852.838	14849
852.973	14906
853.107	14849
853.242	14724
853.376	14670
853.511	14473
853.645	14644
853.78	14716
853.914	14663
854.048	14629
854.183	14537
854.317	14705
854.451	14899
854.585	14583
854.72	14640
854.854	14716
854.988	14625
855.122	14621
855.256	14518
855.39	14655
855.524	14674
855.658	14682
855.792	14682
855.926	14625
856.06	14758
856.194	14785
856.327	14708
856.461	14594
856.595	14476
856.729	14613
856.862	14727
856.996	14678
857.13	14720
857.263	14678
857.397	14819
857.53	14625
857.664	14674
857.797	14758
857.931	14686
858.064	14693
858.197	14823
858.331	14716
858.464	14701
858.597	14598
858.731	14689
858.864	14701
858.997	14648
859.13	14674
859.263	14731
859.396	14610
859.529	14632
859.662	14655
859.795	14564
859.928	14705
860.061	14883
860.194	14819
860.327	14697
860.46	14629
860.592	14731
860.725	14705
860.858	14826
860.99	14621
861.123	14518
861.256	14571
861.388	14712
861.521	15355
861.653	14602
861.786	14488
861.918	14564
862.05	14579
862.183	14632
862.315	14613
862.447	14632
862.58	14629
862.712	14454
862.844	14358
862.976	14488
863.108	14480
863.24	14952
863.372	14332
863.504	14427
863.636	14427
863.768	14488
863.9	14446
864.032	14278
864.164	14339
864.296	14476
864.428	14541
864.559	14503
864.691	14492
864.823	14465
864.954	14480
865.086	14385
865.217	14389
865.349	14412
865.48	14385
865.612	14537
865.743	14514
865.875	14358
866.006	14484
866.137	14454
866.269	14446
866.4	14507
866.531	14275
866.662	14263
866.793	14336
866.924	14377
867.055	14400
867.186	14427
867.317	14389
867.448	14271
867.579	14336
867.71	14305
867.841	14320
867.972	14385
868.103	14412
868.233	14438
868.364	14415
868.495	14556
868.625	14697
868.756	14804
868.886	14511
869.017	14651
869.147	14807
869.278	14769
869.408	14724
869.539	14625
869.669	14834
869.799	14712
869.929	14826
870.06	14769
870.19	14880
870.32	14948
870.45	15028
870.58	15005
870.71	15176
870.84	15214
870.97	15036
871.1	15116
871.23	15256
871.36	15249
871.489	15085
871.619	15207
871.749	15211
871.879	15230
872.008	15313
872.138	15252
872.267	15256
872.397	15150
872.526	15146
872.656	15024
872.785	15077
872.915	15325
873.044	15408
873.173	15302
873.303	15272
873.432	15344
873.561	15264
873.69	15340
873.819	15233
873.948	15382
874.077	15344
874.206	15291
874.335	15252
874.464	15519
874.593	15603
874.722	15587
874.851	15652
874.979	15739
875.108	15641
875.237	15633
875.365	15530
875.494	15534
875.623	15747
875.751	15561
875.88	15682
876.008	15819
876.136	15835
876.265	16006
876.393	16192
876.521	16173
876.65	16101
876.778	16090
876.906	15937
877.034	15983
877.162	15975
877.29	15934
877.418	15979
877.546	16021
877.674	16055
877.802	15983
877.93	16074
878.058	15987
878.185	15930
878.313	16032
878.441	16040
878.568	15968
878.696	15991
878.824	16116
878.951	16265
879.079	16131
879.206	16310
879.333	16215
879.461	16063
879.588	16074
879.715	16242
879.842	16386
879.97	16192
880.097	15915
880.224	15884
880.351	15861
880.478	15892
880.605	15789
880.732	15884
880.859	16059
880.986	15934
881.112	15998
881.239	15747
881.366	15610
881.493	15587
881.619	15591
881.746	15561
881.872	15450
881.999	15614
882.125	15431
882.252	15545
882.378	15591
882.505	15778
882.631	15462
882.757	15340
882.883	15325
883.01	15389
883.136	15382
883.262	15222
883.388	15161
883.514	15325
883.64	15412
883.766	15272
883.892	15173
884.018	15245
884.143	15355
884.269	15507
884.395	15176
884.52	15074
884.646	14960
884.772	15001
884.897	14963
885.023	14956
885.148	15150
885.274	15184
885.399	15211
885.524	15066
885.65	15055
885.775	15074
885.9	15039
886.025	15169
886.15	15081
886.275	15081
886.4	14906
886.525	14944
886.65	14948
886.775	15089
886.9	15150
887.025	15294
887.149	15043
887.274	14830
887.399	14838
887.523	14910
887.648	14758
887.773	14845
887.897	14925
888.021	15005
888.146	14952
888.27	15055
888.395	14963
888.519	14937
888.643	14960
888.767	14876
888.891	14796
889.015	14739
889.139	14750
889.263	14610
889.387	14777
889.511	14971
889.635	14876
889.759	14705
889.883	14731
890.006	14864
890.13	14773
890.254	14716
890.377	14644
890.501	14526
890.624	14518
890.748	14545
890.871	14423
890.995	14339
891.118	14366
891.241	14480
891.364	14393
891.488	14431
891.611	14423
891.734	14423
891.857	14545
891.98	14526
892.103	14450
892.226	14442
892.349	14473
892.471	14290
892.594	14358
892.717	14370
892.839	14396
892.962	14431
893.085	14511
893.207	14454
893.33	14210
893.452	14290
893.575	14419
893.697	14362
893.819	14575
893.941	14610
894.064	14537
894.186	14431
894.308	14457
894.43	14556
894.552	14552
894.674	14629
894.796	14343
894.918	14499
895.04	14450
895.161	14533
895.283	14583
895.405	14450
895.526	14488
895.648	14606
895.769	14541
895.891	14640
896.012	14678
896.134	14697
896.255	14598
896.376	14457
896.498	14518
896.619	14640
896.74	14530
896.861	14644
896.982	14918
897.103	15150
897.224	14944
897.345	14845
897.466	14849
897.587	14800
897.708	14971
897.828	14906
897.949	14838
898.07	14750
898.19	14769
898.311	14990
898.431	14899
898.552	14948
898.672	14887
898.792	15009
898.913	14971
899.033	14868
899.153	14819
899.273	14541
899.393	14746
899.513	14670
899.633	14823
899.753	14750
899.873	14670
899.993	14769
900.113	14750
900.232	14716
900.352	14712
900.472	14701
900.591	14583
900.711	14667
900.83	14503
900.95	14670
901.069	14746
901.189	14617
901.308	14336
901.427	14252
901.546	14256
901.665	14336
901.784	14381
901.904	14164
902.023	14142
902.141	13841
902.26	13875
902.379	13917
902.498	13909
902.617	13742
902.735	13887
902.854	13822
902.973	13734
903.091	13518
903.21	13651
903.328	13616
903.446	13525
903.565	13343
903.683	13457
903.801	13358
903.919	13362
904.038	13365
904.156	13187
904.274	13320
904.392	13194
904.51	13263
904.627	13206
904.745	13407
904.863	13312
904.981	13023
905.098	12886
905.216	12977
905.334	13015
905.451	13000
905.569	12863
905.686	13046
905.803	12909
905.921	12760
906.038	12897
906.155	12779
906.272	12597
906.389	12696
906.506	12563
906.623	12486
906.74	12490
906.857	12452
906.974	12418
907.091	12593
907.208	12623
907.324	12566
907.441	12437
907.557	12289
907.674	12224
907.79	12216
907.907	12270
908.023	12304
908.139	12270
908.256	12178
908.372	12144
908.488	12121
908.604	12038
908.72	11950
908.836	11988
908.952	11969
909.068	12026
909.184	12194
909.3	11855
909.415	12041
909.531	11946
909.647	11859
909.762	11779
909.878	11824
909.993	11821
910.108	11710
910.224	11783
910.339	11786
910.454	11771
910.57	11703
910.685	11630
910.8	11851
910.915	11783
911.03	11699
911.145	11516
911.259	11471
911.374	11391
911.489	11391
911.604	11288
911.718	11197
911.833	11307
911.947	11105
912.062	10984
912.176	11170
912.291	11273
912.405	11212
912.519	11421
912.633	11467
912.748	11280
912.862	11227
912.976	11147
913.09	11079
913.204	11056
913.318	11185
913.431	11174
913.545	11208
913.659	11250
913.772	11128
913.886	11041
914	10995
914.113	11113
914.226	11223
914.34	11109
914.453	10908
914.566	11109
914.68	11003
914.793	10877
914.906	10774
915.019	10736
915.132	10649
915.245	10843
915.358	10793
915.47	10835
915.583	10790
915.696	10828
915.809	10885
915.921	10873
916.034	10812
916.146	10691
916.259	10763
916.371	10850
916.483	10767
916.595	10664
916.708	10714
916.82	10736
916.932	10694
917.044	10672
917.156	10683
917.268	10493
917.38	10660
917.491	10607
917.603	10558
917.715	10599
917.826	10637
917.938	10588
918.049	10584
918.161	10596
918.272	10706
918.384	10767
918.495	10660
918.606	10443
918.717	10432
918.828	10519
918.939	10462
919.05	10436
919.161	10409
919.272	10215
919.383	10352
919.494	10512
919.604	10752
919.715	10459
919.826	10424
919.936	10424
920.047	10569
920.157	10497
920.267	10698
920.378	10504
920.488	10409
920.598	10637
920.708	10816
920.818	10679
920.928	10626
921.038	10812
921.148	10733
921.258	10531
921.368	10405
921.477	10310
921.587	10295
921.697	10238
921.806	10360
921.916	10173
922.025	10082
922.134	10021
922.244	9960
922.353	10036
922.462	9865
922.571	9797
922.68	9701
922.789	9686
922.898	9747
923.007	9736
923.116	9755
923.224	9701
923.333	9736
923.442	9538
923.55	9561
923.659	9545
923.767	9736
923.876	9622
923.984	9625
924.092	9466
924.201	9625
924.309	9641
924.417	9572
924.525	9477
924.633	9538
924.741	10291
924.849	9367
924.956	9584
925.064	9313
925.172	9279
925.279	9298
925.387	9386
925.494	9336
925.602	9485
925.709	9401
925.816	9260
925.924	9397
926.031	9435
926.138	9336
926.245	9367
926.352	9321
926.459	9401
926.566	9382
926.673	9401
926.779	9249
926.886	9173
926.993	9005
927.099	9070
927.206	8990
927.312	9047
927.419	9116
927.525	9097
927.631	9116
927.737	9017
927.843	8925
927.95	8823
928.056	8967
928.162	8990
928.267	8944
928.373	9614
928.479	9100
928.585	8876
928.69	8948
928.796	8849
928.901	8845
929.007	8750
929.112	8929
929.218	8857
929.323	8800
929.428	8708
929.533	8849
929.638	8697
929.743	8769
929.848	8739
929.953	8800
930.058	8689
930.163	8457
930.267	8492
930.372	8674
930.477	8492
930.581	8651
930.685	8598
930.79	8484
930.894	8518
930.998	8480
931.103	8587
931.207	8339
931.311	8282
931.415	8187
931.519	7963
931.623	7982
