Data from test_V78500241_196.txt Node
Date: Fri Mar 25 14:35:05 CST 2022
User: usil
Spectrometer: V785-0024
Trigger mode: 0
Integration Time (sec): 4.000000E-1
Scans to average: 1
Nonlinearity correction enabled: false
Boxcar width: 0
Storing dark spectrum: false
XAxis mode: Wavelengths
Number of Pixels in Spectrum: 1024
>>>>>Begin Spectral Data<<<<<
801.071	28200
801.214	28044
801.356	27804
801.499	27789
801.641	27599
801.783	27644
801.926	27720
802.068	27511
802.211	27427
802.353	27382
802.496	27089
802.638	27195
802.78	27112
802.923	27055
803.065	27055
803.208	27173
803.35	27135
803.492	27184
803.635	27279
803.777	27131
803.919	27180
804.061	27583
804.204	27180
804.346	27043
804.488	27032
804.63	27077
804.773	27051
804.915	27116
805.057	27230
805.199	27131
805.341	27226
805.483	27245
805.626	27256
805.768	27173
805.91	27230
806.052	27157
806.194	27119
806.336	27397
806.478	27359
806.62	27233
806.762	27321
806.904	27454
807.046	27637
807.188	27701
807.33	27644
807.472	27880
807.614	27720
807.756	27736
807.898	27644
808.04	27660
808.182	27797
808.324	27934
808.465	27857
808.607	28276
808.749	28561
808.891	28767
809.033	28691
809.174	28398
809.316	28493
809.458	28211
809.6	28166
809.741	28013
809.883	27998
810.025	27975
810.166	28093
810.308	28048
810.45	27926
810.591	27785
810.733	27816
810.875	27637
811.016	27648
811.158	27568
811.299	27622
811.441	27660
811.582	27705
811.724	27557
811.865	27481
812.007	27675
812.148	27561
812.29	27675
812.431	27724
812.573	27819
812.714	28006
812.855	27991
812.997	28082
813.138	28192
813.279	28021
813.421	28017
813.562	27892
813.703	27808
813.845	27705
813.986	27431
814.127	27306
814.268	27142
814.41	27211
814.551	27100
814.692	27161
814.833	26979
814.974	26956
815.115	27020
815.256	26921
815.397	26902
815.539	26971
815.68	26762
815.821	26849
815.962	26807
816.103	26701
816.244	26583
816.385	26549
816.526	26621
816.666	26366
816.807	26142
816.948	26309
817.089	26385
817.23	26252
817.371	26164
817.512	26225
817.653	26176
817.793	26111
817.934	26244
818.075	26218
818.216	26206
818.356	26077
818.497	26012
818.638	25883
818.778	25978
818.919	25925
819.06	25955
819.2	26164
819.341	26115
819.481	26092
819.622	26202
819.762	26385
819.903	26374
820.043	26240
820.184	26115
820.324	26176
820.465	26233
820.605	26153
820.746	26183
820.886	26024
821.026	26096
821.167	26001
821.307	26210
821.447	26073
821.588	25906
821.728	25921
821.868	25719
822.008	25483
822.149	25483
822.289	25521
822.429	25301
822.569	25137
822.709	25095
822.849	25008
822.99	24947
823.13	24989
823.27	24806
823.41	24711
823.55	24753
823.69	24894
823.83	24711
823.97	24757
824.11	24517
824.25	24490
824.389	24426
824.529	24620
824.669	24479
824.809	24700
824.949	24559
825.089	24574
825.228	24528
825.368	24422
825.508	24395
825.648	24372
825.787	24433
825.927	24509
826.067	24277
826.206	24376
826.346	24270
826.485	24407
826.625	24220
826.765	24422
826.904	24353
827.044	24064
827.183	24026
827.323	23996
827.462	24167
827.601	24045
827.741	23999
827.88	23908
828.02	24007
828.159	23973
828.298	23901
828.437	24083
828.577	23961
828.716	24117
828.855	23984
828.994	23714
829.134	23775
829.273	23748
829.412	23726
829.551	23680
829.69	23619
829.829	23646
829.968	23680
830.107	23745
830.246	23745
830.385	23535
830.524	23627
830.663	23459
830.802	23497
830.941	23334
831.08	23254
831.219	23349
831.357	23360
831.496	23535
831.635	23345
831.774	23048
831.913	23075
832.051	23067
832.19	23067
832.329	23006
832.467	22877
832.606	22904
832.744	22862
832.883	22858
833.022	22854
833.16	22824
833.299	22923
833.437	22915
833.576	23006
833.714	22953
833.852	22972
833.991	23003
834.129	23071
834.267	22904
834.406	22942
834.544	22904
834.682	22934
834.821	22946
834.959	23128
835.097	22839
835.235	23025
835.373	22927
835.511	22824
835.65	22698
835.788	22854
835.926	22675
836.064	22516
836.202	22489
836.34	22664
836.478	22809
836.615	22637
836.753	22797
836.891	22774
837.029	22702
837.167	22698
837.305	22626
837.443	22481
837.58	22531
837.718	22577
837.856	22485
837.993	22455
838.131	22440
838.269	22303
838.406	22535
838.544	22390
838.681	22257
838.819	21991
838.956	21956
839.094	22032
839.231	22044
839.369	22116
839.506	22371
839.643	22207
839.781	21873
839.918	21854
840.055	21964
840.193	21850
840.33	21846
840.467	21846
840.604	21789
840.742	22078
840.879	21789
841.016	21755
841.153	21808
841.29	21949
841.427	21876
841.564	21911
841.701	21895
841.838	21930
841.975	21766
842.112	21827
842.249	21644
842.385	21686
842.522	21800
842.659	21599
842.796	21587
842.933	21587
843.069	21583
843.206	21610
843.343	21637
843.479	21454
843.616	21519
843.752	21325
843.889	21416
844.025	21466
844.162	21340
844.298	21340
844.435	21310
844.571	21230
844.708	21378
844.844	21466
844.98	21549
845.117	21561
845.253	21348
845.389	21370
845.525	21469
845.661	21766
845.798	21998
845.934	22356
846.07	22219
846.206	22200
846.342	22036
846.478	21625
846.614	21317
846.75	20944
846.886	20979
847.022	20975
847.158	21017
847.294	20975
847.429	20792
847.565	20644
847.701	20967
847.837	20473
847.972	20358
848.108	20571
848.244	20621
848.379	20282
848.515	20294
848.65	20320
848.786	20309
848.921	20142
849.057	20347
849.192	20309
849.328	20499
849.463	20286
849.598	20305
849.734	20240
849.869	20088
850.004	20088
850.14	20122
850.275	19989
850.41	19978
850.545	20020
850.68	19982
850.815	20062
850.95	20088
851.085	20240
851.22	19997
851.355	20012
851.49	19921
851.625	19833
851.76	19959
851.895	19871
852.03	19837
852.165	19913
852.299	20008
852.434	20012
852.569	20035
852.703	20020
852.838	20024
852.973	20050
853.107	20122
853.242	19982
853.376	19860
853.511	19700
853.645	19871
853.78	19932
853.914	19864
854.048	19791
854.183	19719
854.317	19845
854.451	20001
854.585	19723
854.72	19852
854.854	19864
854.988	19803
855.122	19727
855.256	19605
855.39	19750
855.524	19868
855.658	19860
855.792	19894
855.926	19906
856.06	19890
856.194	19970
856.327	19811
856.461	19685
856.595	19712
856.729	19723
856.862	19951
856.996	19822
857.13	19852
857.263	19989
857.397	19936
857.53	19864
857.664	19803
857.797	19814
857.931	19860
858.064	19791
858.197	19974
858.331	19830
858.464	19628
858.597	19769
858.731	19620
858.864	19700
858.997	19681
859.13	19807
859.263	19750
859.396	19921
859.529	19613
859.662	19750
859.795	19712
859.928	19727
860.061	19906
860.194	19925
860.327	19662
860.46	19719
860.592	19788
860.725	19791
860.858	19731
860.99	19811
861.123	19708
861.256	19635
861.388	19685
861.521	20393
861.653	19605
861.786	19529
861.918	19544
862.05	19738
862.183	19761
862.315	19849
862.447	19864
862.58	19681
862.712	19586
862.844	19426
862.976	19559
863.108	19548
863.24	19780
863.372	19468
863.504	19514
863.636	19445
863.768	19476
863.9	19510
864.032	19495
864.164	19301
864.296	19613
864.428	19537
864.559	19502
864.691	19483
864.823	19518
864.954	19312
865.086	19483
865.217	19430
865.349	19320
865.48	19327
865.612	19274
865.743	19430
865.875	19381
866.006	19434
866.137	19327
866.269	19384
866.4	19358
866.531	19350
866.662	19244
866.793	19247
866.924	19343
867.055	19358
867.186	19320
867.317	19255
867.448	19194
867.579	19187
867.71	19175
867.841	19179
867.972	19244
868.103	19407
868.233	19365
868.364	19308
868.495	19419
868.625	19483
868.756	19472
868.886	19400
869.017	19415
869.147	19601
869.278	19613
869.408	19521
869.539	19495
869.669	19567
869.799	19495
869.929	19605
870.06	19441
870.19	19795
870.32	19795
870.45	19894
870.58	19852
870.71	20084
870.84	20008
870.97	19959
871.1	19982
871.23	20130
871.36	20043
871.489	19978
871.619	20043
871.749	20005
871.879	20138
872.008	20221
872.138	20092
872.267	20062
872.397	19868
872.526	19925
872.656	20115
872.785	20016
872.915	20172
873.044	20195
873.173	20180
873.303	20069
873.432	20149
873.561	20252
873.69	20119
873.819	20195
873.948	20153
874.077	20248
874.206	20088
874.335	20126
874.464	20320
874.593	20351
874.722	20370
874.851	20419
874.979	20484
875.108	20381
875.237	20271
875.365	20332
875.494	20400
875.623	20541
875.751	20412
875.88	20389
876.008	20594
876.136	20686
876.265	20777
876.393	20906
876.521	20883
876.65	20937
876.778	20842
876.906	20796
877.034	20834
877.162	20800
877.29	20651
877.418	20921
877.546	20906
877.674	20842
877.802	20853
877.93	20857
878.058	20773
878.185	20602
878.313	20739
878.441	20929
878.568	20731
878.696	20826
878.824	20944
878.951	21142
879.079	21241
879.206	21431
879.333	21408
879.461	21431
879.588	21519
879.715	21507
879.842	21557
879.97	21363
880.097	20975
880.224	20967
880.351	20891
880.478	20902
880.605	20781
880.732	20800
880.859	21020
880.986	20902
881.112	20861
881.239	20674
881.366	20625
881.493	20438
881.619	20381
881.746	20438
881.872	20442
881.999	20237
882.125	20301
882.252	20469
882.378	20351
882.505	20438
882.631	20221
882.757	20267
882.883	20138
883.01	20202
883.136	20020
883.262	19932
883.388	19955
883.514	20191
883.64	20252
883.766	20199
883.892	19989
884.018	20005
884.143	20054
884.269	20161
884.395	19936
884.52	19803
884.646	19852
884.772	19750
884.897	19635
885.023	19833
885.148	19830
885.274	19921
885.399	19841
885.524	19822
885.65	19662
885.775	19780
885.9	19723
886.025	19830
886.15	19913
886.275	19742
886.4	19552
886.525	19719
886.65	19731
886.775	19620
886.9	19776
887.025	19890
887.149	19540
887.274	19533
887.399	19468
887.523	19559
887.648	19373
887.773	19381
887.897	19472
888.021	19476
888.146	19403
888.27	19457
888.395	19616
888.519	19445
888.643	19407
888.767	19510
888.891	19453
889.015	19164
889.139	19327
889.263	19312
889.387	19339
889.511	19449
889.635	19301
889.759	19228
889.883	19080
890.006	19274
890.13	19388
890.254	19038
890.377	19187
890.501	18886
890.624	18894
890.748	18924
890.871	18844
890.995	18753
891.118	18673
891.241	18738
891.364	18886
891.488	18894
891.611	18802
891.734	18859
891.857	18833
891.98	18639
892.103	18798
892.226	18859
892.349	18722
892.471	18601
892.594	18734
892.717	18707
892.839	18741
892.962	18878
893.085	18722
893.207	18741
893.33	18593
893.452	18650
893.575	18711
893.697	18688
893.819	18913
893.941	18909
894.064	18779
894.186	18608
894.308	18635
894.43	18711
894.552	18844
894.674	18760
894.796	18734
894.918	18745
895.04	18684
895.161	18772
895.283	18795
895.405	18627
895.526	18597
895.648	18616
895.769	18798
895.891	18817
896.012	18852
896.134	18711
896.255	18719
896.376	18688
896.498	18783
896.619	18787
896.74	18909
896.861	18852
896.982	19190
897.103	19247
897.224	19072
897.345	19008
897.466	18947
897.587	18981
897.708	19187
897.828	19126
897.949	18867
898.07	18787
898.19	18882
898.311	19034
898.431	18947
898.552	19012
898.672	19095
898.792	19091
898.913	18928
899.033	18878
899.153	18730
899.273	18601
899.393	18711
899.513	18722
899.633	18700
899.753	18776
899.873	18612
899.993	18707
900.113	18654
900.232	18749
900.352	18642
900.472	18604
900.591	18494
900.711	18528
900.83	18464
900.95	18681
901.069	18692
901.189	18486
901.308	18369
901.427	18254
901.546	18125
901.665	18114
901.784	18152
901.904	17965
902.023	17939
902.141	17729
902.26	17699
902.379	17813
902.498	17611
902.617	17680
902.735	17596
902.854	17581
902.973	17589
903.091	17334
903.21	17292
903.328	17337
903.446	17223
903.565	17136
903.683	17208
903.801	17003
903.919	17181
904.038	17090
904.156	16976
904.274	17064
904.392	16919
904.51	16812
904.627	16843
904.745	16881
904.863	16995
904.981	16683
905.098	16561
905.216	16565
905.334	16569
905.451	16519
905.569	16516
905.686	16485
905.803	16523
905.921	16390
906.038	16462
906.155	16306
906.272	16223
906.389	16276
906.506	16135
906.623	16044
906.74	16090
906.857	15960
906.974	16051
907.091	16139
907.208	16188
907.324	16128
907.441	15865
907.557	15857
907.674	15819
907.79	15732
907.907	15751
908.023	15831
908.139	15793
908.256	15705
908.372	15648
908.488	15652
908.604	15534
908.72	15606
908.836	15523
908.952	15523
909.068	15355
909.184	15549
909.3	15424
909.415	15492
909.531	15443
909.647	15188
909.762	15097
909.878	15176
909.993	15127
910.108	15184
910.224	15233
910.339	15192
910.454	15005
910.57	14975
910.685	14979
910.8	15165
910.915	15089
911.03	15036
911.145	14811
911.259	14826
911.374	14758
911.489	14758
911.604	14693
911.718	14549
911.833	14522
911.947	14415
912.062	14393
912.176	14522
912.291	14431
912.405	14530
912.519	14708
912.633	14610
912.748	14613
912.862	14446
912.976	14370
913.09	14195
913.204	14275
913.318	14415
913.431	14476
913.545	14473
913.659	14381
913.772	14252
913.886	14145
914	14088
914.113	14248
914.226	14320
914.34	14256
914.453	14088
914.566	14221
914.68	14043
914.793	14092
914.906	13940
915.019	13818
915.132	13727
915.245	13822
915.358	13822
915.47	13799
915.583	13788
915.696	13963
915.809	13997
915.921	13913
916.034	13753
916.146	13719
916.259	13597
916.371	13704
916.483	13788
916.595	13689
916.708	13628
916.82	13670
916.932	13666
917.044	13674
917.156	13620
917.268	13567
917.38	13506
917.491	13445
917.603	13521
917.715	13582
917.826	13670
917.938	13559
918.049	13369
918.161	13510
918.272	13578
918.384	13578
918.495	13578
918.606	13392
918.717	13213
918.828	13304
918.939	13381
919.05	13175
919.161	13255
919.272	13057
919.383	13156
919.494	13297
919.604	13426
919.715	13301
919.826	13206
919.936	13255
920.047	13282
920.157	13259
920.267	13430
920.378	13202
920.488	13156
920.598	13373
920.708	13518
920.818	13381
920.928	13301
921.038	13460
921.148	13521
921.258	13164
921.368	13175
921.477	12981
921.587	13027
921.697	12844
921.806	13061
921.916	12833
922.025	12711
922.134	12677
922.244	12658
922.353	12681
922.462	12525
922.571	12452
922.68	12292
922.789	12304
922.898	12201
923.007	12251
923.116	12262
923.224	12228
923.333	12346
923.442	12106
923.55	12106
923.659	12182
923.767	12155
923.876	12117
923.984	12098
924.092	12095
924.201	12110
924.309	12053
924.417	12064
924.525	11946
924.633	11965
924.741	12859
924.849	11817
924.956	11889
925.064	11836
925.172	11764
925.279	11729
925.387	11786
925.494	11786
925.602	11958
925.709	11840
925.816	11729
925.924	11779
926.031	11817
926.138	11802
926.245	11783
926.352	11714
926.459	11779
926.566	11764
926.673	11638
926.779	11604
926.886	11577
926.993	11436
927.099	11467
927.206	11395
927.312	11322
927.419	11474
927.525	11368
927.631	11315
927.737	11296
927.843	11246
927.95	11102
928.056	11269
928.162	11216
928.267	11261
928.373	11901
928.479	11242
928.585	11136
928.69	11204
928.796	11189
928.901	11006
929.007	10889
929.112	11105
929.218	11060
929.323	11022
929.428	11052
929.533	11067
929.638	10885
929.743	10995
929.848	10991
929.953	10938
930.058	10862
930.163	10664
930.267	10634
930.372	10755
930.477	10622
930.581	10900
930.685	10744
930.79	10573
930.894	10622
930.998	10542
931.103	10706
931.207	10322
931.311	10253
931.415	10211
931.519	10086
931.623	9998
