Data from test_V78500241_153.txt Node
Date: Fri Mar 25 14:34:47 CST 2022
User: usil
Spectrometer: V785-0024
Trigger mode: 0
Integration Time (sec): 4.000000E-1
Scans to average: 1
Nonlinearity correction enabled: false
Boxcar width: 0
Storing dark spectrum: false
XAxis mode: Wavelengths
Number of Pixels in Spectrum: 1024
>>>>>Begin Spectral Data<<<<<
801.071	29044
801.214	29022
801.356	28687
801.499	28611
801.641	28584
801.783	28626
801.926	28554
802.068	28611
802.211	28546
802.353	28451
802.496	28147
802.638	28215
802.78	28215
802.923	28150
803.065	28150
803.208	28207
803.35	28333
803.492	28257
803.635	28497
803.777	28371
803.919	28398
804.061	28645
804.204	28424
804.346	28242
804.488	28284
804.63	28390
804.773	28318
804.915	28333
805.057	28561
805.199	28284
805.341	28554
805.483	28607
805.626	28691
805.768	28527
805.91	28660
806.052	28611
806.194	28668
806.336	29109
806.478	28793
806.62	28839
806.762	29014
806.904	29246
807.046	29535
807.188	29433
807.33	29486
807.472	29908
807.614	29901
807.756	30311
807.898	30582
808.04	30890
808.182	31438
808.324	32206
808.465	33127
808.607	34143
808.749	34786
808.891	35372
809.033	35452
809.174	34965
809.316	33937
809.458	33070
809.6	32084
809.741	31518
809.883	30939
810.025	30604
810.166	30346
810.308	30220
810.45	29954
810.591	29718
810.733	29512
810.875	29512
811.016	29117
811.158	29048
811.299	29178
811.441	29166
811.582	29162
811.724	28946
811.865	29044
812.007	29064
812.148	28888
812.29	29003
812.431	29052
812.573	29147
812.714	29307
812.855	29528
812.997	29501
813.138	29600
813.279	29429
813.421	29345
813.562	29254
813.703	29025
813.845	28930
813.986	28694
814.127	28493
814.268	28417
814.41	28436
814.551	28356
814.692	28428
814.833	28265
814.974	28215
815.115	28375
815.256	28150
815.397	28097
815.539	28249
815.68	27941
815.821	27914
815.962	27987
816.103	27914
816.244	27861
816.385	27842
816.526	27667
816.666	27591
816.807	27488
816.948	27580
817.089	27599
817.23	27450
817.371	27382
817.512	27386
817.653	27298
817.793	27340
817.934	27279
818.075	27405
818.216	27260
818.356	27233
818.497	27161
818.638	27112
818.778	26956
818.919	26982
819.06	27138
819.2	27173
819.341	27268
819.481	27211
819.622	27393
819.762	27538
819.903	27629
820.043	27321
820.184	27500
820.324	27272
820.465	27420
820.605	27302
820.746	27310
820.886	27283
821.026	27207
821.167	27245
821.307	27233
821.447	27062
821.588	27066
821.728	27066
821.868	26625
822.008	26632
822.149	26720
822.289	26648
822.429	26317
822.569	26275
822.709	26214
822.849	26039
822.99	26012
823.13	26096
823.27	26039
823.41	25852
823.55	25708
823.69	25849
823.83	25906
823.97	25791
824.11	25586
824.25	25548
824.389	25506
824.529	25647
824.669	25559
824.809	25632
824.949	25620
825.089	25632
825.228	25639
825.368	25502
825.508	25457
825.648	25464
825.787	25464
825.927	25495
826.067	25354
826.206	25331
826.346	25438
826.485	25537
826.625	25426
826.765	25495
826.904	25327
827.044	25240
827.183	25072
827.323	25145
827.462	25202
827.601	25046
827.741	25053
827.88	25031
828.02	24992
828.159	25114
828.298	24958
828.437	25148
828.577	25012
828.716	25133
828.855	25000
828.994	24825
829.134	24882
829.273	24844
829.412	24734
829.551	24757
829.69	24802
829.829	24700
829.968	24783
830.107	24875
830.246	24601
830.385	24741
830.524	24677
830.663	24559
830.802	24342
830.941	24350
831.08	24369
831.219	24372
831.357	24494
831.496	24536
831.635	24201
831.774	24178
831.913	24197
832.051	24258
832.19	24110
832.329	24197
832.467	24167
832.606	24060
832.744	23927
832.883	23996
833.022	24060
833.16	24057
833.299	24079
833.437	24030
833.576	24163
833.714	24308
833.852	24357
833.991	24357
834.129	24376
834.267	24334
834.406	24357
834.544	24296
834.682	24376
834.821	24251
834.959	24159
835.097	24114
835.235	24121
835.373	24114
835.511	24060
835.65	23912
835.788	23954
835.926	23767
836.064	23707
836.202	23707
836.34	23767
836.478	23901
836.615	23813
836.753	23809
836.891	23668
837.029	23714
837.167	23672
837.305	23680
837.443	23661
837.58	23558
837.718	23642
837.856	23486
837.993	23585
838.131	23649
838.269	23463
838.406	23554
838.544	23299
838.681	23181
838.819	23159
838.956	23014
839.094	23048
839.231	23079
839.369	23265
839.506	23356
839.643	23220
839.781	22934
839.918	22938
840.055	22987
840.193	22999
840.33	22892
840.467	23022
840.604	22866
840.742	23189
840.879	22725
841.016	22862
841.153	22793
841.29	22995
841.427	22923
841.564	22968
841.701	22987
841.838	22858
841.975	22828
842.112	22721
842.249	22637
842.385	22687
842.522	22938
842.659	22683
842.796	22615
842.933	22599
843.069	22618
843.206	22565
843.343	22694
843.479	22649
843.616	22672
843.752	22459
843.889	22550
844.025	22580
844.162	22546
844.298	22626
844.435	22592
844.571	22485
844.708	22763
844.844	22862
844.98	23010
845.117	23155
845.253	23273
845.389	23790
845.525	24551
845.661	26168
845.798	27949
845.934	29436
846.07	30045
846.206	29847
846.342	28691
846.478	26697
846.614	24863
846.75	23748
846.886	23113
847.022	22759
847.158	22504
847.294	22303
847.429	22242
847.565	22101
847.701	22272
847.837	21709
847.972	21648
848.108	21759
848.244	21656
848.379	21682
848.515	21477
848.65	21393
848.786	21405
848.921	21511
849.057	21599
849.192	21469
849.328	21424
849.463	21401
849.598	21233
849.734	21173
849.869	21279
850.004	21066
850.14	21066
850.275	21051
850.41	21043
850.545	21013
850.68	21108
850.815	21108
850.95	21157
851.085	21329
851.22	21195
851.355	20952
851.49	21085
851.625	21127
851.76	21146
851.895	21032
852.03	20956
852.165	21085
852.299	21245
852.434	21135
852.569	21131
852.703	21142
852.838	21245
852.973	21154
853.107	21291
853.242	21009
853.376	21066
853.511	20861
853.645	20982
853.78	21188
853.914	21066
854.048	20982
854.183	21116
854.317	21032
854.451	21146
854.585	20979
854.72	21077
854.854	21154
854.988	20910
855.122	20921
855.256	20842
855.39	20914
855.524	21013
855.658	20891
855.792	21032
855.926	20899
856.06	20933
856.194	21001
856.327	21055
856.461	20785
856.595	20876
856.729	20857
856.862	21032
856.996	20857
857.13	20944
857.263	20967
857.397	20963
857.53	20845
857.664	20891
857.797	20842
857.931	21131
858.064	20785
858.197	20967
858.331	20910
858.464	20902
858.597	20648
858.731	20895
858.864	20705
858.997	20788
859.13	20880
859.263	20868
859.396	20876
859.529	20743
859.662	20648
859.795	20602
859.928	20746
860.061	20960
860.194	21077
860.327	20804
860.46	20792
860.592	20861
860.725	20864
860.858	20979
860.99	20762
861.123	20667
861.256	20651
861.388	20838
861.521	21408
861.653	20659
861.786	20625
861.918	20613
862.05	20758
862.183	20792
862.315	20880
862.447	20982
862.58	20777
862.712	20549
862.844	20480
862.976	20625
863.108	20469
863.24	20815
863.372	20415
863.504	20465
863.636	20480
863.768	20465
863.9	20427
864.032	20393
864.164	20400
864.296	20469
864.428	20651
864.559	20511
864.691	20689
864.823	20469
864.954	20476
865.086	20400
865.217	20438
865.349	20290
865.48	20362
865.612	20465
865.743	20484
865.875	20336
866.006	20355
866.137	20301
866.269	20400
866.4	20358
866.531	20351
866.662	20286
866.793	20351
866.924	20336
867.055	20290
867.186	20176
867.317	20290
867.448	20153
867.579	20339
867.71	20191
867.841	20305
867.972	20309
868.103	20347
868.233	20298
868.364	20309
868.495	20389
868.625	20415
868.756	20533
868.886	20320
869.017	20629
869.147	20636
869.278	20533
869.408	20564
869.539	20507
869.669	20571
869.799	20629
869.929	20606
870.06	20651
870.19	20845
870.32	20762
870.45	20861
870.58	20777
870.71	20960
870.84	21051
870.97	20880
871.1	20929
871.23	21070
871.36	21214
871.489	21013
871.619	21085
871.749	21116
871.879	21165
872.008	21279
872.138	21146
872.267	21165
872.397	21089
872.526	21020
872.656	21157
872.785	21017
872.915	21146
873.044	21264
873.173	21123
873.303	21294
873.432	21226
873.561	21272
873.69	21283
873.819	21329
873.948	21336
874.077	21382
874.206	21268
874.335	21386
874.464	21458
874.593	21587
874.722	21435
874.851	21580
874.979	21660
875.108	21625
875.237	21591
875.365	21435
875.494	21663
875.623	21682
875.751	21656
875.88	21675
876.008	21713
876.136	21869
876.265	22143
876.393	22287
876.521	22188
876.65	22135
876.778	22173
876.906	22097
877.034	22135
877.162	22154
877.29	22238
877.418	22299
877.546	22291
877.674	22268
877.802	22356
877.93	22280
878.058	22356
878.185	22246
878.313	22413
878.441	22645
878.568	22584
878.696	22816
878.824	23086
878.951	23395
879.079	23863
879.206	24661
879.333	25091
879.461	25559
879.588	25864
879.715	25814
879.842	25811
879.97	25107
880.097	24262
880.224	23836
880.351	23497
880.478	23307
880.605	23052
880.732	23067
880.859	23166
880.986	22942
881.112	22687
881.239	22729
881.366	22679
881.493	22554
881.619	22459
881.746	22523
881.872	22356
881.999	22432
882.125	22443
882.252	22485
882.378	22474
882.505	22653
882.631	22432
882.757	22177
882.883	22265
883.01	22360
883.136	22344
883.262	22093
883.388	21983
883.514	22207
883.64	22173
883.766	22181
883.892	22017
884.018	22025
884.143	22143
884.269	22246
884.395	22010
884.52	21778
884.646	21968
884.772	21739
884.897	21842
885.023	21979
885.148	21865
885.274	21953
885.399	21926
885.524	21755
885.65	21827
885.775	21641
885.9	21648
886.025	21759
886.15	21705
886.275	21583
886.4	21485
886.525	21443
886.65	21530
886.775	21374
886.9	21477
887.025	21629
887.149	21332
887.274	21173
887.399	20998
887.523	21047
887.648	20982
887.773	20918
887.897	21108
888.021	21039
888.146	20872
888.27	20918
888.395	20982
888.519	21043
888.643	20857
888.767	20963
888.891	20853
889.015	20549
889.139	20788
889.263	20579
889.387	20754
889.511	20826
889.635	20785
889.759	20522
889.883	20594
890.006	20545
890.13	20693
890.254	20393
890.377	20461
890.501	20362
890.624	20214
890.748	20301
890.871	20256
890.995	20020
891.118	20081
891.241	20043
891.364	20149
891.488	20187
891.611	19833
891.734	19974
891.857	20126
891.98	20008
892.103	20100
892.226	19967
892.349	19993
892.471	19837
892.594	20001
892.717	19868
892.839	19890
892.962	19917
893.085	19864
893.207	19871
893.33	19666
893.452	19761
893.575	19894
893.697	19837
893.819	19890
893.941	19940
894.064	19963
894.186	19689
894.308	19655
894.43	19925
894.552	19928
894.674	19715
894.796	19731
894.918	19788
895.04	19712
895.161	19833
895.283	19803
895.405	19624
895.526	19734
895.648	19651
895.769	19734
895.891	19734
896.012	19731
896.134	19784
896.255	19734
896.376	19613
896.498	19784
896.619	19799
896.74	19696
896.861	19734
896.982	20088
897.103	20031
897.224	19947
897.345	19799
897.466	19951
897.587	19864
897.708	20077
897.828	20035
897.949	19871
898.07	19780
898.19	19811
898.311	19959
898.431	19715
898.552	19799
898.672	19974
898.792	19925
898.913	19731
899.033	19712
899.153	19655
899.273	19438
899.393	19525
899.513	19529
899.633	19521
899.753	19586
899.873	19586
899.993	19639
900.113	19445
900.232	19613
900.352	19499
900.472	19441
900.591	19297
900.711	19377
900.83	19301
900.95	19468
901.069	19468
901.189	19255
901.308	19084
901.427	18954
901.546	19061
901.665	19088
901.784	19038
901.904	18817
902.023	18806
902.141	18475
902.26	18574
902.379	18544
902.498	18467
902.617	18525
902.735	18483
902.854	18407
902.973	18369
903.091	18155
903.21	18182
903.328	18007
903.446	18133
903.565	17912
903.683	17870
903.801	17832
903.919	17855
904.038	17802
904.156	17630
904.274	17748
904.392	17687
904.51	17710
904.627	17634
904.745	17821
904.863	17729
904.981	17433
905.098	17436
905.216	17356
905.334	17440
905.451	17395
905.569	17303
905.686	17353
905.803	17265
905.921	17193
906.038	17246
906.155	17098
906.272	16949
906.389	16972
906.506	16915
906.623	16774
906.74	16919
906.857	16656
906.974	16713
907.091	16847
907.208	16923
907.324	16850
907.441	16717
907.557	16637
907.674	16546
907.79	16527
907.907	16626
908.023	16573
908.139	16531
908.256	16451
908.372	16447
908.488	16371
908.604	16261
908.72	16314
908.836	16306
908.952	16268
909.068	16268
909.184	16253
909.3	16253
909.415	16272
909.531	16280
909.647	15964
909.762	15968
909.878	15930
909.993	16078
910.108	15911
910.224	15819
910.339	15823
910.454	15842
910.57	15778
910.685	15686
910.8	16029
910.915	15842
911.03	15770
911.145	15641
911.259	15538
911.374	15584
911.489	15466
911.604	15416
911.718	15203
911.833	15291
911.947	15066
912.062	15043
912.176	15203
912.291	15184
912.405	15359
912.519	15439
912.633	15477
912.748	15226
912.862	15176
912.976	15142
913.09	14891
913.204	15028
913.318	15093
913.431	15150
913.545	15089
913.659	15222
913.772	15089
913.886	14902
914	14906
914.113	15081
914.226	15051
914.34	14891
914.453	14750
914.566	14925
914.68	14845
914.793	14823
914.906	14678
915.019	14590
915.132	14556
915.245	14541
915.358	14530
915.47	14602
915.583	14503
915.696	14583
915.809	14636
915.921	14678
916.034	14507
916.146	14362
916.259	14446
916.371	14537
916.483	14438
916.595	14396
916.708	14309
916.82	14400
916.932	14374
917.044	14317
917.156	14309
917.268	14271
917.38	14278
917.491	14088
917.603	14206
917.715	14225
917.826	14336
917.938	14077
918.049	14062
918.161	14062
918.272	14244
918.384	14370
918.495	14145
918.606	14073
918.717	13887
918.828	13963
918.939	13967
919.05	13864
919.161	13940
919.272	13662
919.383	13761
919.494	14012
919.604	14183
919.715	13921
919.826	13780
919.936	13852
920.047	13974
920.157	13830
920.267	14058
920.378	13890
920.488	13811
920.598	14016
920.708	14153
920.818	14069
920.928	13894
921.038	14180
921.148	14092
921.258	13757
921.368	13727
921.477	13636
921.587	13567
921.697	13449
921.806	13651
921.916	13457
922.025	13308
922.134	13335
922.244	13282
922.353	13350
922.462	13171
922.571	13091
922.68	12993
922.789	12859
922.898	12878
923.007	12856
923.116	12924
923.224	12970
923.333	12973
923.442	12711
923.55	12654
923.659	12738
923.767	12821
923.876	12646
923.984	12791
924.092	12631
924.201	12749
924.309	12726
924.417	12658
924.525	12532
924.633	12578
924.741	13468
924.849	12361
924.956	12574
925.064	12448
925.172	12365
925.279	12357
925.387	12350
925.494	12357
925.602	12414
925.709	12372
925.816	12323
925.924	12315
926.031	12350
926.138	12251
926.245	12277
926.352	12235
926.459	12327
926.566	12418
926.673	12216
926.779	12152
926.886	12152
926.993	11935
927.099	11965
927.206	11889
927.312	11904
927.419	11973
927.525	11999
927.631	11980
927.737	11855
927.843	11786
927.95	11691
928.056	11733
928.162	11771
928.267	11745
928.373	12346
928.479	11836
928.585	11589
928.69	11745
928.796	11688
928.901	11646
929.007	11490
929.112	11573
929.218	11562
929.323	11478
929.428	11436
929.533	11532
929.638	11448
929.743	11452
929.848	11516
929.953	11414
930.058	11311
930.163	11166
930.267	11231
930.372	11296
930.477	11124
930.581	11315
930.685	11185
930.79	11136
930.894	11113
930.998	11052
931.103	11223
931.207	10843
931.311	10702
931.415	10641
931.519	10424
931.623	10436
