Data from test_V78500241_2177.txt Node
Date: Fri Mar 25 14:48:52 CST 2022
User: usil
Spectrometer: V785-0024
Trigger mode: 0
Integration Time (sec): 4.000000E-1
Scans to average: 1
Nonlinearity correction enabled: false
Boxcar width: 0
Storing dark spectrum: false
XAxis mode: Wavelengths
Number of Pixels in Spectrum: 1024
>>>>>Begin Spectral Data<<<<<
801.071	22086
801.214	22002
801.356	21899
801.499	21644
801.641	21428
801.783	21466
801.926	21477
802.068	21424
802.211	21382
802.353	21275
802.496	21005
802.638	21096
802.78	20864
802.923	20944
803.065	20830
803.208	20857
803.35	20823
803.492	20929
803.635	21017
803.777	20807
803.919	20876
804.061	21287
804.204	20910
804.346	20739
804.488	20788
804.63	20785
804.773	20644
804.915	20842
805.057	20807
805.199	20659
805.341	20838
805.483	20872
805.626	20914
805.768	20712
805.91	20739
806.052	20746
806.194	20655
806.336	20918
806.478	20682
806.62	20701
806.762	20781
806.904	20937
807.046	21142
807.188	21074
807.33	21119
807.472	21161
807.614	21013
807.756	21100
807.898	20887
808.04	20830
808.182	20804
808.324	20800
808.465	20857
808.607	21089
808.749	21169
808.891	21367
809.033	21260
809.174	21161
809.316	21051
809.458	21184
809.6	21146
809.741	21241
809.883	21306
810.025	21230
810.166	21283
810.308	21386
810.45	21348
810.591	21142
810.733	21020
810.875	21005
811.016	20800
811.158	20807
811.299	20967
811.441	21081
811.582	21051
811.724	20967
811.865	20872
812.007	20876
812.148	20876
812.29	21047
812.431	21096
812.573	21336
812.714	21207
812.855	21378
812.997	21473
813.138	21618
813.279	21481
813.421	21485
813.562	21306
813.703	21112
813.845	21089
813.986	20746
814.127	20727
814.268	20541
814.41	20461
814.551	20522
814.692	20503
814.833	20438
814.974	20374
815.115	20473
815.256	20381
815.397	20358
815.539	20377
815.68	20252
815.821	20191
815.962	20221
816.103	20282
816.244	20005
816.385	19849
816.526	19906
816.666	19795
816.807	19708
816.948	19643
817.089	19677
817.23	19567
817.371	19578
817.512	19533
817.653	19556
817.793	19502
817.934	19597
818.075	19704
818.216	19544
818.356	19567
818.497	19468
818.638	19225
818.778	19244
818.919	19335
819.06	19392
819.2	19403
819.341	19483
819.481	19502
819.622	19582
819.762	19727
819.903	19670
820.043	19571
820.184	19552
820.324	19525
820.465	19616
820.605	19544
820.746	19521
820.886	19487
821.026	19506
821.167	19460
821.307	19647
821.447	19514
821.588	19487
821.728	19240
821.868	19088
822.008	18943
822.149	19053
822.289	18901
822.429	18681
822.569	18707
822.709	18677
822.849	18532
822.99	18403
823.13	18418
823.27	18441
823.41	18194
823.55	18247
823.69	18254
823.83	18300
823.97	18194
824.11	18038
824.25	18034
824.389	17973
824.529	17977
824.669	18026
824.809	18155
824.949	18011
825.089	18121
825.228	18072
825.368	17893
825.508	17851
825.648	17855
825.787	17790
825.927	17939
826.067	17756
826.206	17764
826.346	17840
826.485	17798
826.625	17821
826.765	17984
826.904	17824
827.044	17600
827.183	17532
827.323	17471
827.462	17638
827.601	17520
827.741	17535
827.88	17512
828.02	17345
828.159	17482
828.298	17554
828.437	17592
828.577	17459
828.716	17623
828.855	17493
828.994	17376
829.134	17292
829.273	17353
829.412	17170
829.551	17022
829.69	17258
829.829	17296
829.968	17341
830.107	17349
830.246	17288
830.385	17212
830.524	17174
830.663	17098
830.802	17075
830.941	16877
831.08	16896
831.219	16957
831.357	16862
831.496	17155
831.635	16911
831.774	16908
831.913	16736
832.051	16733
832.19	16637
832.329	16694
832.467	16542
832.606	16470
832.744	16588
832.883	16599
833.022	16478
833.16	16664
833.299	16618
833.437	16637
833.576	16558
833.714	16584
833.852	16679
833.991	16687
834.129	16710
834.267	16592
834.406	16611
834.544	16675
834.682	16759
834.821	16615
834.959	16824
835.097	16523
835.235	16645
835.373	16630
835.511	16664
835.65	16599
835.788	16432
835.926	16314
836.064	16276
836.202	16424
836.34	16653
836.478	16611
836.615	16462
836.753	16527
836.891	16622
837.029	16516
837.167	16523
837.305	16352
837.443	16436
837.58	16382
837.718	16451
837.856	16440
837.993	16371
838.131	16436
838.269	16253
838.406	16333
838.544	16181
838.681	16093
838.819	15991
838.956	15926
839.094	15968
839.231	15956
839.369	16109
839.506	16363
839.643	16139
839.781	15964
839.918	15975
840.055	16036
840.193	15975
840.33	15808
840.467	15922
840.604	15918
840.742	16211
840.879	15770
841.016	15918
841.153	15850
841.29	15975
841.427	15998
841.564	16090
841.701	15991
841.838	15892
841.975	15846
842.112	15903
842.249	15766
842.385	15679
842.522	15945
842.659	15781
842.796	15663
842.933	15667
843.069	15694
843.206	15641
843.343	15804
843.479	15701
843.616	15831
843.752	15511
843.889	15500
844.025	15656
844.162	15420
844.298	15648
844.435	15553
844.571	15507
844.708	15564
844.844	15644
844.98	15625
845.117	15549
845.253	15447
845.389	15363
845.525	15511
845.661	15408
845.798	15374
845.934	15344
846.07	15264
846.206	15351
846.342	15450
846.478	15313
846.614	15112
846.75	15062
846.886	15013
847.022	15093
847.158	15188
847.294	15001
847.429	15112
847.565	14960
847.701	15230
847.837	14724
847.972	14823
848.108	14895
848.244	14872
848.379	14689
848.515	14648
848.65	14739
848.786	14659
848.921	14720
849.057	14746
849.192	14773
849.328	14743
849.463	14659
849.598	14689
849.734	14545
849.869	14480
850.004	14541
850.14	14549
850.275	14404
850.41	14358
850.545	14328
850.68	14476
850.815	14415
850.95	14374
851.085	14568
851.22	14518
851.355	14446
851.49	14351
851.625	14423
851.76	14381
851.895	14237
852.03	14324
852.165	14438
852.299	14465
852.434	14549
852.569	14503
852.703	14423
852.838	14545
852.973	14514
853.107	14636
853.242	14343
853.376	14393
853.511	14240
853.645	14229
853.78	14317
853.914	14317
854.048	14240
854.183	14294
854.317	14282
854.451	14434
854.585	14271
854.72	14301
854.854	14309
854.988	14218
855.122	14290
855.256	14145
855.39	14248
855.524	14301
855.658	14324
855.792	14240
855.926	14336
856.06	14431
856.194	14480
856.327	14275
856.461	14278
856.595	14305
856.729	14313
856.862	14442
856.996	14355
857.13	14328
857.263	14434
857.397	14484
857.53	14267
857.664	14431
857.797	14419
857.931	14438
858.064	14328
858.197	14465
858.331	14324
858.464	14195
858.597	14130
858.731	14267
858.864	14317
858.997	14267
859.13	14324
859.263	14298
859.396	14309
859.529	14278
859.662	14244
859.795	14225
859.928	14301
860.061	14431
860.194	14419
860.327	14328
860.46	14290
860.592	14396
860.725	14351
860.858	14461
860.99	14275
861.123	14263
861.256	14240
861.388	14286
861.521	14872
861.653	14119
861.786	14107
861.918	14221
862.05	14233
862.183	14294
862.315	14320
862.447	14355
862.58	14214
862.712	14103
862.844	13967
862.976	14218
863.108	14103
863.24	14336
863.372	13967
863.504	14149
863.636	14054
863.768	14153
863.9	14115
864.032	14031
864.164	14054
864.296	14153
864.428	14237
864.559	14164
864.691	14145
864.823	14107
864.954	14142
865.086	14115
865.217	14096
865.349	13932
865.48	14119
865.612	14119
865.743	14172
865.875	14043
866.006	14035
866.137	14054
866.269	14100
866.4	14008
866.531	14027
866.662	14039
866.793	14001
866.924	13963
867.055	14058
867.186	14046
867.317	14012
867.448	13913
867.579	13959
867.71	13967
867.841	13906
867.972	14130
868.103	14077
868.233	13974
868.364	14081
868.495	14115
868.625	14351
868.756	14309
868.886	14210
869.017	14237
869.147	14415
869.278	14381
869.408	14313
869.539	14377
869.669	14336
869.799	14336
869.929	14393
870.06	14408
870.19	14625
870.32	14556
870.45	14731
870.58	14724
870.71	14948
870.84	14792
870.97	14705
871.1	14590
871.23	14830
871.36	14876
871.489	14724
871.619	14933
871.749	14914
871.879	14906
872.008	15024
872.138	14891
872.267	14804
872.397	14701
872.526	14716
872.656	14708
872.785	14735
872.915	14921
873.044	14975
873.173	14967
873.303	14941
873.432	15047
873.561	15135
873.69	14963
873.819	14952
873.948	14982
874.077	14986
874.206	14910
874.335	14963
874.464	15154
874.593	15245
874.722	15214
874.851	15184
874.979	15214
875.108	15252
875.237	15161
875.365	15169
875.494	15279
875.623	15393
875.751	15218
875.88	15256
876.008	15466
876.136	15454
876.265	15644
876.393	15854
876.521	15819
876.65	15759
876.778	15816
876.906	15656
877.034	15660
877.162	15675
877.29	15618
877.418	15686
877.546	15671
877.674	15701
877.802	15633
877.93	15679
878.058	15682
878.185	15701
878.313	15610
878.441	15656
878.568	15561
878.696	15610
878.824	15705
878.951	15720
879.079	15846
879.206	15998
879.333	15888
879.461	15732
879.588	15724
879.715	15846
879.842	16021
879.97	15800
880.097	15614
880.224	15538
880.351	15587
880.478	15595
880.605	15564
880.732	15481
880.859	15736
880.986	15557
881.112	15637
881.239	15469
881.366	15260
881.493	15275
881.619	15127
881.746	15214
881.872	15222
881.999	15138
882.125	15173
882.252	15241
882.378	15287
882.505	15397
882.631	15093
882.757	15017
882.883	15024
883.01	15032
883.136	14944
883.262	14853
883.388	14891
883.514	15013
883.64	15127
883.766	14925
883.892	14910
884.018	14876
884.143	14952
884.269	15070
884.395	14720
884.52	14708
884.646	14720
884.772	14621
884.897	14613
885.023	14720
885.148	14853
885.274	14887
885.399	14781
885.524	14731
885.65	14678
885.775	14678
885.9	14731
886.025	14750
886.15	14727
886.275	14644
886.4	14625
886.525	14720
886.65	14678
886.775	14716
886.9	14815
887.025	14895
887.149	14682
887.274	14579
887.399	14579
887.523	14541
887.648	14446
887.773	14400
887.897	14587
888.021	14568
888.146	14419
888.27	14651
888.395	14693
888.519	14594
888.643	14571
888.767	14648
888.891	14503
889.015	14347
889.139	14446
889.263	14469
889.387	14461
889.511	14644
889.635	14571
889.759	14404
889.883	14469
890.006	14408
890.13	14499
890.254	14336
890.377	14305
890.501	14256
890.624	14081
890.748	14339
890.871	14199
890.995	14065
891.118	14126
891.241	14225
891.364	14134
891.488	14263
891.611	14107
891.734	14092
891.857	14157
891.98	14210
892.103	14183
892.226	14107
892.349	14180
892.471	13974
892.594	14043
892.717	14134
892.839	14096
892.962	14088
893.085	14119
893.207	14092
893.33	14103
893.452	14103
893.575	14164
893.697	14153
893.819	14328
893.941	14366
894.064	14366
894.186	14126
894.308	14187
894.43	14336
894.552	14282
894.674	14286
894.796	14119
894.918	14161
895.04	14191
895.161	14267
895.283	14263
895.405	14130
895.526	14168
895.648	14202
895.769	14233
895.891	14271
896.012	14343
896.134	14263
896.255	14259
896.376	14240
896.498	14286
896.619	14355
896.74	14278
896.861	14332
896.982	14575
897.103	14899
897.224	14518
897.345	14511
897.466	14461
897.587	14503
897.708	14629
897.828	14621
897.949	14549
898.07	14495
898.19	14484
898.311	14712
898.431	14514
898.552	14640
898.672	14625
898.792	14659
898.913	14724
899.033	14533
899.153	14408
899.273	14442
899.393	14454
899.513	14438
899.633	14514
899.753	14484
899.873	14499
899.993	14476
900.113	14419
900.232	14499
900.352	14480
900.472	14343
900.591	14347
900.711	14320
900.83	14313
900.95	14366
901.069	14492
901.189	14210
901.308	14001
901.427	13974
901.546	14062
901.665	14001
901.784	14046
901.904	13833
902.023	13833
902.141	13628
902.26	13723
902.379	13651
902.498	13685
902.617	13559
902.735	13651
902.854	13601
902.973	13521
903.091	13331
903.21	13232
903.328	13293
903.446	13221
903.565	13141
903.683	13266
903.801	13069
903.919	13095
904.038	13103
904.156	13076
904.274	13027
904.392	13046
904.51	12951
904.627	13015
904.745	13088
904.863	12989
904.981	12791
905.098	12635
905.216	12639
905.334	12700
905.451	12662
905.569	12486
905.686	12696
905.803	12673
905.921	12486
906.038	12604
906.155	12517
906.272	12418
906.389	12342
906.506	12251
906.623	12266
906.74	12289
906.857	12205
906.974	12209
907.091	12201
907.208	12350
907.324	12277
907.441	12209
907.557	11977
907.674	12026
907.79	11923
907.907	11958
908.023	11980
908.139	12098
908.256	12053
908.372	11908
908.488	11950
908.604	11817
908.72	11775
908.836	11771
908.952	11695
909.068	11748
909.184	11885
909.3	11764
909.415	11798
909.531	11745
909.647	11558
909.762	11596
909.878	11482
909.993	11581
910.108	11539
910.224	11455
910.339	11497
910.454	11490
910.57	11353
910.685	11337
910.8	11619
910.915	11520
911.03	11417
911.145	11326
911.259	11170
911.374	11208
911.489	11189
911.604	11067
911.718	10949
911.833	11010
911.947	10866
912.062	10778
912.176	10949
912.291	10991
912.405	11022
912.519	11136
912.633	11212
912.748	11159
912.862	10987
912.976	10923
913.09	10740
913.204	10809
913.318	10858
913.431	10972
913.545	10980
913.659	10873
913.772	10915
913.886	10854
914	10698
914.113	10812
914.226	10843
914.34	10816
914.453	10729
914.566	10843
914.68	10622
914.793	10702
914.906	10455
915.019	10481
915.132	10447
915.245	10451
915.358	10584
915.47	10500
915.583	10584
915.696	10523
915.809	10596
915.921	10710
916.034	10485
916.146	10413
916.259	10367
916.371	10474
916.483	10519
916.595	10440
916.708	10489
916.82	10500
916.932	10519
917.044	10443
917.156	10348
917.268	10318
917.38	10234
917.491	10276
917.603	10386
917.715	10371
917.826	10440
917.938	10284
918.049	10242
918.161	10287
918.272	10447
918.384	10436
918.495	10325
918.606	10215
918.717	10158
918.828	10287
918.939	10227
919.05	10131
919.161	10162
919.272	10013
919.383	10025
919.494	10287
919.604	10379
919.715	10204
919.826	10219
919.936	10188
920.047	10333
920.157	10276
920.267	10447
920.378	10246
920.488	10192
920.598	10390
920.708	10542
920.818	10413
920.928	10455
921.038	10611
921.148	10538
921.258	10219
921.368	10135
921.477	10086
921.587	10086
921.697	9956
921.806	10109
921.916	9918
922.025	9842
922.134	9778
922.244	9766
922.353	9785
922.462	9736
922.571	9610
922.68	9515
922.789	9443
922.898	9481
923.007	9408
923.116	9591
923.224	9507
923.333	9424
923.442	9367
923.55	9321
923.659	9344
923.767	9393
923.876	9378
923.984	9351
924.092	9237
924.201	9294
924.309	9378
924.417	9344
924.525	9321
924.633	9329
924.741	10109
924.849	9138
924.956	9245
925.064	9127
925.172	9013
925.279	9127
925.387	9211
925.494	9127
925.602	9256
925.709	9249
925.816	9062
925.924	9108
926.031	9226
926.138	9180
926.245	9188
926.352	9081
926.459	9195
926.566	9256
926.673	9089
926.779	8990
926.886	9017
926.993	8796
927.099	8861
927.206	8758
927.312	8766
927.419	8849
927.525	8792
927.631	8880
927.737	8739
927.843	8602
927.95	8587
928.056	8678
928.162	8731
928.267	8811
928.373	9466
928.479	8849
928.585	8564
928.69	8762
928.796	8807
928.901	8682
929.007	8556
929.112	8606
929.218	8640
929.323	8530
929.428	8461
929.533	8769
929.638	8503
929.743	8526
929.848	8522
929.953	8530
930.058	8442
930.163	8282
930.267	8279
930.372	8484
930.477	8267
930.581	8571
930.685	8362
930.79	8248
930.894	8301
930.998	8263
931.103	8473
931.207	8069
931.311	8043
931.415	8031
931.519	7742
931.623	7833
