Data from test_V78500241_2953.txt Node
Date: Fri Mar 25 14:54:16 CST 2022
User: usil
Spectrometer: V785-0024
Trigger mode: 0
Integration Time (sec): 4.000000E-1
Scans to average: 1
Nonlinearity correction enabled: false
Boxcar width: 0
Storing dark spectrum: false
XAxis mode: Wavelengths
Number of Pixels in Spectrum: 1024
>>>>>Begin Spectral Data<<<<<
801.071	22067
801.214	21960
801.356	21857
801.499	21663
801.641	21439
801.783	21405
801.926	21504
802.068	21351
802.211	21363
802.353	21222
802.496	21085
802.638	21028
802.78	21013
802.923	20830
803.065	20811
803.208	20640
803.35	20788
803.492	20906
803.635	20918
803.777	20853
803.919	20845
804.061	21249
804.204	20773
804.346	20804
804.488	20602
804.63	20777
804.773	20716
804.915	20735
805.057	20758
805.199	20678
805.341	20663
805.483	20762
805.626	20720
805.768	20655
805.91	20804
806.052	20792
806.194	20621
806.336	20937
806.478	20727
806.62	20651
806.762	20701
806.904	20952
807.046	21096
807.188	21001
807.33	21112
807.472	21074
807.614	20887
807.756	20933
807.898	20807
808.04	20758
808.182	20731
808.324	20788
808.465	20941
808.607	20975
808.749	21051
808.891	21055
809.033	21218
809.174	21119
809.316	20998
809.458	21074
809.6	21077
809.741	21138
809.883	21119
810.025	21245
810.166	21047
810.308	21184
810.45	21287
810.591	21135
810.733	20967
810.875	20948
811.016	20895
811.158	20777
811.299	20910
811.441	21039
811.582	21001
811.724	20876
811.865	20853
812.007	20724
812.148	20807
812.29	20868
812.431	21093
812.573	21211
812.714	21260
812.855	21367
812.997	21397
813.138	21561
813.279	21507
813.421	21378
813.562	21332
813.703	21188
813.845	20921
813.986	20750
814.127	20450
814.268	20377
814.41	20434
814.551	20385
814.692	20503
814.833	20423
814.974	20324
815.115	20408
815.256	20191
815.397	20313
815.539	20275
815.68	20206
815.821	19970
815.962	20206
816.103	20142
816.244	20020
816.385	19974
816.526	19845
816.666	19753
816.807	19521
816.948	19590
817.089	19727
817.23	19533
817.371	19575
817.512	19457
817.653	19495
817.793	19578
817.934	19586
818.075	19491
818.216	19540
818.356	19521
818.497	19384
818.638	19282
818.778	19152
818.919	19320
819.06	19164
819.2	19312
819.341	19274
819.481	19354
819.622	19499
819.762	19685
819.903	19651
820.043	19495
820.184	19662
820.324	19518
820.465	19483
820.605	19476
820.746	19518
820.886	19381
821.026	19518
821.167	19491
821.307	19514
821.447	19487
821.588	19339
821.728	19228
821.868	19027
822.008	18886
822.149	18962
822.289	18829
822.429	18692
822.569	18582
822.709	18707
822.849	18559
822.99	18391
823.13	18254
823.27	18323
823.41	18232
823.55	18186
823.69	18232
823.83	18213
823.97	18060
824.11	18068
824.25	18003
824.389	17992
824.529	17901
824.669	17980
824.809	18015
824.949	18060
825.089	17965
825.228	18019
825.368	17714
825.508	17805
825.648	17802
825.787	17859
825.927	17745
826.067	17802
826.206	17745
826.346	17661
826.485	17756
826.625	17752
826.765	17737
826.904	17722
827.044	17532
827.183	17501
827.323	17406
827.462	17379
827.601	17406
827.741	17376
827.88	17493
828.02	17368
828.159	17463
828.298	17539
828.437	17570
828.577	17391
828.716	17463
828.855	17345
828.994	17193
829.134	17299
829.273	17178
829.412	17204
829.551	17166
829.69	17121
829.829	17170
829.968	17250
830.107	17258
830.246	17181
830.385	17124
830.524	17090
830.663	16995
830.802	16919
830.941	16801
831.08	16748
831.219	16869
831.357	16881
831.496	16946
831.635	16774
831.774	16736
831.913	16653
832.051	16577
832.19	16542
832.329	16561
832.467	16531
832.606	16462
832.744	16421
832.883	16421
833.022	16451
833.16	16405
833.299	16542
833.437	16481
833.576	16462
833.714	16478
833.852	16554
833.991	16565
834.129	16554
834.267	16573
834.406	16497
834.544	16516
834.682	16481
834.821	16672
834.959	16694
835.097	16466
835.235	16630
835.373	16569
835.511	16618
835.65	16466
835.788	16409
835.926	16234
836.064	16211
836.202	16303
836.34	16440
836.478	16462
836.615	16485
836.753	16432
836.891	16561
837.029	16481
837.167	16413
837.305	16344
837.443	16371
837.58	16284
837.718	16314
837.856	16272
837.993	16303
838.131	16333
838.269	16280
838.406	16226
838.544	16101
838.681	16040
838.819	15949
838.956	15880
839.094	15876
839.231	16032
839.369	15945
839.506	16226
839.643	16135
839.781	15850
839.918	15880
840.055	15857
840.193	15876
840.33	15819
840.467	15926
840.604	15812
840.742	16105
840.879	15732
841.016	15781
841.153	15747
841.29	15945
841.427	15789
841.564	15861
841.701	15842
841.838	15728
841.975	15789
842.112	15819
842.249	15679
842.385	15606
842.522	15857
842.659	15648
842.796	15580
842.933	15603
843.069	15526
843.206	15595
843.343	15747
843.479	15705
843.616	15568
843.752	15435
843.889	15393
844.025	15561
844.162	15435
844.298	15553
844.435	15332
844.571	15317
844.708	15412
844.844	15511
844.98	15553
845.117	15481
845.253	15504
845.389	15283
845.525	15325
845.661	15161
845.798	15100
845.934	15264
846.07	15199
846.206	15245
846.342	15370
846.478	15203
846.614	15039
846.75	14929
846.886	14944
847.022	15036
847.158	14990
847.294	14982
847.429	15005
847.565	14876
847.701	15165
847.837	14762
847.972	14644
848.108	14823
848.244	14796
848.379	14648
848.515	14556
848.65	14488
848.786	14495
848.921	14568
849.057	14640
849.192	14663
849.328	14560
849.463	14598
849.598	14537
849.734	14579
849.869	14480
850.004	14278
850.14	14522
850.275	14324
850.41	14229
850.545	14271
850.68	14267
850.815	14381
850.95	14385
851.085	14412
851.22	14415
851.355	14320
851.49	14263
851.625	14263
851.76	14324
851.895	14210
852.03	14263
852.165	14294
852.299	14339
852.434	14404
852.569	14339
852.703	14488
852.838	14343
852.973	14469
853.107	14457
853.242	14396
853.376	14244
853.511	14111
853.645	14229
853.78	14252
853.914	14237
854.048	14206
854.183	14199
854.317	14301
854.451	14469
854.585	14176
854.72	14229
854.854	14305
854.988	14073
855.122	14138
855.256	14069
855.39	14191
855.524	14362
855.658	14290
855.792	14248
855.926	14214
856.06	14252
856.194	14298
856.327	14123
856.461	14115
856.595	14187
856.729	14202
856.862	14317
856.996	14206
857.13	14252
857.263	14442
857.397	14259
857.53	14259
857.664	14138
857.797	14313
857.931	14271
858.064	14130
858.197	14317
858.331	14157
858.464	14187
858.597	14039
858.731	14172
858.864	14153
858.997	14153
859.13	14195
859.263	14172
859.396	14317
859.529	14172
859.662	14176
859.795	14103
859.928	14183
860.061	14267
860.194	14393
860.327	14153
860.46	14237
860.592	14324
860.725	14423
860.858	14355
860.99	14218
861.123	14142
861.256	14199
861.388	14252
861.521	14811
861.653	14180
861.786	14054
861.918	14088
862.05	14195
862.183	14134
862.315	14240
862.447	14248
862.58	14164
862.712	14054
862.844	13864
862.976	14119
863.108	14024
863.24	14370
863.372	13902
863.504	13993
863.636	14065
863.768	14043
863.9	14043
864.032	13970
864.164	13925
864.296	14016
864.428	14164
864.559	14134
864.691	14016
864.823	14062
864.954	14096
865.086	14115
865.217	13913
865.349	14020
865.48	14027
865.612	14035
865.743	14157
865.875	14103
866.006	13967
866.137	14001
866.269	13898
866.4	14012
866.531	13974
866.662	13902
866.793	13986
866.924	13906
867.055	14046
867.186	14024
867.317	13993
867.448	13955
867.579	13989
867.71	13955
867.841	13909
867.972	13925
868.103	14103
868.233	14039
868.364	14043
868.495	14100
868.625	14225
868.756	14237
868.886	14252
869.017	14263
869.147	14393
869.278	14427
869.408	14278
869.539	14256
869.669	14328
869.799	14248
869.929	14347
870.06	14396
870.19	14549
870.32	14530
870.45	14670
870.58	14636
870.71	14792
870.84	14735
870.97	14629
871.1	14503
871.23	14864
871.36	14872
871.489	14686
871.619	14864
871.749	14861
871.879	14891
872.008	14823
872.138	14849
872.267	14815
872.397	14724
872.526	14724
872.656	14587
872.785	14705
872.915	14838
873.044	15058
873.173	14876
873.303	14902
873.432	14929
873.561	15047
873.69	14952
873.819	14872
873.948	14979
874.077	14899
874.206	14842
874.335	14899
874.464	15032
874.593	15180
874.722	15169
874.851	15226
874.979	15279
875.108	15287
875.237	15264
875.365	15123
875.494	15230
875.623	15279
875.751	15146
875.88	15272
876.008	15310
876.136	15466
876.265	15614
876.393	15732
876.521	15713
876.65	15762
876.778	15629
876.906	15561
877.034	15507
877.162	15576
877.29	15549
877.418	15584
877.546	15614
877.674	15545
877.802	15656
877.93	15663
878.058	15519
878.185	15530
878.313	15652
878.441	15648
878.568	15462
878.696	15553
878.824	15599
878.951	15682
879.079	15812
879.206	15934
879.333	15880
879.461	15694
879.588	15637
879.715	15857
879.842	15960
879.97	15557
880.097	15523
880.224	15507
880.351	15515
880.478	15420
880.605	15431
880.732	15462
880.859	15660
880.986	15492
881.112	15492
881.239	15424
881.366	15230
881.493	15142
881.619	15089
881.746	15230
881.872	15226
881.999	15119
882.125	14990
882.252	15233
882.378	15287
882.505	15332
882.631	15100
882.757	14910
882.883	15043
883.01	15017
883.136	14929
883.262	14777
883.388	14834
883.514	14914
883.64	15058
883.766	14948
883.892	14689
884.018	14792
884.143	14979
884.269	15104
884.395	14678
884.52	14648
884.646	14697
884.772	14598
884.897	14549
885.023	14610
885.148	14663
885.274	14895
885.399	14769
885.524	14689
885.65	14667
885.775	14724
885.9	14648
886.025	14727
886.15	14689
886.275	14632
886.4	14530
886.525	14667
886.65	14602
886.775	14590
886.9	14773
887.025	14807
887.149	14689
887.274	14530
887.399	14351
887.523	14488
887.648	14465
887.773	14393
887.897	14621
888.021	14526
888.146	14415
888.27	14670
888.395	14632
888.519	14514
888.643	14507
888.767	14457
888.891	14454
889.015	14313
889.139	14396
889.263	14343
889.387	14389
889.511	14556
889.635	14362
889.759	14332
889.883	14423
890.006	14400
890.13	14541
890.254	14275
890.377	14355
890.501	14202
890.624	14202
890.748	14237
890.871	14130
890.995	13940
891.118	14012
891.241	13978
891.364	13974
891.488	14149
891.611	14050
891.734	14050
891.857	14168
891.98	14062
892.103	14187
892.226	14084
892.349	14005
892.471	13955
892.594	14024
892.717	14073
892.839	13963
892.962	14016
893.085	14054
893.207	13955
893.33	13970
893.452	13868
893.575	14111
893.697	14046
893.819	14229
893.941	14240
894.064	14134
894.186	14024
894.308	14012
894.43	14259
894.552	14233
894.674	14191
894.796	14069
894.918	14092
895.04	14062
895.161	14237
895.283	14305
895.405	14172
895.526	14145
895.648	14199
895.769	14237
895.891	14256
896.012	14305
896.134	14298
896.255	14248
896.376	14298
896.498	14256
896.619	14278
896.74	14240
896.861	14263
896.982	14488
897.103	14727
897.224	14465
897.345	14556
897.466	14415
897.587	14400
897.708	14640
897.828	14507
897.949	14499
898.07	14438
898.19	14396
898.311	14648
898.431	14537
898.552	14655
898.672	14705
898.792	14701
898.913	14598
899.033	14469
899.153	14381
899.273	14404
899.393	14370
899.513	14404
899.633	14495
899.753	14488
899.873	14389
899.993	14571
900.113	14301
900.232	14442
900.352	14423
900.472	14358
900.591	14282
900.711	14389
900.83	14309
900.95	14381
901.069	14377
901.189	14267
901.308	14012
901.427	13925
901.546	13986
901.665	13989
901.784	14012
901.904	13936
902.023	13765
902.141	13704
902.26	13533
902.379	13563
902.498	13438
902.617	13529
902.735	13636
902.854	13537
902.973	13499
903.091	13304
903.21	13297
903.328	13255
903.446	13270
903.565	13240
903.683	13122
903.801	13069
903.919	13259
904.038	13053
904.156	12905
904.274	13027
904.392	12935
904.51	12935
904.627	13015
904.745	12920
904.863	12977
904.981	12741
905.098	12566
905.216	12627
905.334	12593
905.451	12669
905.569	12574
905.686	12631
905.803	12654
905.921	12460
906.038	12582
906.155	12407
906.272	12296
906.389	12452
906.506	12270
906.623	12125
906.74	12239
906.857	12091
906.974	12121
907.091	12308
907.208	12357
907.324	12228
907.441	12239
907.557	11912
907.674	11965
907.79	11999
907.907	11821
908.023	12003
908.139	11916
908.256	11889
908.372	11931
908.488	11840
908.604	11767
908.72	11684
908.836	11771
908.952	11638
909.068	11672
909.184	11775
909.3	11752
909.415	11748
909.531	11688
909.647	11573
909.762	11455
909.878	11471
909.993	11493
910.108	11543
910.224	11452
910.339	11433
910.454	11410
910.57	11242
910.685	11261
910.8	11627
910.915	11402
911.03	11387
911.145	11166
911.259	11185
911.374	11208
911.489	11117
911.604	11018
911.718	11010
911.833	10972
911.947	10793
912.062	10771
912.176	10896
912.291	10976
912.405	10999
912.519	11143
912.633	11197
912.748	11060
912.862	10968
912.976	10858
913.09	10778
913.204	10786
913.318	10885
913.431	10847
913.545	10877
913.659	10938
913.772	10858
913.886	10778
914	10660
914.113	10805
914.226	10797
914.34	10843
914.453	10626
914.566	10748
914.68	10645
914.793	10668
914.906	10462
915.019	10466
915.132	10390
915.245	10436
915.358	10402
915.47	10470
915.583	10417
915.696	10546
915.809	10645
915.921	10588
916.034	10497
916.146	10470
916.259	10386
916.371	10443
916.483	10451
916.595	10405
916.708	10474
916.82	10394
916.932	10329
917.044	10382
917.156	10299
917.268	10219
917.38	10322
917.491	10310
917.603	10318
917.715	10310
917.826	10329
917.938	10291
918.049	10261
918.161	10306
918.272	10474
918.384	10443
918.495	10341
918.606	10135
918.717	10120
918.828	10223
918.939	10147
919.05	10082
919.161	10162
919.272	9972
919.383	10078
919.494	10291
919.604	10375
919.715	10284
919.826	10162
919.936	10147
920.047	10310
920.157	10120
920.267	10367
920.378	10211
920.488	10188
920.598	10367
920.708	10497
920.818	10348
920.928	10497
921.038	10508
921.148	10474
921.258	10314
921.368	10173
921.477	10051
921.587	10040
921.697	9922
921.806	10021
921.916	9953
922.025	9770
922.134	9793
922.244	9720
922.353	9766
922.462	9755
922.571	9595
922.68	9378
922.789	9450
922.898	9515
923.007	9370
923.116	9492
923.224	9435
923.333	9393
923.442	9344
923.55	9298
923.659	9313
923.767	9386
923.876	9336
923.984	9317
924.092	9146
924.201	9313
924.309	9306
924.417	9321
924.525	9237
924.633	9321
924.741	10227
924.849	9093
924.956	9184
925.064	9070
925.172	8994
925.279	9070
925.387	9074
925.494	9123
925.602	9260
925.709	9138
925.816	9009
925.924	9051
926.031	9169
926.138	9070
926.245	9249
926.352	8994
926.459	9131
926.566	9241
926.673	9009
926.779	9009
926.886	8971
926.993	8910
927.099	8849
927.206	8804
927.312	8785
927.419	8861
927.525	8830
927.631	8925
927.737	8739
927.843	8716
927.95	8590
928.056	8682
928.162	8758
928.267	8769
928.373	9298
928.479	8754
928.585	8621
928.69	8724
928.796	8708
928.901	8686
929.007	8549
929.112	8648
929.218	8667
929.323	8469
929.428	8526
929.533	8697
929.638	8511
929.743	8518
929.848	8514
929.953	8533
930.058	8461
930.163	8290
930.267	8309
930.372	8438
930.477	8309
930.581	8526
930.685	8385
930.79	8210
930.894	8328
930.998	8282
931.103	8396
931.207	8126
931.311	8027
931.415	7940
931.519	7780
931.623	7734
