Data from test_V78500241_1426.txt Node
Date: Fri Mar 25 14:43:38 CST 2022
User: usil
Spectrometer: V785-0024
Trigger mode: 0
Integration Time (sec): 4.000000E-1
Scans to average: 1
Nonlinearity correction enabled: false
Boxcar width: 0
Storing dark spectrum: false
XAxis mode: Wavelengths
Number of Pixels in Spectrum: 1024
>>>>>Begin Spectral Data<<<<<
801.071	22405
801.214	22314
801.356	22093
801.499	21945
801.641	21705
801.783	21739
801.926	21884
802.068	21606
802.211	21591
802.353	21504
802.496	21439
802.638	21237
802.78	21226
802.923	21150
803.065	21047
803.208	21119
803.35	21154
803.492	21161
803.635	21245
803.777	21024
803.919	21351
804.061	21336
804.204	21138
804.346	21218
804.488	21051
804.63	21020
804.773	20891
804.915	21108
805.057	21226
805.199	21043
805.341	21058
805.483	21108
805.626	21211
805.768	20963
805.91	21116
806.052	21001
806.194	20883
806.336	21150
806.478	21085
806.62	21009
806.762	21055
806.904	21275
807.046	21329
807.188	21367
807.33	21275
807.472	21443
807.614	21272
807.756	21332
807.898	21382
808.04	21192
808.182	21260
808.324	21264
808.465	21359
808.607	21549
808.749	21625
808.891	21785
809.033	21945
809.174	21755
809.316	21564
809.458	21538
809.6	21625
809.741	21549
809.883	21515
810.025	21660
810.166	21785
810.308	21736
810.45	21625
810.591	21466
810.733	21348
810.875	21195
811.016	21157
811.158	21077
811.299	21203
811.441	21397
811.582	21367
811.724	21310
811.865	21207
812.007	21283
812.148	21203
812.29	21298
812.431	21424
812.573	21481
812.714	21545
812.855	21675
812.997	21812
813.138	21975
813.279	21838
813.421	21751
813.562	21652
813.703	21466
813.845	21389
813.986	21169
814.127	20971
814.268	20849
814.41	20758
814.551	20682
814.692	20807
814.833	20746
814.974	20716
815.115	20708
815.256	20644
815.397	20705
815.539	20560
815.68	20526
815.821	20609
815.962	20598
816.103	20526
816.244	20396
816.385	20168
816.526	20206
816.666	20020
816.807	19932
816.948	19944
817.089	19925
817.23	20012
817.371	20005
817.512	19898
817.653	19868
817.793	19875
817.934	19864
818.075	19845
818.216	19963
818.356	19928
818.497	19746
818.638	19601
818.778	19624
818.919	19613
819.06	19742
819.2	19689
819.341	19746
819.481	19723
819.622	19989
819.762	20031
819.903	20126
820.043	19951
820.184	19913
820.324	19921
820.465	20001
820.605	19902
820.746	20020
820.886	19742
821.026	19803
821.167	19845
821.307	19936
821.447	19841
821.588	19776
821.728	19590
821.868	19506
822.008	19312
822.149	19263
822.289	19301
822.429	19107
822.569	19034
822.709	18897
822.849	18928
822.99	18749
823.13	18673
823.27	18696
823.41	18642
823.55	18654
823.69	18642
823.83	18559
823.97	18517
824.11	18384
824.25	18452
824.389	18353
824.529	18502
824.669	18361
824.809	18429
824.949	18486
825.089	18528
825.228	18490
825.368	18258
825.508	18167
825.648	18232
825.787	18178
825.927	18167
826.067	18266
826.206	18053
826.346	18174
826.485	18163
826.625	18148
826.765	18232
826.904	18110
827.044	17908
827.183	17942
827.323	17813
827.462	17950
827.601	17859
827.741	17729
827.88	17817
828.02	17790
828.159	17790
828.298	17802
828.437	17984
828.577	17779
828.716	17946
828.855	17840
828.994	17634
829.134	17581
829.273	17764
829.412	17520
829.551	17486
829.69	17589
829.829	17474
829.968	17611
830.107	17566
830.246	17638
830.385	17558
830.524	17581
830.663	17387
830.802	17364
830.941	17258
831.08	17166
831.219	17307
831.357	17284
831.496	17444
831.635	17212
831.774	17109
831.913	17102
832.051	16968
832.19	17045
832.329	17067
832.467	16930
832.606	16862
832.744	16953
832.883	16771
833.022	16866
833.16	16961
833.299	16938
833.437	16889
833.576	16949
833.714	16938
833.852	17064
833.991	16949
834.129	17003
834.267	16911
834.406	16923
834.544	16995
834.682	16999
834.821	16923
834.959	17064
835.097	16972
835.235	17071
835.373	17098
835.511	16976
835.65	16790
835.788	16877
835.926	16649
836.064	16675
836.202	16755
836.34	16797
836.478	16873
836.615	16896
836.753	16904
836.891	16942
837.029	16835
837.167	16748
837.305	16687
837.443	16759
837.58	16656
837.718	16786
837.856	16774
837.993	16630
838.131	16580
838.269	16672
838.406	16649
838.544	16527
838.681	16352
838.819	16318
838.956	16200
839.094	16234
839.231	16322
839.369	16382
839.506	16752
839.643	16565
839.781	16181
839.918	16253
840.055	16306
840.193	16280
840.33	16238
840.467	16147
840.604	16246
840.742	16447
840.879	16090
841.016	16158
841.153	16086
841.29	16379
841.427	16261
841.564	16272
841.701	16310
841.838	16219
841.975	16219
842.112	16177
842.249	16059
842.385	15922
842.522	16242
842.659	16063
842.796	16017
842.933	15987
843.069	15991
843.206	15968
843.343	16093
843.479	15991
843.616	15964
843.752	15804
843.889	15808
844.025	15911
844.162	15804
844.298	15979
844.435	15861
844.571	15728
844.708	15915
844.844	15968
844.98	16025
845.117	15953
845.253	15812
845.389	15781
845.525	15797
845.661	15842
845.798	15873
845.934	15964
846.07	15956
846.206	15979
846.342	16051
846.478	15804
846.614	15488
846.75	15424
846.886	15332
847.022	15488
847.158	15526
847.294	15405
847.429	15367
847.565	15416
847.701	15637
847.837	15051
847.972	15062
848.108	15108
848.244	15135
848.379	14967
848.515	14956
848.65	15051
848.786	15013
848.921	14918
849.057	15070
849.192	15081
849.328	15009
849.463	14963
849.598	14941
849.734	14944
849.869	14746
850.004	14804
850.14	14807
850.275	14868
850.41	14655
850.545	14667
850.68	14724
850.815	14765
850.95	14667
851.085	14937
851.22	14796
851.355	14773
851.49	14720
851.625	14838
851.76	14701
851.895	14587
852.03	14610
852.165	14762
852.299	14712
852.434	14762
852.569	14727
852.703	14724
852.838	14815
852.973	14826
853.107	14819
853.242	14724
853.376	14537
853.511	14522
853.645	14598
853.78	14731
853.914	14606
854.048	14556
854.183	14530
854.317	14541
854.451	14807
854.585	14598
854.72	14522
854.854	14606
854.988	14541
855.122	14568
855.256	14412
855.39	14556
855.524	14762
855.658	14575
855.792	14602
855.926	14659
856.06	14648
856.194	14716
856.327	14587
856.461	14571
856.595	14522
856.729	14499
856.862	14674
856.996	14575
857.13	14629
857.263	14811
857.397	14693
857.53	14613
857.664	14682
857.797	14667
857.931	14773
858.064	14712
858.197	14629
858.331	14613
858.464	14545
858.597	14438
858.731	14571
858.864	14632
858.997	14556
859.13	14640
859.263	14636
859.396	14560
859.529	14503
859.662	14663
859.795	14541
859.928	14629
860.061	14758
860.194	14815
860.327	14689
860.46	14552
860.592	14773
860.725	14804
860.858	14769
860.99	14556
861.123	14564
861.256	14686
861.388	14705
861.521	15397
861.653	14526
861.786	14587
861.918	14568
862.05	14610
862.183	14617
862.315	14667
862.447	14651
862.58	14598
862.712	14400
862.844	14412
862.976	14499
863.108	14450
863.24	14853
863.372	14317
863.504	14423
863.636	14408
863.768	14495
863.9	14446
864.032	14366
864.164	14301
864.296	14415
864.428	14511
864.559	14499
864.691	14415
864.823	14412
864.954	14427
865.086	14533
865.217	14389
865.349	14358
865.48	14385
865.612	14419
865.743	14640
865.875	14492
866.006	14324
866.137	14457
866.269	14328
866.4	14313
866.531	14343
866.662	14320
866.793	14324
866.924	14355
867.055	14328
867.186	14370
867.317	14347
867.448	14290
867.579	14366
867.71	14240
867.841	14252
867.972	14396
868.103	14419
868.233	14495
868.364	14339
868.495	14457
868.625	14587
868.756	14674
868.886	14575
869.017	14663
869.147	14773
869.278	14667
869.408	14678
869.539	14731
869.669	14678
869.799	14701
869.929	14758
870.06	14777
870.19	15001
870.32	14887
870.45	14933
870.58	15039
870.71	15226
870.84	15043
870.97	15028
871.1	15093
871.23	15230
871.36	15207
871.489	15195
871.619	15142
871.749	15165
871.879	15275
872.008	15420
872.138	15207
872.267	15127
872.397	15169
872.526	15005
872.656	15009
872.785	15138
872.915	15192
873.044	15321
873.173	15180
873.303	15336
873.432	15310
873.561	15336
873.69	15321
873.819	15302
873.948	15344
874.077	15367
874.206	15397
874.335	15393
874.464	15447
874.593	15614
874.722	15523
874.851	15641
874.979	15606
875.108	15561
875.237	15572
875.365	15466
875.494	15542
875.623	15701
875.751	15580
875.88	15614
876.008	15698
876.136	15911
876.265	16025
876.393	16116
876.521	16071
876.65	16032
876.778	15972
876.906	16040
877.034	16059
877.162	15987
877.29	15987
877.418	16063
877.546	15895
877.674	16017
877.802	16097
877.93	16067
878.058	15979
878.185	15983
878.313	16013
878.441	16006
878.568	15926
878.696	15941
878.824	16090
878.951	16257
879.079	16276
879.206	16371
879.333	16284
879.461	16215
879.588	16230
879.715	16379
879.842	16489
879.97	16215
880.097	16067
880.224	15789
880.351	15926
880.478	15876
880.605	15846
880.732	15854
880.859	16105
880.986	15968
881.112	15823
881.239	15713
881.366	15698
881.493	15591
881.619	15526
881.746	15507
881.872	15591
881.999	15534
882.125	15564
882.252	15572
882.378	15606
882.505	15648
882.631	15477
882.757	15344
882.883	15363
883.01	15359
883.136	15287
883.262	15283
883.388	15192
883.514	15428
883.64	15351
883.766	15279
883.892	15127
884.018	15169
884.143	15374
884.269	15504
884.395	15127
884.52	15062
884.646	15081
884.772	15085
884.897	14914
885.023	14952
885.148	15260
885.274	15192
885.399	15176
885.524	15013
885.65	15039
885.775	15119
885.9	15055
886.025	15161
886.15	15009
886.275	15077
886.4	14990
886.525	15116
886.65	14960
886.775	14918
886.9	15077
887.025	15355
887.149	15104
887.274	14944
887.399	14731
887.523	14785
887.648	14838
887.773	14773
887.897	15013
888.021	14975
888.146	14807
888.27	14925
888.395	14956
888.519	14952
888.643	14887
888.767	14933
888.891	14781
889.015	14674
889.139	14792
889.263	14739
889.387	14781
889.511	14906
889.635	14868
889.759	14720
889.883	14769
890.006	14777
890.13	14849
890.254	14678
890.377	14724
890.501	14571
890.624	14514
890.748	14541
890.871	14450
890.995	14507
891.118	14256
891.241	14393
891.364	14457
891.488	14579
891.611	14328
891.734	14374
891.857	14511
891.98	14423
892.103	14552
892.226	14552
892.349	14374
892.471	14271
892.594	14339
892.717	14454
892.839	14415
892.962	14423
893.085	14442
893.207	14427
893.33	14320
893.452	14320
893.575	14362
893.697	14362
893.819	14667
893.941	14575
894.064	14526
894.186	14404
894.308	14362
894.43	14530
894.552	14590
894.674	14636
894.796	14393
894.918	14389
895.04	14465
895.161	14575
895.283	14499
895.405	14423
895.526	14442
895.648	14442
895.769	14503
895.891	14545
896.012	14545
896.134	14560
896.255	14530
896.376	14518
896.498	14518
896.619	14636
896.74	14564
896.861	14590
896.982	14952
897.103	15039
897.224	14849
897.345	14781
897.466	14727
897.587	14739
897.708	14990
897.828	14956
897.949	14777
898.07	14708
898.19	14796
898.311	15005
898.431	14800
898.552	14906
898.672	14960
898.792	15001
898.913	14967
899.033	14815
899.153	14785
899.273	14651
899.393	14636
899.513	14769
899.633	14727
899.753	14811
899.873	14743
899.993	14830
900.113	14724
900.232	14853
900.352	14792
900.472	14693
900.591	14564
900.711	14724
900.83	14537
900.95	14769
901.069	14739
901.189	14644
901.308	14419
901.427	14237
901.546	14252
901.665	14263
901.784	14343
901.904	14107
902.023	14142
902.141	13887
902.26	13902
902.379	13917
902.498	13830
902.617	13765
902.735	13909
902.854	13799
902.973	13814
903.091	13632
903.21	13613
903.328	13548
903.446	13533
903.565	13407
903.683	13365
903.801	13266
903.919	13411
904.038	13373
904.156	13225
904.274	13263
904.392	13221
904.51	13244
904.627	13278
904.745	13282
904.863	13350
904.981	13012
905.098	12947
905.216	13015
905.334	13012
905.451	12905
905.569	12977
905.686	12958
905.803	12977
905.921	12798
906.038	12924
906.155	12749
906.272	12597
906.389	12741
906.506	12513
906.623	12536
906.74	12475
906.857	12403
906.974	12361
907.091	12566
907.208	12608
907.324	12597
907.441	12525
907.557	12239
907.674	12247
907.79	12171
907.907	12232
908.023	12205
908.139	12194
908.256	12159
908.372	12186
908.488	12163
908.604	11980
908.72	12015
908.836	11988
908.952	11996
909.068	11996
909.184	12045
909.3	12049
909.415	12129
909.531	12076
909.647	11752
909.762	11775
909.878	11737
909.993	11828
910.108	11748
910.224	11684
910.339	11851
910.454	11710
910.57	11608
910.685	11532
910.8	11771
910.915	11756
911.03	11638
911.145	11562
911.259	11535
911.374	11497
911.489	11459
911.604	11341
911.718	11174
911.833	11250
911.947	11086
912.062	11094
912.176	11227
912.291	11185
912.405	11223
912.519	11345
912.633	11440
912.748	11208
912.862	11261
912.976	11083
913.09	10999
913.204	10984
913.318	11109
913.431	11242
913.545	11162
913.659	11170
913.772	11048
913.886	10980
914	10923
914.113	11090
914.226	11079
914.34	11045
914.453	10942
914.566	11064
914.68	10953
914.793	10847
914.906	10733
915.019	10683
915.132	10577
915.245	10675
915.358	10733
915.47	10744
915.583	10767
915.696	10733
915.809	10843
915.921	10908
916.034	10733
916.146	10729
916.259	10649
916.371	10809
916.483	10675
916.595	10687
916.708	10622
916.82	10512
916.932	10607
917.044	10641
917.156	10561
917.268	10516
917.38	10478
917.491	10538
917.603	10554
917.715	10577
917.826	10622
917.938	10516
918.049	10398
918.161	10523
918.272	10660
918.384	10729
918.495	10554
918.606	10367
918.717	10375
918.828	10459
918.939	10409
919.05	10215
919.161	10390
919.272	10242
919.383	10261
919.494	10542
919.604	10634
919.715	10493
919.826	10306
919.936	10390
920.047	10546
920.157	10413
920.267	10641
920.378	10409
920.488	10421
920.598	10558
920.708	10759
920.818	10626
920.928	10599
921.038	10763
921.148	10706
921.258	10409
921.368	10402
921.477	10352
921.587	10261
921.697	10177
921.806	10314
921.916	10181
922.025	9911
922.134	9937
922.244	9983
922.353	9953
922.462	9899
922.571	9865
922.68	9580
922.789	9660
922.898	9644
923.007	9557
923.116	9705
923.224	9622
923.333	9667
923.442	9496
923.55	9534
923.659	9549
923.767	9686
923.876	9488
923.984	9618
924.092	9454
924.201	9557
924.309	9500
924.417	9526
924.525	9416
924.633	9526
924.741	10382
924.849	9264
924.956	9420
925.064	9317
925.172	9184
925.279	9237
925.387	9283
925.494	9336
925.602	9382
925.709	9393
925.816	9279
925.924	9389
926.031	9344
926.138	9329
926.245	9401
926.352	9230
926.459	9382
926.566	9450
926.673	9241
926.779	9104
926.886	9207
926.993	9005
927.099	9051
927.206	8952
927.312	8902
927.419	9104
927.525	8998
927.631	9039
927.737	8948
927.843	8895
927.95	8811
928.056	8857
928.162	8933
928.267	8948
928.373	9564
928.479	9028
928.585	8766
928.69	8921
928.796	8941
928.901	8956
929.007	8701
929.112	8807
929.218	8830
929.323	8678
929.428	8739
929.533	8944
929.638	8724
929.743	8670
929.848	8739
929.953	8781
930.058	8693
930.163	8518
930.267	8507
930.372	8693
930.477	8469
930.581	8750
930.685	8583
930.79	8480
930.894	8484
930.998	8412
931.103	8617
931.207	8240
931.311	8218
931.415	8103
931.519	8016
931.623	7970
