Data from test_V78500241_513.txt Node
Date: Fri Mar 25 14:37:17 CST 2022
User: usil
Spectrometer: V785-0024
Trigger mode: 0
Integration Time (sec): 4.000000E-1
Scans to average: 1
Nonlinearity correction enabled: false
Boxcar width: 0
Storing dark spectrum: false
XAxis mode: Wavelengths
Number of Pixels in Spectrum: 1024
>>>>>Begin Spectral Data<<<<<
801.071	27020
801.214	26868
801.356	26697
801.499	26560
801.641	26488
801.783	26366
801.926	26434
802.068	26256
802.211	26210
802.353	26202
802.496	26122
802.638	25936
802.78	25947
802.923	25864
803.065	25818
803.208	25864
803.35	25978
803.492	25997
803.635	26088
803.777	25765
803.919	26054
804.061	26256
804.204	25887
804.346	25868
804.488	25811
804.63	25761
804.773	25750
804.915	25925
805.057	25963
805.199	25959
805.341	25898
805.483	26046
805.626	26024
805.768	25841
805.91	25864
806.052	26039
806.194	25944
806.336	26278
806.478	26149
806.62	25993
806.762	26195
806.904	26537
807.046	26788
807.188	26667
807.33	26636
807.472	26750
807.614	26724
807.756	26940
807.898	26849
808.04	27001
808.182	27298
808.324	27705
808.465	28257
808.607	28702
808.749	29105
808.891	29269
809.033	29448
809.174	29048
809.316	28611
809.458	28166
809.6	27797
809.741	27523
809.883	27313
810.025	27340
810.166	27203
810.308	26948
810.45	26864
810.591	26796
810.733	26450
810.875	26492
811.016	26286
811.158	26370
811.299	26499
811.441	26473
811.582	26469
811.724	26404
811.865	26362
812.007	26389
812.148	26062
812.29	26256
812.431	26533
812.573	26533
812.714	26545
812.855	26792
812.997	26754
813.138	26971
813.279	26872
813.421	26678
813.562	26594
813.703	26571
813.845	26275
813.986	25982
814.127	25909
814.268	25742
814.41	25822
814.551	25818
814.692	25883
814.833	25696
814.974	25624
815.115	25712
815.256	25556
815.397	25628
815.539	25438
815.68	25563
815.821	25293
815.962	25422
816.103	25426
816.244	25297
816.385	25084
816.526	25156
816.666	25076
816.807	24707
816.948	24996
817.089	24909
817.23	24840
817.371	24779
817.512	24890
817.653	24840
817.793	24757
817.934	24741
818.075	24779
818.216	24787
818.356	24642
818.497	24525
818.638	24441
818.778	24521
818.919	24517
819.06	24486
819.2	24593
819.341	24741
819.481	24642
819.622	24844
819.762	24924
819.903	24981
820.043	24745
820.184	24734
820.324	24768
820.465	24867
820.605	24939
820.746	24696
820.886	24639
821.026	24665
821.167	24741
821.307	24779
821.447	24608
821.588	24517
821.728	24319
821.868	24220
822.008	24144
822.149	24095
822.289	23992
822.429	23821
822.569	23866
822.709	23691
822.849	23608
822.99	23573
823.13	23547
823.27	23486
823.41	23383
823.55	23273
823.69	23360
823.83	23356
823.97	23269
824.11	23174
824.25	23056
824.389	23052
824.529	23212
824.669	23083
824.809	23170
824.949	23200
825.089	23079
825.228	23128
825.368	22858
825.508	22885
825.648	22995
825.787	22984
825.927	22976
826.067	22752
826.206	22828
826.346	22911
826.485	22900
826.625	22793
826.765	23052
826.904	22847
827.044	22592
827.183	22542
827.323	22599
827.462	22634
827.601	22405
827.741	22512
827.88	22569
828.02	22519
828.159	22481
828.298	22565
828.437	22519
828.577	22500
828.716	22660
828.855	22424
828.994	22322
829.134	22200
829.273	22390
829.412	22234
829.551	22185
829.69	22226
829.829	22154
829.968	22181
830.107	22154
830.246	22268
830.385	22230
830.524	22097
830.663	22010
830.802	21991
830.941	21823
831.08	21713
831.219	21835
831.357	21911
831.496	21979
831.635	21755
831.774	21762
831.913	21622
832.051	21606
832.19	21622
832.329	21625
832.467	21542
832.606	21378
832.744	21469
832.883	21504
833.022	21477
833.16	21492
833.299	21485
833.437	21538
833.576	21557
833.714	21568
833.852	21583
833.991	21720
834.129	21759
834.267	21800
834.406	21629
834.544	21663
834.682	21583
834.821	21507
834.959	21671
835.097	21549
835.235	21534
835.373	21572
835.511	21439
835.65	21332
835.788	21359
835.926	21252
836.064	21058
836.202	21226
836.34	21374
836.478	21336
836.615	21268
836.753	21252
836.891	21397
837.029	21218
837.167	21256
837.305	21264
837.443	21214
837.58	21058
837.718	21119
837.856	21081
837.993	21108
838.131	21207
838.269	21028
838.406	21104
838.544	21005
838.681	20743
838.819	20864
838.956	20598
839.094	20587
839.231	20670
839.369	20682
839.506	20952
839.643	20853
839.781	20446
839.918	20499
840.055	20533
840.193	20484
840.33	20438
840.467	20503
840.604	20560
840.742	20785
840.879	20370
841.016	20229
841.153	20476
841.29	20590
841.427	20457
841.564	20583
841.701	20488
841.838	20404
841.975	20370
842.112	20385
842.249	20309
842.385	20195
842.522	20556
842.659	20149
842.796	20183
842.933	20256
843.069	20187
843.206	20134
843.343	20286
843.479	20336
843.616	20199
843.752	20031
843.889	20027
844.025	20229
844.162	20073
844.298	20088
844.435	19997
844.571	20020
844.708	20153
844.844	20164
844.98	20237
845.117	20309
845.253	20309
845.389	20503
845.525	20895
845.661	21595
845.798	22276
845.934	23048
846.07	23265
846.206	23250
846.342	22873
846.478	21785
846.614	20868
846.75	20180
846.886	19989
847.022	19898
847.158	19715
847.294	19643
847.429	19499
847.565	19491
847.701	19662
847.837	19213
847.972	19183
848.108	19217
848.244	19270
848.379	19080
848.515	19065
848.65	18928
848.786	18939
848.921	19012
849.057	19027
849.192	19061
849.328	19046
849.463	18989
849.598	18939
849.734	18985
849.869	18871
850.004	18722
850.14	18711
850.275	18787
850.41	18646
850.545	18711
850.68	18696
850.815	18745
850.95	18661
851.085	18871
851.22	18772
851.355	18719
851.49	18665
851.625	18734
851.76	18791
851.895	18642
852.03	18559
852.165	18730
852.299	18700
852.434	18692
852.569	18772
852.703	18601
852.838	18707
852.973	18825
853.107	18821
853.242	18677
853.376	18753
853.511	18536
853.645	18483
853.78	18677
853.914	18623
854.048	18559
854.183	18597
854.317	18593
854.451	18802
854.585	18604
854.72	18578
854.854	18639
854.988	18414
855.122	18578
855.256	18604
855.39	18486
855.524	18620
855.658	18639
855.792	18589
855.926	18654
856.06	18566
856.194	18620
856.327	18551
856.461	18582
856.595	18509
856.729	18384
856.862	18506
856.996	18582
857.13	18627
857.263	18635
857.397	18677
857.53	18547
857.664	18456
857.797	18559
857.931	18711
858.064	18498
858.197	18658
858.331	18544
858.464	18460
858.597	18323
858.731	18399
858.864	18467
858.997	18429
859.13	18578
859.263	18448
859.396	18627
859.529	18574
859.662	18391
859.795	18483
859.928	18551
860.061	18639
860.194	18509
860.327	18559
860.46	18483
860.592	18540
860.725	18654
860.858	18589
860.99	18486
861.123	18384
861.256	18350
861.388	18403
861.521	19236
861.653	18270
861.786	18239
861.918	18407
862.05	18296
862.183	18372
862.315	18521
862.447	18597
862.58	18506
862.712	18262
862.844	18235
862.976	18247
863.108	18391
863.24	18696
863.372	18079
863.504	18296
863.636	18171
863.768	18289
863.9	18152
864.032	18155
864.164	18129
864.296	18254
864.428	18186
864.559	18178
864.691	18224
864.823	18247
864.954	18174
865.086	18213
865.217	18197
865.349	18098
865.48	18095
865.612	18174
865.743	18220
865.875	18148
866.006	18057
866.137	18095
866.269	18125
866.4	18053
866.531	18045
866.662	18045
866.793	18114
866.924	18125
867.055	18186
867.186	18163
867.317	17965
867.448	17973
867.579	18026
867.71	17965
867.841	17992
867.972	18159
868.103	18110
868.233	18007
868.364	18079
868.495	18053
868.625	18323
868.756	18467
868.886	18273
869.017	18167
869.147	18388
869.278	18433
869.408	18361
869.539	18388
869.669	18323
869.799	18426
869.929	18433
870.06	18353
870.19	18700
870.32	18536
870.45	18620
870.58	18802
870.71	18753
870.84	18776
870.97	18684
871.1	18658
871.23	18909
871.36	18829
871.489	18753
871.619	18909
871.749	18920
871.879	18871
872.008	19015
872.138	18878
872.267	18859
872.397	18791
872.526	18726
872.656	18745
872.785	18787
872.915	18909
873.044	18996
873.173	19027
873.303	19091
873.432	18977
873.561	19103
873.69	18928
873.819	18924
873.948	19069
874.077	19050
874.206	18859
874.335	18989
874.464	19164
874.593	19187
874.722	19137
874.851	19331
874.979	19270
875.108	19244
875.237	19240
875.365	19293
875.494	19346
875.623	19384
875.751	19259
875.88	19358
876.008	19499
876.136	19521
876.265	19742
876.393	19921
876.521	19822
876.65	19868
876.778	19662
876.906	19677
877.034	19708
877.162	19769
877.29	19712
877.418	19708
877.546	19803
877.674	19708
877.802	19674
877.93	19822
878.058	19864
878.185	19837
878.313	19921
878.441	19913
878.568	19776
878.696	20008
878.824	20218
878.951	20396
879.079	20651
879.206	20975
879.333	21230
879.461	21332
879.588	21469
879.715	21717
879.842	21545
879.97	21138
880.097	20667
880.224	20343
880.351	20301
880.478	20221
880.605	20039
880.732	20111
880.859	20195
880.986	19997
881.112	20012
881.239	19879
881.366	19677
881.493	19582
881.619	19533
881.746	19586
881.872	19632
881.999	19628
882.125	19559
882.252	19620
882.378	19514
882.505	19635
882.631	19563
882.757	19362
882.883	19373
883.01	19343
883.136	19419
883.262	19217
883.388	19251
883.514	19270
883.64	19422
883.766	19335
883.892	19141
884.018	19164
884.143	19411
884.269	19411
884.395	19202
884.52	19004
884.646	19129
884.772	18951
884.897	18905
885.023	19069
885.148	19133
885.274	19209
885.399	19118
885.524	18970
885.65	19038
885.775	18852
885.9	18825
886.025	19008
886.15	18871
886.275	18810
886.4	18757
886.525	18791
886.65	18825
886.775	18741
886.9	18951
887.025	19038
887.149	18817
887.274	18589
887.399	18479
887.523	18528
887.648	18456
887.773	18551
887.897	18620
888.021	18593
888.146	18414
888.27	18658
888.395	18566
888.519	18544
888.643	18506
888.767	18593
888.891	18418
889.015	18296
889.139	18254
889.263	18285
889.387	18369
889.511	18479
889.635	18376
889.759	18251
889.883	18235
890.006	18266
890.13	18182
890.254	18136
890.377	18106
890.501	18057
890.624	17980
890.748	18003
890.871	17859
890.995	17923
891.118	17630
891.241	17843
891.364	17878
891.488	17939
891.611	17817
891.734	17942
891.857	17843
891.98	17882
892.103	17977
892.226	17866
892.349	17718
892.471	17695
892.594	17657
892.717	17733
892.839	17680
892.962	17638
893.085	17923
893.207	17729
893.33	17726
893.452	17532
893.575	17828
893.697	17684
893.819	17802
893.941	17889
894.064	17809
894.186	17649
894.308	17687
894.43	17821
894.552	17836
894.674	17783
894.796	17653
894.918	17642
895.04	17668
895.161	17783
895.283	17889
895.405	17710
895.526	17809
895.648	17691
895.769	17824
895.891	17760
896.012	17851
896.134	17805
896.255	17691
896.376	17771
896.498	17756
896.619	17931
896.74	17821
896.861	17920
896.982	18152
897.103	18171
897.224	18007
897.345	18079
897.466	17980
897.587	17958
897.708	18209
897.828	18057
897.949	17965
898.07	17912
898.19	17977
898.311	18144
898.431	17977
898.552	18064
898.672	18068
898.792	18098
898.913	17992
899.033	17859
899.153	17809
899.273	17726
899.393	17828
899.513	17813
899.633	17863
899.753	17752
899.873	17767
899.993	17790
900.113	17710
900.232	17809
900.352	17737
900.472	17634
900.591	17657
900.711	17634
900.83	17505
900.95	17737
901.069	17764
901.189	17528
901.308	17376
901.427	17341
901.546	17269
901.665	17296
901.784	17307
901.904	17086
902.023	16946
902.141	16771
902.26	16797
902.379	16824
902.498	16790
902.617	16660
902.735	16786
902.854	16592
902.973	16664
903.091	16371
903.21	16371
903.328	16512
903.446	16352
903.565	16211
903.683	16276
903.801	16215
903.919	16276
904.038	16226
904.156	16059
904.274	16013
904.392	16025
904.51	16044
904.627	15968
904.745	15956
904.863	16067
904.981	15660
905.098	15698
905.216	15682
905.334	15660
905.451	15694
905.569	15595
905.686	15652
905.803	15641
905.921	15458
906.038	15530
906.155	15397
906.272	15348
906.389	15424
906.506	15203
906.623	15142
906.74	15142
906.857	15142
906.974	15119
907.091	15226
907.208	15283
907.324	15214
907.441	15119
907.557	14994
907.674	14925
907.79	14880
907.907	14853
908.023	14876
908.139	14819
908.256	14857
908.372	14754
908.488	14781
908.604	14670
908.72	14503
908.836	14651
908.952	14564
909.068	14667
909.184	14735
909.3	14613
909.415	14537
909.531	14632
909.647	14389
909.762	14347
909.878	14343
909.993	14210
910.108	14225
910.224	14202
910.339	14259
910.454	14244
910.57	14111
910.685	14103
910.8	14332
910.915	14225
911.03	14046
911.145	13947
911.259	13928
911.374	13982
911.489	13917
911.604	13879
911.718	13567
911.833	13738
911.947	13613
912.062	13464
912.176	13594
912.291	13685
912.405	13605
912.519	13791
912.633	13769
912.748	13731
912.862	13628
912.976	13502
913.09	13377
913.204	13464
913.318	13506
913.431	13540
913.545	13624
913.659	13571
913.772	13544
913.886	13362
914	13346
914.113	13316
914.226	13575
914.34	13373
914.453	13327
914.566	13396
914.68	13365
914.793	13213
914.906	13027
915.019	13000
915.132	13031
915.245	12962
915.358	12954
915.47	12981
915.583	13031
915.696	12989
915.809	13190
915.921	13160
916.034	12913
916.146	12966
916.259	12890
916.371	13057
916.483	12909
916.595	12886
916.708	12897
916.82	12867
916.932	12837
917.044	12951
917.156	12844
917.268	12806
917.38	12738
917.491	12684
917.603	12757
917.715	12814
917.826	12852
917.938	12612
918.049	12570
918.161	12757
918.272	12802
918.384	12848
918.495	12639
918.606	12551
918.717	12426
918.828	12623
918.939	12578
919.05	12418
919.161	12559
919.272	12281
919.383	12456
919.494	12464
919.604	12692
919.715	12445
919.826	12327
919.936	12506
920.047	12490
920.157	12525
920.267	12646
920.378	12509
920.488	12433
920.598	12741
920.708	12848
920.818	12642
920.928	12703
921.038	12749
921.148	12658
921.258	12566
921.368	12353
921.477	12247
921.587	12270
921.697	12171
921.806	12380
921.916	12194
922.025	12079
922.134	12049
922.244	11916
922.353	11999
922.462	11760
922.571	11722
922.68	11684
922.789	11581
922.898	11615
923.007	11611
923.116	11649
923.224	11532
923.333	11566
923.442	11516
923.55	11474
923.659	11376
923.767	11566
923.876	11459
923.984	11532
924.092	11391
924.201	11345
924.309	11433
924.417	11436
924.525	11417
924.633	11337
924.741	12076
924.849	11147
924.956	11299
925.064	11128
925.172	11121
925.279	11162
925.387	11208
925.494	11143
925.602	11208
925.709	11223
925.816	11060
925.924	11155
926.031	11185
926.138	11124
926.245	11216
926.352	11041
926.459	11166
926.566	11223
926.673	10976
926.779	10961
926.886	10854
926.993	10824
927.099	10710
927.206	10668
927.312	10687
927.419	10809
927.525	10786
927.631	10778
927.737	10710
927.843	10546
927.95	10535
928.056	10550
928.162	10645
928.267	10672
928.373	11132
928.479	10714
928.585	10493
928.69	10603
928.796	10691
928.901	10500
929.007	10375
929.112	10474
929.218	10432
929.323	10375
929.428	10417
929.533	10485
929.638	10303
929.743	10310
929.848	10409
929.953	10318
930.058	10200
930.163	10112
930.267	10131
930.372	10230
930.477	10173
930.581	10348
930.685	10128
930.79	10055
930.894	9949
930.998	10025
931.103	10112
931.207	9781
931.311	9717
931.415	9660
931.519	9488
931.623	9504
