Data from test_V78500241_3167.txt Node
Date: Fri Mar 25 14:55:46 CST 2022
User: usil
Spectrometer: V785-0024
Trigger mode: 0
Integration Time (sec): 4.000000E-1
Scans to average: 1
Nonlinearity correction enabled: false
Boxcar width: 0
Storing dark spectrum: false
XAxis mode: Wavelengths
Number of Pixels in Spectrum: 1024
>>>>>Begin Spectral Data<<<<<
801.071	22109
801.214	21911
801.356	21618
801.499	21652
801.641	21477
801.783	21348
801.926	21473
802.068	21363
802.211	21329
802.353	21195
802.496	20887
802.638	20838
802.78	20849
802.923	20720
803.065	20636
803.208	20655
803.35	20777
803.492	20849
803.635	20804
803.777	20613
803.919	20765
804.061	21070
804.204	20777
804.346	20701
804.488	20678
804.63	20731
804.773	20663
804.915	20537
805.057	20644
805.199	20598
805.341	20621
805.483	20781
805.626	20659
805.768	20495
805.91	20682
806.052	20678
806.194	20617
806.336	20785
806.478	20465
806.62	20530
806.762	20518
806.904	20853
807.046	21089
807.188	20876
807.33	20990
807.472	20998
807.614	20861
807.756	20925
807.898	20720
808.04	20716
808.182	20670
808.324	20678
808.465	20834
808.607	20891
808.749	21036
808.891	21047
809.033	21249
809.174	20986
809.316	20963
809.458	21028
809.6	20937
809.741	21081
809.883	21074
810.025	21241
810.166	21070
810.308	21127
810.45	21047
810.591	21135
810.733	20918
810.875	20838
811.016	20651
811.158	20674
811.299	20830
811.441	20861
811.582	20849
811.724	20834
811.865	20788
812.007	20792
812.148	20655
812.29	20746
812.431	20933
812.573	21066
812.714	21150
812.855	21344
812.997	21378
813.138	21580
813.279	21447
813.421	21393
813.562	21070
813.703	21020
813.845	20826
813.986	20609
814.127	20377
814.268	20347
814.41	20351
814.551	20457
814.692	20412
814.833	20271
814.974	20294
815.115	20309
815.256	20107
815.397	20119
815.539	20088
815.68	20043
815.821	20046
815.962	20103
816.103	20069
816.244	19734
816.385	19791
816.526	19807
816.666	19677
816.807	19411
816.948	19571
817.089	19510
817.23	19552
817.371	19419
817.512	19377
817.653	19441
817.793	19365
817.934	19415
818.075	19445
818.216	19487
818.356	19350
818.497	19289
818.638	19076
818.778	19114
818.919	19050
819.06	19065
819.2	19255
819.341	19365
819.481	19346
819.622	19381
819.762	19734
819.903	19544
820.043	19438
820.184	19457
820.324	19392
820.465	19597
820.605	19346
820.746	19343
820.886	19263
821.026	19396
821.167	19354
821.307	19502
821.447	19316
821.588	19266
821.728	19126
821.868	18882
822.008	18791
822.149	18924
822.289	18745
822.429	18532
822.569	18494
822.709	18448
822.849	18315
822.99	18258
823.13	18342
823.27	18254
823.41	18049
823.55	18079
823.69	18152
823.83	18144
823.97	18083
824.11	17882
824.25	17920
824.389	17851
824.529	17973
824.669	17805
824.809	17961
824.949	17992
825.089	17999
825.228	17916
825.368	17710
825.508	17619
825.648	17741
825.787	17646
825.927	17691
826.067	17646
826.206	17600
826.346	17707
826.485	17665
826.625	17634
826.765	17821
826.904	17665
827.044	17535
827.183	17512
827.323	17277
827.462	17463
827.601	17242
827.741	17299
827.88	17387
828.02	17174
828.159	17315
828.298	17414
828.437	17501
828.577	17322
828.716	17429
828.855	17311
828.994	17064
829.134	17083
829.273	17071
829.412	17121
829.551	17025
829.69	17079
829.829	17045
829.968	17212
830.107	17136
830.246	17071
830.385	17064
830.524	16904
830.663	16805
830.802	16953
830.941	16771
831.08	16725
831.219	16854
831.357	16809
831.496	16866
831.635	16736
831.774	16687
831.913	16466
832.051	16527
832.19	16481
832.329	16656
832.467	16455
832.606	16363
832.744	16512
832.883	16443
833.022	16436
833.16	16436
833.299	16428
833.437	16462
833.576	16451
833.714	16432
833.852	16459
833.991	16421
834.129	16481
834.267	16455
834.406	16375
834.544	16485
834.682	16478
834.821	16379
834.959	16687
835.097	16382
835.235	16508
835.373	16386
835.511	16421
835.65	16519
835.788	16356
835.926	16261
836.064	16112
836.202	16192
836.34	16462
836.478	16421
836.615	16299
836.753	16341
836.891	16409
837.029	16405
837.167	16390
837.305	16234
837.443	16230
837.58	16200
837.718	16234
837.856	16211
837.993	16211
838.131	16261
838.269	16143
838.406	16078
838.544	16074
838.681	16013
838.819	15876
838.956	15781
839.094	15797
839.231	15895
839.369	16006
839.506	16150
839.643	16097
839.781	15865
839.918	15812
840.055	15854
840.193	15720
840.33	15739
840.467	15793
840.604	15812
840.742	16059
840.879	15713
841.016	15739
841.153	15739
841.29	15850
841.427	15865
841.564	15835
841.701	15808
841.838	15614
841.975	15644
842.112	15648
842.249	15580
842.385	15576
842.522	15690
842.659	15561
842.796	15492
842.933	15477
843.069	15500
843.206	15523
843.343	15797
843.479	15622
843.616	15587
843.752	15370
843.889	15294
844.025	15519
844.162	15329
844.298	15431
844.435	15256
844.571	15226
844.708	15466
844.844	15420
844.98	15458
845.117	15435
845.253	15336
845.389	15264
845.525	15370
845.661	15291
845.798	15123
845.934	15310
846.07	15169
846.206	15146
846.342	15275
846.478	15195
846.614	15062
846.75	14914
846.886	14933
847.022	15104
847.158	14876
847.294	14979
847.429	14952
847.565	14899
847.701	15058
847.837	14632
847.972	14632
848.108	14769
848.244	14697
848.379	14644
848.515	14408
848.65	14469
848.786	14545
848.921	14450
849.057	14621
849.192	14716
849.328	14659
849.463	14503
849.598	14503
849.734	14320
849.869	14389
850.004	14347
850.14	14336
850.275	14256
850.41	14301
850.545	14221
850.68	14221
850.815	14309
850.95	14237
851.085	14492
851.22	14385
851.355	14324
851.49	14221
851.625	14225
851.76	14237
851.895	14191
852.03	14142
852.165	14233
852.299	14278
852.434	14358
852.569	14305
852.703	14294
852.838	14423
852.973	14434
853.107	14438
853.242	14252
853.376	14244
853.511	14005
853.645	14134
853.78	14298
853.914	14100
854.048	14130
854.183	14103
854.317	14065
854.451	14259
854.585	14153
854.72	14111
854.854	14153
854.988	14126
855.122	14088
855.256	13993
855.39	14142
855.524	14172
855.658	14225
855.792	14168
855.926	14267
856.06	14172
856.194	14267
856.327	14077
856.461	14180
856.595	14107
856.729	14176
856.862	14298
856.996	14206
857.13	14370
857.263	14324
857.397	14324
857.53	14126
857.664	14164
857.797	14240
857.931	14240
858.064	14168
858.197	14267
858.331	14210
858.464	14161
858.597	14035
858.731	14164
858.864	14119
858.997	14130
859.13	14191
859.263	14115
859.396	14290
859.529	14195
859.662	14142
859.795	14183
859.928	14191
860.061	14271
860.194	14396
860.327	14225
860.46	14084
860.592	14248
860.725	14252
860.858	14256
860.99	14187
861.123	14008
861.256	14149
861.388	14111
861.521	14967
861.653	14046
861.786	13978
861.918	13982
862.05	14058
862.183	13974
862.315	14180
862.447	14214
862.58	14111
862.712	13989
862.844	13814
862.976	13982
863.108	13978
863.24	14347
863.372	13890
863.504	13909
863.636	13898
863.768	13932
863.9	13917
864.032	13951
864.164	13970
864.296	13932
864.428	14077
864.559	14024
864.691	14088
864.823	14016
864.954	13940
865.086	13928
865.217	13902
865.349	13795
865.48	13856
865.612	13993
865.743	14172
865.875	13967
866.006	13944
866.137	13925
866.269	13898
866.4	14016
866.531	13959
866.662	13811
866.793	13784
866.924	13871
867.055	13982
867.186	13940
867.317	13898
867.448	13784
867.579	13875
867.71	13936
867.841	13780
867.972	13921
868.103	13986
868.233	13940
868.364	13864
868.495	13997
868.625	14149
868.756	14259
868.886	14069
869.017	14195
869.147	14324
869.278	14237
869.408	14347
869.539	14252
869.669	14221
869.799	14202
869.929	14355
870.06	14202
870.19	14434
870.32	14446
870.45	14507
870.58	14568
870.71	14651
870.84	14716
870.97	14674
871.1	14625
871.23	14682
871.36	14765
871.489	14674
871.619	14705
871.749	14788
871.879	14777
872.008	14925
872.138	14727
872.267	14845
872.397	14613
872.526	14644
872.656	14568
872.785	14640
872.915	14849
873.044	14941
873.173	14807
873.303	14842
873.432	14823
873.561	14960
873.69	14899
873.819	14773
873.948	14864
874.077	14845
874.206	14792
874.335	14834
874.464	15047
874.593	15135
874.722	15165
874.851	15131
874.979	15203
875.108	15142
875.237	15089
875.365	15032
875.494	15070
875.623	15233
875.751	15097
875.88	15249
876.008	15279
876.136	15405
876.265	15553
876.393	15739
876.521	15717
876.65	15701
876.778	15644
876.906	15477
877.034	15576
877.162	15576
877.29	15496
877.418	15580
877.546	15591
877.674	15606
877.802	15530
877.93	15660
878.058	15469
878.185	15416
878.313	15519
878.441	15618
878.568	15370
878.696	15515
878.824	15557
878.951	15500
879.079	15690
879.206	15842
879.333	15686
879.461	15599
879.588	15641
879.715	15724
879.842	15975
879.97	15603
880.097	15348
880.224	15340
880.351	15431
880.478	15393
880.605	15397
880.732	15458
880.859	15644
880.986	15431
881.112	15435
881.239	15256
881.366	15268
881.493	15119
881.619	15051
881.746	14941
881.872	15036
881.999	15058
882.125	14921
882.252	15150
882.378	15161
882.505	15241
882.631	15085
882.757	14823
882.883	14868
883.01	14990
883.136	14845
883.262	14853
883.388	14834
883.514	14933
883.64	14880
883.766	14823
883.892	14640
884.018	14758
884.143	14906
884.269	15028
884.395	14575
884.52	14602
884.646	14625
884.772	14575
884.897	14495
885.023	14511
885.148	14754
885.274	14811
885.399	14708
885.524	14533
885.65	14590
885.775	14579
885.9	14571
886.025	14792
886.15	14743
886.275	14427
886.4	14423
886.525	14530
886.65	14454
886.775	14480
886.9	14716
887.025	14765
887.149	14625
887.274	14454
887.399	14404
887.523	14431
887.648	14343
887.773	14309
887.897	14556
888.021	14537
888.146	14336
888.27	14560
888.395	14632
888.519	14503
888.643	14518
888.767	14454
888.891	14332
889.015	14275
889.139	14294
889.263	14301
889.387	14431
889.511	14450
889.635	14389
889.759	14237
889.883	14278
890.006	14259
890.13	14415
890.254	14195
890.377	14256
890.501	14157
890.624	14210
890.748	14183
890.871	13970
890.995	13917
891.118	13951
891.241	13978
891.364	13974
891.488	14119
891.611	13978
891.734	13993
891.857	14107
891.98	14050
892.103	14084
892.226	14069
892.349	14065
892.471	13830
892.594	13894
892.717	14024
892.839	14031
892.962	13955
893.085	14058
893.207	14039
893.33	13811
893.452	14039
893.575	14119
893.697	14001
893.819	14077
893.941	14225
894.064	14229
894.186	13906
894.308	13955
894.43	14096
894.552	14229
894.674	14081
894.796	13947
894.918	14012
895.04	14001
895.161	14176
895.283	14001
895.405	13986
895.526	14107
895.648	14199
895.769	14172
895.891	14252
896.012	14191
896.134	14180
896.255	14161
896.376	14164
896.498	14164
896.619	14252
896.74	14161
896.861	14180
896.982	14412
897.103	14613
897.224	14526
897.345	14385
897.466	14278
897.587	14503
897.708	14571
897.828	14389
897.949	14495
898.07	14339
898.19	14454
898.311	14640
898.431	14473
898.552	14533
898.672	14636
898.792	14651
898.913	14621
899.033	14503
899.153	14374
899.273	14263
899.393	14408
899.513	14396
899.633	14336
899.753	14434
899.873	14237
899.993	14317
900.113	14332
900.232	14351
900.352	14267
900.472	14294
900.591	14164
900.711	14248
900.83	14153
900.95	14351
901.069	14347
901.189	14164
901.308	14012
901.427	13902
901.546	13875
901.665	13928
901.784	13944
901.904	13818
902.023	13750
902.141	13521
902.26	13487
902.379	13559
902.498	13499
902.617	13415
902.735	13472
902.854	13632
902.973	13403
903.091	13198
903.21	13175
903.328	13187
903.446	13129
903.565	13088
903.683	13095
903.801	12985
903.919	13145
904.038	13107
904.156	12882
904.274	13000
904.392	12890
904.51	12802
904.627	12833
904.745	12901
904.863	12852
904.981	12688
905.098	12631
905.216	12604
905.334	12650
905.451	12578
905.569	12555
905.686	12631
905.803	12654
905.921	12403
906.038	12433
906.155	12452
906.272	12266
906.389	12372
906.506	12144
906.623	12197
906.74	12102
906.857	12038
906.974	12022
907.091	12300
907.208	12304
907.324	12197
907.441	12152
907.557	11942
907.674	11893
907.79	11741
907.907	11847
908.023	11996
908.139	11988
908.256	11870
908.372	11840
908.488	11828
908.604	11741
908.72	11627
908.836	11680
908.952	11615
909.068	11695
909.184	11726
909.3	11680
909.415	11726
909.531	11767
909.647	11482
909.762	11467
909.878	11398
909.993	11406
910.108	11387
910.224	11410
910.339	11486
910.454	11345
910.57	11258
910.685	11201
910.8	11486
910.915	11482
911.03	11307
911.145	11178
911.259	11098
911.374	11079
911.489	11018
911.604	11060
911.718	10957
911.833	10873
911.947	10850
912.062	10698
912.176	10911
912.291	10850
912.405	10892
912.519	11075
912.633	11086
912.748	10972
912.862	10911
912.976	10839
913.09	10656
913.204	10683
913.318	10759
913.431	10889
913.545	10869
913.659	10873
913.772	10714
913.886	10721
914	10588
914.113	10683
914.226	10740
914.34	10885
914.453	10596
914.566	10744
914.68	10569
914.793	10603
914.906	10443
915.019	10352
915.132	10322
915.245	10363
915.358	10432
915.47	10481
915.583	10440
915.696	10504
915.809	10542
915.921	10554
916.034	10405
916.146	10356
916.259	10268
916.371	10424
916.483	10413
916.595	10341
916.708	10337
916.82	10363
916.932	10337
917.044	10352
917.156	10287
917.268	10223
917.38	10272
917.491	10211
917.603	10257
917.715	10310
917.826	10341
917.938	10154
918.049	10051
918.161	10242
918.272	10405
918.384	10363
918.495	10303
918.606	10131
918.717	10105
918.828	10162
918.939	10169
919.05	10055
919.161	10139
919.272	9941
919.383	9983
919.494	10207
919.604	10348
919.715	10063
919.826	10097
919.936	10131
920.047	10227
920.157	10192
920.267	10280
920.378	10230
920.488	10078
920.598	10363
920.708	10538
920.818	10291
920.928	10344
921.038	10451
921.148	10512
921.258	10131
921.368	10067
921.477	10032
921.587	9972
921.697	9911
921.806	10055
921.916	9930
922.025	9701
922.134	9705
922.244	9614
922.353	9698
922.462	9675
922.571	9648
922.68	9458
922.789	9458
922.898	9450
923.007	9294
923.116	9370
923.224	9401
923.333	9431
923.442	9275
923.55	9336
923.659	9348
923.767	9298
923.876	9253
923.984	9321
924.092	9253
924.201	9245
924.309	9245
924.417	9287
924.525	9165
924.633	9256
924.741	10147
924.849	9036
924.956	9233
925.064	9097
925.172	8956
925.279	9024
925.387	9020
925.494	9123
925.602	9230
925.709	9047
925.816	9043
925.924	9028
926.031	9184
926.138	9070
926.245	9112
926.352	9066
926.459	9062
926.566	9207
926.673	9013
926.779	8895
926.886	8918
926.993	8743
927.099	8758
927.206	8800
927.312	8663
927.419	8769
927.525	8724
927.631	8811
927.737	8758
927.843	8724
927.95	8530
928.056	8773
928.162	8659
928.267	8766
928.373	9249
928.479	8754
928.585	8434
928.69	8689
928.796	8667
928.901	8610
929.007	8431
929.112	8552
929.218	8568
929.323	8495
929.428	8473
929.533	8659
929.638	8385
929.743	8492
929.848	8545
929.953	8446
930.058	8480
930.163	8214
930.267	8252
930.372	8415
930.477	8275
930.581	8522
930.685	8355
930.79	8252
930.894	8290
930.998	8180
931.103	8400
931.207	7944
931.311	7932
931.415	7898
931.519	7731
931.623	7731
