Data from test_V78500241_1805.txt Node
Date: Fri Mar 25 14:46:16 CST 2022
User: usil
Spectrometer: V785-0024
Trigger mode: 0
Integration Time (sec): 4.000000E-1
Scans to average: 1
Nonlinearity correction enabled: false
Boxcar width: 0
Storing dark spectrum: false
XAxis mode: Wavelengths
Number of Pixels in Spectrum: 1024
>>>>>Begin Spectral Data<<<<<
801.071	22200
801.214	22093
801.356	21797
801.499	21614
801.641	21454
801.783	21519
801.926	21622
802.068	21332
802.211	21348
802.353	21218
802.496	21154
802.638	20975
802.78	21058
802.923	20777
803.065	20804
803.208	20750
803.35	20845
803.492	20872
803.635	20921
803.777	20864
803.919	20849
804.061	21146
804.204	20948
804.346	20800
804.488	20743
804.63	20838
804.773	20769
804.915	20804
805.057	20864
805.199	20819
805.341	20781
805.483	20857
805.626	20811
805.768	20659
805.91	20788
806.052	20765
806.194	20670
806.336	20967
806.478	20708
806.62	20678
806.762	20750
806.904	20975
807.046	21074
807.188	21104
807.33	21066
807.472	21226
807.614	21032
807.756	20990
807.898	20883
808.04	20727
808.182	20720
808.324	20864
808.465	20842
808.607	21055
808.749	21142
808.891	21279
809.033	21256
809.174	21169
809.316	21123
809.458	21218
809.6	21119
809.741	21237
809.883	21249
810.025	21405
810.166	21397
810.308	21317
810.45	21279
810.591	21135
810.733	20895
810.875	20975
811.016	20842
811.158	20750
811.299	21039
811.441	20963
811.582	21001
811.724	20994
811.865	20819
812.007	20864
812.148	20864
812.29	20785
812.431	21070
812.573	21260
812.714	21279
812.855	21439
812.997	21507
813.138	21743
813.279	21507
813.421	21443
813.562	21325
813.703	21089
813.845	21032
813.986	20834
814.127	20541
814.268	20442
814.41	20457
814.551	20571
814.692	20469
814.833	20408
814.974	20480
815.115	20533
815.256	20393
815.397	20343
815.539	20404
815.68	20130
815.821	20176
815.962	20282
816.103	20183
816.244	20092
816.385	19997
816.526	19951
816.666	19864
816.807	19548
816.948	19757
817.089	19780
817.23	19616
817.371	19632
817.512	19689
817.653	19605
817.793	19632
817.934	19685
818.075	19639
818.216	19635
818.356	19518
818.497	19411
818.638	19141
818.778	19312
818.919	19247
819.06	19430
819.2	19472
819.341	19422
819.481	19514
819.622	19635
819.762	19826
819.903	19704
820.043	19750
820.184	19575
820.324	19616
820.465	19597
820.605	19651
820.746	19571
820.886	19365
821.026	19578
821.167	19540
821.307	19620
821.447	19624
821.588	19464
821.728	19324
821.868	19129
822.008	19099
822.149	18989
822.289	19031
822.429	18798
822.569	18665
822.709	18810
822.849	18536
822.99	18502
823.13	18551
823.27	18456
823.41	18395
823.55	18342
823.69	18330
823.83	18403
823.97	18262
824.11	18155
824.25	18068
824.389	18144
824.529	18182
824.669	18186
824.809	18239
824.949	18121
825.089	18117
825.228	18190
825.368	17874
825.508	17893
825.648	17973
825.787	17897
825.927	17889
826.067	17821
826.206	17786
826.346	17965
826.485	17840
826.625	17988
826.765	17950
826.904	17950
827.044	17661
827.183	17581
827.323	17512
827.462	17638
827.601	17627
827.741	17535
827.88	17566
828.02	17440
828.159	17577
828.298	17638
828.437	17695
828.577	17471
828.716	17691
828.855	17474
828.994	17383
829.134	17334
829.273	17406
829.412	17337
829.551	17368
829.69	17368
829.829	17280
829.968	17528
830.107	17326
830.246	17417
830.385	17265
830.524	17189
830.663	17265
830.802	17041
830.941	17010
831.08	16820
831.219	17079
831.357	16934
831.496	17197
831.635	16839
831.774	16915
831.913	16862
832.051	16748
832.19	16752
832.329	16774
832.467	16660
832.606	16500
832.744	16577
832.883	16634
833.022	16565
833.16	16725
833.299	16698
833.437	16641
833.576	16721
833.714	16691
833.852	16569
833.991	16774
834.129	16683
834.267	16687
834.406	16713
834.544	16759
834.682	16725
834.821	16611
834.959	16866
835.097	16694
835.235	16843
835.373	16710
835.511	16668
835.65	16683
835.788	16588
835.926	16443
836.064	16409
836.202	16428
836.34	16733
836.478	16679
836.615	16561
836.753	16569
836.891	16577
837.029	16596
837.167	16622
837.305	16519
837.443	16573
837.58	16459
837.718	16603
837.856	16424
837.993	16341
838.131	16489
838.269	16394
838.406	16360
838.544	16386
838.681	16181
838.819	16120
838.956	16078
839.094	16036
839.231	16158
839.369	16158
839.506	16386
839.643	16211
839.781	16025
839.918	15964
840.055	16032
840.193	15964
840.33	15987
840.467	16067
840.604	16029
840.742	16360
840.879	16040
841.016	15994
841.153	15884
841.29	16143
841.427	15994
841.564	15918
841.701	16059
841.838	16055
841.975	15926
842.112	15857
842.249	15789
842.385	15781
842.522	15987
842.659	15793
842.796	15930
842.933	15857
843.069	15800
843.206	15660
843.343	15789
843.479	15759
843.616	15861
843.752	15614
843.889	15641
844.025	15732
844.162	15629
844.298	15663
844.435	15580
844.571	15572
844.708	15561
844.844	15701
844.98	15694
845.117	15701
845.253	15587
845.389	15412
845.525	15553
845.661	15576
845.798	15317
845.934	15526
846.07	15325
846.206	15564
846.342	15500
846.478	15359
846.614	15237
846.75	15188
846.886	15043
847.022	15256
847.158	15252
847.294	15127
847.429	15112
847.565	15173
847.701	15393
847.837	14823
847.972	14857
848.108	14986
848.244	14944
848.379	14830
848.515	14769
848.65	14765
848.786	14773
848.921	14758
849.057	14887
849.192	14796
849.328	14727
849.463	14864
849.598	14682
849.734	14727
849.869	14739
850.004	14579
850.14	14583
850.275	14682
850.41	14400
850.545	14503
850.68	14457
850.815	14503
850.95	14564
851.085	14659
851.22	14598
851.355	14484
851.49	14480
851.625	14583
851.76	14469
851.895	14381
852.03	14385
852.165	14488
852.299	14507
852.434	14530
852.569	14590
852.703	14488
852.838	14613
852.973	14724
853.107	14598
853.242	14492
853.376	14507
853.511	14324
853.645	14374
853.78	14541
853.914	14362
854.048	14454
854.183	14366
854.317	14533
854.451	14518
854.585	14457
854.72	14355
854.854	14450
854.988	14256
855.122	14381
855.256	14271
855.39	14415
855.524	14488
855.658	14511
855.792	14408
855.926	14454
856.06	14351
856.194	14514
856.327	14408
856.461	14324
856.595	14278
856.729	14355
856.862	14533
856.996	14480
857.13	14454
857.263	14408
857.397	14545
857.53	14419
857.664	14469
857.797	14492
857.931	14465
858.064	14465
858.197	14457
858.331	14446
858.464	14370
858.597	14305
858.731	14320
858.864	14446
858.997	14374
859.13	14442
859.263	14492
859.396	14545
859.529	14389
859.662	14317
859.795	14339
859.928	14492
860.061	14518
860.194	14533
860.327	14381
860.46	14438
860.592	14488
860.725	14533
860.858	14537
860.99	14404
861.123	14282
861.256	14366
861.388	14480
861.521	14994
861.653	14278
861.786	14168
861.918	14256
862.05	14301
862.183	14457
862.315	14355
862.447	14507
862.58	14282
862.712	14149
862.844	14153
862.976	14206
863.108	14221
863.24	14522
863.372	14161
863.504	14107
863.636	14168
863.768	14214
863.9	14206
864.032	14073
864.164	14054
864.296	14210
864.428	14305
864.559	14263
864.691	14282
864.823	14214
864.954	14275
865.086	14278
865.217	14164
865.349	14084
865.48	14161
865.612	14263
865.743	14298
865.875	14161
866.006	14168
866.137	14153
866.269	14195
866.4	14058
866.531	14142
866.662	14096
866.793	14081
866.924	14176
867.055	14221
867.186	14214
867.317	14088
867.448	14096
867.579	14123
867.71	14065
867.841	14050
867.972	14183
868.103	14092
868.233	14229
868.364	14126
868.495	14248
868.625	14381
868.756	14446
868.886	14393
869.017	14214
869.147	14514
869.278	14556
869.408	14522
869.539	14450
869.669	14480
869.799	14442
869.929	14533
870.06	14526
870.19	14693
870.32	14670
870.45	14796
870.58	14754
870.71	14826
870.84	14937
870.97	14788
871.1	14727
871.23	15028
871.36	15001
871.489	14876
871.619	14918
871.749	14941
871.879	15097
872.008	14990
872.138	15036
872.267	15058
872.397	14899
872.526	14769
872.656	14804
872.785	14868
872.915	14929
873.044	15051
873.173	15093
873.303	15123
873.432	15176
873.561	15135
873.69	15085
873.819	14944
873.948	15154
874.077	15085
874.206	15104
874.335	15070
874.464	15291
874.593	15329
874.722	15302
874.851	15317
874.979	15439
875.108	15454
875.237	15237
875.365	15245
875.494	15370
875.623	15447
875.751	15291
875.88	15389
876.008	15519
876.136	15584
876.265	15774
876.393	15941
876.521	15800
876.65	15838
876.778	15728
876.906	15682
877.034	15800
877.162	15759
877.29	15720
877.418	15671
877.546	15762
877.674	15762
877.802	15743
877.93	15762
878.058	15736
878.185	15625
878.313	15713
878.441	15770
878.568	15549
878.696	15606
878.824	15831
878.951	15880
879.079	15922
879.206	16158
879.333	15983
879.461	15770
879.588	15880
879.715	15979
879.842	16063
879.97	15899
880.097	15564
880.224	15682
880.351	15690
880.478	15663
880.605	15523
880.732	15595
880.859	15869
880.986	15675
881.112	15587
881.239	15618
881.366	15405
881.493	15283
881.619	15207
881.746	15321
881.872	15310
881.999	15268
882.125	15169
882.252	15275
882.378	15287
882.505	15439
882.631	15176
882.757	15176
882.883	15131
883.01	15097
883.136	14956
883.262	15017
883.388	14872
883.514	15127
883.64	15135
883.766	15089
883.892	14929
884.018	14956
884.143	15001
884.269	15230
884.395	14857
884.52	14739
884.646	14842
884.772	14807
884.897	14842
885.023	14781
885.148	14891
885.274	15055
885.399	14891
885.524	14834
885.65	14807
885.775	14788
885.9	14735
886.025	14906
886.15	14861
886.275	14708
886.4	14689
886.525	14781
886.65	14754
886.775	14731
886.9	14880
887.025	14990
887.149	14811
887.274	14602
887.399	14526
887.523	14530
887.648	14568
887.773	14454
887.897	14781
888.021	14727
888.146	14560
888.27	14773
888.395	14788
888.519	14621
888.643	14693
888.767	14629
888.891	14571
889.015	14415
889.139	14507
889.263	14438
889.387	14549
889.511	14682
889.635	14575
889.759	14530
889.883	14492
890.006	14564
890.13	14537
890.254	14446
890.377	14465
890.501	14286
890.624	14233
890.748	14366
890.871	14225
890.995	14043
891.118	14111
891.241	14202
891.364	14225
891.488	14256
891.611	14183
891.734	14195
891.857	14286
891.98	14336
892.103	14290
892.226	14282
892.349	14168
892.471	14077
892.594	14130
892.717	14149
892.839	14134
892.962	14259
893.085	14324
893.207	14111
893.33	14103
893.452	14134
893.575	14240
893.697	14115
893.819	14393
893.941	14389
894.064	14313
894.186	14225
894.308	14195
894.43	14355
894.552	14404
894.674	14370
894.796	14199
894.918	14161
895.04	14267
895.161	14336
895.283	14252
895.405	14164
895.526	14309
895.648	14176
895.769	14336
895.891	14438
896.012	14404
896.134	14396
896.255	14320
896.376	14267
896.498	14362
896.619	14492
896.74	14389
896.861	14408
896.982	14655
897.103	14804
897.224	14720
897.345	14655
897.466	14625
897.587	14625
897.708	14773
897.828	14613
897.949	14606
898.07	14492
898.19	14621
898.311	14769
898.431	14617
898.552	14701
898.672	14807
898.792	14792
898.913	14693
899.033	14507
899.153	14552
899.273	14541
899.393	14530
899.513	14598
899.633	14469
899.753	14556
899.873	14560
899.993	14545
900.113	14514
900.232	14556
900.352	14530
900.472	14503
900.591	14415
900.711	14465
900.83	14385
900.95	14556
901.069	14454
901.189	14282
901.308	14168
901.427	14024
901.546	14069
901.665	14096
901.784	14103
901.904	13959
902.023	13795
902.141	13685
902.26	13750
902.379	13734
902.498	13624
902.617	13624
902.735	13696
902.854	13708
902.973	13620
903.091	13369
903.21	13400
903.328	13320
903.446	13293
903.565	13141
903.683	13301
903.801	13133
903.919	13183
904.038	13251
904.156	13031
904.274	12985
904.392	12977
904.51	12939
904.627	12966
904.745	13000
904.863	13145
904.981	12852
905.098	12715
905.216	12825
905.334	12738
905.451	12783
905.569	12696
905.686	12707
905.803	12578
905.921	12517
906.038	12620
906.155	12536
906.272	12540
906.389	12483
906.506	12369
906.623	12350
906.74	12292
906.857	12190
906.974	12220
907.091	12380
907.208	12448
907.324	12372
907.441	12197
907.557	12129
907.674	12114
907.79	12026
907.907	12030
908.023	12095
908.139	12045
908.256	12045
908.372	11897
908.488	11897
908.604	11882
908.72	11878
908.836	11775
908.952	11752
909.068	11939
909.184	11901
909.3	11889
909.415	11961
909.531	11878
909.647	11627
909.762	11539
909.878	11570
909.993	11596
910.108	11539
910.224	11642
910.339	11570
910.454	11528
910.57	11463
910.685	11421
910.8	11699
910.915	11570
911.03	11512
911.145	11326
911.259	11265
911.374	11296
911.489	11239
911.604	11231
911.718	11083
911.833	11022
911.947	10938
912.062	10915
912.176	10995
912.291	11010
912.405	10938
912.519	11166
912.633	11223
912.748	11083
912.862	11140
912.976	10961
913.09	10854
913.204	10904
913.318	10987
913.431	10999
913.545	11010
913.659	11018
913.772	10904
913.886	10740
914	10854
914.113	10904
914.226	10968
914.34	10934
914.453	10831
914.566	10965
914.68	10755
914.793	10641
914.906	10527
915.019	10493
915.132	10440
915.245	10531
915.358	10550
915.47	10474
915.583	10569
915.696	10653
915.809	10656
915.921	10717
916.034	10481
916.146	10561
916.259	10455
916.371	10588
916.483	10512
916.595	10489
916.708	10459
916.82	10462
916.932	10538
917.044	10500
917.156	10478
917.268	10417
917.38	10390
917.491	10394
917.603	10367
917.715	10470
917.826	10470
917.938	10409
918.049	10238
918.161	10398
918.272	10615
918.384	10577
918.495	10398
918.606	10291
918.717	10223
918.828	10295
918.939	10261
919.05	10204
919.161	10192
919.272	10154
919.383	10204
919.494	10299
919.604	10516
919.715	10352
919.826	10204
919.936	10303
920.047	10375
920.157	10318
920.267	10523
920.378	10299
920.488	10265
920.598	10440
920.708	10592
920.818	10489
920.928	10478
921.038	10698
921.148	10592
921.258	10261
921.368	10230
921.477	10128
921.587	10112
921.697	10010
921.806	10188
921.916	9991
922.025	9880
922.134	9800
922.244	9781
922.353	9915
922.462	9713
922.571	9671
922.68	9561
922.789	9500
922.898	9515
923.007	9466
923.116	9564
923.224	9504
923.333	9492
923.442	9435
923.55	9416
923.659	9393
923.767	9458
923.876	9367
923.984	9443
924.092	9348
924.201	9450
924.309	9420
924.417	9389
924.525	9249
924.633	9408
924.741	10219
924.849	9188
924.956	9348
925.064	9184
925.172	9051
925.279	9131
925.387	9180
925.494	9161
925.602	9207
925.709	9226
925.816	9081
925.924	9127
926.031	9268
926.138	9203
926.245	9260
926.352	9112
926.459	9287
926.566	9226
926.673	9131
926.779	9001
926.886	9055
926.993	9005
927.099	8880
927.206	8781
927.312	8891
927.419	8986
927.525	8990
927.631	8963
927.737	8811
927.843	8792
927.95	8689
928.056	8830
928.162	8830
928.267	8842
928.373	9355
928.479	8899
928.585	8552
928.69	8746
928.796	8800
928.901	8705
929.007	8545
929.112	8735
929.218	8682
929.323	8571
929.428	8617
929.533	8769
929.638	8507
929.743	8632
929.848	8648
929.953	8579
930.058	8518
930.163	8324
930.267	8396
930.372	8545
930.477	8377
930.581	8549
930.685	8415
930.79	8290
930.894	8381
930.998	8282
931.103	8427
931.207	8100
931.311	8100
931.415	8035
931.519	7734
931.623	7830
