Data from test_V78500241_2392.txt Node
Date: Fri Mar 25 14:50:22 CST 2022
User: usil
Spectrometer: V785-0024
Trigger mode: 0
Integration Time (sec): 4.000000E-1
Scans to average: 1
Nonlinearity correction enabled: false
Boxcar width: 0
Storing dark spectrum: false
XAxis mode: Wavelengths
Number of Pixels in Spectrum: 1024
>>>>>Begin Spectral Data<<<<<
801.071	22204
801.214	22082
801.356	21842
801.499	21656
801.641	21526
801.783	21553
801.926	21618
802.068	21515
802.211	21302
802.353	21249
802.496	21138
802.638	21028
802.78	20963
802.923	20906
803.065	20868
803.208	20777
803.35	20845
803.492	20918
803.635	21074
803.777	20845
803.919	20842
804.061	21135
804.204	20910
804.346	20925
804.488	20781
804.63	20811
804.773	20697
804.915	20750
805.057	20773
805.199	20750
805.341	20826
805.483	20956
805.626	20834
805.768	20754
805.91	20895
806.052	20716
806.194	20823
806.336	20891
806.478	20716
806.62	20682
806.762	20720
806.904	20914
807.046	21268
807.188	21154
807.33	21074
807.472	21123
807.614	21013
807.756	21096
807.898	20872
808.04	20845
808.182	20861
808.324	20849
808.465	20845
808.607	21188
808.749	21218
808.891	21188
809.033	21287
809.174	21214
809.316	21184
809.458	21211
809.6	21173
809.741	21119
809.883	21154
810.025	21195
810.166	21260
810.308	21325
810.45	21256
810.591	21237
810.733	21028
810.875	20963
811.016	20864
811.158	20830
811.299	20952
811.441	21043
811.582	21066
811.724	20910
811.865	20883
812.007	20861
812.148	20834
812.29	20937
812.431	21032
812.573	21157
812.714	21222
812.855	21458
812.997	21378
813.138	21583
813.279	21488
813.421	21500
813.562	21382
813.703	21195
813.845	21096
813.986	20754
814.127	20640
814.268	20632
814.41	20446
814.551	20484
814.692	20682
814.833	20374
814.974	20408
815.115	20499
815.256	20374
815.397	20271
815.539	20240
815.68	20267
815.821	20111
815.962	20225
816.103	20240
816.244	19993
816.385	20024
816.526	19913
816.666	19757
816.807	19525
816.948	19693
817.089	19715
817.23	19533
817.371	19613
817.512	19563
817.653	19590
817.793	19491
817.934	19502
818.075	19586
818.216	19594
818.356	19563
818.497	19445
818.638	19289
818.778	19244
818.919	19297
819.06	19377
819.2	19396
819.341	19514
819.481	19464
819.622	19658
819.762	19887
819.903	19666
820.043	19586
820.184	19499
820.324	19544
820.465	19708
820.605	19556
820.746	19563
820.886	19297
821.026	19525
821.167	19578
821.307	19540
821.447	19434
821.588	19365
821.728	19228
821.868	19236
822.008	18958
822.149	18958
822.289	18985
822.429	18779
822.569	18608
822.709	18608
822.849	18528
822.99	18456
823.13	18399
823.27	18448
823.41	18243
823.55	18182
823.69	18235
823.83	18319
823.97	18213
824.11	17999
824.25	18079
824.389	18007
824.529	18110
824.669	18045
824.809	18247
824.949	18045
825.089	18129
825.228	18045
825.368	17893
825.508	17904
825.648	17847
825.787	17897
825.927	17866
826.067	17767
826.206	17764
826.346	17851
826.485	17707
826.625	17813
826.765	17885
826.904	17912
827.044	17615
827.183	17520
827.323	17581
827.462	17589
827.601	17493
827.741	17410
827.88	17558
828.02	17349
828.159	17421
828.298	17547
828.437	17585
828.577	17562
828.716	17543
828.855	17520
828.994	17261
829.134	17151
829.273	17330
829.412	17159
829.551	17090
829.69	17197
829.829	17189
829.968	17433
830.107	17299
830.246	17231
830.385	17197
830.524	17121
830.663	17079
830.802	16961
830.941	16843
831.08	16831
831.219	16984
831.357	16812
831.496	17098
831.635	16824
831.774	16824
831.913	16793
832.051	16588
832.19	16596
832.329	16702
832.467	16637
832.606	16596
832.744	16493
832.883	16573
833.022	16485
833.16	16519
833.299	16653
833.437	16561
833.576	16599
833.714	16615
833.852	16558
833.991	16565
834.129	16626
834.267	16615
834.406	16569
834.544	16592
834.682	16702
834.821	16569
834.959	16835
835.097	16569
835.235	16702
835.373	16588
835.511	16550
835.65	16561
835.788	16470
835.926	16390
836.064	16249
836.202	16379
836.34	16432
836.478	16694
836.615	16462
836.753	16519
836.891	16584
837.029	16641
837.167	16417
837.305	16421
837.443	16295
837.58	16211
837.718	16417
837.856	16360
837.993	16303
838.131	16394
838.269	16207
838.406	16246
838.544	16219
838.681	16055
838.819	16048
838.956	15888
839.094	15930
839.231	15899
839.369	16048
839.506	16314
839.643	16135
839.781	15789
839.918	15865
840.055	16002
840.193	15941
840.33	15778
840.467	15842
840.604	15918
840.742	16169
840.879	15724
841.016	15819
841.153	15789
841.29	15991
841.427	15915
841.564	15991
841.701	15895
841.838	15797
841.975	15797
842.112	15812
842.249	15679
842.385	15625
842.522	15930
842.659	15694
842.796	15644
842.933	15606
843.069	15610
843.206	15599
843.343	15823
843.479	15641
843.616	15637
843.752	15466
843.889	15450
844.025	15622
844.162	15450
844.298	15496
844.435	15374
844.571	15416
844.708	15466
844.844	15618
844.98	15557
845.117	15637
845.253	15469
845.389	15302
845.525	15424
845.661	15291
845.798	15332
845.934	15226
846.07	15142
846.206	15306
846.342	15245
846.478	15233
846.614	15097
846.75	14975
846.886	15013
847.022	15032
847.158	15032
847.294	15009
847.429	15089
847.565	15077
847.701	15283
847.837	14883
847.972	14800
848.108	14868
848.244	14872
848.379	14674
848.515	14625
848.65	14530
848.786	14640
848.921	14507
849.057	14781
849.192	14750
849.328	14724
849.463	14785
849.598	14575
849.734	14499
849.869	14465
850.004	14488
850.14	14511
850.275	14377
850.41	14377
850.545	14377
850.68	14400
850.815	14450
850.95	14404
851.085	14651
851.22	14514
851.355	14377
851.49	14419
851.625	14355
851.76	14339
851.895	14305
852.03	14210
852.165	14393
852.299	14469
852.434	14476
852.569	14530
852.703	14358
852.838	14457
852.973	14514
853.107	14526
853.242	14381
853.376	14271
853.511	14100
853.645	14301
853.78	14381
853.914	14294
854.048	14214
854.183	14248
854.317	14248
854.451	14408
854.585	14233
854.72	14309
854.854	14320
854.988	14195
855.122	14199
855.256	14145
855.39	14145
855.524	14362
855.658	14336
855.792	14271
855.926	14423
856.06	14317
856.194	14427
856.327	14259
856.461	14248
856.595	14183
856.729	14305
856.862	14286
856.996	14301
857.13	14377
857.263	14400
857.397	14381
857.53	14282
857.664	14298
857.797	14252
857.931	14351
858.064	14374
858.197	14374
858.331	14252
858.464	14164
858.597	14153
858.731	14233
858.864	14336
858.997	14347
859.13	14362
859.263	14309
859.396	14332
859.529	14256
859.662	14210
859.795	14199
859.928	14313
860.061	14400
860.194	14393
860.327	14240
860.46	14336
860.592	14358
860.725	14343
860.858	14343
860.99	14267
861.123	14199
861.256	14183
861.388	14252
861.521	14811
861.653	14145
861.786	14115
861.918	14115
862.05	14157
862.183	14221
862.315	14305
862.447	14278
862.58	14164
862.712	14142
862.844	14005
862.976	14142
863.108	14054
863.24	14290
863.372	13978
863.504	14054
863.636	13989
863.768	14119
863.9	14039
864.032	14039
864.164	13917
864.296	14073
864.428	14153
864.559	14130
864.691	14088
864.823	14081
864.954	14046
865.086	14084
865.217	13989
865.349	13936
865.48	14005
865.612	14039
865.743	14145
865.875	14130
866.006	14039
866.137	14046
866.269	14035
866.4	13982
866.531	14016
866.662	13944
866.793	13940
866.924	14005
867.055	14100
867.186	14012
867.317	14001
867.448	13932
867.579	13947
867.71	13955
867.841	13955
867.972	14081
868.103	14088
868.233	13947
868.364	14050
868.495	14145
868.625	14324
868.756	14389
868.886	14153
869.017	14313
869.147	14320
869.278	14427
869.408	14301
869.539	14252
869.669	14381
869.799	14377
869.929	14381
870.06	14358
870.19	14636
870.32	14606
870.45	14686
870.58	14674
870.71	14720
870.84	14648
870.97	14678
871.1	14659
871.23	14823
871.36	14880
871.489	14830
871.619	14838
871.749	14845
871.879	14887
872.008	15036
872.138	14868
872.267	14804
872.397	14792
872.526	14636
872.656	14663
872.785	14731
872.915	14872
873.044	15039
873.173	14895
873.303	15017
873.432	14979
873.561	14994
873.69	14963
873.819	14872
873.948	15077
874.077	14899
874.206	14830
874.335	14963
874.464	15051
874.593	15192
874.722	15169
874.851	15351
874.979	15291
875.108	15306
875.237	15173
875.365	15165
875.494	15214
875.623	15317
875.751	15233
875.88	15287
876.008	15374
876.136	15473
876.265	15705
876.393	15698
876.521	15736
876.65	15648
876.778	15679
876.906	15629
877.034	15584
877.162	15671
877.29	15557
877.418	15709
877.546	15625
877.674	15644
877.802	15675
877.93	15694
878.058	15587
878.185	15587
878.313	15523
878.441	15690
878.568	15545
878.696	15530
878.824	15694
878.951	15774
879.079	15854
879.206	16017
879.333	15835
879.461	15724
879.588	15770
879.715	15846
879.842	15922
879.97	15679
880.097	15420
880.224	15462
880.351	15485
880.478	15481
880.605	15447
880.732	15473
880.859	15751
880.986	15561
881.112	15507
881.239	15321
881.366	15332
881.493	15131
881.619	15104
881.746	15188
881.872	15055
881.999	15131
882.125	15100
882.252	15157
882.378	15192
882.505	15279
882.631	15127
882.757	14971
882.883	14941
883.01	14906
883.136	14853
883.262	14792
883.388	14880
883.514	14982
883.64	14948
883.766	14899
883.892	14697
884.018	14872
884.143	14952
884.269	15039
884.395	14800
884.52	14629
884.646	14697
884.772	14689
884.897	14613
885.023	14708
885.148	14769
885.274	14800
885.399	14796
885.524	14632
885.65	14659
885.775	14556
885.9	14708
886.025	14765
886.15	14743
886.275	14602
886.4	14507
886.525	14606
886.65	14629
886.775	14545
886.9	14769
887.025	14887
887.149	14613
887.274	14518
887.399	14499
887.523	14438
887.648	14484
887.773	14362
887.897	14571
888.021	14530
888.146	14454
888.27	14621
888.395	14610
888.519	14575
888.643	14560
888.767	14602
888.891	14473
889.015	14476
889.139	14404
889.263	14358
889.387	14446
889.511	14583
889.635	14533
889.759	14317
889.883	14362
890.006	14385
890.13	14503
890.254	14271
890.377	14343
890.501	14206
890.624	14084
890.748	14202
890.871	14103
890.995	14058
891.118	13978
891.241	14183
891.364	14050
891.488	14195
891.611	14065
891.734	14088
891.857	14153
891.98	14168
892.103	14206
892.226	14073
892.349	13993
892.471	13890
892.594	14164
892.717	14103
892.839	14046
892.962	14039
893.085	14191
893.207	14119
893.33	13970
893.452	13967
893.575	14180
893.697	14024
893.819	14263
893.941	14225
894.064	14240
894.186	14077
894.308	14096
894.43	14259
894.552	14320
894.674	14195
894.796	14043
894.918	14039
895.04	14107
895.161	14130
895.283	14202
895.405	14206
895.526	14145
895.648	14138
895.769	14225
895.891	14252
896.012	14358
896.134	14229
896.255	14271
896.376	14267
896.498	14286
896.619	14313
896.74	14218
896.861	14328
896.982	14594
897.103	14686
897.224	14602
897.345	14552
897.466	14469
897.587	14545
897.708	14560
897.828	14587
897.949	14461
898.07	14396
898.19	14514
898.311	14724
898.431	14537
898.552	14682
898.672	14667
898.792	14743
898.913	14724
899.033	14537
899.153	14518
899.273	14370
899.393	14377
899.513	14514
899.633	14454
899.753	14480
899.873	14492
899.993	14606
900.113	14446
900.232	14564
900.352	14469
900.472	14370
900.591	14202
900.711	14385
900.83	14336
900.95	14336
901.069	14461
901.189	14278
901.308	14046
901.427	14035
901.546	14024
901.665	14115
901.784	14020
901.904	13875
902.023	13845
902.141	13674
902.26	13624
902.379	13696
902.498	13571
902.617	13613
902.735	13696
902.854	13586
902.973	13491
903.091	13164
903.21	13282
903.328	13373
903.446	13160
903.565	13099
903.683	13137
903.801	13046
903.919	13141
904.038	13137
904.156	12951
904.274	13019
904.392	12901
904.51	12943
904.627	12859
904.745	12989
904.863	13023
904.981	12787
905.098	12601
905.216	12616
905.334	12719
905.451	12707
905.569	12616
905.686	12681
905.803	12642
905.921	12460
906.038	12532
906.155	12506
906.272	12460
906.389	12323
906.506	12232
906.623	12277
906.74	12251
906.857	12060
906.974	12125
907.091	12300
907.208	12407
907.324	12239
907.441	12186
907.557	12019
907.674	12015
907.79	11969
907.907	11973
908.023	11984
908.139	11954
908.256	11912
908.372	11946
908.488	11863
908.604	11775
908.72	11707
908.836	11665
908.952	11668
909.068	11764
909.184	11813
909.3	11710
909.415	11756
909.531	11733
909.647	11547
909.762	11627
909.878	11436
909.993	11509
910.108	11524
910.224	11337
910.339	11512
910.454	11391
910.57	11410
910.685	11265
910.8	11539
910.915	11532
911.03	11383
911.145	11201
911.259	11159
911.374	11280
911.489	11178
911.604	11170
911.718	10934
911.833	10984
911.947	10866
912.062	10824
912.176	10934
912.291	10911
912.405	10942
912.519	11185
912.633	11128
912.748	10980
912.862	10949
912.976	10877
913.09	10714
913.204	10854
913.318	10892
913.431	10881
913.545	10938
913.659	11014
913.772	10790
913.886	10683
914	10721
914.113	10812
914.226	10835
914.34	10858
914.453	10672
914.566	10771
914.68	10691
914.793	10679
914.906	10451
915.019	10447
915.132	10398
915.245	10413
915.358	10481
915.47	10512
915.583	10447
915.696	10500
915.809	10580
915.921	10615
916.034	10440
916.146	10459
916.259	10386
916.371	10470
916.483	10542
916.595	10371
916.708	10356
916.82	10443
916.932	10295
917.044	10314
917.156	10318
917.268	10295
917.38	10356
917.491	10322
917.603	10333
917.715	10375
917.826	10478
917.938	10287
918.049	10181
918.161	10299
918.272	10428
918.384	10363
918.495	10276
918.606	10166
918.717	10150
918.828	10211
918.939	10204
919.05	10086
919.161	10135
919.272	9884
919.383	10006
919.494	10207
919.604	10481
919.715	10230
919.826	10032
919.936	10135
920.047	10249
920.157	10223
920.267	10428
920.378	10299
920.488	10249
920.598	10371
920.708	10512
920.818	10371
920.928	10421
921.038	10523
921.148	10527
921.258	10238
921.368	10131
921.477	10051
921.587	10086
921.697	9941
921.806	10051
921.916	9907
922.025	9728
922.134	9728
922.244	9705
922.353	9720
922.462	9637
922.571	9572
922.68	9408
922.789	9435
922.898	9485
923.007	9431
923.116	9481
923.224	9412
923.333	9374
923.442	9454
923.55	9245
923.659	9340
923.767	9515
923.876	9397
923.984	9408
924.092	9283
924.201	9348
924.309	9283
924.417	9313
924.525	9180
924.633	9272
924.741	10131
924.849	9058
924.956	9264
925.064	9131
925.172	9058
925.279	9077
925.387	9135
925.494	9097
925.602	9272
925.709	9192
925.816	9013
925.924	9119
926.031	9169
926.138	9100
926.245	9112
926.352	8990
926.459	9207
926.566	9214
926.673	9020
926.779	8982
926.886	8914
926.993	8826
927.099	8781
927.206	8712
927.312	8792
927.419	8880
927.525	8857
927.631	8845
927.737	8705
927.843	8701
927.95	8587
928.056	8674
928.162	8655
928.267	8811
928.373	9435
928.479	8823
928.585	8568
928.69	8655
928.796	8746
928.901	8621
929.007	8495
929.112	8617
929.218	8590
929.323	8556
929.428	8537
929.533	8625
929.638	8518
929.743	8575
929.848	8552
929.953	8587
930.058	8427
930.163	8301
930.267	8374
930.372	8530
930.477	8298
930.581	8484
930.685	8362
930.79	8229
930.894	8248
930.998	8225
931.103	8415
931.207	8100
931.311	7894
931.415	8005
931.519	7746
931.623	7753
