Data from test_V78500241_224.txt Node
Date: Fri Mar 25 14:35:17 CST 2022
User: usil
Spectrometer: V785-0024
Trigger mode: 0
Integration Time (sec): 4.000000E-1
Scans to average: 1
Nonlinearity correction enabled: false
Boxcar width: 0
Storing dark spectrum: false
XAxis mode: Wavelengths
Number of Pixels in Spectrum: 1024
>>>>>Begin Spectral Data<<<<<
801.071	27804
801.214	27831
801.356	27481
801.499	27443
801.641	27298
801.783	27207
801.926	27340
802.068	27112
802.211	27116
802.353	27138
802.496	26883
802.638	26853
802.78	26750
802.923	26617
803.065	26621
803.208	26625
803.35	26815
803.492	26758
803.635	26743
803.777	26887
803.919	26815
804.061	27043
804.204	26864
804.346	26632
804.488	26640
804.63	26750
804.773	26636
804.915	26697
805.057	26758
805.199	26746
805.341	26807
805.483	26807
805.626	26781
805.768	26678
805.91	26819
806.052	26792
806.194	26849
806.336	26925
806.478	26762
806.62	26720
806.762	26956
806.904	27051
807.046	27283
807.188	27138
807.33	27169
807.472	27272
807.614	27093
807.756	27051
807.898	27062
808.04	27074
808.182	27104
808.324	27135
808.465	27192
808.607	27481
808.749	27652
808.891	27812
809.033	27838
809.174	27720
809.316	27511
809.458	27466
809.6	27473
809.741	27568
809.883	27481
810.025	27595
810.166	27629
810.308	27519
810.45	27488
810.591	27283
810.733	27256
810.875	27081
811.016	27032
811.158	27074
811.299	27123
811.441	27222
811.582	27294
811.724	27070
811.865	27096
812.007	27154
812.148	27089
812.29	27135
812.431	27416
812.573	27477
812.714	27500
812.855	27507
812.997	27614
813.138	27720
813.279	27797
813.421	27656
813.562	27447
813.703	27454
813.845	27291
813.986	27077
814.127	26796
814.268	26648
814.41	26560
814.551	26636
814.692	26667
814.833	26507
814.974	26564
815.115	26693
815.256	26507
815.397	26476
815.539	26431
815.68	26427
815.821	26332
815.962	26400
816.103	26309
816.244	26389
816.385	26180
816.526	26142
816.666	25902
816.807	25772
816.948	26043
817.089	25921
817.23	25799
817.371	25769
817.512	25913
817.653	25742
817.793	25712
817.934	25852
818.075	25639
818.216	25769
818.356	25540
818.497	25742
818.638	25358
818.778	25609
818.919	25483
819.06	25586
819.2	25586
819.341	25734
819.481	25696
819.622	25811
819.762	26046
819.903	25940
820.043	25784
820.184	25765
820.324	25632
820.465	25715
820.605	25845
820.746	25822
820.886	25567
821.026	25738
821.167	25677
821.307	25738
821.447	25742
821.588	25502
821.728	25285
821.868	25251
822.008	25019
822.149	25046
822.289	25080
822.429	24863
822.569	24639
822.709	24692
822.849	24616
822.99	24608
823.13	24475
823.27	24536
823.41	24308
823.55	24380
823.69	24334
823.83	24342
823.97	24232
824.11	24060
824.25	24057
824.389	24076
824.529	24190
824.669	24038
824.809	24273
824.949	24205
825.089	24129
825.228	24079
825.368	23942
825.508	24007
825.648	23809
825.787	23813
825.927	24068
826.067	23843
826.206	23904
826.346	23885
826.485	23935
826.625	23950
826.765	23992
826.904	23870
827.044	23627
827.183	23623
827.323	23528
827.462	23566
827.601	23596
827.741	23478
827.88	23554
828.02	23391
828.159	23531
828.298	23539
828.437	23592
828.577	23467
828.716	23653
828.855	23509
828.994	23318
829.134	23208
829.273	23246
829.412	23478
829.551	23231
829.69	23185
829.829	23284
829.968	23261
830.107	23345
830.246	23231
830.385	23060
830.524	23159
830.663	23140
830.802	22957
830.941	22850
831.08	22736
831.219	22923
831.357	22858
831.496	22892
831.635	22797
831.774	22729
831.913	22664
832.051	22512
832.19	22611
832.329	22607
832.467	22516
832.606	22386
832.744	22367
832.883	22451
833.022	22535
833.16	22390
833.299	22538
833.437	22493
833.576	22504
833.714	22405
833.852	22443
833.991	22645
834.129	22512
834.267	22630
834.406	22546
834.544	22455
834.682	22474
834.821	22485
834.959	22626
835.097	22409
835.235	22432
835.373	22637
835.511	22443
835.65	22249
835.788	22299
835.926	22131
836.064	22055
836.202	22192
836.34	22306
836.478	22291
836.615	22234
836.753	22405
836.891	22428
837.029	22242
837.167	22257
837.305	22181
837.443	22196
837.58	22013
837.718	22207
837.856	22154
837.993	22093
838.131	22109
838.269	22078
838.406	21949
838.544	22021
838.681	21717
838.819	21713
838.956	21538
839.094	21690
839.231	21591
839.369	21667
839.506	21899
839.643	21873
839.781	21435
839.918	21477
840.055	21492
840.193	21450
840.33	21439
840.467	21450
840.604	21538
840.742	21652
840.879	21233
841.016	21332
841.153	21344
841.29	21466
841.427	21447
841.564	21412
841.701	21428
841.838	21298
841.975	21310
842.112	21233
842.249	21291
842.385	21058
842.522	21355
842.659	21176
842.796	21180
842.933	21142
843.069	21195
843.206	21119
843.343	21169
843.479	21108
843.616	21138
843.752	20902
843.889	20929
844.025	21184
844.162	20960
844.298	21074
844.435	20971
844.571	20891
844.708	20937
844.844	21001
844.98	21024
845.117	21081
845.253	20697
845.389	20914
845.525	21005
845.661	21009
845.798	21070
845.934	21154
846.07	21146
846.206	21192
846.342	21127
846.478	21005
846.614	20651
846.75	20431
846.886	20503
847.022	20423
847.158	20408
847.294	20473
847.429	20423
847.565	20366
847.701	20564
847.837	20092
847.972	20103
848.108	20103
848.244	20103
848.379	19967
848.515	19967
848.65	19894
848.786	19906
848.921	19826
849.057	20020
849.192	20084
849.328	19917
849.463	19982
849.598	19845
849.734	19932
849.869	19605
850.004	19643
850.14	19655
850.275	19788
850.41	19613
850.545	19597
850.68	19624
850.815	19666
850.95	19552
851.085	19788
851.22	19742
851.355	19639
851.49	19620
851.625	19613
851.76	19571
851.895	19571
852.03	19594
852.165	19578
852.299	19666
852.434	19738
852.569	19647
852.703	19658
852.838	19738
852.973	19738
853.107	19715
853.242	19609
853.376	19388
853.511	19346
853.645	19483
853.78	19651
853.914	19457
854.048	19510
854.183	19327
854.317	19457
854.451	19635
854.585	19362
854.72	19453
854.854	19422
854.988	19346
855.122	19525
855.256	19301
855.39	19369
855.524	19445
855.658	19472
855.792	19346
855.926	19464
856.06	19559
856.194	19464
856.327	19457
856.461	19293
856.595	19438
856.729	19445
856.862	19438
856.996	19403
857.13	19476
857.263	19548
857.397	19495
857.53	19381
857.664	19457
857.797	19464
857.931	19510
858.064	19316
858.197	19460
858.331	19358
858.464	19392
858.597	19350
858.731	19324
858.864	19445
858.997	19278
859.13	19430
859.263	19396
859.396	19358
859.529	19335
859.662	19373
859.795	19251
859.928	19278
860.061	19575
860.194	19438
860.327	19316
860.46	19304
860.592	19301
860.725	19495
860.858	19472
860.99	19270
861.123	19263
861.256	19232
861.388	19312
861.521	19997
861.653	19160
861.786	19244
861.918	19259
862.05	19396
862.183	19396
862.315	19430
862.447	19533
862.58	19373
862.712	19202
862.844	19042
862.976	19141
863.108	19091
863.24	19411
863.372	19061
863.504	19107
863.636	19126
863.768	19168
863.9	19084
864.032	19046
864.164	19019
864.296	19076
864.428	19126
864.559	19156
864.691	19046
864.823	19126
864.954	19095
865.086	19042
865.217	18954
865.349	18901
865.48	19034
865.612	18977
865.743	19190
865.875	18977
866.006	18954
866.137	19080
866.269	18943
866.4	19031
866.531	18878
866.662	18852
866.793	18837
866.924	18844
867.055	18859
867.186	18867
867.317	18973
867.448	18760
867.579	18871
867.71	18875
867.841	18837
867.972	18890
868.103	18882
868.233	19000
868.364	18894
868.495	18981
868.625	19065
868.756	19289
868.886	19004
869.017	19164
869.147	19251
869.278	19244
869.408	19187
869.539	19091
869.669	19118
869.799	19202
869.929	19278
870.06	19308
870.19	19468
870.32	19396
870.45	19415
870.58	19563
870.71	19620
870.84	19609
870.97	19605
871.1	19487
871.23	19757
871.36	19791
871.489	19727
871.619	19700
871.749	19689
871.879	19875
872.008	19890
872.138	19712
872.267	19658
872.397	19594
872.526	19582
872.656	19567
872.785	19601
872.915	19738
873.044	19875
873.173	19662
873.303	19791
873.432	19704
873.561	19784
873.69	19700
873.819	19757
873.948	19818
874.077	19731
874.206	19628
874.335	19757
874.464	19887
874.593	19997
874.722	19970
874.851	20107
874.979	20027
875.108	20012
875.237	20054
875.365	19997
875.494	20115
875.623	20191
875.751	19947
875.88	20001
876.008	20199
876.136	20187
876.265	20385
876.393	20499
876.521	20579
876.65	20442
876.778	20423
876.906	20438
877.034	20507
877.162	20362
877.29	20351
877.418	20526
877.546	20400
877.674	20400
877.802	20465
877.93	20336
878.058	20412
878.185	20393
878.313	20511
878.441	20446
878.568	20294
878.696	20362
878.824	20480
878.951	20511
879.079	20632
879.206	20845
879.333	20830
879.461	20693
879.588	20743
879.715	20910
879.842	20872
879.97	20674
880.097	20404
880.224	20366
880.351	20423
880.478	20396
880.605	20324
880.732	20263
880.859	20522
880.986	20252
881.112	20214
881.239	20164
881.366	20107
881.493	20035
881.619	19906
881.746	19925
881.872	19803
881.999	19970
882.125	19959
882.252	19978
882.378	19852
882.505	19917
882.631	19818
882.757	19670
882.883	19738
883.01	19704
883.136	19780
883.262	19540
883.388	19525
883.514	19628
883.64	19639
883.766	19681
883.892	19457
884.018	19571
884.143	19594
884.269	19757
884.395	19388
884.52	19346
884.646	19419
884.772	19312
884.897	19301
885.023	19297
885.148	19449
885.274	19571
885.399	19392
885.524	19457
885.65	19316
885.775	19335
885.9	19308
886.025	19441
886.15	19365
886.275	19225
886.4	19122
886.525	19225
886.65	19247
886.775	19274
886.9	19445
887.025	19552
887.149	19213
887.274	19164
887.399	19050
887.523	18897
887.648	19008
887.773	18970
887.897	19057
888.021	19053
888.146	18951
888.27	19114
888.395	19168
888.519	19065
888.643	19015
888.767	19103
888.891	19008
889.015	18863
889.139	18970
889.263	18928
889.387	18977
889.511	19091
889.635	19042
889.759	18783
889.883	18871
890.006	18825
890.13	18848
890.254	18848
890.377	18768
890.501	18650
890.624	18528
890.748	18650
890.871	18555
890.995	18391
891.118	18315
891.241	18350
891.364	18429
891.488	18582
891.611	18429
891.734	18426
891.857	18471
891.98	18391
892.103	18532
892.226	18460
892.349	18365
892.471	18277
892.594	18399
892.717	18410
892.839	18437
892.962	18399
893.085	18563
893.207	18346
893.33	18266
893.452	18319
893.575	18315
893.697	18285
893.819	18532
893.941	18661
894.064	18471
894.186	18456
894.308	18285
894.43	18490
894.552	18559
894.674	18464
894.796	18232
894.918	18407
895.04	18338
895.161	18509
895.283	18426
895.405	18262
895.526	18289
895.648	18464
895.769	18292
895.891	18471
896.012	18490
896.134	18525
896.255	18483
896.376	18308
896.498	18456
896.619	18498
896.74	18525
896.861	18570
896.982	18795
897.103	18901
897.224	18871
897.345	18719
897.466	18654
897.587	18734
897.708	18798
897.828	18684
897.949	18574
898.07	18540
898.19	18566
898.311	18684
898.431	18677
898.552	18551
898.672	18798
898.792	18730
898.913	18616
899.033	18597
899.153	18384
899.273	18418
899.393	18422
899.513	18452
899.633	18353
899.753	18471
899.873	18399
899.993	18399
900.113	18380
900.232	18464
900.352	18384
900.472	18273
900.591	18201
900.711	18308
900.83	18270
900.95	18300
901.069	18361
901.189	18098
901.308	17920
901.427	17870
901.546	17893
901.665	17859
901.784	17870
901.904	17611
902.023	17634
902.141	17395
902.26	17444
902.379	17486
902.498	17273
902.617	17288
902.735	17337
902.854	17277
902.973	17197
903.091	16999
903.21	17006
903.328	17090
903.446	17052
903.565	16847
903.683	16816
903.801	16801
903.919	16824
904.038	16752
904.156	16626
904.274	16653
904.392	16630
904.51	16668
904.627	16565
904.745	16630
904.863	16683
904.981	16310
905.098	16234
905.216	16310
905.334	16291
905.451	16253
905.569	16207
905.686	16246
905.803	16276
905.921	16059
906.038	16249
906.155	16162
906.272	16010
906.389	15991
906.506	15759
906.623	15846
906.74	15800
906.857	15679
906.974	15599
907.091	15941
907.208	15987
907.324	15694
907.441	15705
907.557	15515
907.674	15610
907.79	15477
907.907	15462
908.023	15473
908.139	15587
908.256	15428
908.372	15294
908.488	15428
908.604	15287
908.72	15211
908.836	15097
908.952	15119
909.068	15173
909.184	15245
909.3	15184
909.415	15233
909.531	15195
909.647	14944
909.762	14956
909.878	14800
909.993	14849
910.108	14880
910.224	14868
910.339	14902
910.454	14849
910.57	14670
910.685	14674
910.8	14914
910.915	14845
911.03	14724
911.145	14579
911.259	14545
911.374	14526
911.489	14465
911.604	14400
911.718	14393
911.833	14286
911.947	14199
912.062	13986
912.176	14202
912.291	14123
912.405	14199
912.519	14461
912.633	14396
912.748	14294
912.862	14259
912.976	14130
913.09	13970
913.204	14035
913.318	13997
913.431	14214
913.545	14256
913.659	14191
913.772	14050
913.886	13906
914	13932
914.113	14043
914.226	14039
914.34	13913
914.453	13833
914.566	13887
914.68	13811
914.793	13799
914.906	13693
915.019	13594
915.132	13495
915.245	13578
915.358	13632
915.47	13597
915.583	13537
915.696	13609
915.809	13666
915.921	13681
916.034	13594
916.146	13415
916.259	13594
916.371	13605
916.483	13502
916.595	13438
916.708	13388
916.82	13426
916.932	13476
917.044	13449
917.156	13358
917.268	13301
917.38	13282
917.491	13350
917.603	13358
917.715	13400
917.826	13426
917.938	13304
918.049	13259
918.161	13293
918.272	13396
918.384	13358
918.495	13274
918.606	13107
918.717	13110
918.828	13099
918.939	13145
919.05	12935
919.161	13061
919.272	12920
919.383	12913
919.494	13114
919.604	13209
919.715	13084
919.826	12947
919.936	13168
920.047	13179
920.157	13069
920.267	13206
920.378	13050
920.488	12993
920.598	13217
920.708	13339
920.818	13236
920.928	13247
921.038	13381
921.148	13304
921.258	13103
921.368	12871
921.477	12894
921.587	12787
921.697	12692
921.806	12848
921.916	12711
922.025	12574
922.134	12395
922.244	12471
922.353	12566
922.462	12285
922.571	12357
922.68	12182
922.789	12079
922.898	12114
923.007	12114
923.116	12114
923.224	12110
923.333	12030
923.442	11988
923.55	11878
923.659	12003
923.767	12034
923.876	11855
923.984	11988
924.092	11885
924.201	11866
924.309	11939
924.417	11912
924.525	11733
924.633	11805
924.741	12783
924.849	11615
924.956	11726
925.064	11653
925.172	11589
925.279	11638
925.387	11668
925.494	11703
925.602	11722
925.709	11676
925.816	11600
925.924	11516
926.031	11680
926.138	11661
926.245	11608
926.352	11501
926.459	11771
926.566	11668
926.673	11596
926.779	11425
926.886	11383
926.993	11334
927.099	11208
927.206	11170
927.312	11174
927.419	11296
927.525	11201
927.631	11197
927.737	11140
927.843	11102
927.95	11079
928.056	11174
928.162	11102
928.267	11170
928.373	11532
928.479	11155
928.585	10999
928.69	11048
928.796	11098
928.901	10949
929.007	10767
929.112	10965
929.218	10881
929.323	10797
929.428	10793
929.533	10949
929.638	10831
929.743	10782
929.848	10793
929.953	10755
930.058	10694
930.163	10478
930.267	10516
930.372	10679
930.477	10554
930.581	10755
930.685	10630
930.79	10348
930.894	10459
930.998	10310
931.103	10584
931.207	10227
931.311	10124
931.415	10082
931.519	9800
931.623	9789
