Data from test_V78500241_742.txt Node
Date: Fri Mar 25 14:38:53 CST 2022
User: usil
Spectrometer: V785-0024
Trigger mode: 0
Integration Time (sec): 4.000000E-1
Scans to average: 1
Nonlinearity correction enabled: false
Boxcar width: 0
Storing dark spectrum: false
XAxis mode: Wavelengths
Number of Pixels in Spectrum: 1024
>>>>>Begin Spectral Data<<<<<
801.071	27203
801.214	27009
801.356	26724
801.499	26842
801.641	26636
801.783	26568
801.926	26560
802.068	26431
802.211	26503
802.353	26396
802.496	26081
802.638	26164
802.78	26046
802.923	26100
803.065	25879
803.208	26020
803.35	26024
803.492	26054
803.635	26240
803.777	26168
803.919	26275
804.061	26579
804.204	26271
804.346	26317
804.488	26199
804.63	26282
804.773	26195
804.915	26362
805.057	26575
805.199	26484
805.341	26625
805.483	26800
805.626	26758
805.768	26823
805.91	26933
806.052	27142
806.194	27039
806.336	27587
806.478	27629
806.62	27827
806.762	28166
806.904	28561
807.046	29102
807.188	29421
807.33	29756
807.472	30285
807.614	31065
807.756	31993
807.898	32921
808.04	34656
808.182	36935
808.324	39443
808.465	42601
808.607	46063
808.749	49107
808.891	50959
809.033	51020
809.174	49457
809.316	46459
809.458	42852
809.6	39211
809.741	36441
809.883	34112
810.025	32571
810.166	31316
810.308	30574
810.45	29843
810.591	29425
810.733	28774
810.875	28337
811.016	28032
811.158	27804
811.299	27762
811.441	27660
811.582	27603
811.724	27298
811.865	27104
812.007	27135
812.148	26979
812.29	26914
812.431	27112
812.573	26910
812.714	27127
812.855	27207
812.997	27176
813.138	27359
813.279	27199
813.421	27074
813.562	27001
813.703	26739
813.845	26503
813.986	26191
814.127	25894
814.268	25894
814.41	25811
814.551	25826
814.692	25811
814.833	25655
814.974	25571
815.115	25742
815.256	25651
815.397	25476
815.539	25487
815.68	25270
815.821	25171
815.962	25285
816.103	25171
816.244	25103
816.385	24916
816.526	24951
816.666	24719
816.807	24620
816.948	24700
817.089	24738
817.23	24658
817.371	24597
817.512	24429
817.653	24505
817.793	24509
817.934	24513
818.075	24391
818.216	24429
818.356	24357
818.497	24254
818.638	24178
818.778	24152
818.919	24144
819.06	24296
819.2	24315
819.341	24403
819.481	24289
819.622	24471
819.762	24642
819.903	24559
820.043	24372
820.184	24205
820.324	24429
820.465	24388
820.605	24327
820.746	24251
820.886	24178
821.026	24220
821.167	24209
821.307	24319
821.447	24087
821.588	24015
821.728	23912
821.868	23775
822.008	23646
822.149	23585
822.289	23566
822.429	23288
822.569	23197
822.709	23269
822.849	23067
822.99	22995
823.13	23010
823.27	22896
823.41	22889
823.55	22835
823.69	22790
823.83	22649
823.97	22622
824.11	22527
824.25	22569
824.389	22546
824.529	22622
824.669	22474
824.809	22554
824.949	22622
825.089	22687
825.228	22641
825.368	22310
825.508	22363
825.648	22447
825.787	22405
825.927	22405
826.067	22238
826.206	22322
826.346	22390
826.485	22398
826.625	22253
826.765	22371
826.904	22344
827.044	22120
827.183	21941
827.323	22017
827.462	21991
827.601	21922
827.741	21960
827.88	22090
828.02	21884
828.159	22055
828.298	21941
828.437	22006
828.577	21911
828.716	22070
828.855	21907
828.994	21641
829.134	21679
829.273	21705
829.412	21603
829.551	21587
829.69	21652
829.829	21625
829.968	21751
830.107	21751
830.246	21656
830.385	21583
830.524	21458
830.663	21519
830.802	21408
830.941	21096
831.08	21378
831.219	21355
831.357	21416
831.496	21576
831.635	21272
831.774	21245
831.913	21199
832.051	21028
832.19	21127
832.329	21116
832.467	21058
832.606	20986
832.744	21024
832.883	21146
833.022	21169
833.16	21378
833.299	21428
833.437	21545
833.576	21831
833.714	22051
833.852	22067
833.991	22162
834.129	22158
834.267	22398
834.406	22246
834.544	22280
834.682	22090
834.821	21960
834.959	21937
835.097	21530
835.235	21660
835.373	21500
835.511	21332
835.65	21116
835.788	21119
835.926	20845
836.064	20743
836.202	20815
836.34	20994
836.478	21005
836.615	20796
836.753	20838
836.891	20849
837.029	20910
837.167	20701
837.305	20720
837.443	20746
837.58	20560
837.718	20617
837.856	20724
837.993	20636
838.131	20632
838.269	20533
838.406	20488
838.544	20442
838.681	20278
838.819	20214
838.956	20058
839.094	20111
839.231	20069
839.369	20183
839.506	20419
839.643	20457
839.781	20027
839.918	19967
840.055	20024
840.193	19928
840.33	19944
840.467	20016
840.604	19963
840.742	20221
840.879	19731
841.016	19940
841.153	19898
841.29	20077
841.427	20111
841.564	20062
841.701	20046
841.838	19849
841.975	19982
842.112	20001
842.249	19856
842.385	19780
842.522	20020
842.659	19894
842.796	19731
842.933	19906
843.069	19818
843.206	19913
843.343	19925
843.479	19925
843.616	20084
843.752	19727
843.889	20035
844.025	20138
844.162	20016
844.298	20256
844.435	20351
844.571	20454
844.708	20731
844.844	21233
844.98	21751
845.117	22409
845.253	23429
845.389	25373
845.525	28980
845.661	35326
845.798	42448
845.934	47573
846.07	49506
846.206	48018
846.342	42992
846.478	35973
846.614	29828
846.75	25944
846.886	23334
847.022	22124
847.158	21142
847.294	20526
847.429	20256
847.565	19978
847.701	20054
847.837	19365
847.972	19285
848.108	19251
848.244	19312
848.379	19000
848.515	18962
848.65	18932
848.786	18920
848.921	18833
849.057	18901
849.192	18871
849.328	18909
849.463	18734
849.598	18745
849.734	18730
849.869	18494
850.004	18532
850.14	18532
850.275	18460
850.41	18350
850.545	18429
850.68	18460
850.815	18384
850.95	18555
851.085	18684
851.22	18467
851.355	18350
851.49	18456
851.625	18456
851.76	18486
851.895	18346
852.03	18319
852.165	18509
852.299	18521
852.434	18483
852.569	18399
852.703	18494
852.838	18620
852.973	18635
853.107	18825
853.242	18574
853.376	18532
853.511	18395
853.645	18536
853.78	18825
853.914	18700
854.048	18749
854.183	18566
854.317	18715
854.451	18981
854.585	18677
854.72	18627
854.854	18730
854.988	18513
855.122	18604
855.256	18437
855.39	18521
855.524	18547
855.658	18536
855.792	18452
855.926	18486
856.06	18350
856.194	18441
856.327	18285
856.461	18323
856.595	18292
856.729	18350
856.862	18399
856.996	18334
857.13	18292
857.263	18327
857.397	18414
857.53	18258
857.664	18292
857.797	18330
857.931	18315
858.064	18258
858.197	18285
858.331	18155
858.464	18136
858.597	18057
858.731	18140
858.864	18174
858.997	18197
859.13	18251
859.263	18098
859.396	18209
859.529	18174
859.662	18030
859.795	18057
859.928	18136
860.061	18319
860.194	18365
860.327	18174
860.46	18060
860.592	18087
860.725	18209
860.858	18311
860.99	18038
861.123	17946
861.256	18015
861.388	18060
861.521	18707
861.653	18019
861.786	17859
861.918	17893
862.05	18026
862.183	18026
862.315	18034
862.447	18171
862.58	18072
862.712	17817
862.844	17718
862.976	17805
863.108	17824
863.24	18262
863.372	17737
863.504	17790
863.636	17745
863.768	17760
863.9	17752
864.032	17703
864.164	17733
864.296	17767
864.428	17832
864.559	17912
864.691	17847
864.823	17805
864.954	17840
865.086	17748
865.217	17718
865.349	17668
865.48	17695
865.612	17726
865.743	17866
865.875	17672
866.006	17779
866.137	17699
866.269	17703
866.4	17646
866.531	17581
866.662	17528
866.793	17573
866.924	17600
867.055	17668
867.186	17676
867.317	17691
867.448	17634
867.579	17566
867.71	17516
867.841	17429
867.972	17642
868.103	17718
868.233	17687
868.364	17684
868.495	17748
868.625	17912
868.756	18015
868.886	17840
869.017	17893
869.147	18060
869.278	18038
869.408	18057
869.539	17931
869.669	18038
869.799	17988
869.929	18060
870.06	18057
870.19	18315
870.32	18178
870.45	18239
870.58	18422
870.71	18525
870.84	18464
870.97	18391
871.1	18445
871.23	18627
871.36	18616
871.489	18479
871.619	18597
871.749	18719
871.879	18715
872.008	18848
872.138	18760
872.267	18650
872.397	18544
872.526	18528
872.656	18547
872.785	18464
872.915	18776
873.044	18901
873.173	18745
873.303	18894
873.432	18791
873.561	18981
873.69	18947
873.819	18932
873.948	19065
874.077	19080
874.206	18954
874.335	19004
874.464	19213
874.593	19320
874.722	19289
874.851	19426
874.979	19468
875.108	19571
875.237	19502
875.365	19613
875.494	19655
875.623	19704
875.751	19677
875.88	19677
876.008	19761
876.136	20005
876.265	20298
876.393	20423
876.521	20412
876.65	20606
876.778	20514
876.906	20473
877.034	20514
877.162	20632
877.29	20682
877.418	20769
877.546	20899
877.674	20998
877.802	21112
877.93	21344
878.058	21435
878.185	21599
878.313	21846
878.441	22276
878.568	22584
878.696	23318
878.824	24148
878.951	25255
879.079	26975
879.206	29265
879.333	31175
879.461	32967
879.588	34287
879.715	34063
879.842	33199
879.97	31202
880.097	29090
880.224	27382
880.351	26081
880.478	25168
880.605	24623
880.732	24243
880.859	24038
880.986	23745
881.112	23661
881.239	23318
881.366	23417
881.493	23197
881.619	23147
881.746	23200
881.872	23227
881.999	23334
882.125	23315
882.252	23440
882.378	23417
882.505	23729
882.631	23455
882.757	23204
882.883	23471
883.01	23235
883.136	23147
883.262	23121
883.388	23143
883.514	23269
883.64	23273
883.766	23094
883.892	22965
884.018	23033
884.143	23227
884.269	23299
884.395	23022
884.52	23102
884.646	23056
884.772	22972
884.897	22938
885.023	22877
885.148	23090
885.274	22847
885.399	22927
885.524	22687
885.65	22630
885.775	22538
885.9	22390
886.025	22261
886.15	21998
886.275	21926
886.4	21766
886.525	21610
886.65	21481
886.775	21218
886.9	21252
887.025	21389
887.149	21085
887.274	20686
887.399	20727
887.523	20511
887.648	20396
887.773	20301
887.897	20347
888.021	20225
888.146	20149
888.27	20206
888.395	20115
888.519	20069
888.643	19989
888.767	19875
888.891	19917
889.015	19529
889.139	19567
889.263	19483
889.387	19662
889.511	19696
889.635	19628
889.759	19346
889.883	19274
890.006	19384
890.13	19460
890.254	19183
890.377	19171
890.501	19046
890.624	18867
890.748	19065
890.871	18806
890.995	18764
891.118	18681
891.241	18673
891.364	18620
891.488	18703
891.611	18490
891.734	18574
891.857	18517
891.98	18494
892.103	18544
892.226	18528
892.349	18422
892.471	18266
892.594	18357
892.717	18346
892.839	18216
892.962	18235
893.085	18201
893.207	18251
893.33	18030
893.452	18114
893.575	18266
893.697	18098
893.819	18182
893.941	18247
894.064	18140
894.186	17958
894.308	17855
894.43	17977
894.552	18125
894.674	17946
894.796	17904
894.918	17840
895.04	17851
895.161	17882
895.283	17764
895.405	17760
895.526	17783
895.648	17790
895.769	17668
895.891	17836
896.012	17771
896.134	17836
896.255	17821
896.376	17687
896.498	17813
896.619	17790
896.74	17783
896.861	17710
896.982	18053
897.103	18155
897.224	17969
897.345	17840
897.466	17779
897.587	17923
897.708	18026
897.828	17836
897.949	17798
898.07	17828
898.19	17817
898.311	17920
898.431	17805
898.552	17821
898.672	17961
898.792	17980
898.913	17950
899.033	17779
899.153	17699
899.273	17570
899.393	17684
899.513	17722
899.633	17676
899.753	17726
899.873	17608
899.993	17691
900.113	17539
900.232	17608
900.352	17592
900.472	17596
900.591	17448
900.711	17577
900.83	17429
900.95	17493
901.069	17516
901.189	17440
901.308	17128
901.427	16934
901.546	16972
901.665	17056
901.784	16900
901.904	16976
902.023	16755
902.141	16664
902.26	16474
902.379	16550
902.498	16451
902.617	16485
902.735	16443
902.854	16417
902.973	16390
903.091	16120
903.21	16139
903.328	16124
903.446	16120
903.565	15831
903.683	15922
903.801	15751
903.919	15850
904.038	15884
904.156	15751
904.274	15831
904.392	15705
904.51	15698
904.627	15523
904.745	15698
904.863	15743
904.981	15496
905.098	15344
905.216	15218
905.334	15351
905.451	15332
905.569	15230
905.686	15401
905.803	15313
905.921	15119
906.038	15169
906.155	15165
906.272	14998
906.389	15077
906.506	14967
906.623	14880
906.74	14800
906.857	14762
906.974	14876
907.091	14902
907.208	14941
907.324	14788
907.441	14659
907.557	14621
907.674	14560
907.79	14450
907.907	14549
908.023	14541
908.139	14533
908.256	14431
908.372	14339
908.488	14393
908.604	14290
908.72	14267
908.836	14362
908.952	14176
909.068	14275
909.184	14256
909.3	14294
909.415	14305
909.531	14309
909.647	14050
909.762	14050
909.878	13951
909.993	14012
910.108	13989
910.224	14039
910.339	13955
910.454	13921
910.57	13883
910.685	13780
910.8	14001
910.915	13906
911.03	13951
911.145	13704
911.259	13765
911.374	13677
911.489	13651
911.604	13525
911.718	13438
911.833	13419
911.947	13377
912.062	13236
912.176	13422
912.291	13377
912.405	13453
912.519	13548
912.633	13571
912.748	13518
912.862	13369
912.976	13221
913.09	13019
913.204	13187
913.318	13149
913.431	13270
913.545	13289
913.659	13270
913.772	13228
913.886	13072
914	13141
914.113	13244
914.226	13114
914.34	13183
914.453	12989
914.566	13168
914.68	13023
914.793	12993
914.906	12833
915.019	12817
915.132	12749
915.245	12776
915.358	12749
915.47	12920
915.583	12882
915.696	12924
915.809	12989
915.921	12970
916.034	12814
916.146	12741
916.259	12825
916.371	12890
916.483	12886
916.595	12734
916.708	12730
916.82	12757
916.932	12719
917.044	12722
917.156	12669
917.268	12677
917.38	12635
917.491	12574
917.603	12540
917.715	12616
917.826	12593
917.938	12566
918.049	12441
918.161	12460
918.272	12646
918.384	12627
918.495	12467
918.606	12414
918.717	12327
918.828	12380
918.939	12319
919.05	12216
919.161	12285
919.272	12125
919.383	12148
919.494	12311
919.604	12566
919.715	12296
919.826	12235
919.936	12270
920.047	12350
920.157	12262
920.267	12509
920.378	12315
920.488	12277
920.598	12445
920.708	12623
920.818	12464
920.928	12479
921.038	12578
921.148	12566
921.258	12296
921.368	12148
921.477	12140
921.587	11992
921.697	11942
921.806	12022
921.916	11904
922.025	11794
922.134	11805
922.244	11752
922.353	11790
922.462	11638
922.571	11657
922.68	11551
922.789	11368
922.898	11436
923.007	11353
923.116	11383
923.224	11383
923.333	11452
923.442	11246
923.55	11208
923.659	11227
923.767	11360
923.876	11193
923.984	11337
924.092	11193
924.201	11185
924.309	11212
924.417	11204
924.525	11124
924.633	11155
924.741	11908
924.849	10968
924.956	11102
925.064	10904
925.172	10915
925.279	10965
925.387	10987
925.494	10915
925.602	11113
925.709	11064
925.816	10911
925.924	10942
926.031	10972
926.138	10968
926.245	11048
926.352	10847
926.459	11010
926.566	10968
926.673	10850
926.779	10706
926.886	10797
926.993	10618
927.099	10561
927.206	10584
927.312	10523
927.419	10672
927.525	10565
927.631	10683
927.737	10504
927.843	10455
927.95	10360
928.056	10451
928.162	10500
928.267	10493
928.373	11033
928.479	10527
928.585	10360
928.69	10352
928.796	10432
928.901	10341
929.007	10158
929.112	10375
929.218	10284
929.323	10234
929.428	10257
929.533	10337
929.638	10207
929.743	10185
929.848	10265
929.953	10223
930.058	10063
930.163	9888
930.267	10010
930.372	10074
930.477	9869
930.581	10112
930.685	10040
930.79	9918
930.894	9968
930.998	9861
931.103	9991
931.207	9564
931.311	9587
931.415	9515
931.519	9355
931.623	9287
