Data from test_V78500241_3060.txt Node
Date: Fri Mar 25 14:55:01 CST 2022
User: usil
Spectrometer: V785-0024
Trigger mode: 0
Integration Time (sec): 4.000000E-1
Scans to average: 1
Nonlinearity correction enabled: false
Boxcar width: 0
Storing dark spectrum: false
XAxis mode: Wavelengths
Number of Pixels in Spectrum: 1024
>>>>>Begin Spectral Data<<<<<
801.071	22029
801.214	21937
801.356	21789
801.499	21694
801.641	21485
801.783	21435
801.926	21412
802.068	21359
802.211	21401
802.353	21260
802.496	20944
802.638	20925
802.78	20876
802.923	20800
803.065	20727
803.208	20743
803.35	20906
803.492	20849
803.635	20921
803.777	20781
803.919	20861
804.061	21150
804.204	20921
804.346	20659
804.488	20609
804.63	20670
804.773	20708
804.915	20655
805.057	20807
805.199	20670
805.341	20697
805.483	20815
805.626	20769
805.768	20629
805.91	20773
806.052	20838
806.194	20655
806.336	20811
806.478	20720
806.62	20579
806.762	20800
806.904	20864
807.046	21135
807.188	21070
807.33	21028
807.472	21085
807.614	20895
807.756	20971
807.898	20857
808.04	20762
808.182	20769
808.324	20743
808.465	20876
808.607	20982
808.749	21039
808.891	21199
809.033	21211
809.174	21161
809.316	21108
809.458	21055
809.6	21062
809.741	21169
809.883	21176
810.025	21180
810.166	21298
810.308	21195
810.45	21195
810.591	21081
810.733	20887
810.875	20845
811.016	20686
811.158	20781
811.299	20811
811.441	21017
811.582	20906
811.724	20876
811.865	20849
812.007	20785
812.148	20823
812.29	20834
812.431	21047
812.573	21089
812.714	21173
812.855	21302
812.997	21313
813.138	21523
813.279	21447
813.421	21264
813.562	21264
813.703	21077
813.845	20883
813.986	20731
814.127	20549
814.268	20488
814.41	20480
814.551	20488
814.692	20434
814.833	20313
814.974	20271
815.115	20499
815.256	20252
815.397	20248
815.539	20164
815.68	20096
815.821	19974
815.962	20218
816.103	20122
816.244	19932
816.385	19811
816.526	19772
816.666	19674
816.807	19411
816.948	19578
817.089	19502
817.23	19601
817.371	19540
817.512	19422
817.653	19426
817.793	19495
817.934	19540
818.075	19483
818.216	19419
818.356	19537
818.497	19316
818.638	19225
818.778	19285
818.919	19221
819.06	19209
819.2	19255
819.341	19362
819.481	19381
819.622	19529
819.762	19616
819.903	19681
820.043	19483
820.184	19499
820.324	19559
820.465	19601
820.605	19460
820.746	19369
820.886	19327
821.026	19487
821.167	19388
821.307	19525
821.447	19396
821.588	19217
821.728	19141
821.868	19012
822.008	18817
822.149	19027
822.289	18833
822.429	18551
822.569	18688
822.709	18582
822.849	18384
822.99	18418
823.13	18327
823.27	18346
823.41	18281
823.55	18209
823.69	18239
823.83	18152
823.97	18186
824.11	17901
824.25	17904
824.389	17984
824.529	18068
824.669	17942
824.809	18011
824.949	18019
825.089	18045
825.228	17980
825.368	17783
825.508	17802
825.648	17783
825.787	17805
825.927	17767
826.067	17661
826.206	17646
826.346	17790
826.485	17726
826.625	17680
826.765	17836
826.904	17741
827.044	17459
827.183	17353
827.323	17330
827.462	17459
827.601	17368
827.741	17341
827.88	17444
828.02	17277
828.159	17459
828.298	17463
828.437	17509
828.577	17212
828.716	17463
828.855	17341
828.994	17170
829.134	17105
829.273	17311
829.412	17113
829.551	17136
829.69	17121
829.829	17128
829.968	17208
830.107	17223
830.246	17098
830.385	17056
830.524	17098
830.663	17060
830.802	16805
830.941	16805
831.08	16809
831.219	16858
831.357	16752
831.496	16858
831.635	16744
831.774	16702
831.913	16577
832.051	16508
832.19	16554
832.329	16611
832.467	16428
832.606	16478
832.744	16337
832.883	16500
833.022	16421
833.16	16440
833.299	16493
833.437	16459
833.576	16565
833.714	16485
833.852	16462
833.991	16481
834.129	16531
834.267	16531
834.406	16516
834.544	16573
834.682	16436
834.821	16489
834.959	16645
835.097	16523
835.235	16596
835.373	16554
835.511	16470
835.65	16455
835.788	16329
835.926	16249
836.064	16306
836.202	16226
836.34	16474
836.478	16504
836.615	16402
836.753	16398
836.891	16462
837.029	16466
837.167	16474
837.305	16333
837.443	16337
837.58	16272
837.718	16409
837.856	16341
837.993	16207
838.131	16219
838.269	16105
838.406	16242
838.544	16246
838.681	16010
838.819	15926
838.956	15850
839.094	15861
839.231	15842
839.369	15899
839.506	16173
839.643	15979
839.781	15819
839.918	15766
840.055	15747
840.193	15739
840.33	15614
840.467	15800
840.604	15759
840.742	16082
840.879	15736
841.016	15595
841.153	15705
841.29	15903
841.427	15827
841.564	15842
841.701	15827
841.838	15743
841.975	15728
842.112	15762
842.249	15618
842.385	15504
842.522	15785
842.659	15671
842.796	15553
842.933	15629
843.069	15500
843.206	15564
843.343	15633
843.479	15633
843.616	15648
843.752	15355
843.889	15405
844.025	15500
844.162	15348
844.298	15462
844.435	15431
844.571	15222
844.708	15272
844.844	15545
844.98	15492
845.117	15481
845.253	15317
845.389	15230
845.525	15233
845.661	15306
845.798	15218
845.934	15222
846.07	15157
846.206	15157
846.342	15279
846.478	15146
846.614	14967
846.75	14902
846.886	14876
847.022	15116
847.158	14906
847.294	14979
847.429	15017
847.565	14861
847.701	15066
847.837	14834
847.972	14629
848.108	14777
848.244	14758
848.379	14621
848.515	14568
848.65	14473
848.786	14579
848.921	14651
849.057	14610
849.192	14636
849.328	14503
849.463	14541
849.598	14469
849.734	14396
849.869	14393
850.004	14431
850.14	14423
850.275	14244
850.41	14157
850.545	14275
850.68	14381
850.815	14347
850.95	14298
851.085	14362
851.22	14431
851.355	14370
851.49	14237
851.625	14305
851.76	14282
851.895	14225
852.03	14172
852.165	14313
852.299	14324
852.434	14355
852.569	14294
852.703	14301
852.838	14419
852.973	14396
853.107	14431
853.242	14278
853.376	14145
853.511	14123
853.645	14214
853.78	14252
853.914	14214
854.048	14134
854.183	14149
854.317	14221
854.451	14294
854.585	14077
854.72	14210
854.854	14286
854.988	14168
855.122	14138
855.256	14088
855.39	14164
855.524	14256
855.658	14134
855.792	14187
855.926	14237
856.06	14248
856.194	14286
856.327	14153
856.461	14062
856.595	14115
856.729	14081
856.862	14225
856.996	14172
857.13	14267
857.263	14320
857.397	14263
857.53	14202
857.664	14263
857.797	14275
857.931	14362
858.064	14214
858.197	14275
858.331	14176
858.464	14199
858.597	14107
858.731	14267
858.864	14134
858.997	14138
859.13	14248
859.263	14229
859.396	14294
859.529	14107
859.662	14115
859.795	14161
859.928	14218
860.061	14282
860.194	14324
860.327	14248
860.46	14172
860.592	14278
860.725	14278
860.858	14324
860.99	14214
861.123	14168
861.256	14123
861.388	14233
861.521	14906
861.653	14020
861.786	14024
861.918	13978
862.05	14126
862.183	14195
862.315	14119
862.447	14191
862.58	14191
862.712	13925
862.844	13830
862.976	14012
863.108	13944
863.24	14286
863.372	13879
863.504	13928
863.636	13890
863.768	13989
863.9	13837
864.032	13906
864.164	13982
864.296	14005
864.428	13997
864.559	14024
864.691	14012
864.823	13955
864.954	13959
865.086	13974
865.217	13959
865.349	13902
865.48	13887
865.612	13845
865.743	14081
865.875	13917
866.006	13887
866.137	13906
866.269	13883
866.4	13970
866.531	13906
866.662	13898
866.793	13856
866.924	13921
867.055	13925
867.186	13845
867.317	13875
867.448	13875
867.579	13841
867.71	13890
867.841	13887
867.972	13879
868.103	13940
868.233	13837
868.364	14039
868.495	14008
868.625	14259
868.756	14244
868.886	14180
869.017	14240
869.147	14256
869.278	14400
869.408	14206
869.539	14180
869.669	14240
869.799	14218
869.929	14199
870.06	14271
870.19	14469
870.32	14507
870.45	14549
870.58	14507
870.71	14708
870.84	14655
870.97	14568
871.1	14469
871.23	14720
871.36	14762
871.489	14758
871.619	14743
871.749	14758
871.879	14826
872.008	14864
872.138	14845
872.267	14785
872.397	14659
872.526	14556
872.656	14575
872.785	14663
872.915	14765
873.044	14925
873.173	14758
873.303	14796
873.432	14872
873.561	14975
873.69	14956
873.819	14891
873.948	14906
874.077	14861
874.206	14861
874.335	14849
874.464	14994
874.593	15218
874.722	15119
874.851	15108
874.979	15146
875.108	15161
875.237	15214
875.365	15157
875.494	15176
875.623	15142
875.751	15176
875.88	15222
876.008	15294
876.136	15359
876.265	15629
876.393	15663
876.521	15637
876.65	15682
876.778	15622
876.906	15542
877.034	15523
877.162	15553
877.29	15549
877.418	15511
877.546	15637
877.674	15591
877.802	15557
877.93	15477
878.058	15534
878.185	15435
878.313	15477
878.441	15591
878.568	15431
878.696	15523
878.824	15538
878.951	15732
879.079	15793
879.206	15869
879.333	15789
879.461	15561
879.588	15660
879.715	15781
879.842	15876
879.97	15618
880.097	15458
880.224	15332
880.351	15530
880.478	15496
880.605	15332
880.732	15340
880.859	15603
880.986	15420
881.112	15462
881.239	15260
881.366	15211
881.493	15085
881.619	15055
881.746	15036
881.872	15150
881.999	14944
882.125	14975
882.252	15093
882.378	15032
882.505	15306
882.631	15062
882.757	14880
882.883	14910
883.01	14937
883.136	14868
883.262	14796
883.388	14750
883.514	14880
883.64	15066
883.766	14804
883.892	14693
884.018	14708
884.143	14937
884.269	14872
884.395	14674
884.52	14602
884.646	14590
884.772	14560
884.897	14545
885.023	14602
885.148	14678
885.274	14682
885.399	14746
885.524	14564
885.65	14629
885.775	14678
885.9	14590
886.025	14788
886.15	14686
886.275	14488
886.4	14454
886.525	14575
886.65	14503
886.775	14549
886.9	14708
887.025	14788
887.149	14590
887.274	14446
887.399	14396
887.523	14457
887.648	14320
887.773	14332
887.897	14575
888.021	14537
888.146	14465
888.27	14434
888.395	14526
888.519	14514
888.643	14503
888.767	14556
888.891	14324
889.015	14332
889.139	14301
889.263	14298
889.387	14419
889.511	14473
889.635	14438
889.759	14267
889.883	14256
890.006	14294
890.13	14396
890.254	14145
890.377	14256
890.501	14153
890.624	14153
890.748	14199
890.871	14050
890.995	14077
891.118	13940
891.241	14046
891.364	14008
891.488	14096
891.611	14107
891.734	14046
891.857	14081
891.98	14107
892.103	14142
892.226	14103
892.349	13997
892.471	13940
892.594	13986
892.717	14096
892.839	13989
892.962	14020
893.085	14050
893.207	14123
893.33	13909
893.452	13989
893.575	14065
893.697	14020
893.819	14214
893.941	14206
894.064	14149
894.186	14046
894.308	14016
894.43	14168
894.552	14210
894.674	14157
894.796	13978
894.918	14077
895.04	14123
895.161	14248
895.283	14210
895.405	14119
895.526	14126
895.648	14130
895.769	14256
895.891	14183
896.012	14218
896.134	14187
896.255	14282
896.376	14164
896.498	14206
896.619	14301
896.74	14126
896.861	14206
896.982	14511
897.103	14701
897.224	14533
897.345	14423
897.466	14358
897.587	14526
897.708	14545
897.828	14537
897.949	14419
898.07	14415
898.19	14495
898.311	14674
898.431	14492
898.552	14636
898.672	14667
898.792	14629
898.913	14632
899.033	14419
899.153	14457
899.273	14374
899.393	14450
899.513	14480
899.633	14415
899.753	14461
899.873	14412
899.993	14533
900.113	14419
900.232	14465
900.352	14454
900.472	14278
900.591	14263
900.711	14252
900.83	14256
900.95	14427
901.069	14415
901.189	14294
901.308	14001
901.427	14001
901.546	14027
901.665	14035
901.784	14001
901.904	13894
902.023	13826
902.141	13708
902.26	13506
902.379	13693
902.498	13582
902.617	13651
902.735	13495
902.854	13521
902.973	13495
903.091	13240
903.21	13232
903.328	13324
903.446	13168
903.565	13088
903.683	13084
903.801	13084
903.919	13103
904.038	13149
904.156	12909
904.274	13034
904.392	12901
904.51	12901
904.627	12932
904.745	12993
904.863	12977
904.981	12760
905.098	12631
905.216	12582
905.334	12650
905.451	12620
905.569	12570
905.686	12642
905.803	12604
905.921	12486
906.038	12498
906.155	12479
906.272	12292
906.389	12380
906.506	12258
906.623	12171
906.74	12281
906.857	12148
906.974	12098
907.091	12258
907.208	12361
907.324	12232
907.441	12190
907.557	11939
907.674	11935
907.79	11897
907.907	11866
908.023	11965
908.139	11958
908.256	11908
908.372	11866
908.488	11764
908.604	11729
908.72	11691
908.836	11714
908.952	11646
909.068	11741
909.184	11779
909.3	11611
909.415	11794
909.531	11707
909.647	11493
909.762	11512
909.878	11425
909.993	11478
910.108	11364
910.224	11467
910.339	11497
910.454	11368
910.57	11387
910.685	11220
910.8	11585
910.915	11562
911.03	11341
911.145	11166
911.259	11151
911.374	11155
911.489	11124
911.604	11041
911.718	10965
911.833	10984
911.947	10824
912.062	10801
912.176	10847
912.291	10919
912.405	10869
912.519	11201
912.633	11098
912.748	11083
912.862	10976
912.976	10889
913.09	10710
913.204	10675
913.318	10824
913.431	10961
913.545	10873
913.659	10957
913.772	10824
913.886	10740
914	10683
914.113	10850
914.226	10877
914.34	10698
914.453	10626
914.566	10831
914.68	10645
914.793	10637
914.906	10470
915.019	10436
915.132	10329
915.245	10459
915.358	10459
915.47	10432
915.583	10466
915.696	10497
915.809	10584
915.921	10637
916.034	10538
916.146	10428
916.259	10394
916.371	10470
916.483	10500
916.595	10344
916.708	10409
916.82	10409
916.932	10348
917.044	10314
917.156	10337
917.268	10322
917.38	10272
917.491	10227
917.603	10314
917.715	10284
917.826	10375
917.938	10207
918.049	10196
918.161	10238
918.272	10413
918.384	10424
918.495	10333
918.606	10150
918.717	10112
918.828	10188
918.939	10185
919.05	10135
919.161	10192
919.272	9892
919.383	10029
919.494	10166
919.604	10417
919.715	10181
919.826	10002
919.936	10188
920.047	10276
920.157	10219
920.267	10268
920.378	10329
920.488	10192
920.598	10314
920.708	10531
920.818	10356
920.928	10268
921.038	10519
921.148	10497
921.258	10192
921.368	10185
921.477	9987
921.587	10029
921.697	9979
921.806	10097
921.916	9873
922.025	9850
922.134	9778
922.244	9686
922.353	9789
922.462	9637
922.571	9591
922.68	9443
922.789	9439
922.898	9420
923.007	9355
923.116	9447
923.224	9443
923.333	9431
923.442	9283
923.55	9268
923.659	9294
923.767	9416
923.876	9291
923.984	9329
924.092	9203
924.201	9279
924.309	9287
924.417	9272
924.525	9218
924.633	9275
924.741	10162
924.849	9066
924.956	9233
925.064	9077
925.172	9070
925.279	9028
925.387	9062
925.494	9169
925.602	9237
925.709	9176
925.816	9074
925.924	9020
926.031	9131
926.138	9138
926.245	9119
926.352	9020
926.459	9154
926.566	9207
926.673	9119
926.779	8952
926.886	8887
926.993	8796
927.099	8781
927.206	8743
927.312	8773
927.419	8921
927.525	8849
927.631	8845
927.737	8750
927.843	8769
927.95	8651
928.056	8648
928.162	8823
928.267	8731
928.373	9268
928.479	8842
928.585	8579
928.69	8682
928.796	8777
928.901	8663
929.007	8530
929.112	8606
929.218	8610
929.323	8568
929.428	8480
929.533	8610
929.638	8492
929.743	8503
929.848	8610
929.953	8419
930.058	8385
930.163	8351
930.267	8362
930.372	8396
930.477	8267
930.581	8476
930.685	8419
930.79	8199
930.894	8271
930.998	8267
931.103	8393
931.207	8062
931.311	8001
931.415	7955
931.519	7715
931.623	7677
