Data from test_V78500241_2021.txt Node
Date: Fri Mar 25 14:47:47 CST 2022
User: usil
Spectrometer: V785-0024
Trigger mode: 0
Integration Time (sec): 4.000000E-1
Scans to average: 1
Nonlinearity correction enabled: false
Boxcar width: 0
Storing dark spectrum: false
XAxis mode: Wavelengths
Number of Pixels in Spectrum: 1024
>>>>>Begin Spectral Data<<<<<
801.071	22116
801.214	22048
801.356	21694
801.499	21713
801.641	21462
801.783	21477
801.926	21485
802.068	21504
802.211	21363
802.353	21233
802.496	21096
802.638	20815
802.78	20826
802.923	20853
803.065	20758
803.208	20670
803.35	20819
803.492	20838
803.635	20891
803.777	20788
803.919	21062
804.061	21146
804.204	20925
804.346	20667
804.488	20697
804.63	20769
804.773	20682
804.915	20716
805.057	20838
805.199	20758
805.341	20754
805.483	20967
805.626	20785
805.768	20689
805.91	20750
806.052	20826
806.194	20697
806.336	20796
806.478	20788
806.62	20697
806.762	20765
806.904	20967
807.046	21119
807.188	21051
807.33	21009
807.472	21066
807.614	20842
807.756	21032
807.898	20796
808.04	20765
808.182	20796
808.324	20880
808.465	20788
808.607	21032
808.749	21116
808.891	21135
809.033	21203
809.174	21249
809.316	21093
809.458	21108
809.6	21009
809.741	21093
809.883	21275
810.025	21298
810.166	21310
810.308	21249
810.45	21237
810.591	21142
810.733	20937
810.875	20994
811.016	20872
811.158	20640
811.299	20864
811.441	21032
811.582	20952
811.724	20826
811.865	20758
812.007	20842
812.148	20834
812.29	20849
812.431	21043
812.573	21169
812.714	21291
812.855	21272
812.997	21397
813.138	21545
813.279	21481
813.421	21367
813.562	21405
813.703	21218
813.845	20994
813.986	20629
814.127	20606
814.268	20507
814.41	20499
814.551	20476
814.692	20488
814.833	20313
814.974	20385
815.115	20461
815.256	20328
815.397	20309
815.539	20263
815.68	20187
815.821	20107
815.962	20111
816.103	20039
816.244	19871
816.385	19879
816.526	19936
816.666	19662
816.807	19708
816.948	19696
817.089	19624
817.23	19681
817.371	19533
817.512	19567
817.653	19499
817.793	19552
817.934	19552
818.075	19533
818.216	19514
818.356	19506
818.497	19400
818.638	19141
818.778	19232
818.919	19297
819.06	19346
819.2	19377
819.341	19460
819.481	19415
819.622	19499
819.762	19788
819.903	19651
820.043	19609
820.184	19578
820.324	19620
820.465	19548
820.605	19605
820.746	19529
820.886	19384
821.026	19400
821.167	19457
821.307	19655
821.447	19502
821.588	19430
821.728	19244
821.868	19004
822.008	18890
822.149	18894
822.289	18973
822.429	18715
822.569	18642
822.709	18692
822.849	18418
822.99	18418
823.13	18429
823.27	18384
823.41	18125
823.55	18232
823.69	18311
823.83	18296
823.97	18159
824.11	18095
824.25	17920
824.389	17999
824.529	18117
824.669	17931
824.809	18182
824.949	18148
825.089	18041
825.228	18026
825.368	17851
825.508	17851
825.648	17798
825.787	17790
825.927	17874
826.067	17657
826.206	17805
826.346	17726
826.485	17790
826.625	17741
826.765	17855
826.904	17863
827.044	17661
827.183	17710
827.323	17368
827.462	17615
827.601	17516
827.741	17410
827.88	17486
828.02	17433
828.159	17486
828.298	17433
828.437	17509
828.577	17383
828.716	17577
828.855	17486
828.994	17254
829.134	17200
829.273	17246
829.412	17212
829.551	17155
829.69	17178
829.829	17246
829.968	17414
830.107	17330
830.246	17250
830.385	17166
830.524	17235
830.663	17064
830.802	16862
830.941	16843
831.08	16843
831.219	16987
831.357	16930
831.496	17056
831.635	16801
831.774	16736
831.913	16782
832.051	16729
832.19	16637
832.329	16694
832.467	16565
832.606	16394
832.744	16489
832.883	16550
833.022	16523
833.16	16588
833.299	16668
833.437	16512
833.576	16649
833.714	16512
833.852	16611
833.991	16630
834.129	16656
834.267	16740
834.406	16698
834.544	16755
834.682	16668
834.821	16645
834.959	16793
835.097	16550
835.235	16641
835.373	16706
835.511	16630
835.65	16554
835.788	16497
835.926	16424
836.064	16360
836.202	16341
836.34	16485
836.478	16679
836.615	16478
836.753	16504
836.891	16664
837.029	16561
837.167	16596
837.305	16493
837.443	16402
837.58	16382
837.718	16440
837.856	16398
837.993	16295
838.131	16447
838.269	16333
838.406	16432
838.544	16291
838.681	16082
838.819	16025
838.956	15972
839.094	15964
839.231	16025
839.369	16086
839.506	16299
839.643	16135
839.781	15915
839.918	15876
840.055	15979
840.193	15930
840.33	15854
840.467	15911
840.604	16002
840.742	16215
840.879	15759
841.016	15865
841.153	15895
841.29	16040
841.427	15968
841.564	15975
841.701	15934
841.838	15994
841.975	15880
842.112	15918
842.249	15793
842.385	15812
842.522	15835
842.659	15739
842.796	15663
842.933	15762
843.069	15652
843.206	15660
843.343	15800
843.479	15720
843.616	15816
843.752	15519
843.889	15538
844.025	15660
844.162	15431
844.298	15614
844.435	15587
844.571	15473
844.708	15515
844.844	15625
844.98	15698
845.117	15671
845.253	15553
845.389	15389
845.525	15435
845.661	15428
845.798	15321
845.934	15294
846.07	15214
846.206	15450
846.342	15435
846.478	15298
846.614	15028
846.75	15116
846.886	15085
847.022	15150
847.158	15062
847.294	15051
847.429	15176
847.565	15097
847.701	15405
847.837	14864
847.972	14716
848.108	14861
848.244	14937
848.379	14750
848.515	14667
848.65	14712
848.786	14670
848.921	14659
849.057	14762
849.192	14872
849.328	14731
849.463	14746
849.598	14629
849.734	14613
849.869	14522
850.004	14560
850.14	14564
850.275	14476
850.41	14362
850.545	14374
850.68	14438
850.815	14484
850.95	14484
851.085	14602
851.22	14560
851.355	14431
851.49	14374
851.625	14469
851.76	14427
851.895	14328
852.03	14271
852.165	14366
852.299	14571
852.434	14575
852.569	14434
852.703	14476
852.838	14465
852.973	14579
853.107	14613
853.242	14427
853.376	14434
853.511	14248
853.645	14343
853.78	14457
853.914	14343
854.048	14324
854.183	14358
854.317	14347
854.451	14552
854.585	14362
854.72	14282
854.854	14381
854.988	14259
855.122	14339
855.256	14161
855.39	14358
855.524	14328
855.658	14351
855.792	14343
855.926	14355
856.06	14465
856.194	14370
856.327	14298
856.461	14309
856.595	14187
856.729	14263
856.862	14400
856.996	14301
857.13	14389
857.263	14556
857.397	14514
857.53	14343
857.664	14457
857.797	14495
857.931	14381
858.064	14301
858.197	14400
858.331	14339
858.464	14229
858.597	14256
858.731	14404
858.864	14244
858.997	14320
859.13	14339
859.263	14389
859.396	14404
859.529	14233
859.662	14282
859.795	14278
859.928	14370
860.061	14446
860.194	14442
860.327	14404
860.46	14237
860.592	14454
860.725	14499
860.858	14415
860.99	14328
861.123	14233
861.256	14111
861.388	14309
861.521	14899
861.653	14237
861.786	14168
861.918	14301
862.05	14282
862.183	14305
862.315	14218
862.447	14423
862.58	14294
862.712	14134
862.844	14092
862.976	14123
863.108	14050
863.24	14469
863.372	14065
863.504	14123
863.636	14050
863.768	14176
863.9	14081
864.032	13986
864.164	14123
864.296	14111
864.428	14267
864.559	14130
864.691	14138
864.823	14206
864.954	14180
865.086	14123
865.217	14096
865.349	14031
865.48	14058
865.612	14103
865.743	14271
865.875	14103
866.006	13951
866.137	14107
866.269	14111
866.4	14153
866.531	14046
866.662	14096
866.793	14050
866.924	14058
867.055	14054
867.186	14161
867.317	14111
867.448	14024
867.579	13947
867.71	14092
867.841	14046
867.972	14081
868.103	14046
868.233	14058
868.364	14062
868.495	14161
868.625	14271
868.756	14332
868.886	14214
869.017	14233
869.147	14427
869.278	14385
869.408	14271
869.539	14263
869.669	14396
869.799	14339
869.929	14446
870.06	14499
870.19	14621
870.32	14655
870.45	14682
870.58	14781
870.71	14834
870.84	14769
870.97	14830
871.1	14773
871.23	14880
871.36	15001
871.489	14830
871.619	14876
871.749	14925
871.879	14982
872.008	15043
872.138	14899
872.267	14971
872.397	14826
872.526	14800
872.656	14686
872.785	14701
872.915	14956
873.044	15051
873.173	15013
873.303	14994
873.432	15039
873.561	15001
873.69	15005
873.819	14960
873.948	15005
874.077	15028
874.206	14952
874.335	15005
874.464	15214
874.593	15348
874.722	15188
874.851	15393
874.979	15268
875.108	15329
875.237	15321
875.365	15157
875.494	15256
875.623	15424
875.751	15214
875.88	15336
876.008	15431
876.136	15542
876.265	15785
876.393	15903
876.521	15785
876.65	15857
876.778	15724
876.906	15606
877.034	15641
877.162	15663
877.29	15595
877.418	15759
877.546	15671
877.674	15804
877.802	15610
877.93	15698
878.058	15694
878.185	15549
878.313	15690
878.441	15789
878.568	15473
878.696	15671
878.824	15770
878.951	15762
879.079	15857
879.206	16044
879.333	15934
879.461	15808
879.588	15827
879.715	15789
879.842	16036
879.97	15720
880.097	15519
880.224	15504
880.351	15542
880.478	15595
880.605	15557
880.732	15557
880.859	15778
880.986	15561
881.112	15698
881.239	15477
881.366	15348
881.493	15344
881.619	15218
881.746	15325
881.872	15245
881.999	15192
882.125	15195
882.252	15241
882.378	15169
882.505	15325
882.631	15203
882.757	15001
882.883	15093
883.01	15036
883.136	15062
883.262	14834
883.388	14948
883.514	15024
883.64	15074
883.766	14990
883.892	14963
884.018	14811
884.143	14971
884.269	15032
884.395	14830
884.52	14712
884.646	14746
884.772	14705
884.897	14670
885.023	14819
885.148	14826
885.274	14823
885.399	14750
885.524	14815
885.65	14807
885.775	14765
885.9	14739
886.025	14826
886.15	14815
886.275	14678
886.4	14720
886.525	14735
886.65	14739
886.775	14762
886.9	14815
887.025	15070
887.149	14750
887.274	14590
887.399	14541
887.523	14571
887.648	14503
887.773	14385
887.897	14655
888.021	14610
888.146	14522
888.27	14636
888.395	14670
888.519	14636
888.643	14617
888.767	14648
888.891	14473
889.015	14461
889.139	14499
889.263	14374
889.387	14686
889.511	14640
889.635	14579
889.759	14427
889.883	14434
890.006	14450
890.13	14541
890.254	14389
890.377	14362
890.501	14328
890.624	14187
890.748	14282
890.871	14214
890.995	14119
891.118	14031
891.241	14153
891.364	14168
891.488	14248
891.611	14176
891.734	14164
891.857	14237
891.98	14168
892.103	14237
892.226	14195
892.349	14138
892.471	14001
892.594	14012
892.717	14100
892.839	14248
892.962	14172
893.085	14176
893.207	14111
893.33	14100
893.452	14039
893.575	14199
893.697	14107
893.819	14294
893.941	14381
894.064	14248
894.186	14084
894.308	14111
894.43	14309
894.552	14320
894.674	14267
894.796	14043
894.918	14229
895.04	14176
895.161	14172
895.283	14225
895.405	14183
895.526	14286
895.648	14191
895.769	14305
895.891	14248
896.012	14343
896.134	14317
896.255	14267
896.376	14206
896.498	14278
896.619	14252
896.74	14263
896.861	14381
896.982	14705
897.103	14788
897.224	14571
897.345	14549
897.466	14522
897.587	14522
897.708	14693
897.828	14575
897.949	14648
898.07	14454
898.19	14476
898.311	14682
898.431	14518
898.552	14598
898.672	14781
898.792	14678
898.913	14708
899.033	14663
899.153	14537
899.273	14294
899.393	14514
899.513	14503
899.633	14476
899.753	14469
899.873	14461
899.993	14632
900.113	14552
900.232	14450
900.352	14541
900.472	14434
900.591	14298
900.711	14412
900.83	14366
900.95	14450
901.069	14412
901.189	14305
901.308	14100
901.427	14062
901.546	13936
901.665	14050
901.784	14050
901.904	13894
902.023	13955
902.141	13571
902.26	13620
902.379	13681
902.498	13582
902.617	13499
902.735	13685
902.854	13605
902.973	13487
903.091	13331
903.21	13308
903.328	13297
903.446	13278
903.565	13221
903.683	13202
903.801	13080
903.919	13091
904.038	13137
904.156	12943
904.274	13076
904.392	12985
904.51	13046
904.627	13057
904.745	13046
904.863	13053
904.981	12814
905.098	12757
905.216	12745
905.334	12745
905.451	12700
905.569	12696
905.686	12681
905.803	12665
905.921	12544
906.038	12544
906.155	12574
906.272	12506
906.389	12441
906.506	12296
906.623	12350
906.74	12296
906.857	12117
906.974	12232
907.091	12296
907.208	12372
907.324	12308
907.441	12114
907.557	11961
907.674	12030
907.79	11866
907.907	11973
908.023	11984
908.139	12034
908.256	11980
908.372	12003
908.488	11935
908.604	11748
908.72	11714
908.836	11748
908.952	11710
909.068	11786
909.184	11828
909.3	11767
909.415	11882
909.531	11802
909.647	11562
909.762	11547
909.878	11486
909.993	11444
910.108	11493
910.224	11505
910.339	11600
910.454	11493
910.57	11398
910.685	11284
910.8	11611
910.915	11566
911.03	11490
911.145	11258
911.259	11311
911.374	11296
911.489	11216
911.604	11178
911.718	11048
911.833	11064
911.947	10908
912.062	10816
912.176	10991
912.291	11037
912.405	11033
912.519	11208
912.633	11227
912.748	11071
912.862	10972
912.976	10850
913.09	10755
913.204	10839
913.318	10873
913.431	10949
913.545	10919
913.659	11006
913.772	10904
913.886	10736
914	10733
914.113	10774
914.226	10839
914.34	10790
914.453	10687
914.566	10790
914.68	10683
914.793	10782
914.906	10649
915.019	10455
915.132	10447
915.245	10405
915.358	10497
915.47	10603
915.583	10584
915.696	10626
915.809	10588
915.921	10698
916.034	10504
916.146	10508
916.259	10481
916.371	10508
916.483	10554
916.595	10382
916.708	10489
916.82	10462
916.932	10451
917.044	10500
917.156	10367
917.268	10287
917.38	10363
917.491	10276
917.603	10405
917.715	10424
917.826	10363
917.938	10322
918.049	10223
918.161	10306
918.272	10516
918.384	10432
918.495	10341
918.606	10169
918.717	10055
918.828	10204
918.939	10257
919.05	10200
919.161	10215
919.272	9975
919.383	10036
919.494	10352
919.604	10371
919.715	10287
919.826	10192
919.936	10207
920.047	10276
920.157	10287
920.267	10455
920.378	10268
920.488	10257
920.598	10481
920.708	10599
920.818	10398
920.928	10421
921.038	10641
921.148	10485
921.258	10322
921.368	10215
921.477	10124
921.587	10105
921.697	10021
921.806	10086
921.916	10048
922.025	9789
922.134	9766
922.244	9675
922.353	9751
922.462	9690
922.571	9671
922.68	9477
922.789	9450
922.898	9473
923.007	9454
923.116	9492
923.224	9443
923.333	9439
923.442	9420
923.55	9348
923.659	9382
923.767	9462
923.876	9374
923.984	9397
924.092	9329
924.201	9397
924.309	9260
924.417	9389
924.525	9332
924.633	9275
924.741	10295
924.849	9108
924.956	9302
925.064	9112
925.172	9085
925.279	9146
925.387	9173
925.494	9195
925.602	9310
925.709	9222
925.816	9154
925.924	9211
926.031	9176
926.138	9173
926.245	9199
926.352	9146
926.459	9157
926.566	9291
926.673	9135
926.779	9036
926.886	9039
926.993	8918
927.099	8823
927.206	8743
927.312	8819
927.419	8883
927.525	8842
927.631	8845
927.737	8819
927.843	8708
927.95	8617
928.056	8674
928.162	8731
928.267	8800
928.373	9454
928.479	8842
928.585	8659
928.69	8743
928.796	8750
928.901	8651
929.007	8549
929.112	8697
929.218	8629
929.323	8594
929.428	8606
929.533	8739
929.638	8518
929.743	8636
929.848	8617
929.953	8625
930.058	8476
930.163	8275
930.267	8412
930.372	8522
930.477	8301
930.581	8545
930.685	8400
930.79	8240
930.894	8324
930.998	8301
931.103	8438
931.207	8100
931.311	8020
931.415	7921
931.519	7818
931.623	7776
