Data from test_V78500241_150.txt Node
Date: Fri Mar 25 14:34:46 CST 2022
User: usil
Spectrometer: V785-0024
Trigger mode: 0
Integration Time (sec): 4.000000E-1
Scans to average: 1
Nonlinearity correction enabled: false
Boxcar width: 0
Storing dark spectrum: false
XAxis mode: Wavelengths
Number of Pixels in Spectrum: 1024
>>>>>Begin Spectral Data<<<<<
801.071	29109
801.214	29246
801.356	28854
801.499	28881
801.641	28706
801.783	28691
801.926	28649
802.068	28656
802.211	28474
802.353	28691
802.496	28363
802.638	28379
802.78	28474
802.923	28356
803.065	28337
803.208	28265
803.35	28394
803.492	28405
803.635	28527
803.777	28531
803.919	28580
804.061	28831
804.204	28489
804.346	28375
804.488	28341
804.63	28634
804.773	28466
804.915	28542
805.057	28683
805.199	28653
805.341	28782
805.483	28759
805.626	28744
805.768	28603
805.91	28824
806.052	28850
806.194	28797
806.336	29113
806.478	28828
806.62	29075
806.762	29242
806.904	29417
807.046	29695
807.188	29836
807.33	29954
807.472	30148
807.614	30429
807.756	30684
807.898	30992
808.04	31304
808.182	32050
808.324	33032
808.465	34040
808.607	35170
808.749	36102
808.891	36566
809.033	36612
809.174	35969
809.316	35151
809.458	33956
809.6	32868
809.741	32115
809.883	31468
810.025	31053
810.166	30806
810.308	30456
810.45	30114
810.591	30114
810.733	29657
810.875	29642
811.016	29391
811.158	29235
811.299	29414
811.441	29341
811.582	29398
811.724	29277
811.865	28968
812.007	29056
812.148	29048
812.29	29151
812.431	29166
812.573	29284
812.714	29440
812.855	29604
812.997	29547
813.138	29661
813.279	29684
813.421	29448
813.562	29455
813.703	29239
813.845	29102
813.986	28793
814.127	28660
814.268	28573
814.41	28523
814.551	28367
814.692	28645
814.833	28257
814.974	28360
815.115	28268
815.256	28246
815.397	28440
815.539	28215
815.68	28166
815.821	28143
815.962	28242
816.103	28048
816.244	28048
816.385	27926
816.526	27827
816.666	27835
816.807	27538
816.948	27519
817.089	27603
817.23	27462
817.371	27709
817.512	27469
817.653	27386
817.793	27340
817.934	27412
818.075	27477
818.216	27435
818.356	27332
818.497	27195
818.638	27211
818.778	27195
818.919	27135
819.06	27279
819.2	27336
819.341	27473
819.481	27298
819.622	27534
819.762	27682
819.903	27625
820.043	27424
820.184	27393
820.324	27466
820.465	27500
820.605	27420
820.746	27431
820.886	27344
821.026	27382
821.167	27370
821.307	27359
821.447	27325
821.588	27024
821.728	27058
821.868	26845
822.008	26758
822.149	26758
822.289	26682
822.429	26480
822.569	26309
822.709	26305
822.849	26161
822.99	26122
823.13	26062
823.27	26119
823.41	25970
823.55	25955
823.69	25917
823.83	25940
823.97	25841
824.11	25761
824.25	25795
824.389	25514
824.529	25632
824.669	25750
824.809	25818
824.949	25765
825.089	25791
825.228	25738
825.368	25487
825.508	25540
825.648	25453
825.787	25616
825.927	25597
826.067	25464
826.206	25567
826.346	25571
826.485	25559
826.625	25400
826.765	25628
826.904	25422
827.044	25270
827.183	25350
827.323	25278
827.462	25293
827.601	25175
827.741	25232
827.88	25122
828.02	25091
828.159	25091
828.298	25198
828.437	25247
828.577	24996
828.716	25148
828.855	25000
828.994	24890
829.134	24814
829.273	24992
829.412	24795
829.551	24779
829.69	24852
829.829	24875
829.968	24867
830.107	24970
830.246	24871
830.385	24700
830.524	24665
830.663	24642
830.802	24532
830.941	24422
831.08	24532
831.219	24521
831.357	24414
831.496	24612
831.635	24311
831.774	24239
831.913	24216
832.051	24133
832.19	24083
832.329	24277
832.467	24083
832.606	24034
832.744	24003
832.883	24049
833.022	24110
833.16	24182
833.299	24190
833.437	24201
833.576	24346
833.714	24380
833.852	24479
833.991	24471
834.129	24494
834.267	24483
834.406	24471
834.544	24445
834.682	24418
834.821	24258
834.959	24452
835.097	24216
835.235	24220
835.373	24015
835.511	23927
835.65	23870
835.788	23912
835.926	23786
836.064	23737
836.202	23745
836.34	23946
836.478	23965
836.615	23748
836.753	23836
836.891	23904
837.029	23904
837.167	23771
837.305	23684
837.443	23668
837.58	23695
837.718	23805
837.856	23653
837.993	23554
838.131	23562
838.269	23543
838.406	23551
838.544	23627
838.681	23391
838.819	23170
838.956	23067
839.094	23128
839.231	23227
839.369	23208
839.506	23471
839.643	23261
839.781	23029
839.918	22923
840.055	23086
840.193	22968
840.33	22877
840.467	22900
840.604	22957
840.742	23216
840.879	22869
841.016	22919
841.153	22847
841.29	23025
841.427	22968
841.564	22877
841.701	23003
841.838	22908
841.975	22713
842.112	22809
842.249	22771
842.385	22668
842.522	22847
842.659	22824
842.796	22729
842.933	22797
843.069	22873
843.206	22626
843.343	22733
843.479	22744
843.616	22679
843.752	22672
843.889	22634
844.025	22748
844.162	22626
844.298	22759
844.435	22668
844.571	22675
844.708	22862
844.844	23052
844.98	23086
845.117	23299
845.253	23497
845.389	24011
845.525	25145
845.661	26864
845.798	28949
845.934	30981
846.07	31430
846.206	31190
846.342	29893
846.478	27591
846.614	25457
846.75	24041
846.886	23410
847.022	22828
847.158	22683
847.294	22318
847.429	22299
847.565	22158
847.701	22299
847.837	21781
847.972	21759
848.108	21785
848.244	21800
848.379	21614
848.515	21568
848.65	21431
848.786	21485
848.921	21595
849.057	21519
849.192	21443
849.328	21572
849.463	21462
849.598	21355
849.734	21344
849.869	21325
850.004	21252
850.14	21138
850.275	21184
850.41	21165
850.545	21131
850.68	21093
850.815	21131
850.95	21222
851.085	21351
851.22	21195
851.355	21112
851.49	21047
851.625	21108
851.76	21207
851.895	21043
852.03	21066
852.165	21131
852.299	21184
852.434	21359
852.569	21226
852.703	21154
852.838	21249
852.973	21199
853.107	21146
853.242	21146
853.376	21077
853.511	20960
853.645	20990
853.78	21325
853.914	20975
854.048	21096
854.183	21066
854.317	21173
854.451	21272
854.585	21096
854.72	21100
854.854	21184
854.988	20944
855.122	21047
855.256	20883
855.39	21070
855.524	21218
855.658	21104
855.792	20941
855.926	20895
856.06	21001
856.194	21066
856.327	20967
856.461	20773
856.595	20891
856.729	20921
856.862	21051
856.996	20960
857.13	20906
857.263	21066
857.397	21009
857.53	20895
857.664	20963
857.797	20937
857.931	21074
858.064	20937
858.197	20902
858.331	20899
858.464	20804
858.597	20773
858.731	20792
858.864	20864
858.997	20765
859.13	20998
859.263	20815
859.396	20963
859.529	20807
859.662	20724
859.795	20724
859.928	20990
860.061	20967
860.194	20845
860.327	20963
860.46	20777
860.592	20902
860.725	20982
860.858	20967
860.99	20914
861.123	20670
861.256	20693
861.388	20777
861.521	21542
861.653	20712
861.786	20575
861.918	20727
862.05	20834
862.183	20792
862.315	20929
862.447	21009
862.58	20891
862.712	20644
862.844	20602
862.976	20796
863.108	20632
863.24	20933
863.372	20526
863.504	20454
863.636	20545
863.768	20594
863.9	20526
864.032	20328
864.164	20465
864.296	20564
864.428	20606
864.559	20587
864.691	20579
864.823	20374
864.954	20442
865.086	20503
865.217	20495
865.349	20358
865.48	20438
865.612	20427
865.743	20499
865.875	20446
866.006	20450
866.137	20412
866.269	20370
866.4	20343
866.531	20419
866.662	20271
866.793	20343
866.924	20396
867.055	20358
867.186	20301
867.317	20248
867.448	20301
867.579	20282
867.71	20138
867.841	20301
867.972	20393
868.103	20237
868.233	20347
868.364	20400
868.495	20332
868.625	20514
868.756	20682
868.886	20434
869.017	20575
869.147	20655
869.278	20785
869.408	20564
869.539	20606
869.669	20777
869.799	20480
869.929	20629
870.06	20762
870.19	20845
870.32	20876
870.45	20921
870.58	20914
870.71	21165
870.84	21104
870.97	20933
871.1	20921
871.23	21184
871.36	21154
871.489	21123
871.619	21146
871.749	21180
871.879	21306
872.008	21237
872.138	21176
872.267	21294
872.397	21146
872.526	20998
872.656	21081
872.785	21096
872.915	21272
873.044	21165
873.173	21203
873.303	21336
873.432	21313
873.561	21329
873.69	21302
873.819	21310
873.948	21420
874.077	21344
874.206	21317
874.335	21386
874.464	21473
874.593	21675
874.722	21542
874.851	21633
874.979	21656
875.108	21698
875.237	21614
875.365	21587
875.494	21797
875.623	21808
875.751	21663
875.88	21770
876.008	21884
876.136	21884
876.265	22143
876.393	22261
876.521	22177
876.65	22207
876.778	22219
876.906	22188
877.034	22116
877.162	22200
877.29	22139
877.418	22284
877.546	22386
877.674	22447
877.802	22402
877.93	22462
878.058	22402
878.185	22424
878.313	22744
878.441	22729
878.568	22915
878.696	23022
878.824	23330
878.951	23836
879.079	24270
879.206	25031
879.333	25693
879.461	26191
879.588	26746
879.715	26609
879.842	26427
879.97	25734
880.097	24745
880.224	24133
880.351	23775
880.478	23531
880.605	23455
880.732	23193
880.859	23410
880.986	23170
881.112	23109
881.239	22790
881.366	22755
881.493	22683
881.619	22691
881.746	22637
881.872	22698
881.999	22603
882.125	22649
882.252	22656
882.378	22744
882.505	22733
882.631	22763
882.757	22440
882.883	22516
883.01	22443
883.136	22455
883.262	22268
883.388	22242
883.514	22493
883.64	22531
883.766	22375
883.892	22207
884.018	22257
884.143	22356
884.269	22565
884.395	22219
884.52	22131
884.646	22032
884.772	21968
884.897	21941
885.023	22188
885.148	22253
885.274	22204
885.399	21987
885.524	22078
885.65	22097
885.775	21907
885.9	21785
886.025	22025
886.15	21876
886.275	21660
886.4	21625
886.525	21660
886.65	21492
886.775	21485
886.9	21587
887.025	21755
887.149	21450
887.274	21336
887.399	21169
887.523	21112
887.648	21138
887.773	21058
887.897	21127
888.021	21161
888.146	21024
888.27	21127
888.395	21161
888.519	21066
888.643	20994
888.767	20998
888.891	20929
889.015	20705
889.139	20815
889.263	20655
889.387	20720
889.511	20834
889.635	20853
889.759	20594
889.883	20590
890.006	20632
890.13	20762
890.254	20579
890.377	20594
890.501	20438
890.624	20358
890.748	20396
890.871	20324
890.995	20111
891.118	20122
891.241	20172
891.364	20069
891.488	20202
891.611	20065
891.734	20115
891.857	20183
891.98	19974
892.103	20107
892.226	20005
892.349	20020
892.471	19742
892.594	19875
892.717	19890
892.839	19883
892.962	19944
893.085	20020
893.207	19856
893.33	19765
893.452	19753
893.575	19928
893.697	19807
893.819	20092
893.941	19967
894.064	19902
894.186	19734
894.308	19723
894.43	19818
894.552	19982
894.674	19803
894.796	19670
894.918	19715
895.04	19723
895.161	19868
895.283	19814
895.405	19719
895.526	19685
895.648	19727
895.769	19833
895.891	19860
896.012	19898
896.134	19780
896.255	19784
896.376	19613
896.498	19757
896.619	19769
896.74	19868
896.861	19917
896.982	20077
897.103	20290
897.224	19936
897.345	19982
897.466	19921
897.587	19951
897.708	20024
897.828	19898
897.949	19936
898.07	19799
898.19	19807
898.311	19986
898.431	19875
898.552	19750
898.672	19826
898.792	19978
898.913	19925
899.033	19875
899.153	19639
899.273	19594
899.393	19578
899.513	19544
899.633	19685
899.753	19620
899.873	19476
899.993	19609
900.113	19487
900.232	19575
900.352	19548
900.472	19419
900.591	19381
900.711	19400
900.83	19358
900.95	19419
901.069	19643
901.189	19297
901.308	19103
901.427	19004
901.546	18977
901.665	19012
901.784	18977
901.904	18821
902.023	18734
902.141	18604
902.26	18433
902.379	18604
902.498	18437
902.617	18342
902.735	18540
902.854	18391
902.973	18357
903.091	18076
903.21	18159
903.328	18133
903.446	18079
903.565	17973
903.683	17961
903.801	17813
903.919	17893
904.038	17912
904.156	17619
904.274	17863
904.392	17703
904.51	17726
904.627	17630
904.745	17729
904.863	17741
904.981	17501
905.098	17391
905.216	17341
905.334	17330
905.451	17311
905.569	17284
905.686	17372
905.803	17395
905.921	17223
906.038	17178
906.155	17010
906.272	16953
906.389	17094
906.506	16835
906.623	16965
906.74	16908
906.857	16744
906.974	16835
907.091	16953
907.208	16889
907.324	16877
907.441	16702
907.557	16675
907.674	16660
907.79	16478
907.907	16481
908.023	16569
908.139	16542
908.256	16527
908.372	16508
908.488	16504
908.604	16402
908.72	16242
908.836	16219
908.952	16215
909.068	16238
909.184	16284
909.3	16238
909.415	16268
909.531	16158
909.647	16036
909.762	15819
909.878	15953
909.993	15964
910.108	15915
910.224	15831
910.339	15865
910.454	15724
910.57	15854
910.685	15694
910.8	15907
910.915	15865
911.03	15759
911.145	15519
911.259	15591
911.374	15458
911.489	15431
911.604	15416
911.718	15340
911.833	15287
911.947	15157
912.062	15055
912.176	15256
912.291	15329
912.405	15207
912.519	15408
912.633	15481
912.748	15268
912.862	15188
912.976	15074
913.09	14944
913.204	15047
913.318	15081
913.431	15146
913.545	15043
913.659	15180
913.772	14967
913.886	14944
914	14891
914.113	15028
914.226	15112
914.34	14979
914.453	14746
914.566	14979
914.68	14823
914.793	14754
914.906	14613
915.019	14636
915.132	14438
915.245	14533
915.358	14606
915.47	14533
915.583	14541
915.696	14560
915.809	14594
915.921	14667
916.034	14457
916.146	14434
916.259	14412
916.371	14461
916.483	14415
916.595	14419
916.708	14408
916.82	14396
916.932	14355
917.044	14328
917.156	14358
917.268	14377
917.38	14259
917.491	14248
917.603	14221
917.715	14221
917.826	14286
917.938	14123
918.049	14012
918.161	14149
918.272	14248
918.384	14225
918.495	14210
918.606	13997
918.717	13967
918.828	14039
918.939	13917
919.05	13917
919.161	13925
919.272	13712
919.383	13807
919.494	13841
919.604	14107
919.715	13947
919.826	13833
919.936	13902
920.047	13928
920.157	13860
920.267	14145
920.378	13860
920.488	13780
920.598	13997
920.708	14157
920.818	13997
920.928	13959
921.038	14221
921.148	14123
921.258	13894
921.368	13723
921.477	13655
921.587	13655
921.697	13460
921.806	13651
921.916	13388
922.025	13316
922.134	13316
922.244	13175
922.353	13278
922.462	13129
922.571	13129
922.68	13000
922.789	12882
922.898	12928
923.007	12871
923.116	12844
923.224	12871
923.333	12894
923.442	12726
923.55	12684
923.659	12848
923.767	12791
923.876	12642
923.984	12738
924.092	12578
924.201	12662
924.309	12635
924.417	12650
924.525	12551
924.633	12635
924.741	13548
924.849	12399
924.956	12517
925.064	12467
925.172	12311
925.279	12342
925.387	12407
925.494	12292
925.602	12445
925.709	12441
925.816	12292
925.924	12311
926.031	12334
926.138	12300
926.245	12319
926.352	12152
926.459	12357
926.566	12372
926.673	12247
926.779	12163
926.886	12110
926.993	11920
927.099	11893
927.206	11912
927.312	11942
927.419	12034
927.525	11916
927.631	11840
927.737	11767
927.843	11748
927.95	11722
928.056	11828
928.162	11775
928.267	11832
928.373	12391
928.479	11832
928.585	11634
928.69	11783
928.796	11771
928.901	11657
929.007	11452
929.112	11630
929.218	11535
929.323	11452
929.428	11467
929.533	11653
929.638	11448
929.743	11414
929.848	11501
929.953	11391
930.058	11368
930.163	11098
930.267	11292
930.372	11318
930.477	11151
930.581	11383
930.685	11170
930.79	11102
930.894	11132
930.998	11029
931.103	11181
931.207	10809
931.311	10744
931.415	10626
931.519	10447
931.623	10478
