Data from test_V78500241_724.txt Node
Date: Fri Mar 25 14:38:45 CST 2022
User: usil
Spectrometer: V785-0024
Trigger mode: 0
Integration Time (sec): 4.000000E-1
Scans to average: 1
Nonlinearity correction enabled: false
Boxcar width: 0
Storing dark spectrum: false
XAxis mode: Wavelengths
Number of Pixels in Spectrum: 1024
>>>>>Begin Spectral Data<<<<<
801.071	27526
801.214	27279
801.356	27245
801.499	27207
801.641	27024
801.783	26876
801.926	26845
802.068	26724
802.211	26674
802.353	26674
802.496	26495
802.638	26412
802.78	26434
802.923	26301
803.065	26404
803.208	26438
803.35	26488
803.492	26415
803.635	26590
803.777	26571
803.919	26537
804.061	26731
804.204	26590
804.346	26648
804.488	26670
804.63	26754
804.773	26609
804.915	26853
805.057	26834
805.199	26777
805.341	27062
805.483	27116
805.626	27062
805.768	27116
805.91	27317
806.052	27416
806.194	27408
806.336	28032
806.478	27819
806.62	28158
806.762	28390
806.904	28805
807.046	29322
807.188	29577
807.33	30095
807.472	30597
807.614	31282
807.756	32244
807.898	33416
808.04	35064
808.182	37198
808.324	39743
808.465	42932
808.607	46120
808.749	49183
808.891	51119
809.033	51302
809.174	49681
809.316	46588
809.458	43095
809.6	39443
809.741	36525
809.883	34329
810.025	32864
810.166	31810
810.308	30886
810.45	30365
810.591	29672
810.733	29216
810.875	28641
811.016	28440
811.158	28261
811.299	28268
811.441	27972
811.582	27869
811.724	27698
811.865	27481
812.007	27443
812.148	27317
812.29	27294
812.431	27325
812.573	27427
812.714	27374
812.855	27466
812.997	27519
813.138	27660
813.279	27561
813.421	27378
813.562	27382
813.703	27066
813.845	26861
813.986	26571
814.127	26339
814.268	26244
814.41	26214
814.551	26145
814.692	26168
814.833	25997
814.974	25917
815.115	25917
815.256	25803
815.397	25864
815.539	25830
815.68	25693
815.821	25495
815.962	25666
816.103	25674
816.244	25464
816.385	25381
816.526	25198
816.666	25152
816.807	24897
816.948	25168
817.089	25012
817.23	25069
817.371	24913
817.512	24825
817.653	24867
817.793	24837
817.934	24882
818.075	24882
818.216	24859
818.356	24722
818.497	24669
818.638	24528
818.778	24513
818.919	24528
819.06	24669
819.2	24635
819.341	24722
819.481	24776
819.622	24901
819.762	24992
819.903	24920
820.043	24875
820.184	24798
820.324	24768
820.465	24749
820.605	24749
820.746	24608
820.886	24574
821.026	24745
821.167	24620
821.307	24700
821.447	24528
821.588	24426
821.728	24365
821.868	24083
822.008	23866
822.149	23977
822.289	23843
822.429	23684
822.569	23539
822.709	23558
822.849	23269
822.99	23296
823.13	23353
823.27	23395
823.41	23140
823.55	23075
823.69	23223
823.83	23006
823.97	23022
824.11	22889
824.25	22869
824.389	22896
824.529	23044
824.669	22873
824.809	23102
824.949	22908
825.089	22946
825.228	22881
825.368	22634
825.508	22736
825.648	22729
825.787	22702
825.927	22790
826.067	22675
826.206	22679
826.346	22736
826.485	22717
826.625	22645
826.765	22725
826.904	22767
827.044	22447
827.183	22478
827.323	22398
827.462	22276
827.601	22375
827.741	22356
827.88	22398
828.02	22272
828.159	22363
828.298	22386
828.437	22428
828.577	22226
828.716	22348
828.855	22200
828.994	22097
829.134	22169
829.273	22128
829.412	22059
829.551	21968
829.69	22051
829.829	22063
829.968	22120
830.107	21987
830.246	21964
830.385	21880
830.524	22013
830.663	21804
830.802	21747
830.941	21606
831.08	21713
831.219	21667
831.357	21724
831.496	21804
831.635	21720
831.774	21496
831.913	21583
832.051	21496
832.19	21397
832.329	21595
832.467	21515
832.606	21424
832.744	21466
832.883	21519
833.022	21652
833.16	21755
833.299	21861
833.437	21907
833.576	22093
833.714	22185
833.852	22440
833.991	22603
834.129	22565
834.267	22683
834.406	22618
834.544	22500
834.682	22341
834.821	22173
834.959	22303
835.097	21918
835.235	21960
835.373	21831
835.511	21663
835.65	21477
835.788	21519
835.926	21169
836.064	21123
836.202	21043
836.34	21195
836.478	21363
836.615	21207
836.753	21192
836.891	21135
837.029	21169
837.167	21074
837.305	21017
837.443	21039
837.58	20933
837.718	20967
837.856	20979
837.993	20944
838.131	20933
838.269	20838
838.406	20788
838.544	20796
838.681	20640
838.819	20571
838.956	20358
839.094	20492
839.231	20545
839.369	20636
839.506	20750
839.643	20533
839.781	20476
839.918	20305
840.055	20347
840.193	20324
840.33	20434
840.467	20294
840.604	20355
840.742	20609
840.879	20214
841.016	20267
841.153	20332
841.29	20366
841.427	20256
841.564	20339
841.701	20339
841.838	20305
841.975	20282
842.112	20221
842.249	20122
842.385	20092
842.522	20313
842.659	20115
842.796	20301
842.933	20237
843.069	20229
843.206	20229
843.343	20290
843.479	20347
843.616	20385
843.752	20145
843.889	20237
844.025	20332
844.162	20278
844.298	20492
844.435	20613
844.571	20644
844.708	21062
844.844	21511
844.98	21956
845.117	22675
845.253	23684
845.389	25575
845.525	29337
845.661	35531
845.798	42540
845.934	47855
846.07	49734
846.206	48232
846.342	43285
846.478	36102
846.614	30030
846.75	26168
846.886	23817
847.022	22519
847.158	21488
847.294	20952
847.429	20621
847.565	20343
847.701	20244
847.837	19856
847.972	19681
848.108	19666
848.244	19567
848.379	19441
848.515	19221
848.65	19168
848.786	19190
848.921	19042
849.057	19266
849.192	19247
849.328	19168
849.463	19217
849.598	19076
849.734	18939
849.869	18856
850.004	18749
850.14	18924
850.275	18779
850.41	18703
850.545	18673
850.68	18730
850.815	18779
850.95	18673
851.085	19012
851.22	18905
851.355	18734
851.49	18753
851.625	18730
851.76	18802
851.895	18692
852.03	18658
852.165	18867
852.299	18901
852.434	18890
852.569	18821
852.703	18837
852.838	18829
852.973	18981
853.107	19065
853.242	18954
853.376	18810
853.511	18719
853.645	18779
853.78	19027
853.914	19034
854.048	18943
854.183	18859
854.317	19012
854.451	19076
854.585	18985
854.72	18996
854.854	19137
854.988	18909
855.122	18928
855.256	18791
855.39	18844
855.524	18863
855.658	18749
855.792	18741
855.926	18677
856.06	18817
856.194	18711
856.327	18681
856.461	18650
856.595	18642
856.729	18559
856.862	18779
856.996	18707
857.13	18654
857.263	18692
857.397	18654
857.53	18601
857.664	18570
857.797	18631
857.931	18669
858.064	18635
858.197	18589
858.331	18479
858.464	18407
858.597	18445
858.731	18456
858.864	18456
858.997	18418
859.13	18528
859.263	18486
859.396	18597
859.529	18445
859.662	18369
859.795	18262
859.928	18536
860.061	18506
860.194	18585
860.327	18429
860.46	18369
860.592	18471
860.725	18506
860.858	18467
860.99	18376
861.123	18376
861.256	18361
861.388	18395
861.521	19084
861.653	18315
861.786	18258
861.918	18213
862.05	18388
862.183	18311
862.315	18235
862.447	18540
862.58	18232
862.712	18136
862.844	18022
862.976	18144
863.108	18079
863.24	18551
863.372	18034
863.504	18129
863.636	17961
863.768	18136
863.9	18034
864.032	17984
864.164	17996
864.296	18057
864.428	18068
864.559	18091
864.691	18159
864.823	18026
864.954	18201
865.086	18049
865.217	17939
865.349	17958
865.48	18125
865.612	17961
865.743	18083
865.875	17969
866.006	18041
866.137	18076
866.269	17999
866.4	17996
866.531	17958
866.662	17863
866.793	17904
866.924	17851
867.055	17923
867.186	18041
867.317	17969
867.448	17813
867.579	17969
867.71	17863
867.841	17764
867.972	18007
868.103	18011
868.233	17996
868.364	18011
868.495	18034
868.625	18186
868.756	18296
868.886	17984
869.017	18220
869.147	18292
869.278	18319
869.408	18338
869.539	18285
869.669	18365
869.799	18388
869.929	18403
870.06	18292
870.19	18585
870.32	18521
870.45	18578
870.58	18745
870.71	18806
870.84	18711
870.97	18684
871.1	18703
871.23	18894
871.36	18909
871.489	18779
871.619	18901
871.749	18886
871.879	19072
872.008	19057
872.138	18970
872.267	18958
872.397	18924
872.526	18810
872.656	18924
872.785	18875
872.915	19118
873.044	19148
873.173	19137
873.303	19228
873.432	19251
873.561	19217
873.69	19095
873.819	19179
873.948	19343
874.077	19297
874.206	19293
874.335	19206
874.464	19365
874.593	19616
874.722	19556
874.851	19753
874.979	19704
875.108	19974
875.237	19738
875.365	19746
875.494	19887
875.623	19993
875.751	19967
875.88	20069
876.008	20199
876.136	20290
876.265	20598
876.393	20583
876.521	20689
876.65	20750
876.778	20868
876.906	20845
877.034	20777
877.162	20952
877.29	20948
877.418	21173
877.546	21252
877.674	21348
877.802	21447
877.93	21534
878.058	21679
878.185	21804
878.313	22226
878.441	22527
878.568	22911
878.696	23478
878.824	24369
878.951	25586
879.079	27192
879.206	29132
879.333	31388
879.461	33313
879.588	34265
879.715	34303
879.842	33344
879.97	31434
880.097	29136
880.224	27603
880.351	26427
880.478	25415
880.605	24806
880.732	24399
880.859	24452
880.986	23988
881.112	23882
881.239	23577
881.366	23474
881.493	23368
881.619	23440
881.746	23509
881.872	23440
881.999	23562
882.125	23318
882.252	23684
882.378	23668
882.505	23798
882.631	23665
882.757	23433
882.883	23562
883.01	23463
883.136	23478
883.262	23315
883.388	23349
883.514	23391
883.64	23406
883.766	23360
883.892	23277
884.018	23318
884.143	23387
884.269	23398
884.395	23284
884.52	23261
884.646	23250
884.772	23136
884.897	23048
885.023	23246
885.148	23254
885.274	23162
885.399	23117
885.524	23105
885.65	22930
885.775	22687
885.9	22565
886.025	22557
886.15	22379
886.275	22059
886.4	21975
886.525	21857
886.65	21603
886.775	21523
886.9	21447
887.025	21511
887.149	21233
887.274	20990
887.399	20823
887.523	20853
887.648	20659
887.773	20590
887.897	20678
888.021	20564
888.146	20450
888.27	20465
888.395	20438
888.519	20298
888.643	20214
888.767	20206
888.891	20050
889.015	19932
889.139	19894
889.263	19860
889.387	19898
889.511	19871
889.635	19784
889.759	19700
889.883	19635
890.006	19677
890.13	19575
890.254	19594
890.377	19373
890.501	19312
890.624	19171
890.748	19259
890.871	19103
890.995	18928
891.118	18897
891.241	18829
891.364	18954
891.488	18962
891.611	18825
891.734	18795
891.857	18783
891.98	18798
892.103	18711
892.226	18707
892.349	18677
892.471	18547
892.594	18536
892.717	18570
892.839	18536
892.962	18467
893.085	18433
893.207	18547
893.33	18201
893.452	18391
893.575	18418
893.697	18285
893.819	18494
893.941	18479
894.064	18357
894.186	18182
894.308	18209
894.43	18258
894.552	18311
894.674	18220
894.796	18045
894.918	17935
895.04	17996
895.161	18182
895.283	18194
895.405	18068
895.526	17984
895.648	18072
895.769	18011
895.891	18003
896.012	18015
896.134	18064
896.255	18041
896.376	17927
896.498	18022
896.619	18041
896.74	17855
896.861	17984
896.982	18205
897.103	18365
897.224	18178
897.345	18133
897.466	18087
897.587	18091
897.708	18285
897.828	18174
897.949	18049
898.07	17874
898.19	17984
898.311	18270
898.431	17980
898.552	18110
898.672	18254
898.792	18239
898.913	18076
899.033	18007
899.153	17935
899.273	17828
899.393	17866
899.513	17904
899.633	17893
899.753	17889
899.873	17885
899.993	17920
900.113	17927
900.232	17935
900.352	17847
900.472	17855
900.591	17687
900.711	17714
900.83	17566
900.95	17745
901.069	17874
901.189	17539
901.308	17402
901.427	17318
901.546	17341
901.665	17296
901.784	17318
901.904	17174
902.023	17090
902.141	16824
902.26	16820
902.379	16847
902.498	16729
902.617	16542
902.735	16748
902.854	16653
902.973	16603
903.091	16367
903.21	16379
903.328	16284
903.446	16310
903.565	16135
903.683	16116
903.801	16025
903.919	16120
904.038	16124
904.156	16059
904.274	15960
904.392	15926
904.51	15979
904.627	15831
904.745	15861
904.863	15876
904.981	15656
905.098	15564
905.216	15511
905.334	15542
905.451	15610
905.569	15466
905.686	15618
905.803	15458
905.921	15340
906.038	15397
906.155	15348
906.272	15100
906.389	15268
906.506	15135
906.623	15169
906.74	15097
906.857	14941
906.974	14868
907.091	15097
907.208	15207
907.324	15089
907.441	14971
907.557	14762
907.674	14800
907.79	14743
907.907	14682
908.023	14773
908.139	14758
908.256	14762
908.372	14769
908.488	14587
908.604	14488
908.72	14339
908.836	14583
908.952	14431
909.068	14549
909.184	14514
909.3	14484
909.415	14492
909.531	14507
909.647	14218
909.762	14218
909.878	14172
909.993	14225
910.108	14210
910.224	14149
910.339	14244
910.454	14046
910.57	14081
910.685	14050
910.8	14313
910.915	14168
911.03	13974
911.145	13928
911.259	13814
911.374	13864
911.489	13833
911.604	13799
911.718	13632
911.833	13597
911.947	13544
912.062	13506
912.176	13575
912.291	13559
912.405	13590
912.519	13803
912.633	13833
912.748	13620
912.862	13544
912.976	13460
913.09	13388
913.204	13354
913.318	13400
913.431	13571
913.545	13525
913.659	13609
913.772	13518
913.886	13293
914	13346
914.113	13407
914.226	13384
914.34	13411
914.453	13244
914.566	13331
914.68	13244
914.793	13149
914.906	13099
915.019	12993
915.132	12890
915.245	12947
915.358	13046
915.47	13004
915.583	12954
915.696	13103
915.809	13122
915.921	13152
916.034	12958
916.146	12916
916.259	12935
916.371	13046
916.483	12989
916.595	12958
916.708	12844
916.82	13000
916.932	12935
917.044	12852
917.156	12852
917.268	12772
917.38	12806
917.491	12814
917.603	12768
917.715	12863
917.826	12829
917.938	12700
918.049	12566
918.161	12749
918.272	12745
918.384	12840
918.495	12681
918.606	12498
918.717	12494
918.828	12521
918.939	12642
919.05	12422
919.161	12559
919.272	12304
919.383	12338
919.494	12566
919.604	12703
919.715	12517
919.826	12422
919.936	12441
920.047	12544
920.157	12452
920.267	12597
920.378	12521
920.488	12429
920.598	12642
920.708	12715
920.818	12574
920.928	12665
921.038	12684
921.148	12646
921.258	12551
921.368	12342
921.477	12270
921.587	12277
921.697	12136
921.806	12175
921.916	12079
922.025	11984
922.134	11897
922.244	11805
922.353	11988
922.462	11870
922.571	11714
922.68	11554
922.789	11486
922.898	11516
923.007	11471
923.116	11680
923.224	11539
923.333	11482
923.442	11474
923.55	11391
923.659	11433
923.767	11528
923.876	11273
923.984	11482
924.092	11353
924.201	11322
924.309	11429
924.417	11326
924.525	11273
924.633	11296
924.741	12163
924.849	11105
924.956	11288
925.064	11155
925.172	11056
925.279	11094
925.387	11109
925.494	11132
925.602	11269
925.709	11079
925.816	10987
925.924	11060
926.031	11174
926.138	11006
926.245	11124
926.352	10930
926.459	11147
926.566	11067
926.673	10984
926.779	10949
926.886	10866
926.993	10748
927.099	10736
927.206	10664
927.312	10622
927.419	10767
927.525	10725
927.631	10812
927.737	10618
927.843	10569
927.95	10428
928.056	10558
928.162	10550
928.267	10626
928.373	11102
928.479	10656
928.585	10489
928.69	10592
928.796	10558
928.901	10440
929.007	10325
929.112	10497
929.218	10470
929.323	10474
929.428	10295
929.533	10573
929.638	10318
929.743	10329
929.848	10333
929.953	10337
930.058	10181
930.163	10048
930.267	10143
930.372	10207
930.477	10029
930.581	10287
930.685	10158
930.79	9983
930.894	10006
930.998	9964
931.103	10097
931.207	9762
931.311	9717
931.415	9644
931.519	9401
931.623	9348
