Data from test_V78500241_2655.txt Node
Date: Fri Mar 25 14:52:12 CST 2022
User: usil
Spectrometer: V785-0024
Trigger mode: 0
Integration Time (sec): 4.000000E-1
Scans to average: 1
Nonlinearity correction enabled: false
Boxcar width: 0
Storing dark spectrum: false
XAxis mode: Wavelengths
Number of Pixels in Spectrum: 1024
>>>>>Begin Spectral Data<<<<<
801.071	22090
801.214	21941
801.356	21766
801.499	21466
801.641	21374
801.783	21420
801.926	21287
802.068	21370
802.211	21211
802.353	21173
802.496	20933
802.638	20823
802.78	20891
802.923	20792
803.065	20785
803.208	20560
803.35	20701
803.492	20807
803.635	20845
803.777	20526
803.919	20765
804.061	20971
804.204	20674
804.346	20743
804.488	20659
804.63	20670
804.773	20530
804.915	20594
805.057	20739
805.199	20533
805.341	20773
805.483	20697
805.626	20625
805.768	20545
805.91	20556
806.052	20629
806.194	20461
806.336	20838
806.478	20617
806.62	20609
806.762	20613
806.904	20804
807.046	21024
807.188	20826
807.33	20902
807.472	20933
807.614	20944
807.756	20925
807.898	20743
808.04	20617
808.182	20724
808.324	20621
808.465	20739
808.607	20792
808.749	21039
808.891	20986
809.033	21036
809.174	20994
809.316	20823
809.458	21013
809.6	20952
809.741	21039
809.883	20963
810.025	21119
810.166	21256
810.308	21013
810.45	21028
810.591	20956
810.733	20823
810.875	20701
811.016	20446
811.158	20686
811.299	20739
811.441	20880
811.582	20891
811.724	20678
811.865	20720
812.007	20720
812.148	20686
812.29	20921
812.431	20883
812.573	21017
812.714	21062
812.855	21249
812.997	21272
813.138	21435
813.279	21283
813.421	21199
813.562	21108
813.703	21024
813.845	20880
813.986	20609
814.127	20431
814.268	20415
814.41	20370
814.551	20301
814.692	20396
814.833	20157
814.974	20218
815.115	20256
815.256	20062
815.397	20145
815.539	20138
815.68	19887
815.821	19986
815.962	19955
816.103	20054
816.244	19753
816.385	19708
816.526	19799
816.666	19594
816.807	19358
816.948	19495
817.089	19594
817.23	19411
817.371	19308
817.512	19384
817.653	19476
817.793	19358
817.934	19441
818.075	19392
818.216	19381
818.356	19377
818.497	19221
818.638	19103
818.778	19088
818.919	19099
819.06	19084
819.2	19206
819.341	19339
819.481	19384
819.622	19358
819.762	19578
819.903	19449
820.043	19434
820.184	19419
820.324	19422
820.465	19438
820.605	19400
820.746	19396
820.886	19278
821.026	19327
821.167	19343
821.307	19327
821.447	19301
821.588	19247
821.728	19099
821.868	18966
822.008	18749
822.149	18741
822.289	18848
822.429	18494
822.569	18376
822.709	18498
822.849	18380
822.99	18243
823.13	18190
823.27	18216
823.41	18194
823.55	18053
823.69	18076
823.83	18121
823.97	18072
824.11	17805
824.25	17756
824.389	17726
824.529	18019
824.669	17824
824.809	18098
824.949	18045
825.089	17992
825.228	17885
825.368	17589
825.508	17695
825.648	17703
825.787	17707
825.927	17684
826.067	17474
826.206	17619
826.346	17707
826.485	17657
826.625	17608
826.765	17691
826.904	17600
827.044	17402
827.183	17303
827.323	17311
827.462	17414
827.601	17337
827.741	17353
827.88	17387
828.02	17288
828.159	17349
828.298	17398
828.437	17395
828.577	17376
828.716	17493
828.855	17261
828.994	17071
829.134	17098
829.273	17208
829.412	17113
829.551	17105
829.69	16957
829.829	17170
829.968	17216
830.107	17220
830.246	17181
830.385	17128
830.524	16965
830.663	16923
830.802	16915
830.941	16740
831.08	16736
831.219	16755
831.357	16809
831.496	16953
831.635	16721
831.774	16710
831.913	16653
832.051	16542
832.19	16516
832.329	16649
832.467	16432
832.606	16424
832.744	16455
832.883	16424
833.022	16508
833.16	16447
833.299	16432
833.437	16481
833.576	16538
833.714	16504
833.852	16550
833.991	16462
834.129	16504
834.267	16577
834.406	16394
834.544	16558
834.682	16432
834.821	16500
834.959	16653
835.097	16405
835.235	16675
835.373	16599
835.511	16504
835.65	16485
835.788	16432
835.926	16284
836.064	16291
836.202	16363
836.34	16382
836.478	16481
836.615	16402
836.753	16413
836.891	16466
837.029	16432
837.167	16360
837.305	16284
837.443	16310
837.58	16173
837.718	16421
837.856	16280
837.993	16181
838.131	16402
838.269	16261
838.406	16234
838.544	16166
838.681	16055
838.819	15956
838.956	15808
839.094	15899
839.231	15835
839.369	16010
839.506	16188
839.643	16143
839.781	15915
839.918	15888
840.055	15804
840.193	15880
840.33	15789
840.467	15888
840.604	15888
840.742	16013
840.879	15720
841.016	15724
841.153	15679
841.29	15884
841.427	15869
841.564	15880
841.701	15880
841.838	15709
841.975	15698
842.112	15854
842.249	15705
842.385	15572
842.522	15827
842.659	15622
842.796	15690
842.933	15614
843.069	15454
843.206	15660
843.343	15679
843.479	15568
843.616	15656
843.752	15450
843.889	15477
844.025	15618
844.162	15332
844.298	15530
844.435	15367
844.571	15462
844.708	15447
844.844	15542
844.98	15500
845.117	15564
845.253	15378
845.389	15302
845.525	15256
845.661	15272
845.798	15188
845.934	15306
846.07	15230
846.206	15233
846.342	15389
846.478	15241
846.614	15097
846.75	14933
846.886	14933
847.022	15074
847.158	14975
847.294	14948
847.429	15032
847.565	14975
847.701	15218
847.837	14773
847.972	14716
848.108	14750
848.244	14777
848.379	14651
848.515	14606
848.65	14587
848.786	14549
848.921	14590
849.057	14674
849.192	14667
849.328	14651
849.463	14575
849.598	14507
849.734	14469
849.869	14469
850.004	14278
850.14	14484
850.275	14366
850.41	14275
850.545	14309
850.68	14237
850.815	14248
850.95	14290
851.085	14518
851.22	14530
851.355	14370
851.49	14332
851.625	14278
851.76	14404
851.895	14290
852.03	14191
852.165	14187
852.299	14465
852.434	14419
852.569	14324
852.703	14362
852.838	14507
852.973	14434
853.107	14526
853.242	14313
853.376	14294
853.511	14077
853.645	14164
853.78	14294
853.914	14328
854.048	14153
854.183	14172
854.317	14210
854.451	14427
854.585	14229
854.72	14240
854.854	14347
854.988	14077
855.122	14149
855.256	14123
855.39	14229
855.524	14305
855.658	14263
855.792	14248
855.926	14065
856.06	14275
856.194	14393
856.327	14256
856.461	14172
856.595	14248
856.729	14275
856.862	14385
856.996	14278
857.13	14278
857.263	14294
857.397	14324
857.53	14309
857.664	14214
857.797	14324
857.931	14313
858.064	14259
858.197	14263
858.331	14157
858.464	14187
858.597	14138
858.731	14233
858.864	14168
858.997	14138
859.13	14271
859.263	14271
859.396	14267
859.529	14119
859.662	14088
859.795	14130
859.928	14229
860.061	14412
860.194	14412
860.327	14256
860.46	14263
860.592	14294
860.725	14328
860.858	14358
860.99	14172
861.123	14278
861.256	14088
861.388	14248
861.521	14838
861.653	14100
861.786	14035
861.918	14111
862.05	14107
862.183	14240
862.315	14210
862.447	14191
862.58	14164
862.712	14054
862.844	13955
862.976	14096
863.108	13986
863.24	14305
863.372	13868
863.504	14020
863.636	13830
863.768	13921
863.9	14119
864.032	13928
864.164	13970
864.296	14035
864.428	14005
864.559	14134
864.691	14012
864.823	14069
864.954	14073
865.086	14043
865.217	13947
865.349	13822
865.48	14043
865.612	14020
865.743	14054
865.875	14024
866.006	14039
866.137	13944
866.269	14058
866.4	13959
866.531	14024
866.662	13887
866.793	13928
866.924	13955
867.055	13963
867.186	13967
867.317	13974
867.448	13959
867.579	13982
867.71	13993
867.841	13936
867.972	14005
868.103	14050
868.233	13986
868.364	14001
868.495	14054
868.625	14145
868.756	14393
868.886	14123
869.017	14313
869.147	14377
869.278	14488
869.408	14263
869.539	14142
869.669	14336
869.799	14229
869.929	14328
870.06	14381
870.19	14640
870.32	14590
870.45	14488
870.58	14587
870.71	14678
870.84	14716
870.97	14613
871.1	14610
871.23	14883
871.36	14830
871.489	14758
871.619	14872
871.749	14800
871.879	14918
872.008	14918
872.138	14777
872.267	14773
872.397	14708
872.526	14682
872.656	14693
872.785	14754
872.915	14834
873.044	14963
873.173	14872
873.303	14971
873.432	14872
873.561	14986
873.69	14853
873.819	14804
873.948	15017
874.077	14891
874.206	14918
874.335	14963
874.464	15112
874.593	15176
874.722	15218
874.851	15241
874.979	15294
875.108	15279
875.237	15116
875.365	15100
875.494	15207
875.623	15268
875.751	15184
875.88	15195
876.008	15397
876.136	15454
876.265	15694
876.393	15724
876.521	15686
876.65	15778
876.778	15599
876.906	15633
877.034	15553
877.162	15641
877.29	15534
877.418	15641
877.546	15641
877.674	15648
877.802	15534
877.93	15656
878.058	15553
878.185	15530
878.313	15584
878.441	15557
878.568	15454
878.696	15599
878.824	15667
878.951	15648
879.079	15785
879.206	15934
879.333	15785
879.461	15739
879.588	15812
879.715	15846
879.842	15876
879.97	15679
880.097	15447
880.224	15428
880.351	15515
880.478	15519
880.605	15511
880.732	15492
880.859	15785
880.986	15534
881.112	15519
881.239	15325
881.366	15176
881.493	15184
881.619	15112
881.746	15123
881.872	15199
881.999	15161
882.125	15058
882.252	15169
882.378	15230
882.505	15188
882.631	15089
882.757	14998
882.883	15093
883.01	14929
883.136	14880
883.262	14773
883.388	14834
883.514	14982
883.64	14952
883.766	14910
883.892	14720
884.018	14765
884.143	14956
884.269	15005
884.395	14788
884.52	14610
884.646	14670
884.772	14552
884.897	14590
885.023	14625
885.148	14781
885.274	14811
885.399	14792
885.524	14697
885.65	14716
885.775	14689
885.9	14629
886.025	14712
886.15	14785
886.275	14552
886.4	14533
886.525	14674
886.65	14549
886.775	14648
886.9	14788
887.025	14785
887.149	14625
887.274	14518
887.399	14450
887.523	14499
887.648	14358
887.773	14415
887.897	14556
888.021	14533
888.146	14446
888.27	14511
888.395	14648
888.519	14514
888.643	14587
888.767	14579
888.891	14298
889.015	14343
889.139	14374
889.263	14275
889.387	14454
889.511	14594
889.635	14442
889.759	14301
889.883	14385
890.006	14313
890.13	14442
890.254	14317
890.377	14362
890.501	14210
890.624	14153
890.748	14161
890.871	14008
890.995	14126
891.118	14008
891.241	14081
891.364	14020
891.488	14164
891.611	14054
891.734	14100
891.857	14058
891.98	13997
892.103	14187
892.226	14050
892.349	13974
892.471	13883
892.594	14001
892.717	13986
892.839	14024
892.962	14054
893.085	14149
893.207	14103
893.33	13986
893.452	13997
893.575	14043
893.697	13951
893.819	14164
893.941	14244
894.064	14290
894.186	13955
894.308	14027
894.43	14180
894.552	14237
894.674	14142
894.796	14043
894.918	14069
895.04	14050
895.161	14233
895.283	14145
895.405	14084
895.526	14157
895.648	14100
895.769	14229
895.891	14278
896.012	14313
896.134	14191
896.255	14218
896.376	14164
896.498	14221
896.619	14206
896.74	14233
896.861	14351
896.982	14473
897.103	14758
897.224	14590
897.345	14454
897.466	14438
897.587	14415
897.708	14526
897.828	14499
897.949	14446
898.07	14347
898.19	14503
898.311	14674
898.431	14415
898.552	14594
898.672	14629
898.792	14617
898.913	14617
899.033	14461
899.153	14393
899.273	14366
899.393	14393
899.513	14423
899.633	14423
899.753	14514
899.873	14328
899.993	14480
900.113	14298
900.232	14457
900.352	14412
900.472	14328
900.591	14191
900.711	14267
900.83	14221
900.95	14427
901.069	14396
901.189	14252
901.308	14058
901.427	13894
901.546	13997
901.665	13982
901.784	13967
901.904	13856
902.023	13761
902.141	13620
902.26	13510
902.379	13540
902.498	13533
902.617	13544
902.735	13582
902.854	13571
902.973	13556
903.091	13274
903.21	13266
903.328	13236
903.446	13149
903.565	13129
903.683	13198
903.801	13004
903.919	13103
904.038	13133
904.156	12871
904.274	12897
904.392	12924
904.51	12958
904.627	12962
904.745	12996
904.863	13004
904.981	12707
905.098	12616
905.216	12662
905.334	12631
905.451	12700
905.569	12639
905.686	12703
905.803	12692
905.921	12437
906.038	12479
906.155	12433
906.272	12357
906.389	12323
906.506	12319
906.623	12254
906.74	12129
906.857	12136
906.974	12136
907.091	12350
907.208	12258
907.324	12243
907.441	12053
907.557	11999
907.674	11961
907.79	11882
907.907	11882
908.023	11920
908.139	11977
908.256	11870
908.372	11965
908.488	11901
908.604	11805
908.72	11634
908.836	11668
908.952	11771
909.068	11722
909.184	11866
909.3	11745
909.415	11775
909.531	11760
909.647	11528
909.762	11505
909.878	11486
909.993	11501
910.108	11528
910.224	11444
910.339	11474
910.454	11440
910.57	11398
910.685	11292
910.8	11604
910.915	11516
911.03	11322
911.145	11223
911.259	11254
911.374	11216
911.489	11083
911.604	11102
911.718	11029
911.833	10885
911.947	10820
912.062	10847
912.176	10987
912.291	10965
912.405	10946
912.519	11102
912.633	11178
912.748	11003
912.862	10965
912.976	10835
913.09	10702
913.204	10714
913.318	10752
913.431	10885
913.545	10968
913.659	10984
913.772	10847
913.886	10725
914	10679
914.113	10767
914.226	10889
914.34	10778
914.453	10592
914.566	10831
914.68	10626
914.793	10611
914.906	10478
915.019	10440
915.132	10280
915.245	10455
915.358	10466
915.47	10516
915.583	10466
915.696	10440
915.809	10615
915.921	10573
916.034	10447
916.146	10356
916.259	10394
916.371	10485
916.483	10424
916.595	10341
916.708	10402
916.82	10440
916.932	10382
917.044	10341
917.156	10272
917.268	10230
917.38	10341
917.491	10234
917.603	10341
917.715	10409
917.826	10352
917.938	10200
918.049	10143
918.161	10238
918.272	10485
918.384	10485
918.495	10249
918.606	10204
918.717	10093
918.828	10246
918.939	10166
919.05	10131
919.161	10109
919.272	9968
919.383	10090
919.494	10230
919.604	10451
919.715	10215
919.826	10067
919.936	10200
920.047	10303
920.157	10227
920.267	10405
920.378	10242
920.488	10257
920.598	10344
920.708	10535
920.818	10356
920.928	10421
921.038	10538
921.148	10455
921.258	10249
921.368	10200
921.477	10078
921.587	10036
921.697	9926
921.806	10078
921.916	9956
922.025	9793
922.134	9816
922.244	9728
922.353	9789
922.462	9641
922.571	9576
922.68	9416
922.789	9488
922.898	9374
923.007	9355
923.116	9500
923.224	9458
923.333	9405
923.442	9268
923.55	9332
923.659	9317
923.767	9408
923.876	9253
923.984	9363
924.092	9214
924.201	9332
924.309	9313
924.417	9302
924.525	9287
924.633	9298
924.741	10055
924.849	9127
924.956	9268
925.064	9058
925.172	9001
925.279	9051
925.387	9074
925.494	9100
925.602	9237
925.709	9146
925.816	9024
925.924	9058
926.031	9203
926.138	9150
926.245	9173
926.352	9047
926.459	9138
926.566	9199
926.673	9047
926.779	8910
926.886	8952
926.993	8800
927.099	8849
927.206	8667
927.312	8804
927.419	8857
927.525	8781
927.631	8845
927.737	8716
927.843	8708
927.95	8629
928.056	8670
928.162	8655
928.267	8766
928.373	9370
928.479	8804
928.585	8636
928.69	8674
928.796	8686
928.901	8602
929.007	8461
929.112	8682
929.218	8606
929.323	8621
929.428	8499
929.533	8617
929.638	8423
929.743	8533
929.848	8549
929.953	8571
930.058	8393
930.163	8298
930.267	8339
930.372	8476
930.477	8191
930.581	8415
930.685	8385
930.79	8240
930.894	8252
930.998	8221
931.103	8362
931.207	8001
931.311	7997
931.415	7970
931.519	7788
931.623	7719
