Data from test_V78500241_1760.txt Node
Date: Fri Mar 25 14:45:58 CST 2022
User: usil
Spectrometer: V785-0024
Trigger mode: 0
Integration Time (sec): 4.000000E-1
Scans to average: 1
Nonlinearity correction enabled: false
Boxcar width: 0
Storing dark spectrum: false
XAxis mode: Wavelengths
Number of Pixels in Spectrum: 1024
>>>>>Begin Spectral Data<<<<<
801.071	22284
801.214	22036
801.356	21827
801.499	21751
801.641	21625
801.783	21618
801.926	21568
802.068	21450
802.211	21454
802.353	21317
802.496	21123
802.638	21104
802.78	20952
802.923	21096
803.065	20937
803.208	20864
803.35	20849
803.492	21032
803.635	21013
803.777	20883
803.919	21020
804.061	21226
804.204	20975
804.346	20880
804.488	20705
804.63	20918
804.773	20754
804.915	20849
805.057	20963
805.199	20872
805.341	20914
805.483	20990
805.626	20883
805.768	20815
805.91	20811
806.052	20921
806.194	20845
806.336	20872
806.478	20811
806.62	20750
806.762	20921
806.904	20921
807.046	21214
807.188	21230
807.33	21123
807.472	21230
807.614	21070
807.756	21104
807.898	21036
808.04	20762
808.182	20819
808.324	20838
808.465	20906
808.607	21062
808.749	21161
808.891	21359
809.033	21389
809.174	21287
809.316	21325
809.458	21119
809.6	21184
809.741	21302
809.883	21268
810.025	21374
810.166	21207
810.308	21447
810.45	21218
810.591	21112
810.733	21116
810.875	20982
811.016	20883
811.158	20971
811.299	21028
811.441	21112
811.582	21013
811.724	20864
811.865	20868
812.007	20849
812.148	21077
812.29	20891
812.431	21268
812.573	21359
812.714	21378
812.855	21477
812.997	21583
813.138	21629
813.279	21572
813.421	21462
813.562	21447
813.703	21211
813.845	21085
813.986	20899
814.127	20617
814.268	20606
814.41	20590
814.551	20606
814.692	20556
814.833	20511
814.974	20541
815.115	20465
815.256	20286
815.397	20351
815.539	20366
815.68	20294
815.821	20130
815.962	20191
816.103	20161
816.244	20172
816.385	19913
816.526	19868
816.666	19826
816.807	19628
816.948	19822
817.089	19826
817.23	19647
817.371	19689
817.512	19723
817.653	19506
817.793	19639
817.934	19639
818.075	19662
818.216	19696
818.356	19662
818.497	19495
818.638	19285
818.778	19339
818.919	19377
819.06	19312
819.2	19457
819.341	19384
819.481	19628
819.622	19628
819.762	19883
819.903	19776
820.043	19647
820.184	19677
820.324	19666
820.465	19647
820.605	19704
820.746	19647
820.886	19510
821.026	19670
821.167	19624
821.307	19609
821.447	19624
821.588	19381
821.728	19373
821.868	19160
822.008	19088
822.149	19046
822.289	18996
822.429	18787
822.569	18787
822.709	18719
822.849	18521
822.99	18506
823.13	18456
823.27	18555
823.41	18266
823.55	18228
823.69	18361
823.83	18338
823.97	18243
824.11	18140
824.25	18064
824.389	18121
824.529	18224
824.669	18041
824.809	18251
824.949	18201
825.089	18121
825.228	18068
825.368	17969
825.508	17897
825.648	17813
825.787	17969
825.927	17897
826.067	17790
826.206	17885
826.346	17939
826.485	17916
826.625	17745
826.765	17988
826.904	17870
827.044	17672
827.183	17638
827.323	17570
827.462	17630
827.601	17562
827.741	17524
827.88	17577
828.02	17528
828.159	17573
828.298	17566
828.437	17615
828.577	17532
828.716	17691
828.855	17429
828.994	17337
829.134	17345
829.273	17326
829.412	17231
829.551	17254
829.69	17330
829.829	17421
829.968	17379
830.107	17334
830.246	17341
830.385	17315
830.524	17269
830.663	17231
830.802	17033
830.941	16949
831.08	16915
831.219	17029
831.357	17052
831.496	17170
831.635	16968
831.774	16995
831.913	16869
832.051	16694
832.19	16664
832.329	16835
832.467	16694
832.606	16611
832.744	16637
832.883	16588
833.022	16504
833.16	16615
833.299	16752
833.437	16615
833.576	16710
833.714	16717
833.852	16713
833.991	16717
834.129	16809
834.267	16793
834.406	16573
834.544	16736
834.682	16729
834.821	16812
834.959	16915
835.097	16596
835.235	16771
835.373	16698
835.511	16691
835.65	16500
835.788	16607
835.926	16443
836.064	16447
836.202	16504
836.34	16596
836.478	16580
836.615	16588
836.753	16672
836.891	16691
837.029	16558
837.167	16538
837.305	16405
837.443	16497
837.58	16394
837.718	16493
837.856	16493
837.993	16478
838.131	16436
838.269	16417
838.406	16436
838.544	16405
838.681	16173
838.819	16139
838.956	15926
839.094	16017
839.231	16135
839.369	16185
839.506	16405
839.643	16230
839.781	15953
839.918	15987
840.055	15994
840.193	15922
840.33	15838
840.467	15918
840.604	16010
840.742	16253
840.879	15930
841.016	15831
841.153	16017
841.29	16116
841.427	15964
841.564	16086
841.701	16017
841.838	16021
841.975	16032
842.112	16013
842.249	15876
842.385	15804
842.522	15964
842.659	15789
842.796	15850
842.933	15759
843.069	15766
843.206	15785
843.343	15808
843.479	15774
843.616	15812
843.752	15564
843.889	15576
844.025	15641
844.162	15511
844.298	15816
844.435	15553
844.571	15542
844.708	15629
844.844	15732
844.98	15656
845.117	15713
845.253	15557
845.389	15431
845.525	15473
845.661	15477
845.798	15325
845.934	15389
846.07	15370
846.206	15439
846.342	15511
846.478	15401
846.614	15260
846.75	15150
846.886	15097
847.022	15230
847.158	15131
847.294	15112
847.429	15260
847.565	15039
847.701	15367
847.837	14880
847.972	14826
848.108	14956
848.244	14914
848.379	14731
848.515	14746
848.65	14781
848.786	14769
848.921	14720
849.057	14823
849.192	14773
849.328	14765
849.463	14708
849.598	14682
849.734	14682
849.869	14632
850.004	14545
850.14	14549
850.275	14533
850.41	14442
850.545	14473
850.68	14473
850.815	14549
850.95	14499
851.085	14644
851.22	14648
851.355	14503
851.49	14518
851.625	14385
851.76	14442
851.895	14465
852.03	14480
852.165	14400
852.299	14537
852.434	14621
852.569	14587
852.703	14495
852.838	14514
852.973	14697
853.107	14625
853.242	14571
853.376	14408
853.511	14271
853.645	14320
853.78	14503
853.914	14438
854.048	14362
854.183	14355
854.317	14339
854.451	14564
854.585	14374
854.72	14347
854.854	14389
854.988	14305
855.122	14313
855.256	14294
855.39	14389
855.524	14571
855.658	14492
855.792	14355
855.926	14415
856.06	14518
856.194	14560
856.327	14438
856.461	14267
856.595	14305
856.729	14400
856.862	14438
856.996	14484
857.13	14396
857.263	14575
857.397	14492
857.53	14351
857.664	14450
857.797	14412
857.931	14545
858.064	14419
858.197	14499
858.331	14393
858.464	14454
858.597	14324
858.731	14362
858.864	14355
858.997	14358
859.13	14461
859.263	14396
859.396	14431
859.529	14434
859.662	14294
859.795	14294
859.928	14393
860.061	14465
860.194	14488
860.327	14446
860.46	14415
860.592	14454
860.725	14480
860.858	14549
860.99	14324
861.123	14286
861.256	14248
861.388	14389
861.521	15119
861.653	14221
861.786	14267
861.918	14103
862.05	14347
862.183	14339
862.315	14385
862.447	14484
862.58	14347
862.712	14149
862.844	14084
862.976	14206
863.108	14199
863.24	14552
863.372	13993
863.504	14100
863.636	14221
863.768	14210
863.9	14107
864.032	14096
864.164	14111
864.296	14187
864.428	14168
864.559	14256
864.691	14195
864.823	14202
864.954	14233
865.086	14259
865.217	14187
865.349	14134
865.48	14206
865.612	14145
865.743	14328
865.875	14248
866.006	14153
866.137	14149
866.269	14119
866.4	14054
866.531	14054
866.662	14107
866.793	14130
866.924	14100
867.055	14088
867.186	14214
867.317	14020
867.448	14138
867.579	14024
867.71	14126
867.841	14092
867.972	14218
868.103	14153
868.233	14084
868.364	14138
868.495	14187
868.625	14343
868.756	14526
868.886	14370
869.017	14385
869.147	14465
869.278	14556
869.408	14457
869.539	14328
869.669	14457
869.799	14415
869.929	14507
870.06	14644
870.19	14838
870.32	14621
870.45	14762
870.58	14796
870.71	14929
870.84	14861
870.97	14754
871.1	14769
871.23	14941
871.36	15047
871.489	14891
871.619	14864
871.749	14960
871.879	15123
872.008	15226
872.138	15104
872.267	14979
872.397	14781
872.526	14823
872.656	14689
872.785	14796
872.915	14990
873.044	14990
873.173	15180
873.303	15085
873.432	15119
873.561	15135
873.69	15127
873.819	15039
873.948	15184
874.077	15081
874.206	14944
874.335	15119
874.464	15252
874.593	15401
874.722	15302
874.851	15420
874.979	15340
875.108	15428
875.237	15359
875.365	15389
875.494	15268
875.623	15336
875.751	15386
875.88	15386
876.008	15545
876.136	15572
876.265	15770
876.393	15899
876.521	15857
876.65	15865
876.778	15911
876.906	15778
877.034	15751
877.162	15759
877.29	15644
877.418	15793
877.546	15759
877.674	15644
877.802	15766
877.93	15694
878.058	15686
878.185	15568
878.313	15705
878.441	15800
878.568	15641
878.696	15686
878.824	15857
878.951	15819
879.079	15975
879.206	16044
879.333	15808
879.461	15831
879.588	15846
879.715	15873
879.842	16120
879.97	15816
880.097	15667
880.224	15701
880.351	15675
880.478	15720
880.605	15473
880.732	15595
880.859	15831
880.986	15587
881.112	15701
881.239	15530
881.366	15329
881.493	15370
881.619	15321
881.746	15226
881.872	15241
881.999	15310
882.125	15306
882.252	15329
882.378	15310
882.505	15473
882.631	15302
882.757	15039
882.883	15127
883.01	15214
883.136	15077
883.262	14944
883.388	14868
883.514	15180
883.64	15100
883.766	15112
883.892	14967
884.018	15009
884.143	15169
884.269	15207
884.395	14876
884.52	14804
884.646	14845
884.772	14777
884.897	14610
885.023	14868
885.148	14887
885.274	14982
885.399	14937
885.524	14716
885.65	14773
885.775	14857
885.9	14674
886.025	14941
886.15	14864
886.275	14750
886.4	14746
886.525	14762
886.65	14720
886.775	14724
886.9	14956
887.025	14998
887.149	14796
887.274	14644
887.399	14629
887.523	14556
887.648	14454
887.773	14503
887.897	14750
888.021	14678
888.146	14575
888.27	14701
888.395	14868
888.519	14769
888.643	14727
888.767	14651
888.891	14579
889.015	14476
889.139	14484
889.263	14457
889.387	14667
889.511	14663
889.635	14568
889.759	14427
889.883	14442
890.006	14499
890.13	14503
890.254	14450
890.377	14480
890.501	14286
890.624	14275
890.748	14358
890.871	14229
890.995	14157
891.118	14123
891.241	14298
891.364	14248
891.488	14347
891.611	14199
891.734	14229
891.857	14256
891.98	14202
892.103	14286
892.226	14218
892.349	14134
892.471	14027
892.594	14286
892.717	14168
892.839	14183
892.962	14210
893.085	14237
893.207	14096
893.33	14069
893.452	14088
893.575	14187
893.697	14180
893.819	14240
893.941	14457
894.064	14301
894.186	14088
894.308	14100
894.43	14286
894.552	14415
894.674	14286
894.796	14172
894.918	14210
895.04	14210
895.161	14351
895.283	14290
895.405	14199
895.526	14202
895.648	14244
895.769	14332
895.891	14336
896.012	14408
896.134	14328
896.255	14259
896.376	14317
896.498	14271
896.619	14313
896.74	14317
896.861	14457
896.982	14610
897.103	14891
897.224	14659
897.345	14625
897.466	14499
897.587	14610
897.708	14701
897.828	14693
897.949	14602
898.07	14552
898.19	14598
898.311	14785
898.431	14636
898.552	14697
898.672	14792
898.792	14781
898.913	14842
899.033	14579
899.153	14571
899.273	14511
899.393	14492
899.513	14663
899.633	14545
899.753	14629
899.873	14511
899.993	14621
900.113	14503
900.232	14514
900.352	14495
900.472	14412
900.591	14313
900.711	14347
900.83	14396
900.95	14511
901.069	14492
901.189	14286
901.308	14195
901.427	14016
901.546	14096
901.665	14077
901.784	14164
901.904	13967
902.023	13917
902.141	13700
902.26	13727
902.379	13791
902.498	13674
902.617	13567
902.735	13643
902.854	13753
902.973	13575
903.091	13316
903.21	13422
903.328	13392
903.446	13320
903.565	13308
903.683	13285
903.801	13190
903.919	13232
904.038	13145
904.156	12932
904.274	13103
904.392	13057
904.51	12973
904.627	13012
904.745	13145
904.863	13099
904.981	12875
905.098	12802
905.216	12764
905.334	12730
905.451	12692
905.569	12669
905.686	12833
905.803	12722
905.921	12532
906.038	12700
906.155	12544
906.272	12479
906.389	12448
906.506	12372
906.623	12323
906.74	12350
906.857	12254
906.974	12285
907.091	12437
907.208	12498
907.324	12388
907.441	12209
907.557	12087
907.674	12072
907.79	12026
907.907	12041
908.023	12079
908.139	12083
908.256	12011
908.372	11999
908.488	11897
908.604	11809
908.72	11840
908.836	11847
908.952	11809
909.068	11760
909.184	11973
909.3	11824
909.415	11843
909.531	11836
909.647	11653
909.762	11516
909.878	11516
909.993	11653
910.108	11627
910.224	11547
910.339	11577
910.454	11573
910.57	11360
910.685	11387
910.8	11589
910.915	11611
911.03	11589
911.145	11433
911.259	11277
911.374	11273
911.489	11231
911.604	11174
911.718	11022
911.833	11045
911.947	10942
912.062	10877
912.176	11041
912.291	11033
912.405	11041
912.519	11284
912.633	11231
912.748	11155
912.862	10995
912.976	10866
913.09	10782
913.204	10923
913.318	10927
913.431	11067
913.545	11067
913.659	11048
913.772	10915
913.886	10710
914	10763
914.113	10923
914.226	10968
914.34	10820
914.453	10790
914.566	10809
914.68	10721
914.793	10816
914.906	10565
915.019	10542
915.132	10459
915.245	10584
915.358	10573
915.47	10626
915.583	10592
915.696	10577
915.809	10717
915.921	10653
916.034	10523
916.146	10519
916.259	10504
916.371	10599
916.483	10565
916.595	10440
916.708	10516
916.82	10497
916.932	10489
917.044	10481
917.156	10466
917.268	10375
917.38	10310
917.491	10360
917.603	10379
917.715	10424
917.826	10504
917.938	10402
918.049	10306
918.161	10382
918.272	10493
918.384	10493
918.495	10466
918.606	10268
918.717	10188
918.828	10223
918.939	10318
919.05	10158
919.161	10238
919.272	10105
919.383	10116
919.494	10314
919.604	10436
919.715	10276
919.826	10188
919.936	10185
920.047	10409
920.157	10291
920.267	10478
920.378	10318
920.488	10249
920.598	10489
920.708	10577
920.818	10413
920.928	10455
921.038	10622
921.148	10607
921.258	10344
921.368	10287
921.477	10093
921.587	10112
921.697	10063
921.806	10147
921.916	10063
922.025	9865
922.134	9873
922.244	9812
922.353	9888
922.462	9766
922.571	9667
922.68	9545
922.789	9416
922.898	9606
923.007	9473
923.116	9568
923.224	9485
923.333	9542
923.442	9443
923.55	9336
923.659	9348
923.767	9507
923.876	9397
923.984	9488
924.092	9405
924.201	9321
924.309	9469
924.417	9412
924.525	9393
924.633	9355
924.741	10303
924.849	9180
924.956	9382
925.064	9173
925.172	9081
925.279	9161
925.387	9176
925.494	9138
925.602	9310
925.709	9302
925.816	9108
925.924	9233
926.031	9218
926.138	9127
926.245	9283
926.352	9146
926.459	9233
926.566	9230
926.673	9100
926.779	9097
926.886	8990
926.993	8895
927.099	8933
927.206	8811
927.312	8811
927.419	8914
927.525	8929
927.631	8925
927.737	8857
927.843	8804
927.95	8678
928.056	8750
928.162	8800
928.267	8838
928.373	9431
928.479	8777
928.585	8583
928.69	8727
928.796	8891
928.901	8678
929.007	8552
929.112	8697
929.218	8667
929.323	8617
929.428	8587
929.533	8712
929.638	8556
929.743	8632
929.848	8625
929.953	8552
930.058	8545
930.163	8298
930.267	8351
930.372	8499
930.477	8290
930.581	8594
930.685	8400
930.79	8343
930.894	8336
930.998	8355
931.103	8434
931.207	8103
931.311	8092
931.415	7982
931.519	7814
931.623	7875
