Data from test_V78500241_2723.txt Node
Date: Fri Mar 25 14:52:40 CST 2022
User: usil
Spectrometer: V785-0024
Trigger mode: 0
Integration Time (sec): 4.000000E-1
Scans to average: 1
Nonlinearity correction enabled: false
Boxcar width: 0
Storing dark spectrum: false
XAxis mode: Wavelengths
Number of Pixels in Spectrum: 1024
>>>>>Begin Spectral Data<<<<<
801.071	22078
801.214	21983
801.356	21580
801.499	21648
801.641	21443
801.783	21389
801.926	21439
802.068	21302
802.211	21233
802.353	21195
802.496	20960
802.638	20845
802.78	20826
802.923	20716
803.065	20590
803.208	20716
803.35	20655
803.492	20849
803.635	20830
803.777	20720
803.919	20697
804.061	21013
804.204	20689
804.346	20663
804.488	20530
804.63	20644
804.773	20507
804.915	20613
805.057	20689
805.199	20560
805.341	20545
805.483	20807
805.626	20762
805.768	20556
805.91	20682
806.052	20609
806.194	20484
806.336	20727
806.478	20712
806.62	20514
806.762	20648
806.904	20853
807.046	21062
807.188	20986
807.33	21036
807.472	21051
807.614	20849
807.756	20864
807.898	20686
808.04	20663
808.182	20724
808.324	20659
808.465	20758
808.607	20914
808.749	20929
808.891	21161
809.033	21146
809.174	20925
809.316	20937
809.458	21009
809.6	20921
809.741	21047
809.883	20914
810.025	21188
810.166	21093
810.308	21074
810.45	21017
810.591	21005
810.733	20944
810.875	20769
811.016	20674
811.158	20712
811.299	20895
811.441	20762
811.582	20891
811.724	20640
811.865	20640
812.007	20716
812.148	20674
812.29	20678
812.431	20952
812.573	21066
812.714	21222
812.855	21332
812.997	21370
813.138	21462
813.279	21348
813.421	21180
813.562	21211
813.703	20960
813.845	20849
813.986	20625
814.127	20469
814.268	20404
814.41	20343
814.551	20301
814.692	20347
814.833	20164
814.974	20142
815.115	20343
815.256	20111
815.397	20248
815.539	20065
815.68	20012
815.821	20054
815.962	20001
816.103	19909
816.244	19959
816.385	19734
816.526	19788
816.666	19616
816.807	19460
816.948	19506
817.089	19552
817.23	19533
817.371	19373
817.512	19449
817.653	19472
817.793	19384
817.934	19544
818.075	19407
818.216	19464
818.356	19343
818.497	19183
818.638	19107
818.778	19015
818.919	19183
819.06	19103
819.2	19289
819.341	19266
819.481	19411
819.622	19559
819.762	19689
819.903	19597
820.043	19381
820.184	19453
820.324	19499
820.465	19430
820.605	19346
820.746	19403
820.886	19274
821.026	19350
821.167	19335
821.307	19373
821.447	19350
821.588	19183
821.728	19084
821.868	19042
822.008	18791
822.149	18863
822.289	18817
822.429	18532
822.569	18506
822.709	18509
822.849	18300
822.99	18292
823.13	18216
823.27	18152
823.41	18220
823.55	18114
823.69	18171
823.83	18148
823.97	18091
824.11	17878
824.25	17817
824.389	17821
824.529	17958
824.669	17889
824.809	17889
824.949	17927
825.089	17988
825.228	17828
825.368	17722
825.508	17646
825.648	17695
825.787	17737
825.927	17817
826.067	17680
826.206	17653
826.346	17695
826.485	17684
826.625	17619
826.765	17802
826.904	17615
827.044	17383
827.183	17425
827.323	17311
827.462	17406
827.601	17414
827.741	17326
827.88	17455
828.02	17223
828.159	17246
828.298	17444
828.437	17307
828.577	17368
828.716	17429
828.855	17349
828.994	17231
829.134	17132
829.273	17162
829.412	17018
829.551	17121
829.69	17060
829.829	17105
829.968	17193
830.107	17265
830.246	17098
830.385	17048
830.524	17109
830.663	16938
830.802	16790
830.941	16740
831.08	16706
831.219	16774
831.357	16767
831.496	16904
831.635	16713
831.774	16630
831.913	16637
832.051	16508
832.19	16588
832.329	16603
832.467	16421
832.606	16386
832.744	16478
832.883	16417
833.022	16474
833.16	16504
833.299	16485
833.437	16493
833.576	16481
833.714	16443
833.852	16493
833.991	16405
834.129	16550
834.267	16538
834.406	16550
834.544	16538
834.682	16577
834.821	16485
834.959	16721
835.097	16485
835.235	16489
835.373	16577
835.511	16417
835.65	16436
835.788	16413
835.926	16147
836.064	16169
836.202	16230
836.34	16318
836.478	16474
836.615	16348
836.753	16402
836.891	16538
837.029	16512
837.167	16310
837.305	16329
837.443	16295
837.58	16253
837.718	16253
837.856	16276
837.993	16097
838.131	16234
838.269	16276
838.406	16265
838.544	16192
838.681	16032
838.819	16040
838.956	15842
839.094	15869
839.231	16074
839.369	16017
839.506	16207
839.643	16059
839.781	15857
839.918	15774
840.055	15827
840.193	15838
840.33	15755
840.467	15892
840.604	15895
840.742	16078
840.879	15724
841.016	15770
841.153	15785
841.29	15953
841.427	15941
841.564	15865
841.701	15762
841.838	15823
841.975	15797
842.112	15698
842.249	15694
842.385	15595
842.522	15812
842.659	15599
842.796	15526
842.933	15614
843.069	15542
843.206	15530
843.343	15667
843.479	15618
843.616	15660
843.752	15408
843.889	15306
844.025	15473
844.162	15393
844.298	15397
844.435	15473
844.571	15420
844.708	15431
844.844	15504
844.98	15549
845.117	15454
845.253	15344
845.389	15264
845.525	15313
845.661	15245
845.798	15150
845.934	15184
846.07	15070
846.206	15222
846.342	15344
846.478	15241
846.614	15116
846.75	14861
846.886	14990
847.022	15100
847.158	15009
847.294	14895
847.429	14998
847.565	14880
847.701	15233
847.837	14663
847.972	14613
848.108	14743
848.244	14750
848.379	14655
848.515	14568
848.65	14583
848.786	14571
848.921	14560
849.057	14640
849.192	14701
849.328	14560
849.463	14644
849.598	14583
849.734	14431
849.869	14480
850.004	14313
850.14	14526
850.275	14286
850.41	14336
850.545	14355
850.68	14343
850.815	14332
850.95	14313
851.085	14552
851.22	14503
851.355	14332
851.49	14343
851.625	14244
851.76	14309
851.895	14301
852.03	14275
852.165	14351
852.299	14355
852.434	14484
852.569	14301
852.703	14431
852.838	14461
852.973	14404
853.107	14454
853.242	14343
853.376	14339
853.511	14100
853.645	14218
853.78	14286
853.914	14229
854.048	14210
854.183	14225
854.317	14195
854.451	14434
854.585	14282
854.72	14218
854.854	14286
854.988	14176
855.122	14233
855.256	14161
855.39	14187
855.524	14339
855.658	14336
855.792	14259
855.926	14259
856.06	14351
856.194	14240
856.327	14305
856.461	14149
856.595	14138
856.729	14244
856.862	14320
856.996	14267
857.13	14328
857.263	14366
857.397	14454
857.53	14256
857.664	14267
857.797	14267
857.931	14431
858.064	14362
858.197	14309
858.331	14324
858.464	14229
858.597	14149
858.731	14161
858.864	14210
858.997	14259
859.13	14301
859.263	14282
859.396	14412
859.529	14180
859.662	14168
859.795	14240
859.928	14237
860.061	14431
860.194	14427
860.327	14298
860.46	14298
860.592	14252
860.725	14419
860.858	14427
860.99	14271
861.123	14210
861.256	14206
861.388	14271
861.521	14788
861.653	14134
861.786	14031
861.918	14123
862.05	14092
862.183	14187
862.315	14229
862.447	14290
862.58	14157
862.712	14016
862.844	14020
862.976	14119
863.108	14100
863.24	14492
863.372	13951
863.504	13974
863.636	13921
863.768	14046
863.9	14092
864.032	13997
864.164	14046
864.296	14035
864.428	14077
864.559	14100
864.691	14046
864.823	14126
864.954	14050
865.086	14020
865.217	14024
865.349	13906
865.48	13986
865.612	14031
865.743	14084
865.875	14054
866.006	13959
866.137	14016
866.269	13982
866.4	14016
866.531	14024
866.662	13917
866.793	13925
866.924	13951
867.055	13993
867.186	13997
867.317	13978
867.448	13890
867.579	13997
867.71	13890
867.841	13974
867.972	14069
868.103	14012
868.233	13925
868.364	13982
868.495	14016
868.625	14214
868.756	14400
868.886	14176
869.017	14195
869.147	14355
869.278	14377
869.408	14298
869.539	14320
869.669	14339
869.799	14290
869.929	14309
870.06	14400
870.19	14545
870.32	14590
870.45	14568
870.58	14617
870.71	14773
870.84	14735
870.97	14716
871.1	14705
871.23	14842
871.36	14880
871.489	14701
871.619	14876
871.749	14880
871.879	14891
872.008	14994
872.138	14834
872.267	14746
872.397	14716
872.526	14667
872.656	14788
872.785	14621
872.915	14952
873.044	14982
873.173	14914
873.303	14960
873.432	14986
873.561	14967
873.69	14872
873.819	14872
873.948	15020
874.077	14921
874.206	14929
874.335	14918
874.464	15051
874.593	15207
874.722	15043
874.851	15310
874.979	15245
875.108	15245
875.237	15226
875.365	15142
875.494	15230
875.623	15275
875.751	15230
875.88	15230
876.008	15405
876.136	15545
876.265	15603
876.393	15736
876.521	15713
876.65	15637
876.778	15698
876.906	15629
877.034	15622
877.162	15625
877.29	15561
877.418	15622
877.546	15694
877.674	15511
877.802	15576
877.93	15591
878.058	15610
878.185	15507
878.313	15637
878.441	15603
878.568	15447
878.696	15553
878.824	15603
878.951	15709
879.079	15835
879.206	15854
879.333	15842
879.461	15663
879.588	15759
879.715	15876
879.842	15838
879.97	15701
880.097	15473
880.224	15424
880.351	15443
880.478	15492
880.605	15424
880.732	15431
880.859	15819
880.986	15511
881.112	15523
881.239	15450
881.366	15199
881.493	15199
881.619	15005
881.746	15097
881.872	15005
881.999	15112
882.125	15127
882.252	15241
882.378	15211
882.505	15287
882.631	14967
882.757	14971
882.883	14948
883.01	14956
883.136	14838
883.262	14842
883.388	14842
883.514	15028
883.64	15058
883.766	14918
883.892	14769
884.018	14800
884.143	14899
884.269	15100
884.395	14667
884.52	14659
884.646	14632
884.772	14530
884.897	14552
885.023	14682
885.148	14735
885.274	14800
885.399	14788
885.524	14651
885.65	14613
885.775	14678
885.9	14568
886.025	14708
886.15	14667
886.275	14598
886.4	14533
886.525	14651
886.65	14564
886.775	14640
886.9	14712
887.025	14872
887.149	14705
887.274	14579
887.399	14514
887.523	14549
887.648	14522
887.773	14328
887.897	14499
888.021	14530
888.146	14377
888.27	14522
888.395	14549
888.519	14556
888.643	14549
888.767	14587
888.891	14404
889.015	14389
889.139	14381
889.263	14351
889.387	14419
889.511	14446
889.635	14545
889.759	14339
889.883	14298
890.006	14294
890.13	14442
890.254	14237
890.377	14320
890.501	14225
890.624	14142
890.748	14202
890.871	14081
890.995	13997
891.118	13967
891.241	14100
891.364	14100
891.488	14202
891.611	13993
891.734	14069
891.857	14100
891.98	14111
892.103	14142
892.226	14027
892.349	13970
892.471	13788
892.594	13989
892.717	14092
892.839	14031
892.962	14020
893.085	14142
893.207	14081
893.33	13925
893.452	14081
893.575	14103
893.697	13993
893.819	14187
893.941	14248
894.064	14157
894.186	14088
894.308	14012
894.43	14183
894.552	14309
894.674	14134
894.796	14103
894.918	14168
895.04	14073
895.161	14168
895.283	14248
895.405	14069
895.526	14237
895.648	14100
895.769	14210
895.891	14157
896.012	14263
896.134	14282
896.255	14294
896.376	14088
896.498	14168
896.619	14221
896.74	14267
896.861	14237
896.982	14488
897.103	14686
897.224	14518
897.345	14473
897.466	14480
897.587	14484
897.708	14689
897.828	14507
897.949	14526
898.07	14362
898.19	14476
898.311	14556
898.431	14484
898.552	14564
898.672	14682
898.792	14720
898.913	14640
899.033	14522
899.153	14393
899.273	14282
899.393	14358
899.513	14450
899.633	14465
899.753	14469
899.873	14419
899.993	14442
900.113	14404
900.232	14473
900.352	14366
900.472	14332
900.591	14221
900.711	14339
900.83	14313
900.95	14412
901.069	14415
901.189	14134
901.308	13989
901.427	13944
901.546	13967
901.665	14119
901.784	14001
901.904	13868
902.023	13715
902.141	13590
902.26	13620
902.379	13651
902.498	13430
902.617	13548
902.735	13537
902.854	13540
902.973	13506
903.091	13324
903.21	13221
903.328	13278
903.446	13251
903.565	13206
903.683	13149
903.801	13015
903.919	13034
904.038	13038
904.156	12951
904.274	13061
904.392	13000
904.51	12909
904.627	12848
904.745	13015
904.863	12909
904.981	12760
905.098	12585
905.216	12623
905.334	12658
905.451	12642
905.569	12578
905.686	12700
905.803	12578
905.921	12566
906.038	12544
906.155	12490
906.272	12338
906.389	12289
906.506	12224
906.623	12232
906.74	12277
906.857	12076
906.974	12220
907.091	12296
907.208	12357
907.324	12323
907.441	12144
907.557	12034
907.674	11927
907.79	11893
907.907	11950
908.023	11958
908.139	11996
908.256	11901
908.372	11973
908.488	11897
908.604	11745
908.72	11722
908.836	11794
908.952	11714
909.068	11748
909.184	11863
909.3	11748
909.415	11676
909.531	11642
909.647	11547
909.762	11490
909.878	11554
909.993	11463
910.108	11528
910.224	11429
910.339	11463
910.454	11395
910.57	11292
910.685	11223
910.8	11592
910.915	11554
911.03	11337
911.145	11159
911.259	11204
911.374	11250
911.489	11121
911.604	11079
911.718	10923
911.833	10923
911.947	10820
912.062	10797
912.176	10984
912.291	10984
912.405	10995
912.519	11181
912.633	11208
912.748	11086
912.862	10938
912.976	10889
913.09	10687
913.204	10694
913.318	10869
913.431	10904
913.545	10889
913.659	10908
913.772	10828
913.886	10767
914	10660
914.113	10793
914.226	10782
914.34	10717
914.453	10584
914.566	10790
914.68	10649
914.793	10653
914.906	10462
915.019	10462
915.132	10390
915.245	10462
915.358	10466
915.47	10497
915.583	10432
915.696	10573
915.809	10577
915.921	10611
916.034	10455
916.146	10405
916.259	10451
916.371	10493
916.483	10470
916.595	10363
916.708	10341
916.82	10367
916.932	10386
917.044	10360
917.156	10314
917.268	10310
917.38	10261
917.491	10257
917.603	10295
917.715	10371
917.826	10382
917.938	10276
918.049	10188
918.161	10287
918.272	10443
918.384	10402
918.495	10261
918.606	10207
918.717	10116
918.828	10162
918.939	10150
919.05	10112
919.161	10154
919.272	9983
919.383	10044
919.494	10219
919.604	10375
919.715	10204
919.826	10055
919.936	10097
920.047	10204
920.157	10257
920.267	10402
920.378	10303
920.488	10154
920.598	10375
920.708	10478
920.818	10329
920.928	10379
921.038	10592
921.148	10531
921.258	10249
921.368	10082
921.477	10051
921.587	10040
921.697	9899
921.806	10048
921.916	9846
922.025	9812
922.134	9797
922.244	9728
922.353	9720
922.462	9671
922.571	9576
922.68	9416
922.789	9397
922.898	9473
923.007	9374
923.116	9454
923.224	9431
923.333	9481
923.442	9279
923.55	9313
923.659	9397
923.767	9416
923.876	9237
923.984	9416
924.092	9241
924.201	9351
924.309	9298
924.417	9336
924.525	9279
924.633	9313
924.741	10040
924.849	9055
924.956	9253
925.064	9074
925.172	9017
925.279	9150
925.387	9097
925.494	9127
925.602	9195
925.709	9150
925.816	9024
925.924	9058
926.031	9199
926.138	9112
926.245	9093
926.352	8963
926.459	9051
926.566	9237
926.673	9089
926.779	8975
926.886	8994
926.993	8845
927.099	8800
927.206	8701
927.312	8815
927.419	8845
927.525	8906
927.631	8883
927.737	8785
927.843	8705
927.95	8552
928.056	8689
928.162	8708
928.267	8777
928.373	9428
928.479	8796
928.585	8533
928.69	8689
928.796	8682
928.901	8594
929.007	8541
929.112	8640
929.218	8579
929.323	8537
929.428	8473
929.533	8613
929.638	8461
929.743	8495
929.848	8545
929.953	8503
930.058	8389
930.163	8294
930.267	8355
930.372	8469
930.477	8256
930.581	8526
930.685	8309
930.79	8229
930.894	8248
930.998	8263
931.103	8358
931.207	8065
931.311	8054
931.415	7887
931.519	7757
931.623	7704
