Data from test_V78500241_2074.txt Node
Date: Fri Mar 25 14:48:09 CST 2022
User: usil
Spectrometer: V785-0024
Trigger mode: 0
Integration Time (sec): 4.000000E-1
Scans to average: 1
Nonlinearity correction enabled: false
Boxcar width: 0
Storing dark spectrum: false
XAxis mode: Wavelengths
Number of Pixels in Spectrum: 1024
>>>>>Begin Spectral Data<<<<<
801.071	22185
801.214	22090
801.356	21793
801.499	21682
801.641	21614
801.783	21477
801.926	21526
802.068	21481
802.211	21359
802.353	21378
802.496	21214
802.638	21081
802.78	20918
802.923	20762
803.065	20918
803.208	20754
803.35	20804
803.492	20887
803.635	21024
803.777	20929
803.919	20971
804.061	21245
804.204	20944
804.346	20804
804.488	20594
804.63	20686
804.773	20606
804.915	20758
805.057	20823
805.199	20727
805.341	20777
805.483	20883
805.626	20815
805.768	20781
805.91	20804
806.052	20720
806.194	20697
806.336	20979
806.478	20663
806.62	20602
806.762	20845
806.904	20887
807.046	21161
807.188	21108
807.33	21104
807.472	21039
807.614	20998
807.756	20994
807.898	20937
808.04	20819
808.182	20876
808.324	20834
808.465	20842
808.607	21108
808.749	21203
808.891	21176
809.033	21363
809.174	21245
809.316	21089
809.458	21310
809.6	21085
809.741	21036
809.883	21176
810.025	21241
810.166	21241
810.308	21279
810.45	21226
810.591	21127
810.733	20971
810.875	20895
811.016	20864
811.158	20750
811.299	20944
811.441	20887
811.582	20963
811.724	20887
811.865	20876
812.007	20941
812.148	20830
812.29	20830
812.431	21005
812.573	21195
812.714	21249
812.855	21416
812.997	21519
813.138	21709
813.279	21511
813.421	21462
813.562	21359
813.703	21089
813.845	20952
813.986	20781
814.127	20674
814.268	20412
814.41	20495
814.551	20446
814.692	20571
814.833	20271
814.974	20396
815.115	20381
815.256	20259
815.397	20389
815.539	20210
815.68	20214
815.821	20073
815.962	20126
816.103	20073
816.244	20062
816.385	19871
816.526	19871
816.666	19795
816.807	19552
816.948	19693
817.089	19639
817.23	19753
817.371	19518
817.512	19575
817.653	19601
817.793	19476
817.934	19643
818.075	19586
818.216	19453
818.356	19556
818.497	19460
818.638	19187
818.778	19266
818.919	19350
819.06	19236
819.2	19430
819.341	19457
819.481	19514
819.622	19502
819.762	19674
819.903	19605
820.043	19544
820.184	19552
820.324	19628
820.465	19605
820.605	19544
820.746	19460
820.886	19430
821.026	19575
821.167	19518
821.307	19597
821.447	19487
821.588	19381
821.728	19228
821.868	19034
822.008	18913
822.149	18973
822.289	18973
822.429	18715
822.569	18654
822.709	18760
822.849	18506
822.99	18441
823.13	18334
823.27	18346
823.41	18167
823.55	18152
823.69	18190
823.83	18311
823.97	18174
824.11	18015
824.25	17996
824.389	18068
824.529	18129
824.669	18057
824.809	18174
824.949	18304
825.089	18102
825.228	18026
825.368	17809
825.508	17984
825.648	17889
825.787	17874
825.927	17916
826.067	17760
826.206	17794
826.346	17863
826.485	17771
826.625	17843
826.765	17726
826.904	17942
827.044	17642
827.183	17596
827.323	17444
827.462	17463
827.601	17474
827.741	17433
827.88	17524
828.02	17360
828.159	17497
828.298	17471
828.437	17505
828.577	17490
828.716	17608
828.855	17414
828.994	17197
829.134	17261
829.273	17326
829.412	17216
829.551	17220
829.69	17200
829.829	17258
829.968	17299
830.107	17269
830.246	17296
830.385	17166
830.524	17174
830.663	17090
830.802	16904
830.941	16873
831.08	16961
831.219	16934
831.357	16927
831.496	17052
831.635	16930
831.774	16717
831.913	16755
832.051	16618
832.19	16580
832.329	16603
832.467	16622
832.606	16580
832.744	16470
832.883	16508
833.022	16546
833.16	16481
833.299	16672
833.437	16577
833.576	16656
833.714	16584
833.852	16611
833.991	16626
834.129	16725
834.267	16641
834.406	16580
834.544	16546
834.682	16588
834.821	16645
834.959	16809
835.097	16675
835.235	16767
835.373	16622
835.511	16573
835.65	16569
835.788	16565
835.926	16413
836.064	16360
836.202	16428
836.34	16493
836.478	16683
836.615	16485
836.753	16603
836.891	16653
837.029	16535
837.167	16485
837.305	16489
837.443	16405
837.58	16367
837.718	16474
837.856	16466
837.993	16261
838.131	16413
838.269	16291
838.406	16390
838.544	16303
838.681	16101
838.819	16029
838.956	15911
839.094	15918
839.231	15964
839.369	16105
839.506	16276
839.643	16105
839.781	15979
839.918	15781
840.055	15949
840.193	15987
840.33	15945
840.467	15865
840.604	15979
840.742	16124
840.879	15865
841.016	15876
841.153	15880
841.29	16051
841.427	15903
841.564	15972
841.701	16044
841.838	15880
841.975	15937
842.112	15827
842.249	15717
842.385	15652
842.522	15937
842.659	15720
842.796	15709
842.933	15698
843.069	15766
843.206	15743
843.343	15766
843.479	15694
843.616	15766
843.752	15507
843.889	15606
844.025	15682
844.162	15458
844.298	15557
844.435	15504
844.571	15466
844.708	15572
844.844	15679
844.98	15675
845.117	15679
845.253	15534
845.389	15466
845.525	15485
845.661	15359
845.798	15230
845.934	15412
846.07	15287
846.206	15287
846.342	15454
846.478	15233
846.614	15154
846.75	15047
846.886	15051
847.022	15154
847.158	15116
847.294	15161
847.429	15043
847.565	15097
847.701	15416
847.837	14785
847.972	14857
848.108	14918
848.244	14857
848.379	14788
848.515	14644
848.65	14712
848.786	14758
848.921	14727
849.057	14754
849.192	14697
849.328	14625
849.463	14739
849.598	14629
849.734	14549
849.869	14503
850.004	14545
850.14	14537
850.275	14438
850.41	14313
850.545	14396
850.68	14457
850.815	14427
850.95	14393
851.085	14686
851.22	14545
851.355	14358
851.49	14438
851.625	14351
851.76	14438
851.895	14355
852.03	14415
852.165	14389
852.299	14408
852.434	14587
852.569	14396
852.703	14541
852.838	14549
852.973	14511
853.107	14579
853.242	14404
853.376	14290
853.511	14195
853.645	14313
853.78	14370
853.914	14358
854.048	14362
854.183	14290
854.317	14282
854.451	14461
854.585	14301
854.72	14259
854.854	14343
854.988	14214
855.122	14275
855.256	14210
855.39	14187
855.524	14370
855.658	14324
855.792	14244
855.926	14377
856.06	14336
856.194	14328
856.327	14358
856.461	14206
856.595	14332
856.729	14244
856.862	14374
856.996	14282
857.13	14423
857.263	14415
857.397	14473
857.53	14347
857.664	14358
857.797	14381
857.931	14438
858.064	14389
858.197	14564
858.331	14412
858.464	14389
858.597	14282
858.731	14256
858.864	14240
858.997	14225
859.13	14328
859.263	14195
859.396	14434
859.529	14339
859.662	14259
859.795	14218
859.928	14286
860.061	14495
860.194	14450
860.327	14237
860.46	14317
860.592	14381
860.725	14488
860.858	14423
860.99	14206
861.123	14259
861.256	14267
861.388	14328
861.521	15062
861.653	14172
861.786	14157
861.918	14252
862.05	14191
862.183	14328
862.315	14290
862.447	14313
862.58	14252
862.712	14130
862.844	13970
862.976	14115
863.108	14180
863.24	14530
863.372	14012
863.504	14134
863.636	14016
863.768	14153
863.9	14103
864.032	14058
864.164	14077
864.296	14092
864.428	14164
864.559	14153
864.691	14199
864.823	14191
864.954	14172
865.086	14107
865.217	14081
865.349	14035
865.48	14016
865.612	14126
865.743	14229
865.875	14058
866.006	14107
866.137	14103
866.269	14062
866.4	13989
866.531	13978
866.662	13932
866.793	14043
866.924	14031
867.055	14065
867.186	14153
867.317	13982
867.448	13944
867.579	13993
867.71	14001
867.841	13989
867.972	14073
868.103	14100
868.233	14126
868.364	14016
868.495	14256
868.625	14339
868.756	14427
868.886	14199
869.017	14313
869.147	14366
869.278	14434
869.408	14412
869.539	14355
869.669	14374
869.799	14400
869.929	14427
870.06	14400
870.19	14598
870.32	14651
870.45	14590
870.58	14727
870.71	14838
870.84	14807
870.97	14697
871.1	14716
871.23	14910
871.36	14899
871.489	14838
871.619	14880
871.749	14906
871.879	14929
872.008	15104
872.138	15005
872.267	14876
872.397	14762
872.526	14746
872.656	14750
872.785	14712
872.915	14895
873.044	15100
873.173	14941
873.303	14986
873.432	15020
873.561	15070
873.69	14929
873.819	14994
873.948	15055
874.077	14956
874.206	14887
874.335	14986
874.464	15119
874.593	15218
874.722	15222
874.851	15348
874.979	15370
875.108	15298
875.237	15283
875.365	15211
875.494	15279
875.623	15313
875.751	15161
875.88	15237
876.008	15447
876.136	15519
876.265	15671
876.393	15865
876.521	15846
876.65	15705
876.778	15739
876.906	15584
877.034	15660
877.162	15599
877.29	15625
877.418	15603
877.546	15690
877.674	15759
877.802	15762
877.93	15656
878.058	15629
878.185	15580
878.313	15610
878.441	15644
878.568	15515
878.696	15584
878.824	15747
878.951	15797
879.079	15873
879.206	15956
879.333	15888
879.461	15774
879.588	15717
879.715	15884
879.842	16002
879.97	15762
880.097	15557
880.224	15473
880.351	15637
880.478	15603
880.605	15523
880.732	15530
880.859	15778
880.986	15591
881.112	15538
881.239	15420
881.366	15389
881.493	15325
881.619	15245
881.746	15275
881.872	15302
881.999	15252
882.125	15260
882.252	15230
882.378	15351
882.505	15397
882.631	15131
882.757	15047
882.883	15112
883.01	15005
883.136	14998
883.262	14895
883.388	14891
883.514	15100
883.64	15097
883.766	15047
883.892	14952
884.018	14918
884.143	14986
884.269	15081
884.395	14849
884.52	14815
884.646	14750
884.772	14727
884.897	14720
885.023	14773
885.148	14952
885.274	14944
885.399	14902
885.524	14796
885.65	14796
885.775	14678
885.9	14788
886.025	14849
886.15	14914
886.275	14788
886.4	14644
886.525	14705
886.65	14781
886.775	14636
886.9	14842
887.025	15081
887.149	14796
887.274	14674
887.399	14533
887.523	14648
887.648	14514
887.773	14438
887.897	14636
888.021	14602
888.146	14560
888.27	14697
888.395	14750
888.519	14610
888.643	14667
888.767	14640
888.891	14450
889.015	14507
889.139	14579
889.263	14366
889.387	14621
889.511	14667
889.635	14590
889.759	14454
889.883	14484
890.006	14473
890.13	14648
890.254	14446
890.377	14434
890.501	14256
890.624	14221
890.748	14332
890.871	14229
890.995	14138
891.118	14046
891.241	14176
891.364	14107
891.488	14164
891.611	14164
891.734	14069
891.857	14142
891.98	14214
892.103	14202
892.226	14267
892.349	14134
892.471	13947
892.594	14103
892.717	14176
892.839	14195
892.962	14161
893.085	14244
893.207	14123
893.33	14088
893.452	14161
893.575	14142
893.697	14161
893.819	14240
893.941	14332
894.064	14301
894.186	14130
894.308	14157
894.43	14240
894.552	14355
894.674	14347
894.796	14134
894.918	14202
895.04	14282
895.161	14278
895.283	14427
895.405	14278
895.526	14305
895.648	14362
895.769	14267
895.891	14309
896.012	14400
896.134	14339
896.255	14336
896.376	14305
896.498	14385
896.619	14370
896.74	14381
896.861	14370
896.982	14678
897.103	14857
897.224	14746
897.345	14583
897.466	14545
897.587	14549
897.708	14819
897.828	14590
897.949	14568
898.07	14518
898.19	14495
898.311	14724
898.431	14556
898.552	14613
898.672	14701
898.792	14762
898.913	14689
899.033	14648
899.153	14587
899.273	14400
899.393	14507
899.513	14602
899.633	14522
899.753	14602
899.873	14518
899.993	14514
900.113	14568
900.232	14606
900.352	14389
900.472	14404
900.591	14438
900.711	14442
900.83	14347
900.95	14427
901.069	14469
901.189	14244
901.308	14153
901.427	14084
901.546	14176
901.665	14134
901.784	14126
901.904	13917
902.023	13860
902.141	13753
902.26	13677
902.379	13761
902.498	13601
902.617	13571
902.735	13643
902.854	13628
902.973	13575
903.091	13369
903.21	13362
903.328	13422
903.446	13274
903.565	13137
903.683	13236
903.801	13038
903.919	13160
904.038	13190
904.156	13088
904.274	13061
904.392	13072
904.51	13050
904.627	13023
904.745	13099
904.863	13072
904.981	12764
905.098	12722
905.216	12764
905.334	12738
905.451	12776
905.569	12688
905.686	12700
905.803	12639
905.921	12547
906.038	12677
906.155	12623
906.272	12410
906.389	12460
906.506	12323
906.623	12376
906.74	12270
906.857	12254
906.974	12289
907.091	12330
907.208	12365
907.324	12289
907.441	12262
907.557	12095
907.674	11996
907.79	12060
907.907	11961
908.023	12087
908.139	12057
908.256	11969
908.372	11988
908.488	11984
908.604	11901
908.72	11809
908.836	11843
908.952	11786
909.068	11855
909.184	11893
909.3	11718
909.415	11843
909.531	11878
909.647	11619
909.762	11577
909.878	11524
909.993	11566
910.108	11551
910.224	11554
910.339	11547
910.454	11444
910.57	11501
910.685	11398
910.8	11634
910.915	11638
911.03	11524
911.145	11334
911.259	11212
911.374	11284
911.489	11197
911.604	11128
911.718	11022
911.833	11083
911.947	10911
912.062	10892
912.176	11064
912.291	11056
912.405	11003
912.519	11189
912.633	11181
912.748	11140
912.862	11094
912.976	10854
913.09	10752
913.204	10805
913.318	10915
913.431	11045
913.545	10946
913.659	10999
913.772	10919
913.886	10816
914	10771
914.113	10847
914.226	10965
914.34	10839
914.453	10752
914.566	10885
914.68	10763
914.793	10759
914.906	10577
915.019	10447
915.132	10398
915.245	10519
915.358	10588
915.47	10634
915.583	10645
915.696	10599
915.809	10637
915.921	10577
916.034	10546
916.146	10443
916.259	10478
916.371	10512
916.483	10580
916.595	10523
916.708	10489
916.82	10478
916.932	10447
917.044	10565
917.156	10413
917.268	10299
917.38	10386
917.491	10375
917.603	10481
917.715	10478
917.826	10432
917.938	10352
918.049	10211
918.161	10386
918.272	10455
918.384	10577
918.495	10371
918.606	10227
918.717	10192
918.828	10223
918.939	10257
919.05	10124
919.161	10215
919.272	9937
919.383	10063
919.494	10329
919.604	10508
919.715	10325
919.826	10211
919.936	10207
920.047	10337
920.157	10211
920.267	10466
920.378	10268
920.488	10261
920.598	10413
920.708	10649
920.818	10462
920.928	10481
921.038	10596
921.148	10550
921.258	10265
921.368	10223
921.477	10173
921.587	10090
921.697	10021
921.806	10139
921.916	10032
922.025	9835
922.134	9816
922.244	9770
922.353	9880
922.462	9720
922.571	9629
922.68	9564
922.789	9534
922.898	9500
923.007	9431
923.116	9511
923.224	9473
923.333	9542
923.442	9389
923.55	9359
923.659	9412
923.767	9492
923.876	9351
923.984	9469
924.092	9275
924.201	9386
924.309	9351
924.417	9401
924.525	9344
924.633	9340
924.741	10185
924.849	9173
924.956	9363
925.064	9161
925.172	9112
925.279	9097
925.387	9150
925.494	9062
925.602	9310
925.709	9272
925.816	9085
925.924	9039
926.031	9294
926.138	9222
926.245	9245
926.352	9047
926.459	9222
926.566	9237
926.673	9123
926.779	8971
926.886	9017
926.993	8952
927.099	8895
927.206	8842
927.312	8849
927.419	8849
927.525	8876
927.631	8925
927.737	8727
927.843	8735
927.95	8659
928.056	8750
928.162	8777
928.267	8834
928.373	9405
928.479	8887
928.585	8659
928.69	8727
928.796	8766
928.901	8735
929.007	8560
929.112	8708
929.218	8655
929.323	8530
929.428	8526
929.533	8678
929.638	8545
929.743	8560
929.848	8640
929.953	8575
930.058	8545
930.163	8320
930.267	8389
930.372	8465
930.477	8305
930.581	8503
930.685	8438
930.79	8286
930.894	8351
930.998	8282
931.103	8442
931.207	8077
931.311	8077
931.415	7978
931.519	7795
931.623	7803
