Data from test_V78500241_896.txt Node
Date: Fri Mar 25 14:39:57 CST 2022
User: usil
Spectrometer: V785-0024
Trigger mode: 0
Integration Time (sec): 4.000000E-1
Scans to average: 1
Nonlinearity correction enabled: false
Boxcar width: 0
Storing dark spectrum: false
XAxis mode: Wavelengths
Number of Pixels in Spectrum: 1024
>>>>>Begin Spectral Data<<<<<
801.071	25270
801.214	25034
801.356	24814
801.499	24703
801.641	24604
801.783	24570
801.926	24555
802.068	24448
802.211	24376
802.353	24281
802.496	23954
802.638	24110
802.78	23828
802.923	23874
803.065	23927
803.208	23923
803.35	23942
803.492	23958
803.635	24022
803.777	23889
803.919	23950
804.061	24243
804.204	24022
804.346	23817
804.488	23684
804.63	23954
804.773	23805
804.915	23939
805.057	24038
805.199	23935
805.341	24060
805.483	24011
805.626	24045
805.768	23927
805.91	24049
806.052	23999
806.194	24110
806.336	24361
806.478	24247
806.62	24251
806.762	24414
806.904	24471
807.046	24901
807.188	24795
807.33	24905
807.472	25133
807.614	25129
807.756	25441
807.898	25605
808.04	25932
808.182	26499
808.324	27192
808.465	27743
808.607	28656
808.749	29585
808.891	29958
809.033	29889
809.174	29436
809.316	28565
809.458	27880
809.6	27062
809.741	26640
809.883	26187
810.025	25814
810.166	25521
810.308	25415
810.45	25198
810.591	25164
810.733	24852
810.875	24650
811.016	24589
811.158	24452
811.299	24639
811.441	24498
811.582	24486
811.724	24365
811.865	24273
812.007	24159
812.148	24315
812.29	24365
812.431	24410
812.573	24566
812.714	24585
812.855	24642
812.997	24856
813.138	24848
813.279	24802
813.421	24707
813.562	24658
813.703	24380
813.845	24342
813.986	24060
814.127	23729
814.268	23783
814.41	23661
814.551	23695
814.692	23802
814.833	23630
814.974	23726
815.115	23577
815.256	23528
815.397	23402
815.539	23433
815.68	23391
815.821	23292
815.962	23288
816.103	23220
816.244	23212
816.385	23090
816.526	23193
816.666	22847
816.807	22755
816.948	22900
817.089	22850
817.23	22900
817.371	22694
817.512	22744
817.653	22615
817.793	22645
817.934	22740
818.075	22710
818.216	22675
818.356	22588
818.497	22466
818.638	22485
818.778	22348
818.919	22356
819.06	22462
819.2	22584
819.341	22577
819.481	22512
819.622	22599
819.762	22900
819.903	22786
820.043	22622
820.184	22649
820.324	22584
820.465	22637
820.605	22702
820.746	22542
820.886	22398
821.026	22584
821.167	22546
821.307	22683
821.447	22489
821.588	22421
821.728	22394
821.868	22219
822.008	22051
822.149	22017
822.289	21998
822.429	21652
822.569	21633
822.709	21580
822.849	21481
822.99	21336
823.13	21397
823.27	21401
823.41	21226
823.55	21207
823.69	21252
823.83	21214
823.97	21146
824.11	21070
824.25	21001
824.389	21047
824.529	21017
824.669	20929
824.809	21047
824.949	21066
825.089	21058
825.228	21138
825.368	20727
825.508	20838
825.648	20971
825.787	20819
825.927	20868
826.067	20686
826.206	20667
826.346	20739
826.485	20743
826.625	20773
826.765	20902
826.904	20876
827.044	20552
827.183	20434
827.323	20408
827.462	20556
827.601	20400
827.741	20473
827.88	20438
828.02	20282
828.159	20381
828.298	20419
828.437	20469
828.577	20362
828.716	20530
828.855	20404
828.994	20218
829.134	20229
829.273	20195
829.412	20005
829.551	20077
829.69	20195
829.829	20126
829.968	20164
830.107	20187
830.246	20229
830.385	20024
830.524	20020
830.663	19928
830.802	19822
830.941	19807
831.08	19807
831.219	19833
831.357	19769
831.496	19970
831.635	19742
831.774	19635
831.913	19487
832.051	19548
832.19	19510
832.329	19590
832.467	19350
832.606	19301
832.744	19438
832.883	19426
833.022	19365
833.16	19514
833.299	19548
833.437	19502
833.576	19681
833.714	19601
833.852	19670
833.991	19727
834.129	19814
834.267	19723
834.406	19506
834.544	19674
834.682	19578
834.821	19647
834.959	19769
835.097	19400
835.235	19575
835.373	19567
835.511	19556
835.65	19457
835.788	19377
835.926	19133
836.064	19141
836.202	19145
836.34	19251
836.478	19373
836.615	19168
836.753	19187
836.891	19327
837.029	19206
837.167	19206
837.305	19198
837.443	19103
837.58	19088
837.718	19190
837.856	19168
837.993	18993
838.131	19095
838.269	19000
838.406	19004
838.544	18916
838.681	18684
838.819	18745
838.956	18593
839.094	18559
839.231	18631
839.369	18681
839.506	18920
839.643	18772
839.781	18639
839.918	18540
840.055	18441
840.193	18559
840.33	18486
840.467	18502
840.604	18517
840.742	18795
840.879	18399
841.016	18448
841.153	18460
841.29	18582
841.427	18551
841.564	18532
841.701	18486
841.838	18399
841.975	18448
842.112	18445
842.249	18414
842.385	18216
842.522	18448
842.659	18361
842.796	18251
842.933	18308
843.069	18258
843.206	18281
843.343	18266
843.479	18304
843.616	18251
843.752	18091
843.889	18110
844.025	18239
844.162	18060
844.298	18201
844.435	18174
844.571	18197
844.708	18281
844.844	18532
844.98	18479
845.117	18582
845.253	18783
845.389	19103
845.525	19944
845.661	21020
845.798	22622
845.934	24022
846.07	24673
846.206	24399
846.342	23421
846.478	21819
846.614	20271
846.75	19114
846.886	18498
847.022	18441
847.158	18072
847.294	17916
847.429	17904
847.565	17824
847.701	17904
847.837	17414
847.972	17334
848.108	17482
848.244	17376
848.379	17269
848.515	17197
848.65	17102
848.786	17216
848.921	17189
849.057	17220
849.192	17193
849.328	17220
849.463	17079
849.598	17090
849.734	17075
849.869	17029
850.004	16911
850.14	16820
850.275	16919
850.41	16809
850.545	16828
850.68	16736
850.815	16797
850.95	16942
851.085	17124
851.22	16942
851.355	16919
851.49	16828
851.625	16816
851.76	16915
851.895	16805
852.03	16881
852.165	16801
852.299	16968
852.434	16987
852.569	16915
852.703	16839
852.838	17079
852.973	17018
853.107	17079
853.242	16831
853.376	16812
853.511	16656
853.645	16778
853.78	17018
853.914	16820
854.048	16713
854.183	16816
854.317	16839
854.451	16919
854.585	16805
854.72	16721
854.854	16911
854.988	16710
855.122	16752
855.256	16683
855.39	16675
855.524	16626
855.658	16850
855.792	16713
855.926	16839
856.06	16790
856.194	16843
856.327	16755
856.461	16706
856.595	16683
856.729	16683
856.862	16828
856.996	16675
857.13	16816
857.263	16774
857.397	16850
857.53	16687
857.664	16771
857.797	16721
857.931	16873
858.064	16824
858.197	16801
858.331	16713
858.464	16649
858.597	16550
858.731	16649
858.864	16637
858.997	16649
859.13	16637
859.263	16755
859.396	16755
859.529	16634
859.662	16710
859.795	16615
859.928	16698
860.061	16847
860.194	16854
860.327	16664
860.46	16634
860.592	16706
860.725	16748
860.858	16812
860.99	16721
861.123	16508
861.256	16550
861.388	16622
861.521	17307
861.653	16504
861.786	16489
861.918	16489
862.05	16523
862.183	16607
862.315	16672
862.447	16733
862.58	16554
862.712	16402
862.844	16421
862.976	16512
863.108	16481
863.24	16759
863.372	16329
863.504	16306
863.636	16371
863.768	16447
863.9	16413
864.032	16306
864.164	16363
864.296	16394
864.428	16565
864.559	16508
864.691	16478
864.823	16360
864.954	16344
865.086	16432
865.217	16375
865.349	16242
865.48	16329
865.612	16291
865.743	16417
865.875	16287
866.006	16352
866.137	16440
866.269	16402
866.4	16268
866.531	16215
866.662	16196
866.793	16337
866.924	16234
867.055	16226
867.186	16242
867.317	16325
867.448	16299
867.579	16306
867.71	16192
867.841	16246
867.972	16265
868.103	16318
868.233	16314
868.364	16318
868.495	16386
868.625	16527
868.756	16588
868.886	16440
869.017	16550
869.147	16569
869.278	16615
869.408	16561
869.539	16565
869.669	16584
869.799	16626
869.929	16637
870.06	16622
870.19	16877
870.32	16828
870.45	16873
870.58	16972
870.71	17045
870.84	17045
870.97	16961
871.1	16961
871.23	17155
871.36	17086
871.489	17094
871.619	17052
871.749	17140
871.879	17185
872.008	17292
872.138	17193
872.267	17159
872.397	17083
872.526	17083
872.656	16949
872.785	17147
872.915	17216
873.044	17208
873.173	17254
873.303	17334
873.432	17227
873.561	17429
873.69	17250
873.819	17311
873.948	17402
874.077	17318
874.206	17360
874.335	17318
874.464	17486
874.593	17581
874.722	17661
874.851	17604
874.979	17566
875.108	17722
875.237	17615
875.365	17562
875.494	17627
875.623	17775
875.751	17646
875.88	17649
876.008	17942
876.136	17805
876.265	18270
876.393	18228
876.521	18232
876.65	18209
876.778	18243
876.906	18197
877.034	18148
877.162	18209
877.29	18228
877.418	18216
877.546	18205
877.674	18228
877.802	18277
877.93	18350
878.058	18388
878.185	18330
878.313	18547
878.441	18502
878.568	18483
878.696	18715
878.824	18993
878.951	19289
879.079	19830
879.206	20313
879.333	20583
879.461	21116
879.588	21443
879.715	21549
879.842	21332
879.97	20708
880.097	19967
880.224	19521
880.351	19297
880.478	19095
880.605	18886
880.732	18939
880.859	19019
880.986	18669
881.112	18791
881.239	18620
881.366	18471
881.493	18350
881.619	18445
881.746	18414
881.872	18292
881.999	18304
882.125	18353
882.252	18433
882.378	18353
882.505	18513
882.631	18376
882.757	18262
882.883	18174
883.01	18258
883.136	18140
883.262	18152
883.388	18091
883.514	18315
883.64	18262
883.766	18114
883.892	18072
884.018	18091
884.143	18247
884.269	18235
884.395	17942
884.52	17836
884.646	17904
884.772	17813
884.897	17863
885.023	18019
885.148	18003
885.274	17980
885.399	17984
885.524	17897
885.65	17832
885.775	17821
885.9	17767
886.025	17904
886.15	17703
886.275	17623
886.4	17562
886.525	17543
886.65	17478
886.775	17570
886.9	17623
887.025	17676
887.149	17482
887.274	17269
887.399	17170
887.523	17136
887.648	17166
887.773	17071
887.897	17212
888.021	17239
888.146	17045
888.27	17235
888.395	17200
888.519	17170
888.643	17113
888.767	17143
888.891	16980
889.015	16995
889.139	16900
889.263	16896
889.387	16934
889.511	17075
889.635	17018
889.759	16809
889.883	16911
890.006	16771
890.13	16957
890.254	16771
890.377	16725
890.501	16569
890.624	16546
890.748	16592
890.871	16489
890.995	16367
891.118	16352
891.241	16474
891.364	16440
891.488	16459
891.611	16459
891.734	16405
891.857	16432
891.98	16363
892.103	16432
892.226	16462
892.349	16402
892.471	16192
892.594	16363
892.717	16325
892.839	16272
892.962	16287
893.085	16234
893.207	16337
893.33	16219
893.452	16200
893.575	16363
893.697	16249
893.819	16481
893.941	16440
894.064	16329
894.186	16272
894.308	16112
894.43	16459
894.552	16455
894.674	16367
894.796	16181
894.918	16322
895.04	16116
895.161	16344
895.283	16352
895.405	16211
895.526	16257
895.648	16261
895.769	16284
895.891	16447
896.012	16363
896.134	16398
896.255	16299
896.376	16284
896.498	16424
896.619	16375
896.74	16306
896.861	16325
896.982	16725
897.103	16915
897.224	16729
897.345	16691
897.466	16519
897.587	16516
897.708	16683
897.828	16675
897.949	16535
898.07	16466
898.19	16516
898.311	16721
898.431	16512
898.552	16687
898.672	16656
898.792	16717
898.913	16637
899.033	16535
899.153	16497
899.273	16386
899.393	16478
899.513	16519
899.633	16459
899.753	16542
899.873	16440
899.993	16580
900.113	16440
900.232	16466
900.352	16447
900.472	16428
900.591	16291
900.711	16371
900.83	16386
900.95	16455
901.069	16512
901.189	16261
901.308	16097
901.427	16044
901.546	15972
901.665	16074
901.784	15979
901.904	15827
902.023	15804
902.141	15584
902.26	15553
902.379	15606
902.498	15576
902.617	15488
902.735	15519
902.854	15549
902.973	15408
903.091	15249
903.21	15184
903.328	15116
903.446	15024
903.565	15039
903.683	14956
903.801	14944
903.919	15001
904.038	14868
904.156	14804
904.274	14971
904.392	14792
904.51	14762
904.627	14678
904.745	14701
904.863	14765
904.981	14518
905.098	14442
905.216	14473
905.334	14446
905.451	14267
905.569	14336
905.686	14374
905.803	14374
905.921	14225
906.038	14267
906.155	14218
906.272	14153
906.389	14065
906.506	14077
906.623	13997
906.74	13947
906.857	13849
906.974	13921
907.091	13974
907.208	14016
907.324	13940
907.441	13898
907.557	13708
907.674	13636
907.79	13582
907.907	13540
908.023	13704
908.139	13734
908.256	13559
908.372	13491
908.488	13556
908.604	13506
908.72	13392
908.836	13415
908.952	13384
909.068	13365
909.184	13502
909.3	13354
909.415	13468
909.531	13373
909.647	13091
909.762	13103
909.878	13126
909.993	13217
910.108	13114
910.224	12989
910.339	13168
910.454	12996
910.57	13069
910.685	12856
910.8	13213
910.915	13053
911.03	12985
911.145	12749
911.259	12768
911.374	12795
911.489	12688
911.604	12726
911.718	12563
911.833	12547
911.947	12414
912.062	12342
912.176	12528
912.291	12525
912.405	12502
912.519	12650
912.633	12779
912.748	12536
912.862	12490
912.976	12391
913.09	12232
913.204	12384
913.318	12422
913.431	12479
913.545	12426
913.659	12437
913.772	12369
913.886	12273
914	12175
914.113	12311
914.226	12403
914.34	12315
914.453	12114
914.566	12273
914.68	12186
914.793	12079
914.906	12049
915.019	11889
915.132	11901
915.245	11980
915.358	11874
915.47	12034
915.583	11946
915.696	11942
915.809	12175
915.921	12068
916.034	11916
916.146	11920
916.259	11889
916.371	12007
916.483	11984
916.595	11836
916.708	11904
916.82	11870
916.932	11828
917.044	11783
917.156	11805
917.268	11707
917.38	11832
917.491	11699
917.603	11703
917.715	11748
917.826	11855
917.938	11707
918.049	11611
918.161	11729
918.272	11790
918.384	11794
918.495	11726
918.606	11562
918.717	11493
918.828	11543
918.939	11615
919.05	11452
919.161	11505
919.272	11356
919.383	11440
919.494	11611
919.604	11809
919.715	11570
919.826	11395
919.936	11486
920.047	11630
920.157	11478
920.267	11794
920.378	11577
920.488	11535
920.598	11718
920.708	11889
920.818	11646
920.928	11729
921.038	11866
921.148	11851
921.258	11512
921.368	11509
921.477	11360
921.587	11349
921.697	11250
921.806	11379
921.916	11258
922.025	11086
922.134	11071
922.244	11003
922.353	11071
922.462	10972
922.571	10862
922.68	10694
922.789	10755
922.898	10740
923.007	10698
923.116	10801
923.224	10637
923.333	10763
923.442	10535
923.55	10615
923.659	10580
923.767	10641
923.876	10535
923.984	10577
924.092	10432
924.201	10599
924.309	10493
924.417	10512
924.525	10474
924.633	10478
924.741	11201
924.849	10257
924.956	10523
925.064	10303
925.172	10181
925.279	10329
925.387	10310
925.494	10284
925.602	10428
925.709	10318
925.816	10207
925.924	10299
926.031	10405
926.138	10265
926.245	10322
926.352	10215
926.459	10360
926.566	10417
926.673	10188
926.779	10169
926.886	10154
926.993	9968
927.099	9934
927.206	9945
927.312	9884
927.419	10029
927.525	9899
927.631	9945
927.737	9876
927.843	9865
927.95	9755
928.056	9819
928.162	9835
928.267	9918
928.373	10478
928.479	9892
928.585	9705
928.69	9804
928.796	9835
928.901	9816
929.007	9595
929.112	9759
929.218	9732
929.323	9660
929.428	9599
929.533	9747
929.638	9618
929.743	9584
929.848	9656
929.953	9530
930.058	9542
930.163	9348
930.267	9317
930.372	9511
930.477	9370
930.581	9614
930.685	9507
930.79	9386
930.894	9344
930.998	9249
931.103	9477
931.207	9062
931.311	8967
931.415	8967
931.519	8724
931.623	8746
