Data from test_V78500241_2016.txt Node
Date: Fri Mar 25 14:47:45 CST 2022
User: usil
Spectrometer: V785-0024
Trigger mode: 0
Integration Time (sec): 4.000000E-1
Scans to average: 1
Nonlinearity correction enabled: false
Boxcar width: 0
Storing dark spectrum: false
XAxis mode: Wavelengths
Number of Pixels in Spectrum: 1024
>>>>>Begin Spectral Data<<<<<
801.071	22173
801.214	22166
801.356	21720
801.499	21614
801.641	21485
801.783	21507
801.926	21660
802.068	21416
802.211	21268
802.353	21279
802.496	21146
802.638	21062
802.78	20880
802.923	20925
803.065	20823
803.208	20933
803.35	20880
803.492	20887
803.635	20929
803.777	20712
803.919	20902
804.061	21142
804.204	20891
804.346	20815
804.488	20613
804.63	20758
804.773	20651
804.915	20727
805.057	20868
805.199	20697
805.341	20777
805.483	20864
805.626	20785
805.768	20720
805.91	20785
806.052	20686
806.194	20663
806.336	20834
806.478	20743
806.62	20644
806.762	20838
806.904	20853
807.046	21051
807.188	20994
807.33	21089
807.472	21066
807.614	20937
807.756	20948
807.898	20823
808.04	20815
808.182	20769
808.324	20792
808.465	20826
808.607	21051
808.749	21138
808.891	21199
809.033	21268
809.174	21169
809.316	21112
809.458	21070
809.6	21077
809.741	21138
809.883	21222
810.025	21382
810.166	21249
810.308	21218
810.45	21100
810.591	21036
810.733	20861
810.875	20963
811.016	20792
811.158	20800
811.299	20777
811.441	21009
811.582	20956
811.724	21036
811.865	20902
812.007	20853
812.148	20857
812.29	20887
812.431	20975
812.573	21173
812.714	21256
812.855	21412
812.997	21492
813.138	21698
813.279	21488
813.421	21313
813.562	21344
813.703	21184
813.845	21104
813.986	20693
814.127	20511
814.268	20473
814.41	20541
814.551	20381
814.692	20358
814.833	20278
814.974	20404
815.115	20492
815.256	20252
815.397	20218
815.539	20332
815.68	20172
815.821	20005
815.962	20187
816.103	20115
816.244	20054
816.385	19864
816.526	19837
816.666	19757
816.807	19601
816.948	19620
817.089	19685
817.23	19506
817.371	19537
817.512	19521
817.653	19575
817.793	19422
817.934	19476
818.075	19506
818.216	19575
818.356	19529
818.497	19350
818.638	19225
818.778	19308
818.919	19206
819.06	19289
819.2	19407
819.341	19441
819.481	19426
819.622	19548
819.762	19818
819.903	19616
820.043	19510
820.184	19575
820.324	19506
820.465	19620
820.605	19632
820.746	19597
820.886	19270
821.026	19411
821.167	19540
821.307	19495
821.447	19411
821.588	19350
821.728	19183
821.868	18993
822.008	18977
822.149	18871
822.289	18973
822.429	18631
822.569	18749
822.709	18563
822.849	18342
822.99	18494
823.13	18399
823.27	18433
823.41	18311
823.55	18285
823.69	18247
823.83	18220
823.97	18102
824.11	18049
824.25	17977
824.389	17999
824.529	18125
824.669	18049
824.809	18091
824.949	18114
825.089	18038
825.228	18057
825.368	17821
825.508	17790
825.648	17832
825.787	17809
825.927	17847
826.067	17737
826.206	17733
826.346	17904
826.485	17779
826.625	17722
826.765	17908
826.904	17821
827.044	17486
827.183	17501
827.323	17433
827.462	17592
827.601	17463
827.741	17505
827.88	17482
828.02	17406
828.159	17532
828.298	17512
828.437	17608
828.577	17444
828.716	17630
828.855	17414
828.994	17303
829.134	17322
829.273	17341
829.412	17277
829.551	17254
829.69	17223
829.829	17250
829.968	17307
830.107	17364
830.246	17368
830.385	17166
830.524	17220
830.663	17143
830.802	16953
830.941	16938
831.08	16725
831.219	17025
831.357	16896
831.496	17174
831.635	16797
831.774	16816
831.913	16858
832.051	16668
832.19	16698
832.329	16733
832.467	16584
832.606	16577
832.744	16679
832.883	16615
833.022	16611
833.16	16596
833.299	16706
833.437	16622
833.576	16748
833.714	16653
833.852	16748
833.991	16683
834.129	16793
834.267	16729
834.406	16630
834.544	16664
834.682	16668
834.821	16599
834.959	16843
835.097	16653
835.235	16763
835.373	16649
835.511	16672
835.65	16474
835.788	16599
835.926	16428
836.064	16341
836.202	16440
836.34	16554
836.478	16668
836.615	16649
836.753	16660
836.891	16649
837.029	16683
837.167	16512
837.305	16398
837.443	16398
837.58	16356
837.718	16550
837.856	16459
837.993	16348
838.131	16428
838.269	16402
838.406	16291
838.544	16303
838.681	16116
838.819	16078
838.956	15934
839.094	16006
839.231	15987
839.369	16188
839.506	16276
839.643	16249
839.781	16021
839.918	15899
840.055	16021
840.193	15994
840.33	15915
840.467	16074
840.604	16010
840.742	16253
840.879	16032
841.016	15918
841.153	15899
841.29	16101
841.427	15975
841.564	16036
841.701	15964
841.838	15892
841.975	15781
842.112	15816
842.249	15800
842.385	15720
842.522	15854
842.659	15755
842.796	15717
842.933	15831
843.069	15694
843.206	15743
843.343	15823
843.479	15800
843.616	15800
843.752	15595
843.889	15652
844.025	15762
844.162	15500
844.298	15728
844.435	15572
844.571	15405
844.708	15610
844.844	15720
844.98	15641
845.117	15591
845.253	15519
845.389	15515
845.525	15450
845.661	15469
845.798	15321
845.934	15367
846.07	15412
846.206	15389
846.342	15507
846.478	15325
846.614	15169
846.75	15055
846.886	15169
847.022	15199
847.158	15116
847.294	15218
847.429	15127
847.565	15089
847.701	15310
847.837	14910
847.972	14773
848.108	14918
848.244	14921
848.379	14857
848.515	14754
848.65	14708
848.786	14705
848.921	14746
849.057	14823
849.192	14838
849.328	14777
849.463	14758
849.598	14773
849.734	14678
849.869	14533
850.004	14583
850.14	14590
850.275	14492
850.41	14408
850.545	14400
850.68	14389
850.815	14514
850.95	14457
851.085	14712
851.22	14598
851.355	14511
851.49	14465
851.625	14450
851.76	14457
851.895	14370
852.03	14313
852.165	14556
852.299	14541
852.434	14617
852.569	14446
852.703	14610
852.838	14606
852.973	14648
853.107	14568
853.242	14480
853.376	14332
853.511	14286
853.645	14328
853.78	14438
853.914	14343
854.048	14282
854.183	14294
854.317	14415
854.451	14492
854.585	14358
854.72	14362
854.854	14484
854.988	14298
855.122	14351
855.256	14161
855.39	14294
855.524	14396
855.658	14366
855.792	14358
855.926	14389
856.06	14351
856.194	14434
856.327	14309
856.461	14305
856.595	14324
856.729	14290
856.862	14419
856.996	14438
857.13	14541
857.263	14377
857.397	14400
857.53	14347
857.664	14358
857.797	14404
857.931	14438
858.064	14457
858.197	14476
858.331	14400
858.464	14328
858.597	14263
858.731	14343
858.864	14396
858.997	14355
859.13	14419
859.263	14370
859.396	14434
859.529	14366
859.662	14355
859.795	14339
859.928	14294
860.061	14404
860.194	14518
860.327	14366
860.46	14366
860.592	14434
860.725	14343
860.858	14492
860.99	14351
861.123	14271
861.256	14362
861.388	14324
861.521	14998
861.653	14317
861.786	14229
861.918	14267
862.05	14210
862.183	14351
862.315	14305
862.447	14408
862.58	14259
862.712	14088
862.844	14153
862.976	14210
863.108	14130
863.24	14556
863.372	14138
863.504	14092
863.636	14103
863.768	14107
863.9	14046
864.032	14092
864.164	14153
864.296	14123
864.428	14221
864.559	14168
864.691	14240
864.823	14138
864.954	14103
865.086	14161
865.217	14233
865.349	14065
865.48	14073
865.612	14138
865.743	14202
865.875	14062
866.006	14081
866.137	14134
866.269	14043
866.4	14191
866.531	14062
866.662	14035
866.793	14123
866.924	14088
867.055	14054
867.186	14115
867.317	14058
867.448	14039
867.579	14100
867.71	13982
867.841	13970
867.972	14126
868.103	14035
868.233	14142
868.364	14218
868.495	14210
868.625	14309
868.756	14434
868.886	14290
869.017	14366
869.147	14480
869.278	14442
869.408	14415
869.539	14381
869.669	14450
869.799	14446
869.929	14503
870.06	14438
870.19	14640
870.32	14682
870.45	14670
870.58	14777
870.71	14941
870.84	14921
870.97	14769
871.1	14739
871.23	14998
871.36	14899
871.489	14838
871.619	14906
871.749	15036
871.879	14994
872.008	14990
872.138	14914
872.267	14876
872.397	14743
872.526	14811
872.656	14781
872.785	14864
872.915	14937
873.044	15150
873.173	14986
873.303	14975
873.432	15055
873.561	15005
873.69	15055
873.819	15028
873.948	15043
874.077	15043
874.206	15051
874.335	14921
874.464	15214
874.593	15287
874.722	15214
874.851	15389
874.979	15325
875.108	15382
875.237	15325
875.365	15233
875.494	15340
875.623	15374
875.751	15344
875.88	15298
876.008	15496
876.136	15606
876.265	15774
876.393	15903
876.521	15751
876.65	15880
876.778	15751
876.906	15572
877.034	15709
877.162	15732
877.29	15724
877.418	15770
877.546	15728
877.674	15717
877.802	15709
877.93	15637
878.058	15701
878.185	15652
878.313	15709
878.441	15793
878.568	15553
878.696	15694
878.824	15823
878.951	15720
879.079	15842
879.206	16032
879.333	15876
879.461	15690
879.588	15781
879.715	15972
879.842	16067
879.97	15797
880.097	15599
880.224	15576
880.351	15637
880.478	15698
880.605	15591
880.732	15542
880.859	15808
880.986	15663
881.112	15576
881.239	15530
881.366	15382
881.493	15321
881.619	15291
881.746	15272
881.872	15245
881.999	15340
882.125	15203
882.252	15310
882.378	15241
882.505	15382
882.631	15302
882.757	15112
882.883	15119
883.01	15066
883.136	15039
883.262	14948
883.388	14906
883.514	15039
883.64	15195
883.766	15028
883.892	14883
884.018	14979
884.143	14975
884.269	15093
884.395	14804
884.52	14739
884.646	14830
884.772	14716
884.897	14712
885.023	14758
885.148	14826
885.274	14891
885.399	14830
885.524	14792
885.65	14727
885.775	14811
885.9	14674
886.025	14876
886.15	14823
886.275	14701
886.4	14788
886.525	14796
886.65	14644
886.775	14743
886.9	14792
887.025	14986
887.149	14769
887.274	14629
887.399	14648
887.523	14507
887.648	14511
887.773	14537
887.897	14701
888.021	14697
888.146	14568
888.27	14697
888.395	14629
888.519	14617
888.643	14610
888.767	14686
888.891	14571
889.015	14434
889.139	14594
889.263	14446
889.387	14598
889.511	14655
889.635	14617
889.759	14476
889.883	14412
890.006	14530
890.13	14598
890.254	14370
890.377	14473
890.501	14309
890.624	14206
890.748	14469
890.871	14195
890.995	14142
891.118	14065
891.241	14161
891.364	14229
891.488	14225
891.611	14168
891.734	14039
891.857	14138
891.98	14221
892.103	14301
892.226	14103
892.349	14077
892.471	14054
892.594	14111
892.717	14214
892.839	14191
892.962	14130
893.085	14199
893.207	14256
893.33	14031
893.452	14145
893.575	14252
893.697	14001
893.819	14343
893.941	14259
894.064	14275
894.186	14142
894.308	14103
894.43	14263
894.552	14355
894.674	14275
894.796	14172
894.918	14058
895.04	14153
895.161	14298
895.283	14225
895.405	14206
895.526	14172
895.648	14259
895.769	14191
895.891	14347
896.012	14370
896.134	14210
896.255	14339
896.376	14290
896.498	14271
896.619	14389
896.74	14298
896.861	14393
896.982	14610
897.103	14807
897.224	14716
897.345	14549
897.466	14522
897.587	14621
897.708	14667
897.828	14590
897.949	14549
898.07	14442
898.19	14655
898.311	14758
898.431	14507
898.552	14648
898.672	14811
898.792	14739
898.913	14701
899.033	14678
899.153	14545
899.273	14404
899.393	14431
899.513	14484
899.633	14545
899.753	14541
899.873	14469
899.993	14571
900.113	14583
900.232	14568
900.352	14412
900.472	14465
900.591	14377
900.711	14393
900.83	14385
900.95	14492
901.069	14461
901.189	14343
901.308	14084
901.427	13970
901.546	14039
901.665	14073
901.784	14096
901.904	13997
902.023	13906
902.141	13734
902.26	13620
902.379	13731
902.498	13597
902.617	13563
902.735	13662
902.854	13609
902.973	13582
903.091	13373
903.21	13434
903.328	13407
903.446	13251
903.565	13198
903.683	13282
903.801	13065
903.919	13251
904.038	13244
904.156	13004
904.274	13076
904.392	13023
904.51	13091
904.627	12935
904.745	13091
904.863	13110
904.981	12837
905.098	12700
905.216	12730
905.334	12856
905.451	12738
905.569	12646
905.686	12768
905.803	12700
905.921	12532
906.038	12703
906.155	12570
906.272	12456
906.389	12502
906.506	12330
906.623	12334
906.74	12376
906.857	12155
906.974	12258
907.091	12369
907.208	12506
907.324	12365
907.441	12251
907.557	12049
907.674	12057
907.79	12076
907.907	12106
908.023	12087
908.139	12068
908.256	12038
908.372	12022
908.488	11992
908.604	11863
908.72	11882
908.836	11798
908.952	11790
909.068	11817
909.184	11927
909.3	11840
909.415	11855
909.531	11855
909.647	11657
909.762	11657
909.878	11592
909.993	11646
910.108	11551
910.224	11608
910.339	11581
910.454	11490
910.57	11467
910.685	11372
910.8	11726
910.915	11532
911.03	11532
911.145	11318
911.259	11315
911.374	11337
911.489	11277
911.604	11132
911.718	10995
911.833	11006
911.947	10995
912.062	10938
912.176	10999
912.291	11048
912.405	11033
912.519	11223
912.633	11246
912.748	11098
912.862	11025
912.976	10938
913.09	10881
913.204	10942
913.318	10919
913.431	10968
913.545	11022
913.659	11113
913.772	10911
913.886	10778
914	10767
914.113	10908
914.226	10999
914.34	10831
914.453	10687
914.566	10885
914.68	10733
914.793	10755
914.906	10596
915.019	10470
915.132	10504
915.245	10550
915.358	10588
915.47	10592
915.583	10622
915.696	10573
915.809	10675
915.921	10725
916.034	10554
916.146	10535
916.259	10356
916.371	10599
916.483	10500
916.595	10512
916.708	10443
916.82	10459
916.932	10523
917.044	10466
917.156	10421
917.268	10379
917.38	10428
917.491	10371
917.603	10451
917.715	10504
917.826	10508
917.938	10379
918.049	10356
918.161	10356
918.272	10573
918.384	10546
918.495	10447
918.606	10238
918.717	10314
918.828	10295
918.939	10314
919.05	10143
919.161	10257
919.272	10109
919.383	10143
919.494	10322
919.604	10455
919.715	10276
919.826	10154
919.936	10295
920.047	10371
920.157	10280
920.267	10447
920.378	10280
920.488	10223
920.598	10512
920.708	10675
920.818	10497
920.928	10493
921.038	10588
921.148	10588
921.258	10341
921.368	10207
921.477	10211
921.587	10188
921.697	10048
921.806	10188
921.916	9983
922.025	9876
922.134	9838
922.244	9854
922.353	9876
922.462	9713
922.571	9724
922.68	9542
922.789	9504
922.898	9553
923.007	9507
923.116	9496
923.224	9549
923.333	9485
923.442	9359
923.55	9481
923.659	9382
923.767	9504
923.876	9386
923.984	9473
924.092	9344
924.201	9374
924.309	9405
924.417	9401
924.525	9325
924.633	9329
924.741	10291
924.849	9176
924.956	9336
925.064	9123
925.172	9097
925.279	9108
925.387	9173
925.494	9207
925.602	9306
925.709	9294
925.816	9089
925.924	9192
926.031	9256
926.138	9154
926.245	9249
926.352	9123
926.459	9279
926.566	9306
926.673	9131
926.779	9043
926.886	9017
926.993	8967
927.099	8857
927.206	8861
927.312	8948
927.419	9005
927.525	8952
927.631	9001
927.737	8807
927.843	8766
927.95	8682
928.056	8811
928.162	8815
928.267	8807
928.373	9481
928.479	8948
928.585	8655
928.69	8815
928.796	8811
928.901	8727
929.007	8568
929.112	8644
929.218	8686
929.323	8568
929.428	8610
929.533	8686
929.638	8587
929.743	8632
929.848	8606
929.953	8552
930.058	8583
930.163	8385
930.267	8355
930.372	8526
930.477	8332
930.581	8583
930.685	8434
930.79	8320
930.894	8317
930.998	8294
931.103	8438
931.207	8168
931.311	8058
931.415	8012
931.519	7852
931.623	7776
