Data from test_V78500241_3455.txt Node
Date: Fri Mar 25 14:57:46 CST 2022
User: usil
Spectrometer: V785-0024
Trigger mode: 0
Integration Time (sec): 4.000000E-1
Scans to average: 1
Nonlinearity correction enabled: false
Boxcar width: 0
Storing dark spectrum: false
XAxis mode: Wavelengths
Number of Pixels in Spectrum: 1024
>>>>>Begin Spectral Data<<<<<
801.071	21918
801.214	21915
801.356	21542
801.499	21329
801.641	21252
801.783	21351
801.926	21294
802.068	21275
802.211	21135
802.353	21131
802.496	20785
802.638	20834
802.78	20648
802.923	20659
803.065	20560
803.208	20518
803.35	20503
803.492	20727
803.635	20845
803.777	20613
803.919	20781
804.061	20979
804.204	20701
804.346	20480
804.488	20423
804.63	20602
804.773	20568
804.915	20530
805.057	20511
805.199	20522
805.341	20511
805.483	20590
805.626	20731
805.768	20488
805.91	20533
806.052	20579
806.194	20431
806.336	20670
806.478	20427
806.62	20492
806.762	20674
806.904	20842
807.046	20948
807.188	20743
807.33	20876
807.472	20956
807.614	20743
807.756	20663
807.898	20636
808.04	20579
808.182	20629
808.324	20530
808.465	20571
808.607	20792
808.749	20925
808.891	21005
809.033	21032
809.174	20967
809.316	20861
809.458	20921
809.6	20842
809.741	21096
809.883	20944
810.025	20998
810.166	20994
810.308	21051
810.45	20956
810.591	20823
810.733	20678
810.875	20640
811.016	20632
811.158	20488
811.299	20667
811.441	20739
811.582	20659
811.724	20651
811.865	20549
812.007	20735
812.148	20651
812.29	20606
812.431	20849
812.573	20906
812.714	20960
812.855	21089
812.997	21157
813.138	21302
813.279	21287
813.421	21051
813.562	21043
813.703	20845
813.845	20857
813.986	20457
814.127	20320
814.268	20267
814.41	20191
814.551	20180
814.692	20343
814.833	20092
814.974	20027
815.115	20206
815.256	19997
815.397	20046
815.539	20077
815.68	19955
815.821	19772
815.962	19898
816.103	19799
816.244	19635
816.385	19616
816.526	19537
816.666	19434
816.807	19350
816.948	19396
817.089	19529
817.23	19377
817.371	19339
817.512	19282
817.653	19274
817.793	19270
817.934	19266
818.075	19213
818.216	19244
818.356	19198
818.497	19038
818.638	18894
818.778	19046
818.919	19084
819.06	19095
819.2	19099
819.341	19171
819.481	19164
819.622	19312
819.762	19506
819.903	19441
820.043	19377
820.184	19274
820.324	19247
820.465	19422
820.605	19358
820.746	19293
820.886	19072
821.026	19304
821.167	19110
821.307	19213
821.447	19247
821.588	19152
821.728	18958
821.868	18715
822.008	18745
822.149	18745
822.289	18639
822.429	18471
822.569	18414
822.709	18361
822.849	18232
822.99	18190
823.13	18213
823.27	18277
823.41	17980
823.55	17935
823.69	17996
823.83	18095
823.97	18038
824.11	17851
824.25	17726
824.389	17684
824.529	17783
824.669	17741
824.809	17790
824.949	17760
825.089	17870
825.228	17836
825.368	17570
825.508	17505
825.648	17535
825.787	17630
825.927	17619
826.067	17600
826.206	17467
826.346	17516
826.485	17551
826.625	17547
826.765	17596
826.904	17551
827.044	17398
827.183	17273
827.323	17265
827.462	17204
827.601	17208
827.741	17132
827.88	17220
828.02	17132
828.159	17242
828.298	17273
828.437	17254
828.577	17159
828.716	17421
828.855	17178
828.994	17067
829.134	16980
829.273	17071
829.412	17033
829.551	16927
829.69	17094
829.829	17117
829.968	17113
830.107	16976
830.246	16987
830.385	16957
830.524	16980
830.663	16850
830.802	16729
830.941	16721
831.08	16645
831.219	16748
831.357	16733
831.496	16900
831.635	16664
831.774	16523
831.913	16634
832.051	16402
832.19	16474
832.329	16535
832.467	16303
832.606	16371
832.744	16329
832.883	16287
833.022	16337
833.16	16253
833.299	16341
833.437	16386
833.576	16295
833.714	16402
833.852	16318
833.991	16516
834.129	16485
834.267	16451
834.406	16428
834.544	16413
834.682	16337
834.821	16333
834.959	16691
835.097	16462
835.235	16409
835.373	16440
835.511	16394
835.65	16356
835.788	16367
835.926	16116
836.064	16093
836.202	16169
836.34	16344
836.478	16344
836.615	16314
836.753	16325
836.891	16333
837.029	16257
837.167	16287
837.305	16207
837.443	16215
837.58	16249
837.718	16093
837.856	16276
837.993	16207
838.131	16196
838.269	16143
838.406	16082
838.544	15987
838.681	15800
838.819	15827
838.956	15603
839.094	15739
839.231	15766
839.369	15846
839.506	16131
839.643	15956
839.781	15717
839.918	15663
840.055	15728
840.193	15736
840.33	15656
840.467	15774
840.604	15812
840.742	15895
840.879	15568
841.016	15633
841.153	15618
841.29	15831
841.427	15656
841.564	15808
841.701	15701
841.838	15720
841.975	15557
842.112	15663
842.249	15557
842.385	15561
842.522	15739
842.659	15530
842.796	15416
842.933	15644
843.069	15519
843.206	15496
843.343	15584
843.479	15511
843.616	15477
843.752	15359
843.889	15306
844.025	15416
844.162	15291
844.298	15393
844.435	15310
844.571	15142
844.708	15389
844.844	15408
844.98	15367
845.117	15477
845.253	15233
845.389	15123
845.525	15176
845.661	15241
845.798	15077
845.934	15165
846.07	15112
846.206	15249
846.342	15214
846.478	15043
846.614	14918
846.75	14868
846.886	14785
847.022	15036
847.158	14880
847.294	14838
847.429	14864
847.565	14891
847.701	15024
847.837	14689
847.972	14632
848.108	14712
848.244	14632
848.379	14522
848.515	14381
848.65	14374
848.786	14511
848.921	14522
849.057	14568
849.192	14617
849.328	14476
849.463	14556
849.598	14427
849.734	14423
849.869	14298
850.004	14286
850.14	14309
850.275	14225
850.41	14107
850.545	14278
850.68	14191
850.815	14339
850.95	14267
851.085	14423
851.22	14355
851.355	14233
851.49	14252
851.625	14183
851.76	14275
851.895	14164
852.03	14062
852.165	14229
852.299	14176
852.434	14343
852.569	14267
852.703	14313
852.838	14377
852.973	14396
853.107	14469
853.242	14202
853.376	14103
853.511	14012
853.645	14142
853.78	14229
853.914	14157
854.048	13997
854.183	14115
854.317	14134
854.451	14267
854.585	14195
854.72	14046
854.854	14149
854.988	13925
855.122	14043
855.256	13982
855.39	14138
855.524	14199
855.658	14195
855.792	14130
855.926	14103
856.06	14195
856.194	14164
856.327	14046
856.461	14111
856.595	14031
856.729	14115
856.862	14225
856.996	14172
857.13	14183
857.263	14233
857.397	14145
857.53	14123
857.664	14153
857.797	14103
857.931	14256
858.064	14126
858.197	14256
858.331	14149
858.464	14008
858.597	14035
858.731	14027
858.864	14046
858.997	14081
859.13	14221
859.263	14210
859.396	14259
859.529	14164
859.662	14054
859.795	14043
859.928	14031
860.061	14221
860.194	14218
860.327	14221
860.46	14172
860.592	14172
860.725	14240
860.858	14244
860.99	14157
861.123	13944
861.256	14031
861.388	14115
861.521	14826
861.653	14024
861.786	14043
861.918	13925
862.05	14020
862.183	14107
862.315	14176
862.447	14161
862.58	14126
862.712	13890
862.844	13898
862.976	13932
863.108	13978
863.24	14332
863.372	13856
863.504	13925
863.636	13822
863.768	13944
863.9	13822
864.032	13898
864.164	13788
864.296	13909
864.428	13993
864.559	14027
864.691	14024
864.823	13826
864.954	13902
865.086	14020
865.217	14001
865.349	13780
865.48	13883
865.612	13902
865.743	14062
865.875	13890
866.006	13826
866.137	13822
866.269	13860
866.4	13788
866.531	13883
866.662	13795
866.793	13906
866.924	13875
867.055	13951
867.186	13963
867.317	13864
867.448	13769
867.579	13860
867.71	13788
867.841	13799
867.972	13822
868.103	13928
868.233	13917
868.364	13898
868.495	13967
868.625	14119
868.756	14119
868.886	14020
869.017	14069
869.147	14278
869.278	14244
869.408	14214
869.539	14199
869.669	14161
869.799	14221
869.929	14298
870.06	14210
870.19	14556
870.32	14396
870.45	14526
870.58	14549
870.71	14686
870.84	14571
870.97	14545
871.1	14438
871.23	14708
871.36	14735
871.489	14629
871.619	14678
871.749	14731
871.879	14765
872.008	14823
872.138	14750
872.267	14765
872.397	14594
872.526	14556
872.656	14492
872.785	14530
872.915	14701
873.044	14857
873.173	14819
873.303	14758
873.432	14792
873.561	14853
873.69	14807
873.819	14880
873.948	14902
874.077	14815
874.206	14796
874.335	14861
874.464	14872
874.593	15028
874.722	15058
874.851	15058
874.979	15199
875.108	15081
875.237	15135
875.365	14994
875.494	15093
875.623	15176
875.751	15009
875.88	15188
876.008	15321
876.136	15382
876.265	15584
876.393	15641
876.521	15564
876.65	15606
876.778	15568
876.906	15538
877.034	15370
877.162	15500
877.29	15469
877.418	15599
877.546	15523
877.674	15572
877.802	15500
877.93	15454
878.058	15450
878.185	15348
878.313	15481
878.441	15469
878.568	15317
878.696	15492
878.824	15507
878.951	15667
879.079	15739
879.206	15816
879.333	15724
879.461	15530
879.588	15557
879.715	15705
879.842	15682
879.97	15591
880.097	15393
880.224	15389
880.351	15363
880.478	15496
880.605	15374
880.732	15344
880.859	15572
880.986	15408
881.112	15397
881.239	15317
881.366	15165
881.493	15173
881.619	14994
881.746	15001
881.872	15100
881.999	14967
882.125	14967
882.252	15089
882.378	15062
882.505	15093
882.631	15058
882.757	14826
882.883	14842
883.01	14762
883.136	14777
883.262	14693
883.388	14754
883.514	14876
883.64	14902
883.766	14868
883.892	14754
884.018	14689
884.143	14861
884.269	14960
884.395	14655
884.52	14571
884.646	14571
884.772	14507
884.897	14522
885.023	14503
885.148	14689
885.274	14590
885.399	14746
885.524	14606
885.65	14545
885.775	14556
885.9	14651
886.025	14655
886.15	14617
886.275	14629
886.4	14454
886.525	14511
886.65	14526
886.775	14499
886.9	14712
887.025	14792
887.149	14598
887.274	14465
887.399	14313
887.523	14309
887.648	14298
887.773	14252
887.897	14446
888.021	14438
888.146	14408
888.27	14499
888.395	14564
888.519	14492
888.643	14431
888.767	14461
888.891	14309
889.015	14237
889.139	14336
889.263	14244
889.387	14351
889.511	14438
889.635	14336
889.759	14237
889.883	14237
890.006	14267
890.13	14252
890.254	14180
890.377	14176
890.501	14054
890.624	14065
890.748	14123
890.871	14065
890.995	14035
891.118	13852
891.241	13944
891.364	14012
891.488	14065
891.611	13970
891.734	13921
891.857	13986
891.98	13993
892.103	14016
892.226	14035
892.349	13898
892.471	13849
892.594	13944
892.717	14016
892.839	13856
892.962	13997
893.085	14005
893.207	13913
893.33	13906
893.452	13921
893.575	14016
893.697	13894
893.819	14142
893.941	14195
894.064	14077
894.186	13978
894.308	13974
894.43	14088
894.552	14168
894.674	14119
894.796	13993
894.918	14077
895.04	14100
895.161	14065
895.283	14103
895.405	14043
895.526	13986
895.648	14035
895.769	14081
895.891	14138
896.012	14206
896.134	14157
896.255	14202
896.376	14126
896.498	14168
896.619	14191
896.74	14130
896.861	14214
896.982	14488
897.103	14701
897.224	14408
897.345	14393
897.466	14347
897.587	14438
897.708	14480
897.828	14533
897.949	14336
898.07	14267
898.19	14355
898.311	14503
898.431	14351
898.552	14602
898.672	14571
898.792	14602
898.913	14587
899.033	14423
899.153	14370
899.273	14267
899.393	14282
899.513	14400
899.633	14278
899.753	14408
899.873	14366
899.993	14438
900.113	14332
900.232	14358
900.352	14275
900.472	14142
900.591	14103
900.711	14153
900.83	14115
900.95	14317
901.069	14282
901.189	14172
901.308	13871
901.427	13925
901.546	13860
901.665	13814
901.784	13875
901.904	13746
902.023	13685
902.141	13537
902.26	13426
902.379	13601
902.498	13422
902.617	13312
902.735	13453
902.854	13472
902.973	13472
903.091	13194
903.21	13183
903.328	13194
903.446	13149
903.565	13076
903.683	13057
903.801	12871
903.919	12970
904.038	12932
904.156	12859
904.274	12882
904.392	12829
904.51	12863
904.627	12757
904.745	12802
904.863	12924
904.981	12627
905.098	12494
905.216	12585
905.334	12544
905.451	12521
905.569	12525
905.686	12509
905.803	12517
905.921	12327
906.038	12407
906.155	12327
906.272	12254
906.389	12300
906.506	12182
906.623	12095
906.74	12072
906.857	12053
906.974	12087
907.091	12201
907.208	12247
907.324	12186
907.441	12102
907.557	11904
907.674	11999
907.79	11893
907.907	11836
908.023	11840
908.139	11927
908.256	11813
908.372	11847
908.488	11718
908.604	11676
908.72	11676
908.836	11665
908.952	11657
909.068	11630
909.184	11771
909.3	11642
909.415	11688
909.531	11653
909.647	11387
909.762	11421
909.878	11398
909.993	11425
910.108	11353
910.224	11387
910.339	11452
910.454	11334
910.57	11311
910.685	11178
910.8	11532
910.915	11455
911.03	11284
911.145	11151
911.259	11109
911.374	11090
911.489	11071
911.604	11010
911.718	10858
911.833	10953
911.947	10748
912.062	10767
912.176	10858
912.291	10858
912.405	10866
912.519	11018
912.633	11109
912.748	10927
912.862	10877
912.976	10721
913.09	10645
913.204	10683
913.318	10790
913.431	10904
913.545	10835
913.659	10885
913.772	10805
913.886	10710
914	10596
914.113	10710
914.226	10687
914.34	10748
914.453	10580
914.566	10786
914.68	10603
914.793	10622
914.906	10398
915.019	10360
915.132	10303
915.245	10367
915.358	10371
915.47	10375
915.583	10348
915.696	10466
915.809	10573
915.921	10561
916.034	10409
916.146	10379
916.259	10348
916.371	10409
916.483	10432
916.595	10268
916.708	10386
916.82	10352
916.932	10382
917.044	10246
917.156	10367
917.268	10143
917.38	10306
917.491	10257
917.603	10185
917.715	10329
917.826	10352
917.938	10147
918.049	10097
918.161	10173
918.272	10440
918.384	10447
918.495	10257
918.606	10158
918.717	9987
918.828	10143
918.939	10143
919.05	10036
919.161	10063
919.272	9865
919.383	9964
919.494	10196
919.604	10280
919.715	10059
919.826	10090
919.936	10135
920.047	10124
920.157	10154
920.267	10310
920.378	10173
920.488	10051
920.598	10390
920.708	10455
920.818	10341
920.928	10314
921.038	10459
921.148	10485
921.258	10204
921.368	10067
921.477	9979
921.587	9975
921.697	9846
921.806	10013
921.916	9911
922.025	9728
922.134	9644
922.244	9523
922.353	9705
922.462	9507
922.571	9526
922.68	9435
922.789	9287
922.898	9447
923.007	9370
923.116	9408
923.224	9397
923.333	9355
923.442	9283
923.55	9245
923.659	9306
923.767	9424
923.876	9207
923.984	9325
924.092	9203
924.201	9317
924.309	9249
924.417	9260
924.525	9214
924.633	9260
924.741	10158
924.849	9051
924.956	9207
925.064	9032
925.172	8967
925.279	8941
925.387	9028
925.494	9138
925.602	9169
925.709	9169
925.816	9039
925.924	9024
926.031	9165
926.138	9043
926.245	9039
926.352	8933
926.459	9116
926.566	9123
926.673	9013
926.779	8967
926.886	8956
926.993	8762
927.099	8746
927.206	8697
927.312	8773
927.419	8796
927.525	8758
927.631	8788
927.737	8708
927.843	8724
927.95	8594
928.056	8689
928.162	8682
928.267	8712
928.373	9283
928.479	8811
928.585	8454
928.69	8579
928.796	8750
928.901	8533
929.007	8419
929.112	8575
929.218	8518
929.323	8484
929.428	8476
929.533	8530
929.638	8389
929.743	8461
929.848	8450
929.953	8465
930.058	8374
930.163	8279
930.267	8233
930.372	8431
930.477	8180
930.581	8434
930.685	8339
930.79	8123
930.894	8248
930.998	8183
931.103	8305
931.207	8001
931.311	7944
931.415	7856
931.519	7651
931.623	7719
