Data from test_V78500241_3399.txt Node
Date: Fri Mar 25 14:57:22 CST 2022
User: usil
Spectrometer: V785-0024
Trigger mode: 0
Integration Time (sec): 4.000000E-1
Scans to average: 1
Nonlinearity correction enabled: false
Boxcar width: 0
Storing dark spectrum: false
XAxis mode: Wavelengths
Number of Pixels in Spectrum: 1024
>>>>>Begin Spectral Data<<<<<
801.071	21819
801.214	21800
801.356	21458
801.499	21488
801.641	21374
801.783	21332
801.926	21370
802.068	21249
802.211	21070
802.353	21096
802.496	20925
802.638	20781
802.78	20720
802.923	20697
803.065	20495
803.208	20590
803.35	20533
803.492	20811
803.635	20651
803.777	20720
803.919	20739
804.061	20975
804.204	20697
804.346	20617
804.488	20476
804.63	20655
804.773	20461
804.915	20594
805.057	20499
805.199	20499
805.341	20545
805.483	20632
805.626	20602
805.768	20473
805.91	20590
806.052	20579
806.194	20446
806.336	20632
806.478	20465
806.62	20400
806.762	20537
806.904	20754
807.046	20921
807.188	20739
807.33	20906
807.472	20864
807.614	20678
807.756	20781
807.898	20629
808.04	20476
808.182	20537
808.324	20564
808.465	20511
808.607	20716
808.749	20762
808.891	20990
809.033	21081
809.174	20902
809.316	20750
809.458	20838
809.6	20823
809.741	20823
809.883	20826
810.025	21104
810.166	20941
810.308	20941
810.45	20853
810.591	20952
810.733	20781
810.875	20777
811.016	20518
811.158	20434
811.299	20750
811.441	20769
811.582	20807
811.724	20640
811.865	20518
812.007	20488
812.148	20655
812.29	20613
812.431	20746
812.573	20838
812.714	20960
812.855	21123
812.997	21298
813.138	21298
813.279	21249
813.421	21119
813.562	20956
813.703	20861
813.845	20811
813.986	20590
814.127	20282
814.268	20267
814.41	20153
814.551	20294
814.692	20259
814.833	20012
814.974	20126
815.115	20157
815.256	20069
815.397	20024
815.539	19917
815.68	19928
815.821	19822
815.962	19887
816.103	19776
816.244	19784
816.385	19518
816.526	19567
816.666	19396
816.807	19240
816.948	19422
817.089	19244
817.23	19518
817.371	19266
817.512	19293
817.653	19289
817.793	19232
817.934	19244
818.075	19339
818.216	19354
818.356	19362
818.497	19027
818.638	18993
818.778	19019
818.919	19061
819.06	19069
819.2	19057
819.341	19236
819.481	19179
819.622	19312
819.762	19464
819.903	19400
820.043	19339
820.184	19255
820.324	19187
820.465	19324
820.605	19339
820.746	19187
820.886	19217
821.026	19247
821.167	19175
821.307	19331
821.447	19103
821.588	19084
821.728	18993
821.868	18886
822.008	18757
822.149	18646
822.289	18684
822.429	18483
822.569	18292
822.709	18384
822.849	18330
822.99	18148
823.13	18174
823.27	18015
823.41	17942
823.55	17973
823.69	18068
823.83	18087
823.97	17946
824.11	17714
824.25	17813
824.389	17703
824.529	17847
824.669	17699
824.809	17775
824.949	17866
825.089	17821
825.228	17756
825.368	17539
825.508	17543
825.648	17497
825.787	17493
825.927	17448
826.067	17528
826.206	17467
826.346	17596
826.485	17528
826.625	17581
826.765	17676
826.904	17471
827.044	17261
827.183	17383
827.323	17223
827.462	17254
827.601	17311
827.741	17212
827.88	17124
828.02	17094
828.159	17231
828.298	17193
828.437	17273
828.577	17162
828.716	17353
828.855	17121
828.994	16934
829.134	17052
829.273	17075
829.412	16942
829.551	17014
829.69	17014
829.829	16938
829.968	17098
830.107	17079
830.246	17098
830.385	16919
830.524	16869
830.663	16892
830.802	16736
830.941	16630
831.08	16565
831.219	16637
831.357	16740
831.496	16778
831.635	16679
831.774	16577
831.913	16493
832.051	16500
832.19	16443
832.329	16421
832.467	16417
832.606	16284
832.744	16226
832.883	16249
833.022	16230
833.16	16314
833.299	16284
833.437	16314
833.576	16443
833.714	16306
833.852	16394
833.991	16356
834.129	16500
834.267	16451
834.406	16394
834.544	16466
834.682	16390
834.821	16303
834.959	16630
835.097	16310
835.235	16382
835.373	16459
835.511	16455
835.65	16325
835.788	16143
835.926	16154
836.064	16074
836.202	16074
836.34	16314
836.478	16337
836.615	16192
836.753	16325
836.891	16443
837.029	16352
837.167	16112
837.305	16211
837.443	16268
837.58	16154
837.718	16325
837.856	16150
837.993	16131
838.131	16173
838.269	16086
838.406	16082
838.544	16032
838.681	15842
838.819	15842
838.956	15656
839.094	15736
839.231	15808
839.369	15930
839.506	16128
839.643	15998
839.781	15759
839.918	15774
840.055	15694
840.193	15686
840.33	15663
840.467	15778
840.604	15759
840.742	15956
840.879	15572
841.016	15652
841.153	15561
841.29	15884
841.427	15728
841.564	15762
841.701	15842
841.838	15701
841.975	15675
842.112	15675
842.249	15564
842.385	15572
842.522	15679
842.659	15500
842.796	15511
842.933	15526
843.069	15416
843.206	15504
843.343	15622
843.479	15538
843.616	15458
843.752	15306
843.889	15310
844.025	15466
844.162	15249
844.298	15401
844.435	15306
844.571	15310
844.708	15298
844.844	15477
844.98	15492
845.117	15450
845.253	15298
845.389	15188
845.525	15237
845.661	15157
845.798	15062
845.934	15108
846.07	15039
846.206	15127
846.342	15199
846.478	15127
846.614	14925
846.75	14773
846.886	14823
847.022	14929
847.158	14895
847.294	14960
847.429	14842
847.565	14769
847.701	15077
847.837	14720
847.972	14625
848.108	14727
848.244	14743
848.379	14499
848.515	14518
848.65	14442
848.786	14461
848.921	14355
849.057	14492
849.192	14682
849.328	14492
849.463	14454
849.598	14400
849.734	14446
849.869	14377
850.004	14221
850.14	14358
850.275	14305
850.41	14195
850.545	14282
850.68	14240
850.815	14202
850.95	14267
851.085	14450
851.22	14286
851.355	14278
851.49	14149
851.625	14210
851.76	14195
851.895	14180
852.03	14161
852.165	14164
852.299	14206
852.434	14271
852.569	14267
852.703	14229
852.838	14332
852.973	14389
853.107	14366
853.242	14149
853.376	14092
853.511	14005
853.645	14088
853.78	14187
853.914	14168
854.048	14100
854.183	14096
854.317	14069
854.451	14355
854.585	14111
854.72	14126
854.854	14161
854.988	14092
855.122	14123
855.256	13959
855.39	14092
855.524	14221
855.658	14202
855.792	14096
855.926	14172
856.06	14195
856.194	14195
856.327	14130
856.461	14103
856.595	14062
856.729	14107
856.862	14191
856.996	14153
857.13	14153
857.263	14240
857.397	14157
857.53	14164
857.664	14202
857.797	14214
857.931	14145
858.064	14161
858.197	14183
858.331	14069
858.464	14043
858.597	13997
858.731	14153
858.864	14172
858.997	14195
859.13	14130
859.263	14111
859.396	14187
859.529	14062
859.662	14134
859.795	14107
859.928	14088
860.061	14252
860.194	14347
860.327	14210
860.46	14123
860.592	14176
860.725	14332
860.858	14187
860.99	14050
861.123	14035
861.256	14016
861.388	14073
861.521	14899
861.653	13997
861.786	13913
861.918	13963
862.05	14043
862.183	14096
862.315	14081
862.447	14145
862.58	14111
862.712	13921
862.844	13890
862.976	13944
863.108	13993
863.24	14431
863.372	13894
863.504	13917
863.636	13837
863.768	14024
863.9	13864
864.032	13890
864.164	13849
864.296	13944
864.428	14035
864.559	13951
864.691	13944
864.823	14024
864.954	13982
865.086	13993
865.217	13818
865.349	13894
865.48	13841
865.612	13826
865.743	14123
865.875	13868
866.006	13807
866.137	13814
866.269	13928
866.4	13906
866.531	13765
866.662	13772
866.793	13845
866.924	13837
867.055	13928
867.186	13852
867.317	13932
867.448	13708
867.579	13871
867.71	13868
867.841	13822
867.972	13875
868.103	13818
868.233	13909
868.364	13856
868.495	13913
868.625	14130
868.756	14218
868.886	14111
869.017	14111
869.147	14123
869.278	14267
869.408	14191
869.539	14069
869.669	14278
869.799	14191
869.929	14305
870.06	14259
870.19	14442
870.32	14495
870.45	14484
870.58	14507
870.71	14613
870.84	14617
870.97	14488
871.1	14533
871.23	14594
871.36	14689
871.489	14575
871.619	14682
871.749	14727
871.879	14743
872.008	14788
872.138	14697
872.267	14697
872.397	14564
872.526	14594
872.656	14571
872.785	14670
872.915	14758
873.044	14804
873.173	14754
873.303	14868
873.432	14895
873.561	14834
873.69	14716
873.819	14785
873.948	14906
874.077	14876
874.206	14792
874.335	14815
874.464	14777
874.593	15066
874.722	15058
874.851	15112
874.979	15116
875.108	15070
875.237	15005
875.365	15043
875.494	15142
875.623	15195
875.751	15062
875.88	15097
876.008	15329
876.136	15241
876.265	15515
876.393	15709
876.521	15568
876.65	15542
876.778	15511
876.906	15534
877.034	15473
877.162	15530
877.29	15370
877.418	15568
877.546	15568
877.674	15576
877.802	15526
877.93	15580
878.058	15492
878.185	15439
878.313	15603
878.441	15515
878.568	15329
878.696	15458
878.824	15584
878.951	15534
879.079	15701
879.206	15785
879.333	15755
879.461	15572
879.588	15568
879.715	15713
879.842	15835
879.97	15618
880.097	15393
880.224	15329
880.351	15348
880.478	15450
880.605	15348
880.732	15317
880.859	15584
880.986	15275
881.112	15332
881.239	15226
881.366	15123
881.493	15077
881.619	15024
881.746	15058
881.872	14998
881.999	14994
882.125	14941
882.252	15058
882.378	15116
882.505	15043
882.631	14937
882.757	14823
882.883	14971
883.01	14727
883.136	14815
883.262	14743
883.388	14773
883.514	14781
883.64	14929
883.766	14804
883.892	14625
884.018	14564
884.143	14876
884.269	14994
884.395	14640
884.52	14461
884.646	14503
884.772	14495
884.897	14461
885.023	14648
885.148	14621
885.274	14693
885.399	14636
885.524	14625
885.65	14530
885.775	14579
885.9	14579
886.025	14636
886.15	14613
886.275	14545
886.4	14415
886.525	14499
886.65	14473
886.775	14503
886.9	14689
887.025	14807
887.149	14579
887.274	14484
887.399	14324
887.523	14370
887.648	14317
887.773	14271
887.897	14446
888.021	14438
888.146	14362
888.27	14473
888.395	14480
888.519	14476
888.643	14408
888.767	14495
888.891	14271
889.015	14309
889.139	14263
889.263	14202
889.387	14415
889.511	14431
889.635	14385
889.759	14240
889.883	14263
890.006	14244
890.13	14427
890.254	14286
890.377	14172
890.501	14088
890.624	14012
890.748	14130
890.871	14031
890.995	13921
891.118	13894
891.241	14027
891.364	14024
891.488	14058
891.611	13997
891.734	13978
891.857	14008
891.98	13993
892.103	13936
892.226	14020
892.349	13917
892.471	13826
892.594	13963
892.717	14039
892.839	13879
892.962	13909
893.085	14088
893.207	14024
893.33	13890
893.452	14020
893.575	14027
893.697	13951
893.819	14145
893.941	14145
894.064	14202
894.186	13883
894.308	13921
894.43	14046
894.552	14187
894.674	14065
894.796	13974
894.918	14065
895.04	14005
895.161	14069
895.283	14119
895.405	13959
895.526	14073
895.648	14134
895.769	14138
895.891	14100
896.012	14191
896.134	14046
896.255	14164
896.376	14161
896.498	14187
896.619	14187
896.74	14084
896.861	14210
896.982	14473
897.103	14594
897.224	14454
897.345	14355
897.466	14256
897.587	14419
897.708	14556
897.828	14400
897.949	14320
898.07	14252
898.19	14442
898.311	14610
898.431	14415
898.552	14476
898.672	14499
898.792	14583
898.913	14476
899.033	14457
899.153	14454
899.273	14305
899.393	14324
899.513	14362
899.633	14446
899.753	14366
899.873	14351
899.993	14336
900.113	14305
900.232	14393
900.352	14351
900.472	14339
900.591	14199
900.711	14248
900.83	14172
900.95	14282
901.069	14370
901.189	14100
901.308	13913
901.427	13750
901.546	13887
901.665	13856
901.784	13875
901.904	13738
902.023	13624
902.141	13529
902.26	13502
902.379	13495
902.498	13430
902.617	13365
902.735	13468
902.854	13392
902.973	13384
903.091	13221
903.21	13198
903.328	13187
903.446	13198
903.565	12993
903.683	13057
903.801	12867
903.919	13023
904.038	12920
904.156	12844
904.274	12814
904.392	12798
904.51	12760
904.627	12779
904.745	12909
904.863	12875
904.981	12745
905.098	12536
905.216	12589
905.334	12570
905.451	12555
905.569	12407
905.686	12509
905.803	12544
905.921	12361
906.038	12422
906.155	12365
906.272	12224
906.389	12239
906.506	12121
906.623	12171
906.74	12194
906.857	12045
906.974	12079
907.091	12022
907.208	12216
907.324	12201
907.441	12057
907.557	11942
907.674	11828
907.79	11916
907.907	11771
908.023	11931
908.139	11859
908.256	11805
908.372	11859
908.488	11802
908.604	11741
908.72	11638
908.836	11707
908.952	11573
909.068	11619
909.184	11726
909.3	11695
909.415	11642
909.531	11680
909.647	11402
909.762	11391
909.878	11444
909.993	11433
910.108	11395
910.224	11433
910.339	11379
910.454	11395
910.57	11280
910.685	11166
910.8	11497
910.915	11436
911.03	11315
911.145	11083
911.259	11098
911.374	11166
911.489	11041
911.604	11045
911.718	11025
911.833	10858
911.947	10809
912.062	10672
912.176	10862
912.291	10904
912.405	10866
912.519	11010
912.633	11075
912.748	11048
912.862	10858
912.976	10698
913.09	10649
913.204	10710
913.318	10816
913.431	10843
913.545	10820
913.659	10896
913.772	10733
913.886	10649
914	10653
914.113	10721
914.226	10809
914.34	10717
914.453	10538
914.566	10683
914.68	10573
914.793	10630
914.906	10424
915.019	10329
915.132	10276
915.245	10284
915.358	10413
915.47	10402
915.583	10436
915.696	10390
915.809	10527
915.921	10516
916.034	10367
916.146	10348
916.259	10363
916.371	10462
916.483	10417
916.595	10265
916.708	10265
916.82	10352
916.932	10295
917.044	10310
917.156	10306
917.268	10223
917.38	10253
917.491	10215
917.603	10246
917.715	10337
917.826	10341
917.938	10166
918.049	10124
918.161	10299
918.272	10314
918.384	10356
918.495	10219
918.606	10128
918.717	10029
918.828	10204
918.939	10120
919.05	10055
919.161	10093
919.272	9937
919.383	10025
919.494	10120
919.604	10314
919.715	10166
919.826	10124
919.936	10082
920.047	10219
920.157	10109
920.267	10360
920.378	10272
920.488	10021
920.598	10367
920.708	10481
920.818	10314
920.928	10310
921.038	10504
921.148	10421
921.258	10048
921.368	10090
921.477	10021
921.587	9926
921.697	9869
921.806	9930
921.916	9850
922.025	9789
922.134	9686
922.244	9625
922.353	9690
922.462	9595
922.571	9580
922.68	9325
922.789	9340
922.898	9351
923.007	9344
923.116	9367
923.224	9401
923.333	9260
923.442	9321
923.55	9249
923.659	9256
923.767	9367
923.876	9230
923.984	9317
924.092	9230
924.201	9241
924.309	9203
924.417	9264
924.525	9093
924.633	9230
924.741	10078
924.849	8975
924.956	9127
925.064	9005
925.172	8967
925.279	9036
925.387	9032
925.494	8971
925.602	9138
925.709	9032
925.816	9028
925.924	9043
926.031	9097
926.138	9028
926.245	9150
926.352	8941
926.459	9161
926.566	9142
926.673	9005
926.779	8838
926.886	8857
926.993	8777
927.099	8701
927.206	8746
927.312	8746
927.419	8819
927.525	8754
927.631	8834
927.737	8670
927.843	8678
927.95	8514
928.056	8621
928.162	8712
928.267	8758
928.373	9363
928.479	8800
928.585	8488
928.69	8606
928.796	8708
928.901	8579
929.007	8419
929.112	8621
929.218	8552
929.323	8457
929.428	8568
929.533	8552
929.638	8427
929.743	8431
929.848	8522
929.953	8503
930.058	8404
930.163	8206
930.267	8218
930.372	8442
930.477	8183
930.581	8446
930.685	8282
930.79	8134
930.894	8229
930.998	8176
931.103	8294
931.207	7997
931.311	7970
931.415	7807
931.519	7620
931.623	7674
