Data from test_V78500241_3389.txt Node
Date: Fri Mar 25 14:57:18 CST 2022
User: usil
Spectrometer: V785-0024
Trigger mode: 0
Integration Time (sec): 4.000000E-1
Scans to average: 1
Nonlinearity correction enabled: false
Boxcar width: 0
Storing dark spectrum: false
XAxis mode: Wavelengths
Number of Pixels in Spectrum: 1024
>>>>>Begin Spectral Data<<<<<
801.071	21922
801.214	21922
801.356	21610
801.499	21599
801.641	21310
801.783	21313
801.926	21462
802.068	21321
802.211	21165
802.353	21142
802.496	20929
802.638	20815
802.78	20845
802.923	20712
803.065	20533
803.208	20678
803.35	20606
803.492	20762
803.635	20845
803.777	20735
803.919	20731
804.061	21024
804.204	20678
804.346	20587
804.488	20473
804.63	20617
804.773	20514
804.915	20400
805.057	20750
805.199	20412
805.341	20632
805.483	20724
805.626	20503
805.768	20518
805.91	20579
806.052	20727
806.194	20419
806.336	20678
806.478	20522
806.62	20549
806.762	20537
806.904	20804
807.046	20941
807.188	20902
807.33	20948
807.472	20921
807.614	20788
807.756	20739
807.898	20541
808.04	20533
808.182	20518
808.324	20648
808.465	20602
808.607	20857
808.749	20804
808.891	20986
809.033	20990
809.174	20861
809.316	20838
809.458	20849
809.6	20815
809.741	21009
809.883	20986
810.025	20963
810.166	20963
810.308	21005
810.45	21036
810.591	20842
810.733	20849
810.875	20785
811.016	20568
811.158	20606
811.299	20663
811.441	20800
811.582	20712
811.724	20693
811.865	20667
812.007	20629
812.148	20644
812.29	20659
812.431	20781
812.573	20864
812.714	21024
812.855	21020
812.997	21188
813.138	21283
813.279	21363
813.421	21214
813.562	21104
813.703	20891
813.845	20796
813.986	20564
814.127	20355
814.268	20278
814.41	20275
814.551	20221
814.692	20168
814.833	20164
814.974	20202
815.115	20161
815.256	20031
815.397	19974
815.539	19982
815.68	19871
815.821	19917
815.962	19963
816.103	19913
816.244	19643
816.385	19639
816.526	19651
816.666	19518
816.807	19358
816.948	19525
817.089	19468
817.23	19293
817.371	19232
817.512	19339
817.653	19365
817.793	19293
817.934	19362
818.075	19289
818.216	19274
818.356	19255
818.497	19141
818.638	19008
818.778	19061
818.919	19012
819.06	19012
819.2	19122
819.341	19285
819.481	19175
819.622	19259
819.762	19594
819.903	19312
820.043	19422
820.184	19400
820.324	19312
820.465	19320
820.605	19331
820.746	19232
820.886	19164
821.026	19232
821.167	19259
821.307	19384
821.447	19270
821.588	19152
821.728	18981
821.868	18897
822.008	18650
822.149	18719
822.289	18711
822.429	18502
822.569	18429
822.709	18338
822.849	18251
822.99	18106
823.13	18174
823.27	18174
823.41	18019
823.55	17939
823.69	17973
823.83	18019
823.97	17942
824.11	17843
824.25	17684
824.389	17813
824.529	17775
824.669	17722
824.809	17935
824.949	17786
825.089	17851
825.228	17741
825.368	17516
825.508	17684
825.648	17493
825.787	17596
825.927	17528
826.067	17516
826.206	17482
826.346	17627
826.485	17577
826.625	17566
826.765	17691
826.904	17570
827.044	17410
827.183	17318
827.323	17178
827.462	17376
827.601	17239
827.741	17193
827.88	17395
828.02	17102
828.159	17299
828.298	17315
828.437	17402
828.577	17311
828.716	17296
828.855	17189
828.994	17014
829.134	17029
829.273	17060
829.412	16987
829.551	16968
829.69	17086
829.829	17060
829.968	17136
830.107	17037
830.246	17037
830.385	16984
830.524	16987
830.663	16763
830.802	16710
830.941	16710
831.08	16660
831.219	16603
831.357	16771
831.496	16869
831.635	16630
831.774	16634
831.913	16516
832.051	16451
832.19	16432
832.329	16459
832.467	16341
832.606	16238
832.744	16272
832.883	16249
833.022	16306
833.16	16261
833.299	16363
833.437	16470
833.576	16478
833.714	16314
833.852	16455
833.991	16409
834.129	16512
834.267	16500
834.406	16318
834.544	16405
834.682	16489
834.821	16402
834.959	16577
835.097	16352
835.235	16489
835.373	16409
835.511	16287
835.65	16219
835.788	16306
835.926	16150
836.064	16090
836.202	16139
836.34	16276
836.478	16443
836.615	16223
836.753	16352
836.891	16443
837.029	16337
837.167	16322
837.305	16291
837.443	16272
837.58	16143
837.718	16280
837.856	16253
837.993	16139
838.131	16276
838.269	16154
838.406	16048
838.544	16177
838.681	15854
838.819	15869
838.956	15724
839.094	15641
839.231	15732
839.369	16025
839.506	16150
839.643	15975
839.781	15781
839.918	15679
840.055	15755
840.193	15774
840.33	15835
840.467	15743
840.604	15694
840.742	16017
840.879	15629
841.016	15686
841.153	15622
841.29	15922
841.427	15713
841.564	15728
841.701	15827
841.838	15743
841.975	15743
842.112	15694
842.249	15599
842.385	15564
842.522	15663
842.659	15557
842.796	15603
842.933	15545
843.069	15633
843.206	15545
843.343	15603
843.479	15618
843.616	15633
843.752	15332
843.889	15176
844.025	15477
844.162	15378
844.298	15458
844.435	15382
844.571	15386
844.708	15370
844.844	15458
844.98	15492
845.117	15454
845.253	15321
845.389	15135
845.525	15252
845.661	15260
845.798	15138
845.934	15150
846.07	15100
846.206	15207
846.342	15169
846.478	15138
846.614	15051
846.75	14925
846.886	14921
847.022	14906
847.158	14876
847.294	14921
847.429	14857
847.565	14925
847.701	15207
847.837	14674
847.972	14689
848.108	14701
848.244	14743
848.379	14514
848.515	14526
848.65	14457
848.786	14533
848.921	14526
849.057	14571
849.192	14511
849.328	14629
849.463	14549
849.598	14457
849.734	14434
849.869	14419
850.004	14286
850.14	14244
850.275	14400
850.41	14305
850.545	14172
850.68	14229
850.815	14358
850.95	14191
851.085	14514
851.22	14400
851.355	14244
851.49	14313
851.625	14202
851.76	14218
851.895	14233
852.03	14153
852.165	14259
852.299	14275
852.434	14412
852.569	14358
852.703	14339
852.838	14362
852.973	14484
853.107	14336
853.242	14244
853.376	14218
853.511	14020
853.645	14134
853.78	14278
853.914	14180
854.048	14065
854.183	14153
854.317	14073
854.451	14286
854.585	14145
854.72	14153
854.854	14149
854.988	14024
855.122	14043
855.256	13947
855.39	14084
855.524	14126
855.658	14138
855.792	14092
855.926	14199
856.06	14046
856.194	14252
856.327	14199
856.461	14077
856.595	14119
856.729	14123
856.862	14233
856.996	14088
857.13	14256
857.263	14275
857.397	14252
857.53	14195
857.664	14259
857.797	14237
857.931	14313
858.064	14180
858.197	14256
858.331	14195
858.464	14005
858.597	14062
858.731	14176
858.864	14092
858.997	14069
859.13	14168
859.263	14233
859.396	14259
859.529	14119
859.662	14107
859.795	14073
859.928	14164
860.061	14275
860.194	14286
860.327	14157
860.46	14176
860.592	14256
860.725	14161
860.858	14317
860.99	14138
861.123	14058
861.256	14062
861.388	14221
861.521	14861
861.653	14039
861.786	13959
861.918	14027
862.05	14077
862.183	14115
862.315	14088
862.447	14233
862.58	14096
862.712	13951
862.844	13875
862.976	13963
863.108	13951
863.24	14317
863.372	13746
863.504	13879
863.636	13849
863.768	13913
863.9	13879
864.032	13909
864.164	13875
864.296	13944
864.428	14016
864.559	13890
864.691	13978
864.823	13936
864.954	13913
865.086	13890
865.217	13890
865.349	13921
865.48	13875
865.612	13845
865.743	13993
865.875	13890
866.006	13871
866.137	13871
866.269	13860
866.4	13906
866.531	13818
866.662	13890
866.793	13803
866.924	13909
867.055	13940
867.186	13913
867.317	13887
867.448	13799
867.579	13879
867.71	13803
867.841	13811
867.972	13951
868.103	13921
868.233	13917
868.364	13936
868.495	13913
868.625	14157
868.756	14244
868.886	14077
869.017	14149
869.147	14286
869.278	14225
869.408	14164
869.539	14164
869.669	14233
869.799	14191
869.929	14317
870.06	14286
870.19	14412
870.32	14450
870.45	14469
870.58	14552
870.71	14571
870.84	14556
870.97	14629
871.1	14583
871.23	14640
871.36	14804
871.489	14701
871.619	14758
871.749	14739
871.879	14845
872.008	14762
872.138	14765
872.267	14754
872.397	14636
872.526	14511
872.656	14602
872.785	14644
872.915	14781
873.044	14796
873.173	14868
873.303	14777
873.432	14838
873.561	14929
873.69	14750
873.819	14781
873.948	14842
874.077	14880
874.206	14727
874.335	14765
874.464	14986
874.593	15104
874.722	15047
874.851	15154
874.979	15093
875.108	15146
875.237	15104
875.365	15074
875.494	15070
875.623	15184
875.751	15074
875.88	15184
876.008	15340
876.136	15363
876.265	15561
876.393	15652
876.521	15660
876.65	15625
876.778	15534
876.906	15568
877.034	15477
877.162	15599
877.29	15515
877.418	15610
877.546	15492
877.674	15591
877.802	15504
877.93	15542
878.058	15534
878.185	15447
878.313	15523
878.441	15660
878.568	15401
878.696	15564
878.824	15637
878.951	15637
879.079	15717
879.206	15781
879.333	15755
879.461	15553
879.588	15679
879.715	15793
879.842	15907
879.97	15584
880.097	15405
880.224	15466
880.351	15408
880.478	15416
880.605	15374
880.732	15325
880.859	15561
880.986	15450
881.112	15424
881.239	15332
881.366	15150
881.493	15150
881.619	15047
881.746	15108
881.872	15085
881.999	14994
882.125	15001
882.252	15100
882.378	15093
882.505	15150
882.631	15047
882.757	14823
882.883	14834
883.01	14826
883.136	14872
883.262	14773
883.388	14629
883.514	14807
883.64	14952
883.766	14811
883.892	14663
884.018	14800
884.143	14838
884.269	14994
884.395	14674
884.52	14549
884.646	14537
884.772	14499
884.897	14488
885.023	14750
885.148	14693
885.274	14815
885.399	14701
885.524	14495
885.65	14587
885.775	14541
885.9	14644
886.025	14606
886.15	14682
886.275	14602
886.4	14419
886.525	14549
886.65	14446
886.775	14514
886.9	14648
887.025	14823
887.149	14598
887.274	14457
887.399	14404
887.523	14389
887.648	14393
887.773	14389
887.897	14469
888.021	14507
888.146	14442
888.27	14530
888.395	14579
888.519	14465
888.643	14514
888.767	14499
888.891	14233
889.015	14206
889.139	14199
889.263	14233
889.387	14332
889.511	14495
889.635	14385
889.759	14164
889.883	14305
890.006	14309
890.13	14366
890.254	14256
890.377	14237
890.501	14126
890.624	14054
890.748	14221
890.871	14039
890.995	13936
891.118	13871
891.241	14008
891.364	14043
891.488	14043
891.611	13947
891.734	13951
891.857	13928
891.98	13963
892.103	14062
892.226	13993
892.349	13989
892.471	13852
892.594	13989
892.717	13917
892.839	13959
892.962	14100
893.085	14001
893.207	13963
893.33	13970
893.452	13917
893.575	14016
893.697	13997
893.819	14084
893.941	14088
894.064	14134
894.186	13932
894.308	13902
894.43	14031
894.552	14119
894.674	14199
894.796	13978
894.918	14031
895.04	14039
895.161	14050
895.283	14221
895.405	13917
895.526	14024
895.648	14069
895.769	14103
895.891	14195
896.012	14199
896.134	14168
896.255	14168
896.376	14065
896.498	14187
896.619	14168
896.74	14233
896.861	14225
896.982	14514
897.103	14594
897.224	14488
897.345	14366
897.466	14415
897.587	14374
897.708	14522
897.828	14522
897.949	14389
898.07	14218
898.19	14461
898.311	14549
898.431	14457
898.552	14522
898.672	14560
898.792	14640
898.913	14514
899.033	14415
899.153	14309
899.273	14199
899.393	14332
899.513	14358
899.633	14362
899.753	14431
899.873	14305
899.993	14427
900.113	14320
900.232	14355
900.352	14438
900.472	14229
900.591	14301
900.711	14225
900.83	14138
900.95	14278
901.069	14309
901.189	14111
901.308	13928
901.427	13807
901.546	13947
901.665	13921
901.784	13940
901.904	13734
902.023	13658
902.141	13491
902.26	13373
902.379	13582
902.498	13441
902.617	13415
902.735	13453
902.854	13480
902.973	13407
903.091	13183
903.21	13129
903.328	13266
903.446	13137
903.565	13034
903.683	13072
903.801	12939
903.919	13053
904.038	13053
904.156	12913
904.274	12954
904.392	12791
904.51	12863
904.627	12894
904.745	12890
904.863	12848
904.981	12681
905.098	12540
905.216	12604
905.334	12616
905.451	12528
905.569	12551
905.686	12631
905.803	12585
905.921	12528
906.038	12422
906.155	12350
906.272	12251
906.389	12304
906.506	12262
906.623	12235
906.74	12076
906.857	12060
906.974	12030
907.091	12273
907.208	12262
907.324	12239
907.441	12057
907.557	11904
907.674	11920
907.79	11832
907.907	11870
908.023	11901
908.139	11942
908.256	11821
908.372	11756
908.488	11775
908.604	11672
908.72	11699
908.836	11733
908.952	11543
909.068	11604
909.184	11775
909.3	11623
909.415	11680
909.531	11611
909.647	11341
909.762	11501
909.878	11387
909.993	11410
910.108	11383
910.224	11444
910.339	11467
910.454	11376
910.57	11258
910.685	11223
910.8	11501
910.915	11425
911.03	11265
911.145	11201
911.259	11136
911.374	11113
911.489	11025
911.604	11014
911.718	10858
911.833	10999
911.947	10763
912.062	10710
912.176	10828
912.291	10877
912.405	10892
912.519	11121
912.633	11079
912.748	10900
912.862	10953
912.976	10797
913.09	10584
913.204	10706
913.318	10778
913.431	10873
913.545	10835
913.659	10957
913.772	10771
913.886	10672
914	10714
914.113	10774
914.226	10691
914.34	10725
914.453	10573
914.566	10793
914.68	10531
914.793	10656
914.906	10481
915.019	10348
915.132	10356
915.245	10417
915.358	10337
915.47	10440
915.583	10402
915.696	10447
915.809	10481
915.921	10538
916.034	10451
916.146	10352
916.259	10337
916.371	10443
916.483	10466
916.595	10379
916.708	10318
916.82	10310
916.932	10238
917.044	10249
917.156	10287
917.268	10246
917.38	10215
917.491	10268
917.603	10272
917.715	10333
917.826	10356
917.938	10188
918.049	10185
918.161	10185
918.272	10367
918.384	10398
918.495	10265
918.606	10029
918.717	10120
918.828	10078
918.939	10112
919.05	10082
919.161	10120
919.272	9823
919.383	9960
919.494	10154
919.604	10329
919.715	10143
919.826	9975
919.936	10116
920.047	10196
920.157	10139
920.267	10348
920.378	10135
920.488	10124
920.598	10375
920.708	10440
920.818	10348
920.928	10268
921.038	10500
921.148	10443
921.258	10086
921.368	10158
921.477	10040
921.587	10021
921.697	9823
921.806	10051
921.916	9903
922.025	9705
922.134	9732
922.244	9660
922.353	9743
922.462	9580
922.571	9534
922.68	9401
922.789	9348
922.898	9435
923.007	9329
923.116	9435
923.224	9431
923.333	9340
923.442	9264
923.55	9211
923.659	9298
923.767	9420
923.876	9279
923.984	9355
924.092	9279
924.201	9253
924.309	9253
924.417	9241
924.525	9275
924.633	9256
924.741	10093
924.849	9051
924.956	9192
925.064	9058
925.172	8990
925.279	9081
925.387	9112
925.494	9066
925.602	9161
925.709	9169
925.816	8998
925.924	9009
926.031	9127
926.138	9077
926.245	9100
926.352	8986
926.459	9108
926.566	9142
926.673	9005
926.779	8933
926.886	8872
926.993	8766
927.099	8708
927.206	8750
927.312	8712
927.419	8815
927.525	8754
927.631	8819
927.737	8701
927.843	8594
927.95	8514
928.056	8632
928.162	8739
928.267	8739
928.373	9397
928.479	8785
928.585	8530
928.69	8621
928.796	8708
928.901	8564
929.007	8415
929.112	8598
929.218	8579
929.323	8537
929.428	8503
929.533	8644
929.638	8442
929.743	8476
929.848	8522
929.953	8431
930.058	8404
930.163	8294
930.267	8271
930.372	8415
930.477	8259
930.581	8514
930.685	8355
930.79	8210
930.894	8267
930.998	8195
931.103	8358
931.207	8054
931.311	7913
931.415	7887
931.519	7742
931.623	7750
