Data from test_V78500241_703.txt Node
Date: Fri Mar 25 14:38:36 CST 2022
User: usil
Spectrometer: V785-0024
Trigger mode: 0
Integration Time (sec): 4.000000E-1
Scans to average: 1
Nonlinearity correction enabled: false
Boxcar width: 0
Storing dark spectrum: false
XAxis mode: Wavelengths
Number of Pixels in Spectrum: 1024
>>>>>Begin Spectral Data<<<<<
801.071	27770
801.214	27705
801.356	27450
801.499	27298
801.641	27180
801.783	27272
801.926	27249
802.068	27131
802.211	26918
802.353	26975
802.496	26724
802.638	26686
802.78	26773
802.923	26674
803.065	26511
803.208	26533
803.35	26667
803.492	26804
803.635	26830
803.777	26758
803.919	26891
804.061	27146
804.204	26887
804.346	27055
804.488	26921
804.63	26853
804.773	26754
804.915	27066
805.057	27100
805.199	27146
805.341	27332
805.483	27351
805.626	27348
805.768	27363
805.91	27625
806.052	27701
806.194	27720
806.336	28105
806.478	28291
806.62	28428
806.762	28626
806.904	29109
807.046	29497
807.188	29790
807.33	30327
807.472	30954
807.614	31468
807.756	32404
807.898	33583
808.04	35083
808.182	37141
808.324	39835
808.465	42935
808.607	46059
808.749	49011
808.891	50849
809.033	50971
809.174	49308
809.316	46485
809.458	42859
809.6	39496
809.741	36806
809.883	34535
810.025	33211
810.166	31947
810.308	31152
810.45	30460
810.591	30053
810.733	29528
810.875	28957
811.016	28748
811.158	28584
811.299	28348
811.441	28447
811.582	28280
811.724	27895
811.865	27789
812.007	27778
812.148	27656
812.29	27728
812.431	27682
812.573	27732
812.714	27774
812.855	27694
812.997	27937
813.138	28131
813.279	27899
813.421	27743
813.562	27595
813.703	27492
813.845	27203
813.986	26929
814.127	26720
814.268	26594
814.41	26575
814.551	26351
814.692	26469
814.833	26210
814.974	26290
815.115	26347
815.256	26153
815.397	26195
815.539	26122
815.68	25993
815.821	25879
815.962	26100
816.103	25932
816.244	25864
816.385	25601
816.526	25681
816.666	25499
816.807	25339
816.948	25403
817.089	25415
817.23	25388
817.371	25308
817.512	25369
817.653	25251
817.793	25213
817.934	25187
818.075	25228
818.216	25031
818.356	25072
818.497	25080
818.638	24992
818.778	25019
818.919	24977
819.06	25031
819.2	24966
819.341	25168
819.481	25168
819.622	25095
819.762	25388
819.903	25343
820.043	25141
820.184	25061
820.324	25129
820.465	25190
820.605	25126
820.746	25057
820.886	24852
821.026	24973
821.167	24958
821.307	24977
821.447	24924
821.588	24783
821.728	24791
821.868	24483
822.008	24334
822.149	24319
822.289	24262
822.429	24095
822.569	24095
822.709	23878
822.849	23699
822.99	23794
823.13	23653
823.27	23687
823.41	23360
823.55	23311
823.69	23539
823.83	23497
823.97	23501
824.11	23455
824.25	23242
824.389	23193
824.529	23334
824.669	23223
824.809	23520
824.949	23429
825.089	23337
825.228	23261
825.368	23075
825.508	23067
825.648	23025
825.787	23216
825.927	23075
826.067	23113
826.206	22965
826.346	23079
826.485	23109
826.625	22980
826.765	22991
826.904	23064
827.044	22740
827.183	22854
827.323	22755
827.462	22801
827.601	22736
827.741	22653
827.88	22717
828.02	22580
828.159	22592
828.298	22679
828.437	22675
828.577	22577
828.716	22786
828.855	22634
828.994	22603
829.134	22390
829.273	22573
829.412	22451
829.551	22306
829.69	22398
829.829	22314
829.968	22489
830.107	22519
830.246	22314
830.385	22382
830.524	22337
830.663	22109
830.802	22036
830.941	21899
831.08	22063
831.219	22112
831.357	22021
831.496	22257
831.635	22059
831.774	21907
831.913	21911
832.051	21895
832.19	21812
832.329	21823
832.467	21827
832.606	21766
832.744	21846
832.883	21842
833.022	21850
833.16	22074
833.299	22249
833.437	22360
833.576	22546
833.714	22634
833.852	22824
833.991	22881
834.129	22923
834.267	23041
834.406	22949
834.544	22949
834.682	22596
834.821	22588
834.959	22691
835.097	22207
835.235	22371
835.373	22173
835.511	22032
835.65	21728
835.788	21709
835.926	21652
836.064	21439
836.202	21595
836.34	21583
836.478	21720
836.615	21625
836.753	21614
836.891	21534
837.029	21603
837.167	21526
837.305	21542
837.443	21344
837.58	21256
837.718	21332
837.856	21298
837.993	21256
838.131	21161
838.269	21169
838.406	21260
838.544	21100
838.681	21020
838.819	20929
838.956	20796
839.094	20701
839.231	20712
839.369	20941
839.506	21131
839.643	20990
839.781	20735
839.918	20674
840.055	20807
840.193	20712
840.33	20632
840.467	20682
840.604	20773
840.742	20944
840.879	20598
841.016	20697
841.153	20625
841.29	20807
841.427	20781
841.564	20716
841.701	20693
841.838	20571
841.975	20606
842.112	20549
842.249	20549
842.385	20545
842.522	20769
842.659	20511
842.796	20488
842.933	20556
843.069	20579
843.206	20492
843.343	20655
843.479	20503
843.616	20750
843.752	20549
843.889	20568
844.025	20819
844.162	20697
844.298	20861
844.435	20990
844.571	21176
844.708	21393
844.844	21888
844.98	22299
845.117	22961
845.253	23847
845.389	25811
845.525	29455
845.661	35398
845.798	42308
845.934	47402
846.07	49472
846.206	47946
846.342	43053
846.478	36068
846.614	30228
846.75	26408
846.886	24038
847.022	22748
847.158	21793
847.294	21214
847.429	20925
847.565	20640
847.701	20697
847.837	20111
847.972	19913
848.108	19921
848.244	19871
848.379	19719
848.515	19529
848.65	19453
848.786	19510
848.921	19567
849.057	19559
849.192	19632
849.328	19495
849.463	19495
849.598	19445
849.734	19377
849.869	19209
850.004	19164
850.14	19194
850.275	19225
850.41	19008
850.545	19027
850.68	19091
850.815	19057
850.95	19152
851.085	19274
851.22	19148
851.355	19076
851.49	19046
851.625	18981
851.76	19012
851.895	18939
852.03	18996
852.165	19190
852.299	19122
852.434	19175
852.569	19088
852.703	19187
852.838	19221
852.973	19441
853.107	19407
853.242	19072
853.376	19221
853.511	19088
853.645	19145
853.78	19419
853.914	19358
854.048	19278
854.183	19403
854.317	19362
854.451	19529
854.585	19293
854.72	19324
854.854	19403
854.988	19175
855.122	19190
855.256	19076
855.39	19164
855.524	19156
855.658	19031
855.792	19008
855.926	18943
856.06	19152
856.194	19027
856.327	18973
856.461	18996
856.595	18916
856.729	18878
856.862	19046
856.996	18939
857.13	18897
857.263	18932
857.397	18909
857.53	18928
857.664	18878
857.797	18916
857.931	18916
858.064	18779
858.197	18905
858.331	18810
858.464	18753
858.597	18738
858.731	18871
858.864	18696
858.997	18753
859.13	18749
859.263	18844
859.396	18776
859.529	18757
859.662	18719
859.795	18700
859.928	18688
860.061	18935
860.194	18981
860.327	18829
860.46	18707
860.592	18814
860.725	18916
860.858	18909
860.99	18715
861.123	18589
861.256	18707
861.388	18688
861.521	19476
861.653	18544
861.786	18593
861.918	18563
862.05	18551
862.183	18574
862.315	18669
862.447	18726
862.58	18490
862.712	18483
862.844	18407
862.976	18540
863.108	18502
863.24	18719
863.372	18369
863.504	18498
863.636	18391
863.768	18422
863.9	18407
864.032	18372
864.164	18327
864.296	18410
864.428	18471
864.559	18338
864.691	18369
864.823	18448
864.954	18414
865.086	18456
865.217	18369
865.349	18224
865.48	18319
865.612	18220
865.743	18418
865.875	18315
866.006	18224
866.137	18429
866.269	18315
866.4	18319
866.531	18182
866.662	18174
866.793	18350
866.924	18277
867.055	18300
867.186	18224
867.317	18235
867.448	18205
867.579	18152
867.71	18159
867.841	18178
867.972	18235
868.103	18292
868.233	18266
868.364	18224
868.495	18376
868.625	18521
868.756	18566
868.886	18433
869.017	18486
869.147	18635
869.278	18604
869.408	18502
869.539	18494
869.669	18612
869.799	18635
869.929	18738
870.06	18726
870.19	18829
870.32	18833
870.45	18894
870.58	18848
870.71	19209
870.84	19008
870.97	18943
871.1	19053
871.23	19168
871.36	19202
871.489	19095
871.619	19114
871.749	19198
871.879	19263
872.008	19377
872.138	19175
872.267	19244
872.397	19171
872.526	19095
872.656	19110
872.785	19133
872.915	19487
873.044	19571
873.173	19419
873.303	19594
873.432	19506
873.561	19567
873.69	19521
873.819	19544
873.948	19670
874.077	19563
874.206	19464
874.335	19662
874.464	19788
874.593	19940
874.722	19887
874.851	20153
874.979	20027
875.108	20187
875.237	20062
875.365	19963
875.494	20088
875.623	20161
875.751	20172
875.88	20473
876.008	20434
876.136	20644
876.265	20788
876.393	20910
876.521	20883
876.65	20994
876.778	20925
876.906	21100
877.034	21154
877.162	21195
877.29	21135
877.418	21272
877.546	21454
877.674	21629
877.802	21679
877.93	21812
878.058	21926
878.185	22074
878.313	22394
878.441	22759
878.568	23079
878.696	23646
878.824	24551
878.951	25845
879.079	27355
879.206	29265
879.333	31544
879.461	33157
879.588	34352
879.715	34390
879.842	33218
879.97	31407
880.097	29421
880.224	27637
880.351	26453
880.478	25544
880.605	25027
880.732	24566
880.859	24426
880.986	24106
881.112	24209
881.239	23935
881.366	23748
881.493	23707
881.619	23638
881.746	23726
881.872	23687
881.999	23653
882.125	23668
882.252	23882
882.378	23809
882.505	24053
882.631	23866
882.757	23722
882.883	23737
883.01	23695
883.136	23604
883.262	23623
883.388	23421
883.514	23737
883.64	23668
883.766	23539
883.892	23395
884.018	23474
884.143	23684
884.269	23699
884.395	23471
884.52	23410
884.646	23444
884.772	23406
884.897	23235
885.023	23589
885.148	23372
885.274	23414
885.399	23265
885.524	23174
885.65	23006
885.775	22843
885.9	22675
886.025	22679
886.15	22508
886.275	22333
886.4	22261
886.525	22120
886.65	21831
886.775	21827
886.9	21720
887.025	21644
887.149	21561
887.274	21275
887.399	21055
887.523	21077
887.648	20883
887.773	20876
887.897	20781
888.021	20731
888.146	20575
888.27	20625
888.395	20686
888.519	20518
888.643	20465
888.767	20385
888.891	20362
889.015	20191
889.139	20096
889.263	20115
889.387	20142
889.511	20309
889.635	20046
889.759	19860
889.883	19780
890.006	19826
890.13	19841
890.254	19753
890.377	19704
890.501	19506
890.624	19495
890.748	19445
890.871	19335
890.995	19209
891.118	19057
891.241	19179
891.364	19114
891.488	19160
891.611	19107
891.734	18943
891.857	18996
891.98	19061
892.103	19145
892.226	18977
892.349	18909
892.471	18722
892.594	18833
892.717	18814
892.839	18711
892.962	18798
893.085	18833
893.207	18734
893.33	18551
893.452	18547
893.575	18658
893.697	18620
893.819	18661
893.941	18806
894.064	18509
894.186	18448
894.308	18346
894.43	18517
894.552	18623
894.674	18574
894.796	18327
894.918	18319
895.04	18235
895.161	18460
895.283	18338
895.405	18216
895.526	18235
895.648	18194
895.769	18254
895.891	18338
896.012	18330
896.134	18350
896.255	18289
896.376	18140
896.498	18178
896.619	18334
896.74	18174
896.861	18247
896.982	18517
897.103	18612
897.224	18502
897.345	18429
897.466	18311
897.587	18418
897.708	18483
897.828	18502
897.949	18319
898.07	18136
898.19	18296
898.311	18525
898.431	18353
898.552	18422
898.672	18437
898.792	18490
898.913	18445
899.033	18254
899.153	18281
899.273	18011
899.393	18174
899.513	18133
899.633	18106
899.753	18167
899.873	18087
899.993	18235
900.113	18019
900.232	18224
900.352	17958
900.472	18019
900.591	17855
900.711	17916
900.83	17893
900.95	17965
901.069	18079
901.189	17954
901.308	17577
901.427	17524
901.546	17547
901.665	17547
901.784	17547
901.904	17353
902.023	17296
902.141	16987
902.26	16949
902.379	17006
902.498	16976
902.617	16881
902.735	16885
902.854	16877
902.973	16828
903.091	16668
903.21	16656
903.328	16577
903.446	16592
903.565	16402
903.683	16367
903.801	16253
903.919	16303
904.038	16375
904.156	16166
904.274	16219
904.392	16093
904.51	16135
904.627	16166
904.745	16105
904.863	16169
904.981	15930
905.098	15816
905.216	15755
905.334	15732
905.451	15686
905.569	15652
905.686	15857
905.803	15743
905.921	15580
906.038	15720
906.155	15572
906.272	15584
906.389	15557
906.506	15222
906.623	15348
906.74	15264
906.857	15154
906.974	15268
907.091	15317
907.208	15382
907.324	15291
907.441	15138
907.557	14963
907.674	15039
907.79	14944
907.907	14895
908.023	15028
908.139	14956
908.256	14868
908.372	14853
908.488	14819
908.604	14769
908.72	14785
908.836	14750
908.952	14587
909.068	14788
909.184	14773
909.3	14746
909.415	14686
909.531	14682
909.647	14377
909.762	14473
909.878	14450
909.993	14484
910.108	14419
910.224	14389
910.339	14507
910.454	14267
910.57	14305
910.685	14343
910.8	14541
910.915	14339
911.03	14259
911.145	14164
911.259	14054
911.374	13997
911.489	13917
911.604	13902
911.718	13879
911.833	13864
911.947	13738
912.062	13719
912.176	13731
912.291	13734
912.405	13761
912.519	13978
912.633	14054
912.748	13887
912.862	13791
912.976	13719
913.09	13514
913.204	13700
913.318	13708
913.431	13791
913.545	13734
913.659	13769
913.772	13613
913.886	13586
914	13407
914.113	13544
914.226	13628
914.34	13525
914.453	13407
914.566	13571
914.68	13403
914.793	13285
914.906	13244
915.019	13152
915.132	13194
915.245	13206
915.358	13194
915.47	13137
915.583	13255
915.696	13251
915.809	13403
915.921	13301
916.034	13129
916.146	13091
916.259	13164
916.371	13179
916.483	13266
916.595	13095
916.708	13126
916.82	13084
916.932	13126
917.044	13198
917.156	13175
917.268	13012
917.38	12977
917.491	12996
917.603	12928
917.715	13027
917.826	13034
917.938	12943
918.049	12833
918.161	12954
918.272	13031
918.384	13008
918.495	12840
918.606	12749
918.717	12635
918.828	12745
918.939	12730
919.05	12563
919.161	12669
919.272	12426
919.383	12528
919.494	12745
919.604	12852
919.715	12711
919.826	12551
919.936	12616
920.047	12688
920.157	12646
920.267	12840
920.378	12669
920.488	12601
920.598	12764
920.708	12947
920.818	12783
920.928	12738
921.038	12951
921.148	12844
921.258	12589
921.368	12509
921.477	12483
921.587	12395
921.697	12292
921.806	12399
921.916	12277
922.025	12087
922.134	12140
922.244	12038
922.353	12117
922.462	11950
922.571	11874
922.68	11668
922.789	11714
922.898	11729
923.007	11699
923.116	11764
923.224	11756
923.333	11699
923.442	11619
923.55	11638
923.659	11581
923.767	11615
923.876	11562
923.984	11615
924.092	11478
924.201	11570
924.309	11486
924.417	11524
924.525	11463
924.633	11421
924.741	12323
924.849	11326
924.956	11429
925.064	11258
925.172	11261
925.279	11197
925.387	11246
925.494	11269
925.602	11341
925.709	11250
925.816	11136
925.924	11155
926.031	11326
926.138	11151
926.245	11174
926.352	11113
926.459	11269
926.566	11292
926.673	11140
926.779	11083
926.886	11029
926.993	10930
927.099	10828
927.206	10752
927.312	10824
927.419	10923
927.525	10919
927.631	10896
927.737	10748
927.843	10748
927.95	10717
928.056	10786
928.162	10706
928.267	10755
928.373	11303
928.479	10824
928.585	10607
928.69	10759
928.796	10736
928.901	10675
929.007	10546
929.112	10672
929.218	10672
929.323	10607
929.428	10466
929.533	10622
929.638	10466
929.743	10516
929.848	10462
929.953	10512
930.058	10424
930.163	10303
930.267	10219
930.372	10352
930.477	10249
930.581	10409
930.685	10318
930.79	10135
930.894	10154
930.998	10071
931.103	10310
931.207	9888
931.311	9823
931.415	9709
931.519	9686
931.623	9587
