Data from test_V78500241_418.txt Node
Date: Fri Mar 25 14:36:37 CST 2022
User: usil
Spectrometer: V785-0024
Trigger mode: 0
Integration Time (sec): 4.000000E-1
Scans to average: 1
Nonlinearity correction enabled: false
Boxcar width: 0
Storing dark spectrum: false
XAxis mode: Wavelengths
Number of Pixels in Spectrum: 1024
>>>>>Begin Spectral Data<<<<<
801.071	26716
801.214	26587
801.356	26134
801.499	26199
801.641	26073
801.783	25940
801.926	26016
802.068	26046
802.211	25959
802.353	25921
802.496	25746
802.638	25704
802.78	25723
802.923	25567
803.065	25537
803.208	25632
803.35	25411
803.492	25765
803.635	25635
803.777	25597
803.919	25723
804.061	25974
804.204	25738
804.346	25476
804.488	25476
804.63	25495
804.773	25552
804.915	25533
805.057	25628
805.199	25476
805.341	25655
805.483	25674
805.626	25647
805.768	25674
805.91	25609
806.052	25594
806.194	25373
806.336	25769
806.478	25609
806.62	25540
806.762	25693
806.904	25837
807.046	26149
807.188	26005
807.33	25864
807.472	26157
807.614	25890
807.756	25822
807.898	25879
808.04	25769
808.182	25727
808.324	25662
808.465	25628
808.607	26020
808.749	26024
808.891	26145
809.033	26286
809.174	26195
809.316	26195
809.458	26119
809.6	25986
809.741	26210
809.883	26240
810.025	26339
810.166	26210
810.308	26130
810.45	26119
810.591	26210
810.733	26145
810.875	26035
811.016	25864
811.158	25970
811.299	25966
811.441	26054
811.582	25986
811.724	26065
811.865	25909
812.007	25932
812.148	25944
812.29	25921
812.431	26115
812.573	26031
812.714	26377
812.855	26423
812.997	26446
813.138	26621
813.279	26484
813.421	26434
813.562	26446
813.703	26324
813.845	26046
813.986	25856
814.127	25753
814.268	25563
814.41	25529
814.551	25521
814.692	25590
814.833	25422
814.974	25445
815.115	25358
815.256	25392
815.397	25308
815.539	25320
815.68	25137
815.821	25141
815.962	25122
816.103	25126
816.244	25160
816.385	25084
816.526	24939
816.666	24840
816.807	24604
816.948	24589
817.089	24635
817.23	24783
817.371	24525
817.512	24627
817.653	24566
817.793	24570
817.934	24471
818.075	24692
818.216	24646
818.356	24669
818.497	24441
818.638	24353
818.778	24235
818.919	24125
819.06	24350
819.2	24490
819.341	24555
819.481	24388
819.622	24753
819.762	24757
819.903	24711
820.043	24612
820.184	24604
820.324	24608
820.465	24753
820.605	24658
820.746	24661
820.886	24521
821.026	24585
821.167	24597
821.307	24726
821.447	24448
821.588	24452
821.728	24285
821.868	24064
822.008	23969
822.149	23904
822.289	23969
822.429	23756
822.569	23539
822.709	23623
822.849	23459
822.99	23524
823.13	23490
823.27	23341
823.41	23143
823.55	23083
823.69	23208
823.83	23166
823.97	23014
824.11	23014
824.25	22938
824.389	22858
824.529	23006
824.669	22980
824.809	22991
824.949	22961
825.089	23117
825.228	23094
825.368	22767
825.508	22847
825.648	22911
825.787	22778
825.927	22725
826.067	22675
826.206	22733
826.346	22809
826.485	22740
826.625	22763
826.765	22831
826.904	22847
827.044	22470
827.183	22535
827.323	22310
827.462	22447
827.601	22356
827.741	22485
827.88	22485
828.02	22390
828.159	22542
828.298	22497
828.437	22459
828.577	22333
828.716	22592
828.855	22272
828.994	22166
829.134	22246
829.273	22105
829.412	22109
829.551	21979
829.69	22097
829.829	22154
829.968	22234
830.107	22059
830.246	22090
830.385	22086
830.524	22044
830.663	21873
830.802	21903
830.941	21671
831.08	21641
831.219	21793
831.357	21804
831.496	21941
831.635	21625
831.774	21637
831.913	21530
832.051	21458
832.19	21530
832.329	21469
832.467	21435
832.606	21279
832.744	21393
832.883	21397
833.022	21279
833.16	21348
833.299	21367
833.437	21275
833.576	21348
833.714	21355
833.852	21450
833.991	21492
834.129	21481
834.267	21458
834.406	21291
834.544	21428
834.682	21420
834.821	21367
834.959	21504
835.097	21233
835.235	21450
835.373	21317
835.511	21382
835.65	21241
835.788	21195
835.926	21096
836.064	21058
836.202	21017
836.34	21233
836.478	21214
836.615	21089
836.753	21249
836.891	21233
837.029	21268
837.167	21039
837.305	21123
837.443	21116
837.58	21036
837.718	21081
837.856	21005
837.993	21001
838.131	21047
838.269	20990
838.406	20933
838.544	20872
838.681	20655
838.819	20682
838.956	20571
839.094	20530
839.231	20480
839.369	20712
839.506	20876
839.643	20773
839.781	20579
839.918	20370
840.055	20450
840.193	20332
840.33	20389
840.467	20450
840.604	20412
840.742	20674
840.879	20244
841.016	20381
841.153	20332
841.29	20480
841.427	20465
841.564	20339
841.701	20305
841.838	20256
841.975	20480
842.112	20305
842.249	20168
842.385	20103
842.522	20256
842.659	20153
842.796	20187
842.933	20115
843.069	20092
843.206	20027
843.343	20225
843.479	20221
843.616	20214
843.752	20046
843.889	19883
844.025	20084
844.162	19791
844.298	20012
844.435	19852
844.571	19932
844.708	19913
844.844	20142
844.98	20046
845.117	19959
845.253	19795
845.389	19849
845.525	19841
845.661	19727
845.798	19575
845.934	19814
846.07	19715
846.206	19761
846.342	19734
846.478	19677
846.614	19441
846.75	19419
846.886	19335
847.022	19464
847.158	19415
847.294	19331
847.429	19449
847.565	19297
847.701	19567
847.837	19065
847.972	19095
848.108	19179
848.244	19133
848.379	18932
848.515	18863
848.65	18852
848.786	18909
848.921	19004
849.057	19031
849.192	19034
849.328	18996
849.463	18951
849.598	18863
849.734	18932
849.869	18840
850.004	18749
850.14	18654
850.275	18700
850.41	18623
850.545	18635
850.68	18506
850.815	18661
850.95	18722
851.085	18791
851.22	18783
851.355	18593
851.49	18696
851.625	18669
851.76	18551
851.895	18616
852.03	18589
852.165	18707
852.299	18608
852.434	18772
852.569	18646
852.703	18669
852.838	18726
852.973	18833
853.107	18620
853.242	18604
853.376	18498
853.511	18437
853.645	18380
853.78	18506
853.914	18540
854.048	18429
854.183	18582
854.317	18486
854.451	18711
854.585	18369
854.72	18391
854.854	18582
854.988	18369
855.122	18486
855.256	18315
855.39	18369
855.524	18639
855.658	18608
855.792	18525
855.926	18456
856.06	18486
856.194	18555
856.327	18479
856.461	18395
856.595	18414
856.729	18517
856.862	18566
856.996	18452
857.13	18483
857.263	18509
857.397	18517
857.53	18426
857.664	18490
857.797	18483
857.931	18494
858.064	18422
858.197	18441
858.331	18464
858.464	18448
858.597	18319
858.731	18460
858.864	18304
858.997	18433
859.13	18384
859.263	18437
859.396	18441
859.529	18433
859.662	18426
859.795	18384
859.928	18407
860.061	18650
860.194	18528
860.327	18544
860.46	18467
860.592	18479
860.725	18532
860.858	18441
860.99	18369
861.123	18353
861.256	18342
861.388	18448
861.521	19232
861.653	18372
861.786	18209
861.918	18235
862.05	18334
862.183	18448
862.315	18426
862.447	18502
862.58	18494
862.712	18209
862.844	18133
862.976	18266
863.108	18251
863.24	18570
863.372	18087
863.504	18235
863.636	18114
863.768	18136
863.9	18114
864.032	18030
864.164	18045
864.296	18098
864.428	18159
864.559	18251
864.691	18133
864.823	18144
864.954	18152
865.086	18117
865.217	18087
865.349	17984
865.48	18057
865.612	18049
865.743	18106
865.875	18087
866.006	18030
866.137	18171
866.269	18102
866.4	18060
866.531	18011
866.662	18019
866.793	17950
866.924	17984
867.055	18068
867.186	17969
867.317	17988
867.448	17904
867.579	18003
867.71	17885
867.841	17965
867.972	17851
868.103	18026
868.233	18045
868.364	18064
868.495	18011
868.625	18243
868.756	18380
868.886	18129
869.017	18216
869.147	18395
869.278	18243
869.408	18346
869.539	18258
869.669	18330
869.799	18319
869.929	18338
870.06	18251
870.19	18601
870.32	18456
870.45	18509
870.58	18601
870.71	18620
870.84	18692
870.97	18604
871.1	18620
871.23	18760
871.36	18787
871.489	18768
871.619	18787
871.749	18863
871.879	18867
872.008	18966
872.138	18867
872.267	18821
872.397	18635
872.526	18601
872.656	18635
872.785	18715
872.915	18867
873.044	19004
873.173	18825
873.303	18844
873.432	18837
873.561	18973
873.69	18878
873.819	18916
873.948	18996
874.077	18958
874.206	18768
874.335	18867
874.464	18951
874.593	19133
874.722	19122
874.851	19110
874.979	19152
875.108	19190
875.237	19164
875.365	19072
875.494	18970
875.623	19160
875.751	19164
875.88	19084
876.008	19373
876.136	19388
876.265	19559
876.393	19681
876.521	19578
876.65	19635
876.778	19464
876.906	19586
877.034	19388
877.162	19460
877.29	19377
877.418	19495
877.546	19453
877.674	19586
877.802	19445
877.93	19571
878.058	19434
878.185	19407
878.313	19411
878.441	19460
878.568	19422
878.696	19441
878.824	19540
878.951	19651
879.079	19571
879.206	19967
879.333	19746
879.461	19575
879.588	19590
879.715	19685
879.842	19856
879.97	19575
880.097	19457
880.224	19331
880.351	19392
880.478	19400
880.605	19274
880.732	19373
880.859	19613
880.986	19362
881.112	19480
881.239	19301
881.366	19076
881.493	19084
881.619	19034
881.746	19031
881.872	19057
881.999	18905
882.125	18970
882.252	18954
882.378	18966
882.505	19148
882.631	18798
882.757	18783
882.883	18901
883.01	18745
883.136	18700
883.262	18627
883.388	18574
883.514	18817
883.64	18810
883.766	18722
883.892	18502
884.018	18620
884.143	18692
884.269	18867
884.395	18528
884.52	18452
884.646	18486
884.772	18399
884.897	18319
885.023	18403
885.148	18479
885.274	18513
885.399	18570
885.524	18391
885.65	18452
885.775	18445
885.9	18448
886.025	18547
886.15	18410
886.275	18353
886.4	18353
886.525	18384
886.65	18266
886.775	18437
886.9	18544
887.025	18616
887.149	18319
887.274	18239
887.399	18209
887.523	18216
887.648	18167
887.773	18133
887.897	18277
888.021	18129
888.146	18167
888.27	18270
888.395	18266
888.519	18224
888.643	18262
888.767	18197
888.891	18098
889.015	17980
889.139	18072
889.263	18049
889.387	18087
889.511	18167
889.635	18178
889.759	17885
889.883	17882
890.006	17961
890.13	18057
890.254	17897
890.377	17836
890.501	17752
890.624	17745
890.748	17843
890.871	17687
890.995	17600
891.118	17562
891.241	17608
891.364	17630
891.488	17737
891.611	17699
891.734	17596
891.857	17676
891.98	17699
892.103	17646
892.226	17589
892.349	17592
892.471	17467
892.594	17474
892.717	17581
892.839	17585
892.962	17528
893.085	17615
893.207	17596
893.33	17433
893.452	17440
893.575	17547
893.697	17528
893.819	17615
893.941	17805
894.064	17680
894.186	17520
894.308	17486
894.43	17668
894.552	17786
894.674	17691
894.796	17512
894.918	17554
895.04	17577
895.161	17573
895.283	17638
895.405	17509
895.526	17520
895.648	17611
895.769	17596
895.891	17551
896.012	17794
896.134	17737
896.255	17611
896.376	17543
896.498	17737
896.619	17665
896.74	17695
896.861	17707
896.982	18087
897.103	18041
897.224	17965
897.345	17904
897.466	17836
897.587	17908
897.708	17920
897.828	18007
897.949	17767
898.07	17756
898.19	17817
898.311	17931
898.431	17965
898.552	17863
898.672	17904
898.792	17920
898.913	17889
899.033	17722
899.153	17623
899.273	17592
899.393	17691
899.513	17619
899.633	17672
899.753	17611
899.873	17604
899.993	17703
900.113	17539
900.232	17653
900.352	17528
900.472	17459
900.591	17345
900.711	17577
900.83	17455
900.95	17535
901.069	17440
901.189	17433
901.308	17220
901.427	17102
901.546	17159
901.665	17151
901.784	17071
901.904	17041
902.023	16968
902.141	16744
902.26	16653
902.379	16653
902.498	16603
902.617	16554
902.735	16767
902.854	16645
902.973	16554
903.091	16314
903.21	16318
903.328	16265
903.446	16226
903.565	16162
903.683	16154
903.801	16090
903.919	16036
904.038	16090
904.156	15949
904.274	15975
904.392	15903
904.51	15888
904.627	15907
904.745	15934
904.863	15945
904.981	15660
905.098	15587
905.216	15595
905.334	15652
905.451	15534
905.569	15473
905.686	15618
905.803	15572
905.921	15435
906.038	15439
906.155	15454
906.272	15241
906.389	15287
906.506	15020
906.623	15195
906.74	15188
906.857	14986
906.974	15074
907.091	15131
907.208	15207
907.324	15211
907.441	14986
907.557	14914
907.674	14933
907.79	14857
907.907	14849
908.023	14918
908.139	14853
908.256	14815
908.372	14754
908.488	14773
908.604	14492
908.72	14450
908.836	14526
908.952	14514
909.068	14518
909.184	14613
909.3	14545
909.415	14640
909.531	14579
909.647	14339
909.762	14282
909.878	14191
909.993	14221
910.108	14199
910.224	14225
910.339	14218
910.454	14225
910.57	14092
910.685	14103
910.8	14214
910.915	14301
911.03	14081
911.145	13989
911.259	13868
911.374	13906
911.489	13818
911.604	13803
911.718	13674
911.833	13731
911.947	13559
912.062	13419
912.176	13670
912.291	13677
912.405	13556
912.519	13845
912.633	13780
912.748	13731
912.862	13662
912.976	13495
913.09	13346
913.204	13388
913.318	13468
913.431	13655
913.545	13643
913.659	13552
913.772	13438
913.886	13419
914	13304
914.113	13468
914.226	13483
914.34	13377
914.453	13270
914.566	13384
914.68	13259
914.793	13206
914.906	13031
915.019	13000
915.132	12973
915.245	12958
915.358	13069
915.47	13080
915.583	13198
915.696	13107
915.809	13095
915.921	13202
916.034	13088
916.146	12977
916.259	12905
916.371	12951
916.483	13008
916.595	12840
916.708	12825
916.82	12894
916.932	12932
917.044	12875
917.156	12924
917.268	12776
917.38	12802
917.491	12825
917.603	12814
917.715	12844
917.826	12810
917.938	12741
918.049	12585
918.161	12722
918.272	12905
918.384	12795
918.495	12730
918.606	12483
918.717	12445
918.828	12582
918.939	12662
919.05	12418
919.161	12475
919.272	12357
919.383	12361
919.494	12574
919.604	12753
919.715	12551
919.826	12517
919.936	12494
920.047	12563
920.157	12536
920.267	12753
920.378	12551
920.488	12551
920.598	12711
920.708	12798
920.818	12623
920.928	12696
921.038	12859
921.148	12738
921.258	12464
921.368	12395
921.477	12395
921.587	12330
921.697	12190
921.806	12327
921.916	12197
922.025	11965
922.134	12026
922.244	11980
922.353	12041
922.462	11794
922.571	11805
922.68	11672
922.789	11661
922.898	11722
923.007	11604
923.116	11653
923.224	11589
923.333	11570
923.442	11448
923.55	11429
923.659	11547
923.767	11596
923.876	11471
923.984	11486
924.092	11440
924.201	11471
924.309	11467
924.417	11429
924.525	11387
924.633	11349
924.741	12311
924.849	11185
924.956	11265
925.064	11155
925.172	11105
925.279	11071
925.387	11147
925.494	11220
925.602	11280
925.709	11170
925.816	11105
925.924	11071
926.031	11181
926.138	11105
926.245	11204
926.352	11105
926.459	11204
926.566	11178
926.673	11083
926.779	11083
926.886	10961
926.993	10778
927.099	10812
927.206	10755
927.312	10793
927.419	10805
927.525	10759
927.631	10782
927.737	10736
927.843	10634
927.95	10637
928.056	10607
928.162	10618
928.267	10755
928.373	11280
928.479	10698
928.585	10500
928.69	10588
928.796	10554
928.901	10493
929.007	10386
929.112	10561
929.218	10489
929.323	10375
929.428	10265
929.533	10538
929.638	10272
929.743	10352
929.848	10466
929.953	10337
930.058	10268
930.163	10093
930.267	10131
930.372	10261
930.477	10105
930.581	10344
930.685	10162
930.79	10067
930.894	10086
930.998	10017
931.103	10147
931.207	9785
931.311	9709
931.415	9633
931.519	9477
931.623	9374
