Data from test_V78500241_3210.txt Node
Date: Fri Mar 25 14:56:03 CST 2022
User: usil
Spectrometer: V785-0024
Trigger mode: 0
Integration Time (sec): 4.000000E-1
Scans to average: 1
Nonlinearity correction enabled: false
Boxcar width: 0
Storing dark spectrum: false
XAxis mode: Wavelengths
Number of Pixels in Spectrum: 1024
>>>>>Begin Spectral Data<<<<<
801.071	21979
801.214	21816
801.356	21690
801.499	21648
801.641	21447
801.783	21370
801.926	21283
802.068	21291
802.211	21340
802.353	21142
802.496	20941
802.638	20701
802.78	20701
802.923	20785
803.065	20697
803.208	20629
803.35	20670
803.492	20849
803.635	20804
803.777	20750
803.919	20731
804.061	20956
804.204	20743
804.346	20659
804.488	20560
804.63	20701
804.773	20457
804.915	20571
805.057	20739
805.199	20678
805.341	20590
805.483	20678
805.626	20701
805.768	20571
805.91	20746
806.052	20682
806.194	20541
806.336	20823
806.478	20571
806.62	20549
806.762	20667
806.904	20781
807.046	20975
807.188	20925
807.33	20986
807.472	20960
807.614	20929
807.756	20842
807.898	20659
808.04	20636
808.182	20648
808.324	20663
808.465	20716
808.607	20804
808.749	20998
808.891	21001
809.033	21192
809.174	21161
809.316	20906
809.458	20952
809.6	20948
809.741	21017
809.883	21036
810.025	21138
810.166	21077
810.308	21096
810.45	21058
810.591	20967
810.733	20853
810.875	20788
811.016	20632
811.158	20640
811.299	20648
811.441	20830
811.582	20883
811.724	20731
811.865	20625
812.007	20746
812.148	20724
812.29	20754
812.431	20883
812.573	21043
812.714	21116
812.855	21154
812.997	21374
813.138	21557
813.279	21306
813.421	21169
813.562	21116
813.703	21096
813.845	20891
813.986	20575
814.127	20476
814.268	20339
814.41	20221
814.551	20290
814.692	20248
814.833	20294
814.974	20317
815.115	20233
815.256	20157
815.397	20077
815.539	20054
815.68	19974
815.821	19909
815.962	20016
816.103	19906
816.244	19822
816.385	19769
816.526	19635
816.666	19594
816.807	19483
816.948	19575
817.089	19544
817.23	19396
817.371	19354
817.512	19407
817.653	19445
817.793	19403
817.934	19308
818.075	19434
818.216	19400
818.356	19312
818.497	19259
818.638	19061
818.778	19061
818.919	19148
819.06	19129
819.2	19244
819.341	19206
819.481	19316
819.622	19453
819.762	19670
819.903	19521
820.043	19460
820.184	19369
820.324	19422
820.465	19464
820.605	19373
820.746	19430
820.886	19156
821.026	19411
821.167	19266
821.307	19270
821.447	19301
821.588	19175
821.728	19095
821.868	18989
822.008	18821
822.149	18753
822.289	18856
822.429	18532
822.569	18464
822.709	18517
822.849	18254
822.99	18292
823.13	18239
823.27	18273
823.41	18076
823.55	18045
823.69	18098
823.83	18064
823.97	18038
824.11	17939
824.25	17821
824.389	17904
824.529	17973
824.669	17920
824.809	17977
824.949	17908
825.089	17939
825.228	17920
825.368	17642
825.508	17745
825.648	17699
825.787	17661
825.927	17592
826.067	17551
826.206	17608
826.346	17684
826.485	17680
826.625	17687
826.765	17710
826.904	17642
827.044	17505
827.183	17455
827.323	17353
827.462	17265
827.601	17345
827.741	17269
827.88	17303
828.02	17337
828.159	17356
828.298	17307
828.437	17406
828.577	17258
828.716	17368
828.855	17292
828.994	17052
829.134	17124
829.273	17102
829.412	17067
829.551	17060
829.69	17056
829.829	17075
829.968	17239
830.107	17151
830.246	17231
830.385	17052
830.524	16991
830.663	16904
830.802	16896
830.941	16702
831.08	16706
831.219	16767
831.357	16793
831.496	16812
831.635	16637
831.774	16599
831.913	16512
832.051	16394
832.19	16558
832.329	16588
832.467	16424
832.606	16382
832.744	16341
832.883	16333
833.022	16379
833.16	16322
833.299	16360
833.437	16375
833.576	16489
833.714	16493
833.852	16558
833.991	16462
834.129	16531
834.267	16508
834.406	16466
834.544	16478
834.682	16554
834.821	16466
834.959	16630
835.097	16356
835.235	16542
835.373	16462
835.511	16436
835.65	16299
835.788	16272
835.926	16280
836.064	16124
836.202	16242
836.34	16367
836.478	16500
836.615	16310
836.753	16493
836.891	16485
837.029	16413
837.167	16367
837.305	16200
837.443	16169
837.58	16185
837.718	16386
837.856	16204
837.993	16139
838.131	16246
838.269	16101
838.406	16128
838.544	16067
838.681	16002
838.819	15857
838.956	15854
839.094	15709
839.231	15899
839.369	15956
839.506	16181
839.643	15975
839.781	15717
839.918	15641
840.055	15857
840.193	15755
840.33	15762
840.467	15778
840.604	15854
840.742	15945
840.879	15644
841.016	15618
841.153	15717
841.29	15857
841.427	15846
841.564	15857
841.701	15888
841.838	15682
841.975	15717
842.112	15762
842.249	15580
842.385	15584
842.522	15717
842.659	15690
842.796	15553
842.933	15603
843.069	15507
843.206	15545
843.343	15614
843.479	15545
843.616	15530
843.752	15332
843.889	15378
844.025	15561
844.162	15310
844.298	15420
844.435	15374
844.571	15241
844.708	15450
844.844	15458
844.98	15526
845.117	15378
845.253	15230
845.389	15218
845.525	15275
845.661	15249
845.798	15195
845.934	15241
846.07	15108
846.206	15207
846.342	15245
846.478	15138
846.614	15055
846.75	14925
846.886	14834
847.022	14937
847.158	14899
847.294	14842
847.429	14952
847.565	14864
847.701	15123
847.837	14621
847.972	14545
848.108	14705
848.244	14724
848.379	14663
848.515	14476
848.65	14431
848.786	14480
848.921	14549
849.057	14568
849.192	14568
849.328	14545
849.463	14564
849.598	14533
849.734	14476
849.869	14396
850.004	14282
850.14	14267
850.275	14305
850.41	14240
850.545	14259
850.68	14191
850.815	14309
850.95	14286
851.085	14484
851.22	14431
851.355	14313
851.49	14290
851.625	14244
851.76	14107
851.895	14142
852.03	14149
852.165	14180
852.299	14259
852.434	14370
852.569	14343
852.703	14252
852.838	14385
852.973	14412
853.107	14290
853.242	14244
853.376	14145
853.511	14103
853.645	14103
853.78	14263
853.914	14172
854.048	14172
854.183	14142
854.317	14153
854.451	14358
854.585	14134
854.72	14180
854.854	14145
854.988	14084
855.122	14115
855.256	14084
855.39	14081
855.524	14256
855.658	14168
855.792	14183
855.926	14157
856.06	14168
856.194	14256
856.327	14180
856.461	14084
856.595	14134
856.729	14145
856.862	14298
856.996	14324
857.13	14145
857.263	14191
857.397	14278
857.53	14214
857.664	14225
857.797	14218
857.931	14282
858.064	14256
858.197	14290
858.331	14031
858.464	14138
858.597	14058
858.731	14084
858.864	14134
858.997	14062
859.13	14149
859.263	14161
859.396	14225
859.529	14180
859.662	14229
859.795	14058
859.928	14161
860.061	14336
860.194	14286
860.327	14161
860.46	14081
860.592	14377
860.725	14366
860.858	14324
860.99	14183
861.123	14024
861.256	14008
861.388	14149
861.521	14960
861.653	14092
861.786	14043
861.918	14024
862.05	13974
862.183	14142
862.315	14111
862.447	14180
862.58	14084
862.712	13928
862.844	13921
862.976	14024
863.108	13986
863.24	14374
863.372	13845
863.504	13921
863.636	13940
863.768	13955
863.9	13860
864.032	13818
864.164	13997
864.296	13993
864.428	14043
864.559	14092
864.691	14012
864.823	14058
864.954	13986
865.086	14008
865.217	13875
865.349	13776
865.48	13913
865.612	13967
865.743	14050
865.875	13959
866.006	13894
866.137	13906
866.269	13837
866.4	13894
866.531	13921
866.662	13799
866.793	13887
866.924	13978
867.055	13890
867.186	13967
867.317	13921
867.448	13841
867.579	13849
867.71	13822
867.841	13871
867.972	13936
868.103	13951
868.233	13932
868.364	13925
868.495	14058
868.625	14168
868.756	14191
868.886	14077
869.017	14069
869.147	14305
869.278	14240
869.408	14134
869.539	14126
869.669	14328
869.799	14202
869.929	14252
870.06	14214
870.19	14507
870.32	14514
870.45	14503
870.58	14564
870.71	14705
870.84	14743
870.97	14465
871.1	14568
871.23	14716
871.36	14743
871.489	14762
871.619	14724
871.749	14667
871.879	14842
872.008	14960
872.138	14868
872.267	14716
872.397	14606
872.526	14613
872.656	14530
872.785	14670
872.915	14754
873.044	14990
873.173	14838
873.303	14727
873.432	14811
873.561	14941
873.69	14853
873.819	14914
873.948	14910
874.077	14872
874.206	14796
874.335	14807
874.464	14963
874.593	15108
874.722	15066
874.851	15097
874.979	15173
875.108	15188
875.237	15005
875.365	15024
875.494	15157
875.623	15218
875.751	15184
875.88	15154
876.008	15279
876.136	15469
876.265	15587
876.393	15644
876.521	15724
876.65	15633
876.778	15618
876.906	15568
877.034	15561
877.162	15492
877.29	15393
877.418	15450
877.546	15553
877.674	15519
877.802	15523
877.93	15435
878.058	15466
878.185	15439
878.313	15519
878.441	15584
878.568	15302
878.696	15530
878.824	15667
878.951	15614
879.079	15720
879.206	15816
879.333	15739
879.461	15660
879.588	15618
879.715	15728
879.842	15831
879.97	15557
880.097	15454
880.224	15355
880.351	15462
880.478	15329
880.605	15336
880.732	15439
880.859	15599
880.986	15435
881.112	15485
881.239	15264
881.366	15161
881.493	15104
881.619	15039
881.746	15070
881.872	14998
881.999	15165
882.125	15005
882.252	15100
882.378	15017
882.505	15157
882.631	14891
882.757	14925
882.883	14933
883.01	14902
883.136	14838
883.262	14720
883.388	14705
883.514	14826
883.64	14876
883.766	14872
883.892	14670
884.018	14689
884.143	14864
884.269	15001
884.395	14750
884.52	14366
884.646	14663
884.772	14602
884.897	14469
885.023	14606
885.148	14743
885.274	14686
885.399	14705
885.524	14636
885.65	14590
885.775	14579
885.9	14594
886.025	14678
886.15	14682
886.275	14533
886.4	14556
886.525	14488
886.65	14476
886.775	14549
886.9	14617
887.025	14773
887.149	14625
887.274	14442
887.399	14370
887.523	14347
887.648	14358
887.773	14252
887.897	14434
888.021	14484
888.146	14343
888.27	14499
888.395	14575
888.519	14389
888.643	14507
888.767	14511
888.891	14309
889.015	14305
889.139	14282
889.263	14153
889.387	14400
889.511	14450
889.635	14396
889.759	14221
889.883	14301
890.006	14320
890.13	14389
890.254	14229
890.377	14259
890.501	14183
890.624	14119
890.748	14161
890.871	13963
890.995	13986
891.118	13982
891.241	14073
891.364	14039
891.488	14016
891.611	13997
891.734	14005
891.857	14126
891.98	14020
892.103	14103
892.226	14107
892.349	14020
892.471	13841
892.594	14046
892.717	13993
892.839	14001
892.962	14027
893.085	14119
893.207	14027
893.33	13909
893.452	13837
893.575	14062
893.697	14027
893.819	14164
893.941	14275
894.064	14183
894.186	13959
894.308	13947
894.43	14145
894.552	14309
894.674	14202
894.796	13986
894.918	14031
895.04	14012
895.161	14168
895.283	14088
895.405	14046
895.526	14077
895.648	14126
895.769	14187
895.891	14275
896.012	14286
896.134	14301
896.255	14161
896.376	14225
896.498	14172
896.619	14195
896.74	14210
896.861	14259
896.982	14488
897.103	14823
897.224	14457
897.345	14419
897.466	14415
897.587	14484
897.708	14560
897.828	14423
897.949	14484
898.07	14431
898.19	14476
898.311	14689
898.431	14488
898.552	14575
898.672	14708
898.792	14606
898.913	14583
899.033	14438
899.153	14480
899.273	14275
899.393	14343
899.513	14366
899.633	14438
899.753	14484
899.873	14419
899.993	14461
900.113	14358
900.232	14511
900.352	14282
900.472	14351
900.591	14248
900.711	14336
900.83	14244
900.95	14415
901.069	14362
901.189	14218
901.308	14073
901.427	13856
901.546	14005
901.665	13967
901.784	14062
901.904	13849
902.023	13696
902.141	13651
902.26	13521
902.379	13647
902.498	13544
902.617	13407
902.735	13586
902.854	13540
902.973	13476
903.091	13384
903.21	13282
903.328	13232
903.446	13187
903.565	13141
903.683	13198
903.801	13034
903.919	13088
904.038	13137
904.156	12970
904.274	12958
904.392	12878
904.51	12890
904.627	12817
904.745	12954
904.863	12962
904.981	12772
905.098	12635
905.216	12635
905.334	12673
905.451	12612
905.569	12642
905.686	12658
905.803	12612
905.921	12452
906.038	12528
906.155	12437
906.272	12395
906.389	12350
906.506	12232
906.623	12258
906.74	12163
906.857	12011
906.974	12136
907.091	12323
907.208	12323
907.324	12209
907.441	12133
907.557	11950
907.674	11942
907.79	12003
907.907	11901
908.023	11954
908.139	11889
908.256	11961
908.372	11874
908.488	11817
908.604	11680
908.72	11668
908.836	11817
908.952	11581
909.068	11642
909.184	11874
909.3	11741
909.415	11779
909.531	11653
909.647	11406
909.762	11482
909.878	11505
909.993	11417
910.108	11463
910.224	11440
910.339	11528
910.454	11395
910.57	11280
910.685	11250
910.8	11577
910.915	11459
911.03	11398
911.145	11235
911.259	11159
911.374	11166
911.489	11136
911.604	11113
911.718	10999
911.833	10987
911.947	10885
912.062	10797
912.176	10919
912.291	10923
912.405	10889
912.519	11147
912.633	11147
912.748	11014
912.862	10953
912.976	10782
913.09	10710
913.204	10805
913.318	10862
913.431	10942
913.545	10915
913.659	10980
913.772	10824
913.886	10736
914	10733
914.113	10774
914.226	10831
914.34	10771
914.453	10618
914.566	10824
914.68	10630
914.793	10729
914.906	10508
915.019	10421
915.132	10329
915.245	10367
915.358	10466
915.47	10417
915.583	10527
915.696	10523
915.809	10653
915.921	10577
916.034	10413
916.146	10409
916.259	10409
916.371	10417
916.483	10554
916.595	10344
916.708	10390
916.82	10367
916.932	10367
917.044	10276
917.156	10337
917.268	10223
917.38	10276
917.491	10261
917.603	10276
917.715	10405
917.826	10432
917.938	10329
918.049	10219
918.161	10223
918.272	10428
918.384	10440
918.495	10295
918.606	10219
918.717	10086
918.828	10173
918.939	10219
919.05	10051
919.161	10059
919.272	9968
919.383	10040
919.494	10158
919.604	10341
919.715	10196
919.826	10093
919.936	10128
920.047	10223
920.157	10169
920.267	10371
920.378	10360
920.488	10204
920.598	10413
920.708	10561
920.818	10424
920.928	10390
921.038	10546
921.148	10447
921.258	10185
921.368	10067
921.477	9972
921.587	10032
921.697	9812
921.806	10029
921.916	9934
922.025	9762
922.134	9766
922.244	9698
922.353	9827
922.462	9644
922.571	9542
922.68	9443
922.789	9420
922.898	9428
923.007	9397
923.116	9359
923.224	9477
923.333	9454
923.442	9287
923.55	9291
923.659	9317
923.767	9351
923.876	9233
923.984	9351
924.092	9192
924.201	9264
924.309	9233
924.417	9268
924.525	9253
924.633	9298
924.741	10143
924.849	9131
924.956	9192
925.064	9085
925.172	8952
925.279	9032
925.387	9123
925.494	9085
925.602	9192
925.709	9142
925.816	9047
925.924	9062
926.031	9237
926.138	9119
926.245	9119
926.352	9028
926.459	9119
926.566	9192
926.673	9058
926.779	8918
926.886	8929
926.993	8823
927.099	8762
927.206	8796
927.312	8735
927.419	8861
927.525	8842
927.631	8838
927.737	8769
927.843	8705
927.95	8606
928.056	8769
928.162	8739
928.267	8750
928.373	9275
928.479	8796
928.585	8549
928.69	8727
928.796	8807
928.901	8629
929.007	8522
929.112	8575
929.218	8640
929.323	8533
929.428	8461
929.533	8617
929.638	8503
929.743	8507
929.848	8602
929.953	8518
930.058	8476
930.163	8298
930.267	8275
930.372	8446
930.477	8301
930.581	8469
930.685	8328
930.79	8275
930.894	8229
930.998	8256
931.103	8313
931.207	8008
931.311	7970
931.415	7856
931.519	7742
931.623	7731
