Data from test_V78500241_3056.txt Node
Date: Fri Mar 25 14:54:59 CST 2022
User: usil
Spectrometer: V785-0024
Trigger mode: 0
Integration Time (sec): 4.000000E-1
Scans to average: 1
Nonlinearity correction enabled: false
Boxcar width: 0
Storing dark spectrum: false
XAxis mode: Wavelengths
Number of Pixels in Spectrum: 1024
>>>>>Begin Spectral Data<<<<<
801.071	21983
801.214	21953
801.356	21800
801.499	21698
801.641	21504
801.783	21420
801.926	21389
802.068	21340
802.211	21264
802.353	21332
802.496	20998
802.638	20914
802.78	20914
802.923	20899
803.065	20731
803.208	20765
803.35	20754
803.492	20887
803.635	20944
803.777	20792
803.919	20845
804.061	21165
804.204	20788
804.346	20769
804.488	20583
804.63	20708
804.773	20716
804.915	20670
805.057	20746
805.199	20617
805.341	20773
805.483	20765
805.626	20765
805.768	20667
805.91	20613
806.052	20746
806.194	20609
806.336	20724
806.478	20701
806.62	20674
806.762	20746
806.904	20887
807.046	20956
807.188	21096
807.33	20933
807.472	21036
807.614	20895
807.756	21005
807.898	20727
808.04	20777
808.182	20750
808.324	20830
808.465	20743
808.607	20895
808.749	21013
808.891	21093
809.033	21306
809.174	21165
809.316	20948
809.458	21096
809.6	20994
809.741	21066
809.883	21154
810.025	21260
810.166	21264
810.308	21188
810.45	21283
810.591	21081
810.733	20986
810.875	20910
811.016	20811
811.158	20716
811.299	20899
811.441	20986
811.582	20902
811.724	20804
811.865	20796
812.007	20811
812.148	20861
812.29	20800
812.431	21093
812.573	21085
812.714	21218
812.855	21321
812.997	21545
813.138	21610
813.279	21443
813.421	21310
813.562	21405
813.703	20990
813.845	20948
813.986	20670
814.127	20556
814.268	20484
814.41	20393
814.551	20370
814.692	20431
814.833	20263
814.974	20358
815.115	20374
815.256	20256
815.397	20187
815.539	20191
815.68	20187
815.821	20046
815.962	20107
816.103	20062
816.244	19875
816.385	19852
816.526	19670
816.666	19586
816.807	19556
816.948	19685
817.089	19590
817.23	19552
817.371	19487
817.512	19476
817.653	19445
817.793	19495
817.934	19521
818.075	19537
818.216	19556
818.356	19476
818.497	19274
818.638	19137
818.778	19168
818.919	19118
819.06	19293
819.2	19331
819.341	19289
819.481	19445
819.622	19411
819.762	19677
819.903	19742
820.043	19525
820.184	19441
820.324	19377
820.465	19426
820.605	19502
820.746	19506
820.886	19312
821.026	19419
821.167	19346
821.307	19438
821.447	19419
821.588	19255
821.728	19187
821.868	19012
822.008	18852
822.149	18890
822.289	18897
822.429	18646
822.569	18544
822.709	18525
822.849	18502
822.99	18346
823.13	18422
823.27	18296
823.41	18174
823.55	18106
823.69	18133
823.83	18167
823.97	18114
824.11	17977
824.25	17882
824.389	17939
824.529	18049
824.669	17969
824.809	18117
824.949	17931
825.089	17935
825.228	18026
825.368	17691
825.508	17718
825.648	17832
825.787	17805
825.927	17745
826.067	17676
826.206	17596
826.346	17684
826.485	17672
826.625	17695
826.765	17786
826.904	17790
827.044	17467
827.183	17471
827.323	17421
827.462	17387
827.601	17334
827.741	17376
827.88	17417
828.02	17326
828.159	17296
828.298	17490
828.437	17398
828.577	17315
828.716	17528
828.855	17455
828.994	17220
829.134	17086
829.273	17143
829.412	17155
829.551	17090
829.69	16995
829.829	17159
829.968	17303
830.107	17220
830.246	17166
830.385	17094
830.524	16953
830.663	16987
830.802	16885
830.941	16713
831.08	16763
831.219	16877
831.357	16797
831.496	17014
831.635	16744
831.774	16740
831.913	16584
832.051	16504
832.19	16535
832.329	16645
832.467	16306
832.606	16405
832.744	16466
832.883	16424
833.022	16390
833.16	16481
833.299	16550
833.437	16485
833.576	16440
833.714	16519
833.852	16485
833.991	16447
834.129	16527
834.267	16531
834.406	16485
834.544	16607
834.682	16565
834.821	16455
834.959	16554
835.097	16542
835.235	16493
835.373	16508
835.511	16577
835.65	16413
835.788	16314
835.926	16219
836.064	16223
836.202	16150
836.34	16375
836.478	16470
836.615	16398
836.753	16405
836.891	16440
837.029	16478
837.167	16322
837.305	16272
837.443	16333
837.58	16238
837.718	16341
837.856	16257
837.993	16086
838.131	16257
838.269	16109
838.406	16196
838.544	16093
838.681	16025
838.819	15968
838.956	15812
839.094	15778
839.231	15838
839.369	16036
839.506	16154
839.643	16036
839.781	15797
839.918	15690
840.055	15804
840.193	15778
840.33	15816
840.467	15781
840.604	15682
840.742	16109
840.879	15625
841.016	15644
841.153	15705
841.29	15827
841.427	15835
841.564	15823
841.701	15812
841.838	15739
841.975	15675
842.112	15610
842.249	15462
842.385	15492
842.522	15743
842.659	15603
842.796	15530
842.933	15614
843.069	15587
843.206	15530
843.343	15682
843.479	15576
843.616	15625
843.752	15439
843.889	15382
844.025	15504
844.162	15344
844.298	15473
844.435	15367
844.571	15332
844.708	15477
844.844	15492
844.98	15534
845.117	15526
845.253	15245
845.389	15195
845.525	15306
845.661	15195
845.798	15142
845.934	15218
846.07	15062
846.206	15146
846.342	15302
846.478	15173
846.614	14906
846.75	14792
846.886	14891
847.022	15028
847.158	14952
847.294	15051
847.429	15062
847.565	14956
847.701	15138
847.837	14625
847.972	14667
848.108	14731
848.244	14788
848.379	14552
848.515	14583
848.65	14442
848.786	14499
848.921	14488
849.057	14522
849.192	14617
849.328	14594
849.463	14587
849.598	14590
849.734	14514
849.869	14446
850.004	14301
850.14	14351
850.275	14320
850.41	14248
850.545	14298
850.68	14294
850.815	14286
850.95	14286
851.085	14514
851.22	14355
851.355	14351
851.49	14317
851.625	14195
851.76	14294
851.895	14176
852.03	14119
852.165	14298
852.299	14343
852.434	14370
852.569	14339
852.703	14320
852.838	14450
852.973	14393
853.107	14419
853.242	14271
853.376	14157
853.511	14024
853.645	14073
853.78	14278
853.914	14123
854.048	14153
854.183	14149
854.317	14107
854.451	14267
854.585	14187
854.72	14001
854.854	14191
854.988	14168
855.122	14142
855.256	14039
855.39	14130
855.524	14195
855.658	14263
855.792	14172
855.926	14267
856.06	14275
856.194	14282
856.327	14187
856.461	14168
856.595	14119
856.729	14240
856.862	14282
856.996	14206
857.13	14157
857.263	14317
857.397	14202
857.53	14145
857.664	14221
857.797	14153
857.931	14225
858.064	14168
858.197	14298
858.331	14149
858.464	14164
858.597	14031
858.731	14142
858.864	14164
858.997	14088
859.13	14168
859.263	14229
859.396	14240
859.529	14214
859.662	14145
859.795	14210
859.928	14202
860.061	14320
860.194	14343
860.327	14214
860.46	14138
860.592	14256
860.725	14187
860.858	14248
860.99	14237
861.123	14134
861.256	14027
861.388	14134
861.521	14785
861.653	14054
861.786	13993
861.918	14077
862.05	14073
862.183	14050
862.315	14168
862.447	14286
862.58	14081
862.712	13932
862.844	13917
862.976	13970
863.108	14027
863.24	14180
863.372	13883
863.504	13883
863.636	13967
863.768	13928
863.9	13978
864.032	13906
864.164	13902
864.296	13898
864.428	14046
864.559	14039
864.691	14088
864.823	14016
864.954	13947
865.086	13951
865.217	13982
865.349	13890
865.48	13936
865.612	13913
865.743	14069
865.875	13913
866.006	13906
866.137	13944
866.269	13978
866.4	13928
866.531	13849
866.662	13883
866.793	13894
866.924	13951
867.055	13970
867.186	13902
867.317	13849
867.448	13909
867.579	13921
867.71	13803
867.841	13898
867.972	14001
868.103	13925
868.233	13989
868.364	13822
868.495	13997
868.625	14107
868.756	14275
868.886	14119
869.017	14153
869.147	14339
869.278	14313
869.408	14168
869.539	14210
869.669	14180
869.799	14210
869.929	14259
870.06	14210
870.19	14484
870.32	14438
870.45	14511
870.58	14533
870.71	14610
870.84	14632
870.97	14598
871.1	14537
871.23	14815
871.36	14758
871.489	14655
871.619	14743
871.749	14720
871.879	14796
872.008	14811
872.138	14750
872.267	14796
872.397	14564
872.526	14583
872.656	14632
872.785	14545
872.915	14765
873.044	14960
873.173	14796
873.303	14842
873.432	14796
873.561	14834
873.69	14826
873.819	14921
873.948	14925
874.077	14857
874.206	14765
874.335	14979
874.464	14918
874.593	15081
874.722	15089
874.851	15119
874.979	15222
875.108	15161
875.237	15039
875.365	15043
875.494	15108
875.623	15207
875.751	15066
875.88	15176
876.008	15348
876.136	15374
876.265	15572
876.393	15789
876.521	15618
876.65	15629
876.778	15587
876.906	15504
877.034	15447
877.162	15526
877.29	15473
877.418	15591
877.546	15488
877.674	15553
877.802	15557
877.93	15549
878.058	15549
878.185	15447
878.313	15538
878.441	15542
878.568	15458
878.696	15428
878.824	15549
878.951	15530
879.079	15675
879.206	15770
879.333	15603
879.461	15656
879.588	15591
879.715	15846
879.842	15850
879.97	15720
880.097	15401
880.224	15420
880.351	15389
880.478	15401
880.605	15351
880.732	15348
880.859	15663
880.986	15496
881.112	15469
881.239	15355
881.366	15116
881.493	15195
881.619	15062
881.746	15127
881.872	15055
881.999	15036
882.125	15062
882.252	15138
882.378	15138
882.505	15252
882.631	14952
882.757	14960
882.883	14838
883.01	14944
883.136	14800
883.262	14705
883.388	14735
883.514	14842
883.64	14933
883.766	14872
883.892	14606
884.018	14746
884.143	14807
884.269	14971
884.395	14606
884.52	14560
884.646	14670
884.772	14495
884.897	14442
885.023	14663
885.148	14659
885.274	14712
885.399	14712
885.524	14655
885.65	14541
885.775	14636
885.9	14583
886.025	14788
886.15	14613
886.275	14602
886.4	14587
886.525	14602
886.65	14606
886.775	14617
886.9	14750
887.025	14800
887.149	14568
887.274	14343
887.399	14412
887.523	14355
887.648	14362
887.773	14256
887.897	14503
888.021	14469
888.146	14385
888.27	14438
888.395	14507
888.519	14492
888.643	14438
888.767	14518
888.891	14336
889.015	14267
889.139	14400
889.263	14240
889.387	14412
889.511	14450
889.635	14446
889.759	14225
889.883	14290
890.006	14431
890.13	14400
890.254	14153
890.377	14126
890.501	14065
890.624	14081
890.748	14153
890.871	13993
890.995	13940
891.118	13894
891.241	13902
891.364	14130
891.488	14119
891.611	14054
891.734	13989
891.857	14062
891.98	13989
892.103	14039
892.226	14016
892.349	13970
892.471	13841
892.594	13982
892.717	14016
892.839	14027
892.962	13925
893.085	14062
893.207	13982
893.33	13852
893.452	13932
893.575	14062
893.697	14020
893.819	14187
893.941	14168
894.064	14157
894.186	13902
894.308	13955
894.43	14168
894.552	14149
894.674	14149
894.796	13906
894.918	14001
895.04	13970
895.161	14126
895.283	14161
895.405	13932
895.526	14012
895.648	14027
895.769	14183
895.891	14153
896.012	14191
896.134	14183
896.255	14142
896.376	14134
896.498	14199
896.619	14180
896.74	14149
896.861	14187
896.982	14560
897.103	14648
897.224	14412
897.345	14415
897.466	14393
897.587	14438
897.708	14545
897.828	14492
897.949	14396
898.07	14347
898.19	14457
898.311	14640
898.431	14492
898.552	14564
898.672	14587
898.792	14678
898.913	14598
899.033	14560
899.153	14415
899.273	14199
899.393	14374
899.513	14343
899.633	14339
899.753	14434
899.873	14355
899.993	14450
900.113	14320
900.232	14427
900.352	14385
900.472	14366
900.591	14195
900.711	14142
900.83	14237
900.95	14275
901.069	14385
901.189	14237
901.308	14001
901.427	13928
901.546	13883
901.665	13997
901.784	13993
901.904	13879
902.023	13761
902.141	13533
902.26	13540
902.379	13651
902.498	13407
902.617	13407
902.735	13529
902.854	13419
902.973	13415
903.091	13270
903.21	13225
903.328	13236
903.446	13149
903.565	13057
903.683	13091
903.801	12966
903.919	13107
904.038	12989
904.156	12882
904.274	12905
904.392	12795
904.51	12867
904.627	12954
904.745	12863
904.863	12924
904.981	12703
905.098	12578
905.216	12574
905.334	12608
905.451	12631
905.569	12471
905.686	12627
905.803	12582
905.921	12292
906.038	12460
906.155	12418
906.272	12273
906.389	12296
906.506	12186
906.623	12140
906.74	12136
906.857	12064
906.974	12083
907.091	12186
907.208	12334
907.324	12235
907.441	12022
907.557	11908
907.674	11866
907.79	11908
907.907	11874
908.023	11950
908.139	11942
908.256	11821
908.372	11798
908.488	11843
908.604	11646
908.72	11653
908.836	11608
908.952	11653
909.068	11676
909.184	11767
909.3	11726
909.415	11638
909.531	11779
909.647	11414
909.762	11376
909.878	11448
909.993	11433
910.108	11414
910.224	11398
910.339	11383
910.454	11391
910.57	11383
910.685	11220
910.8	11585
910.915	11421
911.03	11303
911.145	11094
911.259	11143
911.374	11113
911.489	11025
911.604	10957
911.718	10862
911.833	10885
911.947	10706
912.062	10736
912.176	10946
912.291	10896
912.405	10885
912.519	11018
912.633	11109
912.748	10900
912.862	10889
912.976	10774
913.09	10603
913.204	10767
913.318	10744
913.431	10957
913.545	10900
913.659	10889
913.772	10816
913.886	10694
914	10691
914.113	10725
914.226	10771
914.34	10778
914.453	10615
914.566	10759
914.68	10558
914.793	10561
914.906	10432
915.019	10405
915.132	10287
915.245	10356
915.358	10440
915.47	10455
915.583	10470
915.696	10409
915.809	10519
915.921	10615
916.034	10295
916.146	10329
916.259	10363
916.371	10504
916.483	10367
916.595	10428
916.708	10356
916.82	10322
916.932	10306
917.044	10371
917.156	10402
917.268	10181
917.38	10310
917.491	10207
917.603	10299
917.715	10367
917.826	10291
917.938	10192
918.049	10109
918.161	10227
918.272	10348
918.384	10348
918.495	10211
918.606	10162
918.717	10078
918.828	10112
918.939	10196
919.05	10086
919.161	10090
919.272	9941
919.383	9975
919.494	10234
919.604	10363
919.715	10162
919.826	10139
919.936	10207
920.047	10234
920.157	10139
920.267	10375
920.378	10242
920.488	10147
920.598	10382
920.708	10497
920.818	10405
920.928	10348
921.038	10565
921.148	10535
921.258	10181
921.368	10143
921.477	10063
921.587	10036
921.697	9987
921.806	10074
921.916	9918
922.025	9808
922.134	9686
922.244	9717
922.353	9755
922.462	9637
922.571	9553
922.68	9447
922.789	9370
922.898	9447
923.007	9393
923.116	9405
923.224	9481
923.333	9439
923.442	9336
923.55	9291
923.659	9397
923.767	9317
923.876	9329
923.984	9382
924.092	9256
924.201	9291
924.309	9275
924.417	9367
924.525	9253
924.633	9294
924.741	10154
924.849	9062
924.956	9226
925.064	9123
925.172	9032
925.279	9123
925.387	9074
925.494	9188
925.602	9249
925.709	9176
925.816	9077
925.924	9169
926.031	9237
926.138	9157
926.245	9207
926.352	8982
926.459	9188
926.566	9222
926.673	9043
926.779	8975
926.886	8906
926.993	8849
927.099	8800
927.206	8830
927.312	8785
927.419	8796
927.525	8830
927.631	8918
927.737	8720
927.843	8762
927.95	8625
928.056	8659
928.162	8667
928.267	8731
928.373	9268
928.479	8819
928.585	8610
928.69	8689
928.796	8754
928.901	8564
929.007	8518
929.112	8625
929.218	8511
929.323	8564
929.428	8507
929.533	8651
929.638	8484
929.743	8518
929.848	8594
929.953	8480
930.058	8393
930.163	8271
930.267	8320
930.372	8404
930.477	8290
930.581	8511
930.685	8324
930.79	8259
930.894	8294
930.998	8263
931.103	8332
931.207	8088
931.311	7967
931.415	7906
931.519	7761
931.623	7708
