Data from test_V78500241_3400.txt Node
Date: Fri Mar 25 14:57:23 CST 2022
User: usil
Spectrometer: V785-0024
Trigger mode: 0
Integration Time (sec): 4.000000E-1
Scans to average: 1
Nonlinearity correction enabled: false
Boxcar width: 0
Storing dark spectrum: false
XAxis mode: Wavelengths
Number of Pixels in Spectrum: 1024
>>>>>Begin Spectral Data<<<<<
801.071	21880
801.214	21915
801.356	21614
801.499	21538
801.641	21454
801.783	21416
801.926	21443
802.068	21287
802.211	21199
802.353	21074
802.496	20956
802.638	20765
802.78	20826
802.923	20602
803.065	20625
803.208	20492
803.35	20629
803.492	20625
803.635	20693
803.777	20575
803.919	20853
804.061	20948
804.204	20651
804.346	20514
804.488	20488
804.63	20575
804.773	20415
804.915	20686
805.057	20598
805.199	20541
805.341	20670
805.483	20648
805.626	20522
805.768	20625
805.91	20583
806.052	20503
806.194	20457
806.336	20621
806.478	20522
806.62	20347
806.762	20667
806.904	20739
807.046	20971
807.188	20883
807.33	20937
807.472	20975
807.614	20800
807.756	20739
807.898	20636
808.04	20396
808.182	20621
808.324	20556
808.465	20587
808.607	20857
808.749	20941
808.891	20963
809.033	20979
809.174	20910
809.316	20807
809.458	20971
809.6	20807
809.741	20872
809.883	20914
810.025	21028
810.166	21146
810.308	20979
810.45	21017
810.591	20910
810.733	20689
810.875	20697
811.016	20720
811.158	20473
811.299	20648
811.441	20743
811.582	20754
811.724	20617
811.865	20571
812.007	20693
812.148	20655
812.29	20762
812.431	20785
812.573	20990
812.714	21020
812.855	21127
812.997	21241
813.138	21370
813.279	21146
813.421	21096
813.562	21024
813.703	20883
813.845	20918
813.986	20636
814.127	20419
814.268	20100
814.41	20218
814.551	20168
814.692	20313
814.833	20084
814.974	20069
815.115	20233
815.256	20096
815.397	19959
815.539	19928
815.68	19921
815.821	19780
815.962	19928
816.103	19852
816.244	19639
816.385	19677
816.526	19635
816.666	19578
816.807	19362
816.948	19525
817.089	19537
817.23	19575
817.371	19434
817.512	19255
817.653	19312
817.793	19324
817.934	19304
818.075	19320
818.216	19304
818.356	19251
818.497	19141
818.638	18981
818.778	19072
818.919	19004
819.06	18954
819.2	19164
819.341	19206
819.481	19171
819.622	19422
819.762	19548
819.903	19521
820.043	19350
820.184	19339
820.324	19293
820.465	19251
820.605	19297
820.746	19190
820.886	19168
821.026	19285
821.167	19285
821.307	19324
821.447	19240
821.588	19080
821.728	19038
821.868	18909
822.008	18753
822.149	18802
822.289	18764
822.429	18536
822.569	18407
822.709	18494
822.849	18209
822.99	18194
823.13	18125
823.27	18064
823.41	18026
823.55	18003
823.69	18106
823.83	18011
823.97	17977
824.11	17767
824.25	17767
824.389	17817
824.529	17843
824.669	17733
824.809	17923
824.949	17843
825.089	17824
825.228	17775
825.368	17547
825.508	17497
825.648	17615
825.787	17592
825.927	17604
826.067	17596
826.206	17585
826.346	17619
826.485	17592
826.625	17474
826.765	17646
826.904	17562
827.044	17349
827.183	17284
827.323	17299
827.462	17372
827.601	17326
827.741	17223
827.88	17299
828.02	17117
828.159	17223
828.298	17258
828.437	17284
828.577	17155
828.716	17311
828.855	17231
828.994	16987
829.134	16972
829.273	16965
829.412	16911
829.551	16927
829.69	17018
829.829	17003
829.968	17075
830.107	17018
830.246	17006
830.385	16896
830.524	16972
830.663	16885
830.802	16805
830.941	16694
831.08	16554
831.219	16694
831.357	16733
831.496	16908
831.635	16626
831.774	16519
831.913	16596
832.051	16466
832.19	16428
832.329	16421
832.467	16242
832.606	16230
832.744	16268
832.883	16348
833.022	16348
833.16	16375
833.299	16489
833.437	16284
833.576	16409
833.714	16325
833.852	16390
833.991	16489
834.129	16546
834.267	16485
834.406	16352
834.544	16474
834.682	16413
834.821	16371
834.959	16569
835.097	16314
835.235	16432
835.373	16470
835.511	16432
835.65	16341
835.788	16360
835.926	16173
836.064	16048
836.202	16109
836.34	16280
836.478	16424
836.615	16280
836.753	16272
836.891	16466
837.029	16409
837.167	16230
837.305	16276
837.443	16173
837.58	16131
837.718	16158
837.856	16158
837.993	16177
838.131	16147
838.269	16093
838.406	16116
838.544	16120
838.681	15907
838.819	15861
838.956	15743
839.094	15774
839.231	15736
839.369	15888
839.506	16139
839.643	16006
839.781	15808
839.918	15701
840.055	15736
840.193	15751
840.33	15720
840.467	15717
840.604	15705
840.742	15903
840.879	15629
841.016	15675
841.153	15633
841.29	15873
841.427	15762
841.564	15724
841.701	15781
841.838	15633
841.975	15580
842.112	15747
842.249	15572
842.385	15526
842.522	15660
842.659	15450
842.796	15572
842.933	15599
843.069	15568
843.206	15424
843.343	15606
843.479	15519
843.616	15542
843.752	15363
843.889	15283
844.025	15534
844.162	15374
844.298	15386
844.435	15386
844.571	15306
844.708	15428
844.844	15462
844.98	15462
845.117	15511
845.253	15279
845.389	15146
845.525	15233
845.661	15218
845.798	15154
845.934	15093
846.07	15020
846.206	15195
846.342	15176
846.478	15207
846.614	15005
846.75	14781
846.886	14925
847.022	14944
847.158	14933
847.294	14864
847.429	14887
847.565	14937
847.701	15127
847.837	14678
847.972	14587
848.108	14708
848.244	14602
848.379	14594
848.515	14522
848.65	14461
848.786	14446
848.921	14438
849.057	14530
849.192	14541
849.328	14541
849.463	14450
849.598	14450
849.734	14366
849.869	14465
850.004	14206
850.14	14305
850.275	14187
850.41	14092
850.545	14237
850.68	14206
850.815	14298
850.95	14252
851.085	14442
851.22	14305
851.355	14271
851.49	14123
851.625	14229
851.76	14263
851.895	14123
852.03	14195
852.165	14240
852.299	14206
852.434	14381
852.569	14244
852.703	14256
852.838	14396
852.973	14427
853.107	14404
853.242	14221
853.376	14126
853.511	13989
853.645	13997
853.78	14195
853.914	14126
854.048	14088
854.183	14157
854.317	14149
854.451	14256
854.585	14214
854.72	14084
854.854	14168
854.988	14119
855.122	14069
855.256	14039
855.39	14145
855.524	14271
855.658	14218
855.792	14161
855.926	14195
856.06	14153
856.194	14157
856.327	14142
856.461	14031
856.595	14138
856.729	14096
856.862	14176
856.996	14229
857.13	14142
857.263	14183
857.397	14164
857.53	14123
857.664	14123
857.797	14172
857.931	14320
858.064	14202
858.197	14275
858.331	14130
858.464	14168
858.597	13967
858.731	14065
858.864	14138
858.997	14100
859.13	14130
859.263	14119
859.396	14275
859.529	14054
859.662	14153
859.795	14005
859.928	14157
860.061	14343
860.194	14286
860.327	14111
860.46	14130
860.592	14256
860.725	14233
860.858	14275
860.99	14103
861.123	13917
861.256	14005
861.388	14195
861.521	14906
861.653	13959
861.786	13974
861.918	14107
862.05	14119
862.183	14031
862.315	14123
862.447	14115
862.58	14161
862.712	13887
862.844	13833
862.976	14054
863.108	13936
863.24	14313
863.372	13890
863.504	13940
863.636	13864
863.768	14008
863.9	13898
864.032	13887
864.164	13875
864.296	14005
864.428	14031
864.559	14008
864.691	14088
864.823	14058
864.954	13955
865.086	13898
865.217	13951
865.349	13852
865.48	13997
865.612	13936
865.743	14001
865.875	13871
866.006	13864
866.137	13947
866.269	13871
866.4	13841
866.531	13833
866.662	13788
866.793	13818
866.924	13830
867.055	13875
867.186	13860
867.317	13864
867.448	13818
867.579	13845
867.71	13852
867.841	13856
867.972	13852
868.103	13947
868.233	13970
868.364	13906
868.495	13955
868.625	14103
868.756	14180
868.886	14065
869.017	14145
869.147	14180
869.278	14199
869.408	14084
869.539	14126
869.669	14161
869.799	14256
869.929	14233
870.06	14206
870.19	14450
870.32	14431
870.45	14518
870.58	14499
870.71	14598
870.84	14606
870.97	14492
871.1	14514
871.23	14735
871.36	14689
871.489	14632
871.619	14758
871.749	14663
871.879	14746
872.008	14731
872.138	14804
872.267	14674
872.397	14689
872.526	14507
872.656	14514
872.785	14670
872.915	14811
873.044	14880
873.173	14720
873.303	14804
873.432	14826
873.561	14857
873.69	14845
873.819	14758
873.948	14868
874.077	14743
874.206	14811
874.335	14785
874.464	14990
874.593	15070
874.722	14956
874.851	15112
874.979	15047
875.108	15184
875.237	15161
875.365	15142
875.494	15062
875.623	15222
875.751	15119
875.88	15222
876.008	15264
876.136	15294
876.265	15663
876.393	15717
876.521	15656
876.65	15526
876.778	15595
876.906	15428
877.034	15424
877.162	15526
877.29	15386
877.418	15530
877.546	15526
877.674	15481
877.802	15473
877.93	15496
878.058	15481
878.185	15481
878.313	15515
878.441	15481
878.568	15405
878.696	15485
878.824	15515
878.951	15568
879.079	15679
879.206	15812
879.333	15644
879.461	15568
879.588	15572
879.715	15656
879.842	15865
879.97	15595
880.097	15412
880.224	15401
880.351	15348
880.478	15344
880.605	15389
880.732	15393
880.859	15637
880.986	15431
881.112	15443
881.239	15329
881.366	15157
881.493	15093
881.619	14960
881.746	15097
881.872	15077
881.999	15043
882.125	15039
882.252	15112
882.378	15055
882.505	15165
882.631	14982
882.757	14853
882.883	14929
883.01	14857
883.136	14815
883.262	14686
883.388	14670
883.514	14872
883.64	14918
883.766	14792
883.892	14621
884.018	14640
884.143	14739
884.269	14880
884.395	14617
884.52	14617
884.646	14575
884.772	14473
884.897	14469
885.023	14571
885.148	14682
885.274	14689
885.399	14670
885.524	14530
885.65	14731
885.775	14655
885.9	14526
886.025	14674
886.15	14670
886.275	14560
886.4	14469
886.525	14610
886.65	14511
886.775	14412
886.9	14743
887.025	14765
887.149	14606
887.274	14457
887.399	14419
887.523	14385
887.648	14248
887.773	14240
887.897	14473
888.021	14393
888.146	14400
888.27	14533
888.395	14575
888.519	14495
888.643	14446
888.767	14545
888.891	14347
889.015	14229
889.139	14309
889.263	14256
889.387	14377
889.511	14423
889.635	14492
889.759	14317
889.883	14294
890.006	14286
890.13	14313
890.254	14176
890.377	14256
890.501	14077
890.624	14073
890.748	14157
890.871	13982
890.995	13917
891.118	13864
891.241	14008
891.364	14024
891.488	14062
891.611	13970
891.734	14008
891.857	14130
891.98	13944
892.103	14130
892.226	14005
892.349	13932
892.471	13864
892.594	13932
892.717	13936
892.839	14050
892.962	14050
893.085	13955
893.207	13906
893.33	13841
893.452	13883
893.575	14077
893.697	13940
893.819	14107
893.941	14172
894.064	14111
894.186	13959
894.308	13967
894.43	14092
894.552	14252
894.674	14077
894.796	13970
894.918	14005
895.04	13967
895.161	14100
895.283	14153
895.405	14012
895.526	14062
895.648	14183
895.769	14183
895.891	14199
896.012	14161
896.134	14176
896.255	14168
896.376	14142
896.498	14126
896.619	14081
896.74	14161
896.861	14164
896.982	14446
897.103	14640
897.224	14347
897.345	14400
897.466	14377
897.587	14347
897.708	14522
897.828	14423
897.949	14385
898.07	14298
898.19	14328
898.311	14503
898.431	14370
898.552	14564
898.672	14602
898.792	14659
898.913	14545
899.033	14374
899.153	14294
899.273	14195
899.393	14313
899.513	14347
899.633	14473
899.753	14362
899.873	14339
899.993	14343
900.113	14267
900.232	14282
900.352	14317
900.472	14275
900.591	14149
900.711	14202
900.83	14172
900.95	14282
901.069	14271
901.189	14138
901.308	13947
901.427	13928
901.546	13841
901.665	13868
901.784	13883
901.904	13765
902.023	13647
902.141	13533
902.26	13358
902.379	13582
902.498	13365
902.617	13480
902.735	13464
902.854	13400
902.973	13430
903.091	13236
903.21	13141
903.328	13198
903.446	13080
903.565	12981
903.683	13088
903.801	12909
903.919	12981
904.038	13031
904.156	12859
904.274	12882
904.392	12867
904.51	12776
904.627	12871
904.745	12909
904.863	12916
904.981	12677
905.098	12525
905.216	12490
905.334	12597
905.451	12623
905.569	12544
905.686	12589
905.803	12616
905.921	12441
906.038	12467
906.155	12369
906.272	12216
906.389	12289
906.506	12140
906.623	12178
906.74	12152
906.857	12007
906.974	12102
907.091	12182
907.208	12338
907.324	12136
907.441	11965
907.557	11954
907.674	11893
907.79	11828
907.907	11893
908.023	11840
908.139	11931
908.256	11824
908.372	11767
908.488	11893
908.604	11680
908.72	11729
908.836	11573
908.952	11608
909.068	11642
909.184	11737
909.3	11665
909.415	11718
909.531	11752
909.647	11455
909.762	11414
909.878	11368
909.993	11444
910.108	11383
910.224	11452
910.339	11482
910.454	11395
910.57	11231
910.685	11185
910.8	11528
910.915	11410
911.03	11296
911.145	11067
911.259	11140
911.374	11147
911.489	11079
911.604	11006
911.718	10904
911.833	10892
911.947	10774
912.062	10641
912.176	10904
912.291	10896
912.405	10881
912.519	11041
912.633	11064
912.748	10938
912.862	10854
912.976	10706
913.09	10630
913.204	10736
913.318	10744
913.431	10801
913.545	10911
913.659	10877
913.772	10759
913.886	10679
914	10698
914.113	10679
914.226	10778
914.34	10721
914.453	10538
914.566	10717
914.68	10554
914.793	10584
914.906	10367
915.019	10421
915.132	10310
915.245	10398
915.358	10447
915.47	10432
915.583	10344
915.696	10466
915.809	10493
915.921	10592
916.034	10394
916.146	10428
916.259	10303
916.371	10459
916.483	10428
916.595	10249
916.708	10325
916.82	10371
916.932	10314
917.044	10356
917.156	10219
917.268	10196
917.38	10192
917.491	10139
917.603	10268
917.715	10257
917.826	10341
917.938	10227
918.049	10093
918.161	10253
918.272	10413
918.384	10322
918.495	10234
918.606	10154
918.717	10090
918.828	10158
918.939	10131
919.05	10029
919.161	10173
919.272	9907
919.383	9934
919.494	10150
919.604	10341
919.715	10169
919.826	10006
919.936	10131
920.047	10120
920.157	10150
920.267	10287
920.378	10135
920.488	10101
920.598	10310
920.708	10485
920.818	10375
920.928	10344
921.038	10478
921.148	10421
921.258	10181
921.368	10090
921.477	9960
921.587	9983
921.697	9865
921.806	9987
921.916	9876
922.025	9762
922.134	9694
922.244	9663
922.353	9724
922.462	9572
922.571	9545
922.68	9416
922.789	9416
922.898	9416
923.007	9287
923.116	9393
923.224	9412
923.333	9351
923.442	9230
923.55	9188
923.659	9321
923.767	9325
923.876	9176
923.984	9294
924.092	9150
924.201	9283
924.309	9264
924.417	9344
924.525	9233
924.633	9218
924.741	10223
924.849	9032
924.956	9222
925.064	9013
925.172	8952
925.279	9036
925.387	9074
925.494	9100
925.602	9127
925.709	9150
925.816	9009
925.924	9047
926.031	9154
926.138	9024
926.245	9036
926.352	9009
926.459	9142
926.566	9188
926.673	9047
926.779	8902
926.886	8891
926.993	8758
927.099	8807
927.206	8735
927.312	8735
927.419	8777
927.525	8785
927.631	8804
927.737	8697
927.843	8678
927.95	8537
928.056	8667
928.162	8716
928.267	8716
928.373	9291
928.479	8804
928.585	8556
928.69	8625
928.796	8724
928.901	8499
929.007	8450
929.112	8552
929.218	8613
929.323	8450
929.428	8473
929.533	8613
929.638	8454
929.743	8465
929.848	8492
929.953	8457
930.058	8339
930.163	8256
930.267	8199
930.372	8431
930.477	8248
930.581	8480
930.685	8305
930.79	8218
930.894	8240
930.998	8191
931.103	8313
931.207	7947
931.311	7932
931.415	7852
931.519	7715
931.623	7746
