Data from test_V78500241_1903.txt Node
Date: Fri Mar 25 14:46:57 CST 2022
User: usil
Spectrometer: V785-0024
Trigger mode: 0
Integration Time (sec): 4.000000E-1
Scans to average: 1
Nonlinearity correction enabled: false
Boxcar width: 0
Storing dark spectrum: false
XAxis mode: Wavelengths
Number of Pixels in Spectrum: 1024
>>>>>Begin Spectral Data<<<<<
801.071	22116
801.214	21899
801.356	21785
801.499	21709
801.641	21481
801.783	21351
801.926	21450
802.068	21431
802.211	21382
802.353	21222
802.496	21043
802.638	20933
802.78	20975
802.923	20842
803.065	20739
803.208	20724
803.35	20853
803.492	20781
803.635	20891
803.777	20857
803.919	20750
804.061	21017
804.204	20899
804.346	20769
804.488	20670
804.63	20777
804.773	20705
804.915	20743
805.057	20811
805.199	20724
805.341	20720
805.483	20868
805.626	20777
805.768	20659
805.91	20720
806.052	20804
806.194	20712
806.336	20735
806.478	20708
806.62	20693
806.762	20845
806.904	20819
807.046	21127
807.188	21051
807.33	21077
807.472	20994
807.614	21062
807.756	20937
807.898	20849
808.04	20769
808.182	20785
808.324	20746
808.465	20872
808.607	20929
808.749	21100
808.891	21199
809.033	21214
809.174	21192
809.316	21028
809.458	21127
809.6	21005
809.741	21131
809.883	21207
810.025	21321
810.166	21275
810.308	21355
810.45	21245
810.591	21207
810.733	20944
810.875	20861
811.016	20735
811.158	20701
811.299	20982
811.441	21032
811.582	20975
811.724	20952
811.865	20773
812.007	20853
812.148	20743
812.29	20910
812.431	20990
812.573	21032
812.714	21211
812.855	21241
812.997	21507
813.138	21504
813.279	21447
813.421	21294
813.562	21264
813.703	21108
813.845	20960
813.986	20663
814.127	20552
814.268	20514
814.41	20568
814.551	20370
814.692	20370
814.833	20305
814.974	20225
815.115	20396
815.256	20324
815.397	20195
815.539	20176
815.68	20214
815.821	20058
815.962	20081
816.103	20035
816.244	19967
816.385	19921
816.526	19833
816.666	19658
816.807	19582
816.948	19624
817.089	19677
817.23	19670
817.371	19575
817.512	19639
817.653	19483
817.793	19460
817.934	19506
818.075	19670
818.216	19578
818.356	19544
818.497	19358
818.638	19122
818.778	19274
818.919	19221
819.06	19301
819.2	19384
819.341	19285
819.481	19460
819.622	19499
819.762	19734
819.903	19472
820.043	19556
820.184	19518
820.324	19457
820.465	19548
820.605	19651
820.746	19460
820.886	19312
821.026	19514
821.167	19434
821.307	19468
821.447	19480
821.588	19301
821.728	19110
821.868	19031
822.008	18939
822.149	18970
822.289	18977
822.429	18688
822.569	18578
822.709	18578
822.849	18323
822.99	18395
823.13	18353
823.27	18384
823.41	18235
823.55	18083
823.69	18266
823.83	18216
823.97	18213
824.11	18102
824.25	17977
824.389	18053
824.529	17969
824.669	17916
824.809	18136
824.949	18087
825.089	18053
825.228	17901
825.368	17824
825.508	17851
825.648	17687
825.787	17897
825.927	17870
826.067	17729
826.206	17756
826.346	17783
826.485	17764
826.625	17649
826.765	17874
826.904	17687
827.044	17562
827.183	17516
827.323	17505
827.462	17547
827.601	17455
827.741	17448
827.88	17547
828.02	17322
828.159	17463
828.298	17543
828.437	17486
828.577	17368
828.716	17657
828.855	17421
828.994	17239
829.134	17261
829.273	17246
829.412	17200
829.551	17292
829.69	17181
829.829	17151
829.968	17303
830.107	17292
830.246	17227
830.385	17155
830.524	17178
830.663	17022
830.802	16885
830.941	16911
831.08	16793
831.219	16961
831.357	16957
831.496	17117
831.635	16847
831.774	16801
831.913	16862
832.051	16603
832.19	16641
832.329	16790
832.467	16683
832.606	16584
832.744	16603
832.883	16447
833.022	16493
833.16	16569
833.299	16596
833.437	16641
833.576	16630
833.714	16733
833.852	16618
833.991	16702
834.129	16656
834.267	16603
834.406	16634
834.544	16706
834.682	16675
834.821	16618
834.959	16930
835.097	16702
835.235	16740
835.373	16630
835.511	16615
835.65	16622
835.788	16489
835.926	16516
836.064	16363
836.202	16470
836.34	16519
836.478	16584
836.615	16462
836.753	16641
836.891	16653
837.029	16634
837.167	16508
837.305	16516
837.443	16440
837.58	16322
837.718	16443
837.856	16569
837.993	16344
838.131	16481
838.269	16291
838.406	16367
838.544	16272
838.681	16150
838.819	16158
838.956	15915
839.094	15983
839.231	16044
839.369	16063
839.506	16413
839.643	16143
839.781	15983
839.918	15968
840.055	15949
840.193	16017
840.33	16082
840.467	15876
840.604	15934
840.742	16242
840.879	15846
841.016	15827
841.153	15934
841.29	16166
841.427	16013
841.564	15979
841.701	16017
841.838	15945
841.975	15956
842.112	15869
842.249	15857
842.385	15701
842.522	15911
842.659	15819
842.796	15762
842.933	15816
843.069	15709
843.206	15717
843.343	15804
843.479	15743
843.616	15804
843.752	15690
843.889	15511
844.025	15770
844.162	15534
844.298	15591
844.435	15584
844.571	15507
844.708	15667
844.844	15736
844.98	15675
845.117	15667
845.253	15500
845.389	15447
845.525	15473
845.661	15469
845.798	15313
845.934	15447
846.07	15321
846.206	15351
846.342	15477
846.478	15294
846.614	15203
846.75	15142
846.886	15066
847.022	15222
847.158	15226
847.294	15131
847.429	15256
847.565	15226
847.701	15416
847.837	14914
847.972	14762
848.108	14895
848.244	14891
848.379	14823
848.515	14811
848.65	14754
848.786	14750
848.921	14769
849.057	14887
849.192	14925
849.328	14804
849.463	14743
849.598	14682
849.734	14670
849.869	14575
850.004	14537
850.14	14640
850.275	14533
850.41	14503
850.545	14514
850.68	14514
850.815	14454
850.95	14507
851.085	14659
851.22	14659
851.355	14571
851.49	14434
851.625	14495
851.76	14366
851.895	14320
852.03	14347
852.165	14404
852.299	14484
852.434	14621
852.569	14549
852.703	14590
852.838	14530
852.973	14613
853.107	14670
853.242	14450
853.376	14309
853.511	14290
853.645	14294
853.78	14438
853.914	14415
854.048	14381
854.183	14210
854.317	14347
854.451	14613
854.585	14328
854.72	14320
854.854	14495
854.988	14351
855.122	14252
855.256	14225
855.39	14385
855.524	14431
855.658	14442
855.792	14320
855.926	14374
856.06	14480
856.194	14469
856.327	14370
856.461	14362
856.595	14286
856.729	14313
856.862	14454
856.996	14328
857.13	14408
857.263	14473
857.397	14366
857.53	14404
857.664	14415
857.797	14454
857.931	14556
858.064	14450
858.197	14461
858.331	14278
858.464	14301
858.597	14229
858.731	14480
858.864	14343
858.997	14324
859.13	14461
859.263	14389
859.396	14381
859.529	14377
859.662	14259
859.795	14320
859.928	14450
860.061	14511
860.194	14473
860.327	14339
860.46	14313
860.592	14495
860.725	14571
860.858	14495
860.99	14358
861.123	14294
861.256	14381
861.388	14343
861.521	15150
861.653	14145
861.786	14221
861.918	14100
862.05	14278
862.183	14317
862.315	14237
862.447	14404
862.58	14317
862.712	14092
862.844	14119
862.976	14202
863.108	14126
863.24	14454
863.372	14130
863.504	14164
863.636	14161
863.768	14233
863.9	14157
864.032	14100
864.164	14100
864.296	14218
864.428	14275
864.559	14244
864.691	14294
864.823	14138
864.954	14183
865.086	14210
865.217	14107
865.349	14027
865.48	14119
865.612	14111
865.743	14218
865.875	14210
866.006	14145
866.137	14142
866.269	14195
866.4	14157
866.531	14111
866.662	14107
866.793	14035
866.924	13982
867.055	14145
867.186	14168
867.317	14065
867.448	14069
867.579	14130
867.71	14031
867.841	14024
867.972	14123
868.103	14119
868.233	14145
868.364	14077
868.495	14145
868.625	14259
868.756	14423
868.886	14324
869.017	14278
869.147	14427
869.278	14499
869.408	14396
869.539	14465
869.669	14495
869.799	14400
869.929	14579
870.06	14514
870.19	14617
870.32	14674
870.45	14686
870.58	14807
870.71	14857
870.84	14933
870.97	14830
871.1	14735
871.23	15009
871.36	14914
871.489	14788
871.619	14975
871.749	14994
871.879	14899
872.008	15116
872.138	14944
872.267	14952
872.397	14781
872.526	14773
872.656	14807
872.785	14811
872.915	14982
873.044	15017
873.173	15017
873.303	15036
873.432	15047
873.561	15150
873.69	14990
873.819	14948
873.948	15104
874.077	14952
874.206	15005
874.335	15062
874.464	15173
874.593	15401
874.722	15294
874.851	15378
874.979	15279
875.108	15443
875.237	15313
875.365	15325
875.494	15230
875.623	15431
875.751	15340
875.88	15435
876.008	15488
876.136	15542
876.265	15759
876.393	15812
876.521	15831
876.65	15831
876.778	15694
876.906	15637
877.034	15743
877.162	15785
877.29	15774
877.418	15770
877.546	15762
877.674	15808
877.802	15694
877.93	15728
878.058	15637
878.185	15648
878.313	15652
878.441	15785
878.568	15584
878.696	15656
878.824	15762
878.951	15831
879.079	15850
879.206	15956
879.333	15956
879.461	15785
879.588	15842
879.715	15964
879.842	16055
879.97	15743
880.097	15610
880.224	15599
880.351	15713
880.478	15637
880.605	15553
880.732	15587
880.859	15812
880.986	15599
881.112	15595
881.239	15458
881.366	15431
881.493	15279
881.619	15291
881.746	15329
881.872	15275
881.999	15199
882.125	15245
882.252	15374
882.378	15203
882.505	15321
882.631	15211
882.757	15036
882.883	15100
883.01	15093
883.136	15051
883.262	14929
883.388	14986
883.514	15085
883.64	15131
883.766	15020
883.892	14910
884.018	14880
884.143	15062
884.269	15097
884.395	14864
884.52	14758
884.646	14663
884.772	14735
884.897	14708
885.023	14807
885.148	14845
885.274	14929
885.399	14883
885.524	14788
885.65	14792
885.775	14834
885.9	14777
886.025	14849
886.15	14849
886.275	14693
886.4	14720
886.525	14815
886.65	14689
886.775	14819
886.9	14804
887.025	14941
887.149	14838
887.274	14708
887.399	14549
887.523	14499
887.648	14480
887.773	14522
887.897	14754
888.021	14564
888.146	14564
888.27	14636
888.395	14781
888.519	14636
888.643	14644
888.767	14590
888.891	14499
889.015	14400
889.139	14484
889.263	14442
889.387	14526
889.511	14686
889.635	14545
889.759	14499
889.883	14374
890.006	14522
890.13	14579
890.254	14374
890.377	14389
890.501	14221
890.624	14355
890.748	14267
890.871	14229
890.995	14115
891.118	14081
891.241	14123
891.364	14157
891.488	14290
891.611	14123
891.734	14145
891.857	14180
891.98	14119
892.103	14229
892.226	14180
892.349	14138
892.471	14001
892.594	14130
892.717	14145
892.839	14119
892.962	14069
893.085	14180
893.207	14161
893.33	14115
893.452	14012
893.575	14229
893.697	14225
893.819	14336
893.941	14332
894.064	14362
894.186	14199
894.308	14096
894.43	14210
894.552	14396
894.674	14271
894.796	14164
894.918	14309
895.04	14138
895.161	14252
895.283	14233
895.405	14168
895.526	14092
895.648	14218
895.769	14336
895.891	14282
896.012	14332
896.134	14434
896.255	14370
896.376	14313
896.498	14313
896.619	14419
896.74	14377
896.861	14454
896.982	14670
897.103	14857
897.224	14667
897.345	14514
897.466	14507
897.587	14590
897.708	14712
897.828	14632
897.949	14552
898.07	14415
898.19	14549
898.311	14762
898.431	14587
898.552	14651
898.672	14750
898.792	14750
898.913	14636
899.033	14583
899.153	14434
899.273	14404
899.393	14450
899.513	14526
899.633	14476
899.753	14583
899.873	14526
899.993	14499
900.113	14499
900.232	14473
900.352	14575
900.472	14488
900.591	14366
900.711	14457
900.83	14309
900.95	14381
901.069	14556
901.189	14278
901.308	14145
901.427	13932
901.546	14039
901.665	14077
901.784	14100
901.904	14012
902.023	13830
902.141	13704
902.26	13636
902.379	13681
902.498	13613
902.617	13533
902.735	13636
902.854	13651
902.973	13499
903.091	13434
903.21	13304
903.328	13244
903.446	13312
903.565	13225
903.683	13217
903.801	13061
903.919	13221
904.038	13145
904.156	13015
904.274	13103
904.392	13069
904.51	12954
904.627	12996
904.745	13061
904.863	13034
904.981	12760
905.098	12673
905.216	12700
905.334	12760
905.451	12650
905.569	12677
905.686	12681
905.803	12673
905.921	12566
906.038	12593
906.155	12551
906.272	12357
906.389	12357
906.506	12292
906.623	12346
906.74	12369
906.857	12117
906.974	12235
907.091	12403
907.208	12395
907.324	12304
907.441	12232
907.557	12091
907.674	12011
907.79	11973
907.907	11980
908.023	12087
908.139	11996
908.256	11942
908.372	11920
908.488	11912
908.604	11843
908.72	11813
908.836	11767
908.952	11745
909.068	11889
909.184	11950
909.3	11794
909.415	11946
909.531	11923
909.647	11573
909.762	11577
909.878	11532
909.993	11638
910.108	11524
910.224	11463
910.339	11615
910.454	11467
910.57	11372
910.685	11341
910.8	11688
910.915	11577
911.03	11482
911.145	11311
911.259	11250
911.374	11315
911.489	11185
911.604	11147
911.718	11022
911.833	11064
911.947	10942
912.062	10843
912.176	11098
912.291	11029
912.405	10987
912.519	11181
912.633	11265
912.748	11105
912.862	11025
912.976	10919
913.09	10755
913.204	10847
913.318	10957
913.431	11006
913.545	11003
913.659	11105
913.772	10892
913.886	10828
914	10797
914.113	10862
914.226	10854
914.34	10911
914.453	10645
914.566	10831
914.68	10793
914.793	10797
914.906	10516
915.019	10428
915.132	10360
915.245	10531
915.358	10584
915.47	10546
915.583	10558
915.696	10565
915.809	10660
915.921	10733
916.034	10478
916.146	10451
916.259	10497
916.371	10542
916.483	10542
916.595	10413
916.708	10504
916.82	10451
916.932	10379
917.044	10447
917.156	10413
917.268	10242
917.38	10402
917.491	10329
917.603	10481
917.715	10459
917.826	10500
917.938	10348
918.049	10242
918.161	10371
918.272	10470
918.384	10531
918.495	10363
918.606	10318
918.717	10169
918.828	10177
918.939	10284
919.05	10162
919.161	10257
919.272	10032
919.383	10128
919.494	10337
919.604	10497
919.715	10246
919.826	10101
919.936	10261
920.047	10371
920.157	10303
920.267	10440
920.378	10265
920.488	10299
920.598	10440
920.708	10508
920.818	10390
920.928	10428
921.038	10611
921.148	10519
921.258	10272
921.368	10162
921.477	10124
921.587	10086
921.697	10006
921.806	10112
921.916	9994
922.025	9899
922.134	9869
922.244	9728
922.353	9838
922.462	9694
922.571	9595
922.68	9485
922.789	9523
922.898	9511
923.007	9439
923.116	9545
923.224	9477
923.333	9492
923.442	9351
923.55	9321
923.659	9363
923.767	9412
923.876	9351
923.984	9454
924.092	9367
924.201	9302
924.309	9389
924.417	9420
924.525	9272
924.633	9340
924.741	10234
924.849	9081
924.956	9287
925.064	9154
925.172	9020
925.279	9047
925.387	9176
925.494	9199
925.602	9329
925.709	9222
925.816	9173
925.924	9135
926.031	9199
926.138	9131
926.245	9146
926.352	9020
926.459	9222
926.566	9253
926.673	9097
926.779	8990
926.886	9017
926.993	8933
927.099	8792
927.206	8754
927.312	8758
927.419	8925
927.525	8830
927.631	8895
927.737	8815
927.843	8792
927.95	8697
928.056	8746
928.162	8769
928.267	8796
928.373	9260
928.479	8872
928.585	8583
928.69	8750
928.796	8823
928.901	8640
929.007	8594
929.112	8743
929.218	8629
929.323	8594
929.428	8522
929.533	8785
929.638	8552
929.743	8594
929.848	8583
929.953	8610
930.058	8484
930.163	8328
930.267	8358
930.372	8484
930.477	8275
930.581	8552
930.685	8454
930.79	8271
930.894	8324
930.998	8294
931.103	8393
931.207	8065
931.311	8012
931.415	7947
931.519	7784
931.623	7742
