Data from test_V78500241_966.txt Node
Date: Fri Mar 25 14:40:26 CST 2022
User: usil
Spectrometer: V785-0024
Trigger mode: 0
Integration Time (sec): 4.000000E-1
Scans to average: 1
Nonlinearity correction enabled: false
Boxcar width: 0
Storing dark spectrum: false
XAxis mode: Wavelengths
Number of Pixels in Spectrum: 1024
>>>>>Begin Spectral Data<<<<<
801.071	23459
801.214	23303
801.356	23090
801.499	23067
801.641	22801
801.783	22615
801.926	22782
802.068	22721
802.211	22664
802.353	22504
802.496	22299
802.638	22287
802.78	22268
802.923	22120
803.065	22067
803.208	22082
803.35	22158
803.492	22177
803.635	22128
803.777	21994
803.919	22131
804.061	22436
804.204	22215
804.346	22185
804.488	22021
804.63	22082
804.773	22010
804.915	22101
805.057	22154
805.199	22048
805.341	22177
805.483	22238
805.626	22211
805.768	22093
805.91	22147
806.052	22143
806.194	22124
806.336	22375
806.478	22223
806.62	22124
806.762	22253
806.904	22348
807.046	22733
807.188	22512
807.33	22710
807.472	22740
807.614	22774
807.756	22771
807.898	22805
808.04	22889
808.182	22984
808.324	23273
808.465	23531
808.607	23908
808.749	24353
808.891	24372
809.033	24433
809.174	24350
809.316	23866
809.458	23687
809.6	23417
809.741	23296
809.883	23079
810.025	23189
810.166	22987
810.308	22858
810.45	22961
810.591	22733
810.733	22607
810.875	22565
811.016	22367
811.158	22466
811.299	22443
811.441	22519
811.582	22470
811.724	22367
811.865	22265
812.007	22443
812.148	22356
812.29	22356
812.431	22466
812.573	22592
812.714	22740
812.855	22900
812.997	22972
813.138	22965
813.279	23022
813.421	22843
813.562	22782
813.703	22702
813.845	22421
813.986	22143
814.127	21945
814.268	21903
814.41	22006
814.551	21884
814.692	21857
814.833	21865
814.974	21846
815.115	21819
815.256	21675
815.397	21698
815.539	21629
815.68	21576
815.821	21587
815.962	21633
816.103	21496
816.244	21370
816.385	21203
816.526	21408
816.666	21184
816.807	20994
816.948	20990
817.089	21222
817.23	21070
817.371	21043
817.512	20853
817.653	20925
817.793	20986
817.934	20982
818.075	21017
818.216	21001
818.356	20891
818.497	20834
818.638	20651
818.778	20651
818.919	20686
819.06	20689
819.2	20800
819.341	20769
819.481	20914
819.622	20994
819.762	21104
819.903	21077
820.043	21036
820.184	21051
820.324	20838
820.465	21051
820.605	20857
820.746	20979
820.886	20765
821.026	20777
821.167	20876
821.307	20918
821.447	20880
821.588	20674
821.728	20678
821.868	20473
822.008	20385
822.149	20343
822.289	20328
822.429	20103
822.569	19917
822.709	19913
822.849	19887
822.99	19856
823.13	19696
823.27	19731
823.41	19609
823.55	19491
823.69	19582
823.83	19575
823.97	19529
824.11	19419
824.25	19369
824.389	19289
824.529	19426
824.669	19335
824.809	19422
824.949	19441
825.089	19392
825.228	19362
825.368	19270
825.508	19099
825.648	19179
825.787	19255
825.927	19179
826.067	19152
826.206	19099
826.346	19122
826.485	19202
826.625	19122
826.765	19289
826.904	19145
827.044	18966
827.183	18821
827.323	18791
827.462	18859
827.601	18871
827.741	18745
827.88	18844
828.02	18741
828.159	18852
828.298	18833
828.437	18882
828.577	18783
828.716	18913
828.855	18764
828.994	18684
829.134	18593
829.273	18631
829.412	18513
829.551	18483
829.69	18513
829.829	18635
829.968	18646
830.107	18642
830.246	18585
830.385	18346
830.524	18426
830.663	18437
830.802	18327
830.941	18220
831.08	18091
831.219	18258
831.357	18266
831.496	18372
831.635	18190
831.774	18041
831.913	18228
832.051	18015
832.19	17980
832.329	18102
832.467	17878
832.606	17805
832.744	17908
832.883	17927
833.022	17843
833.16	17840
833.299	17969
833.437	17889
833.576	17980
833.714	17946
833.852	18091
833.991	18045
834.129	17984
834.267	17969
834.406	17973
834.544	17984
834.682	17935
834.821	17916
834.959	18201
835.097	17866
835.235	17988
835.373	17996
835.511	17912
835.65	17821
835.788	17741
835.926	17684
836.064	17638
836.202	17573
836.34	17783
836.478	17897
836.615	17851
836.753	17859
836.891	17859
837.029	17813
837.167	17786
837.305	17737
837.443	17634
837.58	17665
837.718	17672
837.856	17615
837.993	17627
838.131	17695
838.269	17490
838.406	17573
838.544	17547
838.681	17379
838.819	17337
838.956	17216
839.094	17079
839.231	17174
839.369	17269
839.506	17585
839.643	17372
839.781	17258
839.918	17086
840.055	17220
840.193	17151
840.33	17098
840.467	17178
840.604	17113
840.742	17379
840.879	16980
841.016	17018
841.153	17037
841.29	17273
841.427	17143
841.564	17147
841.701	17162
841.838	17121
841.975	17048
842.112	17041
842.249	17006
842.385	16919
842.522	17067
842.659	16900
842.796	16927
842.933	16915
843.069	16934
843.206	16908
843.343	16919
843.479	16946
843.616	16843
843.752	16771
843.889	16645
844.025	16824
844.162	16698
844.298	16816
844.435	16729
844.571	16698
844.708	16858
844.844	16911
844.98	16995
845.117	16965
845.253	16805
845.389	16896
845.525	17337
845.661	17665
845.798	18239
845.934	18509
846.07	18719
846.206	18768
846.342	18559
846.478	17824
846.614	17102
846.75	16744
846.886	16523
847.022	16542
847.158	16440
847.294	16318
847.429	16291
847.565	16318
847.701	16634
847.837	16006
847.972	15937
848.108	16109
848.244	16082
848.379	15865
848.515	15873
848.65	15827
848.786	15869
848.921	15854
849.057	15918
849.192	15846
849.328	15873
849.463	15876
849.598	15823
849.734	15717
849.869	15648
850.004	15633
850.14	15633
850.275	15576
850.41	15485
850.545	15584
850.68	15606
850.815	15591
850.95	15614
851.085	15736
851.22	15660
851.355	15606
851.49	15534
851.625	15545
851.76	15542
851.895	15454
852.03	15469
852.165	15587
852.299	15561
852.434	15705
852.569	15641
852.703	15622
852.838	15641
852.973	15755
853.107	15808
853.242	15466
853.376	15481
853.511	15344
853.645	15473
853.78	15481
853.914	15450
854.048	15408
854.183	15420
854.317	15428
854.451	15614
854.585	15504
854.72	15435
854.854	15564
854.988	15302
855.122	15496
855.256	15268
855.39	15428
855.524	15553
855.658	15416
855.792	15397
855.926	15515
856.06	15473
856.194	15595
856.327	15466
856.461	15268
856.595	15416
856.729	15492
856.862	15523
856.996	15584
857.13	15507
857.263	15584
857.397	15584
857.53	15321
857.664	15389
857.797	15519
857.931	15549
858.064	15386
858.197	15523
858.331	15485
858.464	15374
858.597	15233
858.731	15462
858.864	15405
858.997	15332
859.13	15405
859.263	15405
859.396	15466
859.529	15393
859.662	15496
859.795	15363
859.928	15412
860.061	15576
860.194	15667
860.327	15450
860.46	15428
860.592	15507
860.725	15595
860.858	15507
860.99	15370
861.123	15428
861.256	15325
861.388	15477
861.521	15979
861.653	15264
861.786	15332
861.918	15287
862.05	15386
862.183	15207
862.315	15321
862.447	15367
862.58	15340
862.712	15382
862.844	15135
862.976	15207
863.108	15211
863.24	15724
863.372	15104
863.504	15230
863.636	15169
863.768	15161
863.9	15138
864.032	15138
864.164	15150
864.296	15214
864.428	15450
864.559	15203
864.691	15279
864.823	15287
864.954	15097
865.086	15222
865.217	15211
865.349	15028
865.48	15058
865.612	15264
865.743	15264
865.875	15138
866.006	15085
866.137	15222
866.269	15154
866.4	15173
866.531	15116
866.662	15070
866.793	15108
866.924	15070
867.055	15100
867.186	15150
867.317	15047
867.448	15119
867.579	15066
867.71	15043
867.841	15024
867.972	15089
868.103	15104
868.233	15180
868.364	15173
868.495	15298
868.625	15344
868.756	15439
868.886	15298
869.017	15317
869.147	15424
869.278	15553
869.408	15443
869.539	15389
869.669	15458
869.799	15443
869.929	15545
870.06	15485
870.19	15667
870.32	15793
870.45	15728
870.58	15713
870.71	15861
870.84	15956
870.97	15743
871.1	15797
871.23	15956
871.36	15949
871.489	15895
871.619	15991
871.749	15880
871.879	15983
872.008	16082
872.138	15994
872.267	16029
872.397	15797
872.526	15739
872.656	15846
872.785	15869
872.915	15960
873.044	16051
873.173	16071
873.303	16051
873.432	16063
873.561	16044
873.69	16086
873.819	16013
873.948	16078
874.077	16032
874.206	15994
874.335	16109
874.464	16268
874.593	16356
874.722	16253
874.851	16481
874.979	16405
875.108	16417
875.237	16287
875.365	16268
875.494	16356
875.623	16459
875.751	16440
875.88	16386
876.008	16478
876.136	16577
876.265	16820
876.393	16896
876.521	16953
876.65	16908
876.778	16900
876.906	16748
877.034	16801
877.162	16809
877.29	16793
877.418	16930
877.546	16763
877.674	16847
877.802	16828
877.93	16835
878.058	16820
878.185	16790
878.313	16862
878.441	17014
878.568	16778
878.696	16999
878.824	17064
878.951	17337
879.079	17459
879.206	17646
879.333	17821
879.461	17840
879.588	17992
879.715	18087
879.842	18178
879.97	17764
880.097	17311
880.224	17147
880.351	17098
880.478	16980
880.605	17022
880.732	16850
880.859	17121
880.986	16961
881.112	16949
881.239	16843
881.366	16763
881.493	16580
881.619	16550
881.746	16554
881.872	16569
881.999	16554
882.125	16645
882.252	16577
882.378	16523
882.505	16687
882.631	16527
882.757	16356
882.883	16390
883.01	16390
883.136	16337
883.262	16299
883.388	16177
883.514	16481
883.64	16386
883.766	16303
883.892	16169
884.018	16207
884.143	16341
884.269	16508
884.395	16166
884.52	16154
884.646	16021
884.772	16109
884.897	15884
885.023	16048
885.148	16192
885.274	16204
885.399	16185
885.524	16093
885.65	16021
885.775	16048
885.9	16090
886.025	16223
886.15	16059
886.275	16021
886.4	15793
886.525	15869
886.65	15941
886.775	15876
886.9	16036
887.025	16192
887.149	15899
887.274	15785
887.399	15701
887.523	15751
887.648	15663
887.773	15671
887.897	15778
888.021	15762
888.146	15625
888.27	15800
888.395	15827
888.519	15671
888.643	15705
888.767	15812
888.891	15633
889.015	15504
889.139	15580
889.263	15530
889.387	15641
889.511	15709
889.635	15595
889.759	15526
889.883	15564
890.006	15511
890.13	15557
890.254	15485
890.377	15450
890.501	15351
890.624	15313
890.748	15386
890.871	15214
890.995	15135
891.118	15062
891.241	15214
891.364	15184
891.488	15241
891.611	15142
891.734	15211
891.857	15146
891.98	15272
892.103	15195
892.226	15195
892.349	15112
892.471	14975
892.594	15150
892.717	15195
892.839	15127
892.962	15169
893.085	15131
893.207	15165
893.33	14979
893.452	15112
893.575	15222
893.697	15051
893.819	15230
893.941	15252
894.064	15195
894.186	15108
894.308	15032
894.43	15214
894.552	15348
894.674	15192
894.796	15157
894.918	15176
895.04	15127
895.161	15245
895.283	15123
895.405	15138
895.526	15169
895.648	15108
895.769	15195
895.891	15291
896.012	15291
896.134	15256
896.255	15192
896.376	15188
896.498	15222
896.619	15340
896.74	15310
896.861	15321
896.982	15625
897.103	15679
897.224	15614
897.345	15568
897.466	15412
897.587	15485
897.708	15580
897.828	15564
897.949	15545
898.07	15367
898.19	15496
898.311	15564
898.431	15469
898.552	15564
898.672	15671
898.792	15644
898.913	15576
899.033	15504
899.153	15363
899.273	15325
899.393	15481
899.513	15439
899.633	15435
899.753	15466
899.873	15405
899.993	15481
900.113	15382
900.232	15382
900.352	15454
900.472	15351
900.591	15252
900.711	15256
900.83	15272
900.95	15462
901.069	15408
901.189	15222
901.308	14990
901.427	14906
901.546	14883
901.665	14948
901.784	15036
901.904	14800
902.023	14792
902.141	14556
902.26	14564
902.379	14571
902.498	14541
902.617	14461
902.735	14404
902.854	14469
902.973	14396
903.091	14157
903.21	14206
903.328	14244
903.446	14123
903.565	14115
903.683	14065
903.801	13883
903.919	14123
904.038	13997
904.156	13913
904.274	13917
904.392	13784
904.51	13799
904.627	13803
904.745	13860
904.863	13811
904.981	13601
905.098	13483
905.216	13556
905.334	13567
905.451	13495
905.569	13464
905.686	13487
905.803	13499
905.921	13293
906.038	13422
906.155	13270
906.272	13168
906.389	13278
906.506	13076
906.623	13160
906.74	13027
906.857	12973
906.974	12996
907.091	13118
907.208	13183
907.324	13061
907.441	13042
907.557	12867
907.674	12844
907.79	12738
907.907	12772
908.023	12817
908.139	12806
908.256	12776
908.372	12658
908.488	12623
908.604	12604
908.72	12483
908.836	12544
908.952	12566
909.068	12608
909.184	12604
909.3	12517
909.415	12623
909.531	12589
909.647	12258
909.762	12239
909.878	12243
909.993	12292
910.108	12292
910.224	12190
910.339	12258
910.454	12163
910.57	12155
910.685	12045
910.8	12357
910.915	12308
911.03	12239
911.145	11973
911.259	12019
911.374	11984
911.489	11935
911.604	11920
911.718	11843
911.833	11733
911.947	11577
912.062	11547
912.176	11619
912.291	11760
912.405	11756
912.519	11885
912.633	11931
912.748	11790
912.862	11756
912.976	11649
913.09	11463
913.204	11532
913.318	11577
913.431	11638
913.545	11638
913.659	11710
913.772	11600
913.886	11467
914	11448
914.113	11608
914.226	11649
914.34	11577
914.453	11341
914.566	11558
914.68	11395
914.793	11376
914.906	11185
915.019	11178
915.132	11102
915.245	11143
915.358	11197
915.47	11121
915.583	11151
915.696	11147
915.809	11318
915.921	11299
916.034	11204
916.146	11079
916.259	11041
916.371	11166
916.483	11337
916.595	11022
916.708	11086
916.82	11151
916.932	11090
917.044	11022
917.156	11113
917.268	11025
917.38	11056
917.491	10968
917.603	11033
917.715	11147
917.826	11143
917.938	10999
918.049	10835
918.161	11086
918.272	11075
918.384	11075
918.495	10938
918.606	10873
918.717	10850
918.828	10805
918.939	10877
919.05	10858
919.161	10805
919.272	10561
919.383	10702
919.494	10919
919.604	11041
919.715	10866
919.826	10824
919.936	10889
920.047	10915
920.157	10847
920.267	11140
920.378	10847
920.488	10820
920.598	11075
920.708	11147
920.818	11029
920.928	11132
921.038	11265
921.148	11197
921.258	10862
921.368	10763
921.477	10740
921.587	10626
921.697	10584
921.806	10672
921.916	10634
922.025	10512
922.134	10462
922.244	10344
922.353	10394
922.462	10402
922.571	10230
922.68	10040
922.789	10029
922.898	10074
923.007	9998
923.116	10200
923.224	10147
923.333	10082
923.442	9975
923.55	10029
923.659	10017
923.767	10074
923.876	9956
923.984	10067
924.092	9907
924.201	9915
924.309	9930
924.417	9888
924.525	9922
924.633	9956
924.741	10706
924.849	9736
924.956	9854
925.064	9759
925.172	9637
925.279	9694
925.387	9808
925.494	9736
925.602	9846
925.709	9797
925.816	9686
925.924	9793
926.031	9808
926.138	9720
926.245	9804
926.352	9663
926.459	9827
926.566	9846
926.673	9747
926.779	9553
926.886	9542
926.993	9428
927.099	9488
927.206	9454
927.312	9393
927.419	9435
927.525	9447
927.631	9549
927.737	9382
927.843	9351
927.95	9275
928.056	9306
928.162	9237
928.267	9321
928.373	9827
928.479	9443
928.585	9131
928.69	9340
928.796	9401
928.901	9272
929.007	9100
929.112	9218
929.218	9230
929.323	9211
929.428	9081
929.533	9306
929.638	9085
929.743	9089
929.848	9157
929.953	9138
930.058	9009
930.163	8861
930.267	8914
930.372	9009
930.477	8849
930.581	9085
930.685	8880
930.79	8819
930.894	8906
930.998	8838
931.103	8876
931.207	8602
931.311	8530
931.415	8473
931.519	8282
931.623	8339
