Data from test_V78500241_3138.txt Node
Date: Fri Mar 25 14:55:33 CST 2022
User: usil
Spectrometer: V785-0024
Trigger mode: 0
Integration Time (sec): 4.000000E-1
Scans to average: 1
Nonlinearity correction enabled: false
Boxcar width: 0
Storing dark spectrum: false
XAxis mode: Wavelengths
Number of Pixels in Spectrum: 1024
>>>>>Begin Spectral Data<<<<<
801.071	21964
801.214	22006
801.356	21618
801.499	21576
801.641	21420
801.783	21439
801.926	21351
802.068	21332
802.211	21218
802.353	21222
802.496	21009
802.638	20979
802.78	20765
802.923	20724
803.065	20651
803.208	20625
803.35	20636
803.492	20796
803.635	20906
803.777	20739
803.919	20838
804.061	21043
804.204	20781
804.346	20640
804.488	20735
804.63	20724
804.773	20583
804.915	20708
805.057	20731
805.199	20792
805.341	20678
805.483	20845
805.626	20826
805.768	20682
805.91	20720
806.052	20644
806.194	20686
806.336	20804
806.478	20648
806.62	20465
806.762	20708
806.904	20746
807.046	21112
807.188	20963
807.33	20990
807.472	20986
807.614	20804
807.756	20921
807.898	20773
808.04	20727
808.182	20754
808.324	20861
808.465	20845
808.607	20929
808.749	21058
808.891	21058
809.033	21203
809.174	21169
809.316	20944
809.458	21013
809.6	21047
809.741	21150
809.883	21142
810.025	21226
810.166	21077
810.308	21169
810.45	21150
810.591	21123
810.733	20899
810.875	20918
811.016	20762
811.158	20670
811.299	20804
811.441	20960
811.582	20956
811.724	20830
811.865	20785
812.007	20667
812.148	20762
812.29	20762
812.431	20971
812.573	21131
812.714	21142
812.855	21310
812.997	21462
813.138	21561
813.279	21477
813.421	21344
813.562	21207
813.703	21104
813.845	20906
813.986	20629
814.127	20495
814.268	20393
814.41	20355
814.551	20385
814.692	20522
814.833	20172
814.974	20259
815.115	20377
815.256	20172
815.397	20092
815.539	20187
815.68	20081
815.821	19982
815.962	20073
816.103	20046
816.244	19967
816.385	19772
816.526	19864
816.666	19613
816.807	19510
816.948	19632
817.089	19548
817.23	19514
817.371	19540
817.512	19464
817.653	19388
817.793	19483
817.934	19510
818.075	19651
818.216	19430
818.356	19468
818.497	19278
818.638	19152
818.778	19175
818.919	19076
819.06	19160
819.2	19331
819.341	19411
819.481	19263
819.622	19483
819.762	19674
819.903	19647
820.043	19377
820.184	19327
820.324	19346
820.465	19449
820.605	19460
820.746	19244
820.886	19320
821.026	19324
821.167	19320
821.307	19407
821.447	19354
821.588	19255
821.728	19122
821.868	18985
822.008	18817
822.149	18795
822.289	18768
822.429	18639
822.569	18437
822.709	18486
822.849	18418
822.99	18277
823.13	18334
823.27	18243
823.41	18194
823.55	18064
823.69	18186
823.83	18178
823.97	18091
824.11	17916
824.25	17863
824.389	18038
824.529	17965
824.669	17851
824.809	17977
824.949	17897
825.089	17969
825.228	17874
825.368	17752
825.508	17726
825.648	17775
825.787	17809
825.927	17676
826.067	17665
826.206	17737
826.346	17672
826.485	17668
826.625	17672
826.765	17695
826.904	17649
827.044	17402
827.183	17383
827.323	17330
827.462	17334
827.601	17459
827.741	17398
827.88	17414
828.02	17189
828.159	17356
828.298	17349
828.437	17440
828.577	17356
828.716	17448
828.855	17334
828.994	17197
829.134	17155
829.273	17143
829.412	17094
829.551	17090
829.69	17098
829.829	17117
829.968	17216
830.107	17075
830.246	17029
830.385	17064
830.524	16976
830.663	16949
830.802	16831
830.941	16869
831.08	16782
831.219	16839
831.357	16809
831.496	16965
831.635	16687
831.774	16584
831.913	16637
832.051	16512
832.19	16542
832.329	16615
832.467	16443
832.606	16322
832.744	16413
832.883	16447
833.022	16386
833.16	16348
833.299	16352
833.437	16440
833.576	16497
833.714	16424
833.852	16432
833.991	16459
834.129	16527
834.267	16558
834.406	16379
834.544	16493
834.682	16527
834.821	16443
834.959	16637
835.097	16493
835.235	16485
835.373	16413
835.511	16554
835.65	16386
835.788	16451
835.926	16276
836.064	16169
836.202	16257
836.34	16356
836.478	16592
836.615	16337
836.753	16367
836.891	16409
837.029	16447
837.167	16333
837.305	16257
837.443	16253
837.58	16246
837.718	16280
837.856	16291
837.993	16246
838.131	16169
838.269	16086
838.406	16169
838.544	16181
838.681	15972
838.819	15930
838.956	15854
839.094	15854
839.231	15732
839.369	15884
839.506	16188
839.643	16078
839.781	15823
839.918	15778
840.055	15755
840.193	15770
840.33	15808
840.467	15785
840.604	15892
840.742	16143
840.879	15797
841.016	15610
841.153	15755
841.29	15949
841.427	15797
841.564	15854
841.701	15800
841.838	15778
841.975	15671
842.112	15705
842.249	15523
842.385	15477
842.522	15743
842.659	15545
842.796	15633
842.933	15564
843.069	15526
843.206	15606
843.343	15595
843.479	15568
843.616	15576
843.752	15363
843.889	15313
844.025	15458
844.162	15348
844.298	15481
844.435	15329
844.571	15332
844.708	15454
844.844	15473
844.98	15584
845.117	15450
845.253	15272
845.389	15195
845.525	15241
845.661	15169
845.798	15157
845.934	15302
846.07	15127
846.206	15218
846.342	15272
846.478	15108
846.614	14960
846.75	14834
846.886	14883
847.022	14982
847.158	14971
847.294	14963
847.429	14921
847.565	14883
847.701	15131
847.837	14682
847.972	14602
848.108	14743
848.244	14754
848.379	14568
848.515	14568
848.65	14503
848.786	14587
848.921	14541
849.057	14655
849.192	14610
849.328	14537
849.463	14556
849.598	14484
849.734	14507
849.869	14381
850.004	14358
850.14	14396
850.275	14298
850.41	14256
850.545	14328
850.68	14240
850.815	14336
850.95	14256
851.085	14545
851.22	14404
851.355	14290
851.49	14214
851.625	14298
851.76	14317
851.895	14134
852.03	14153
852.165	14259
852.299	14237
852.434	14324
852.569	14355
852.703	14324
852.838	14393
852.973	14537
853.107	14427
853.242	14225
853.376	14161
853.511	14103
853.645	14210
853.78	14271
853.914	14229
854.048	14183
854.183	14092
854.317	14149
854.451	14374
854.585	14172
854.72	14180
854.854	14206
854.988	14069
855.122	14149
855.256	13989
855.39	14142
855.524	14263
855.658	14218
855.792	14130
855.926	14149
856.06	14256
856.194	14324
856.327	14202
856.461	14248
856.595	14214
856.729	14153
856.862	14328
856.996	14191
857.13	14248
857.263	14229
857.397	14332
857.53	14210
857.664	14218
857.797	14237
857.931	14191
858.064	14172
858.197	14271
858.331	14229
858.464	14035
858.597	14043
858.731	14142
858.864	14191
858.997	14126
859.13	14172
859.263	14138
859.396	14195
859.529	14172
859.662	14164
859.795	14069
859.928	14221
860.061	14286
860.194	14339
860.327	14218
860.46	14107
860.592	14210
860.725	14317
860.858	14256
860.99	14153
861.123	14096
861.256	14149
861.388	14195
861.521	14918
861.653	14020
861.786	14107
861.918	14065
862.05	14077
862.183	14115
862.315	14225
862.447	14229
862.58	14096
862.712	13883
862.844	13879
862.976	14111
863.108	13986
863.24	14301
863.372	13841
863.504	13849
863.636	13947
863.768	13993
863.9	13940
864.032	13860
864.164	14012
864.296	14027
864.428	14202
864.559	13997
864.691	13967
864.823	14069
864.954	13967
865.086	14073
865.217	13940
865.349	13811
865.48	13921
865.612	13963
865.743	14020
865.875	14016
866.006	13868
866.137	13890
866.269	13856
866.4	13947
866.531	13917
866.662	13780
866.793	13845
866.924	13890
867.055	13978
867.186	13986
867.317	13856
867.448	13940
867.579	13875
867.71	13856
867.841	13868
867.972	13906
868.103	13940
868.233	13944
868.364	13887
868.495	14012
868.625	14237
868.756	14290
868.886	14145
869.017	14134
869.147	14248
869.278	14317
869.408	14191
869.539	14180
869.669	14244
869.799	14294
869.929	14362
870.06	14355
870.19	14415
870.32	14438
870.45	14412
870.58	14514
870.71	14735
870.84	14689
870.97	14636
871.1	14507
871.23	14788
871.36	14754
871.489	14659
871.619	14674
871.749	14785
871.879	14864
872.008	14864
872.138	14826
872.267	14792
872.397	14667
872.526	14632
872.656	14613
872.785	14674
872.915	14807
873.044	14960
873.173	14823
873.303	14883
873.432	14872
873.561	14826
873.69	14899
873.819	14876
873.948	14963
874.077	14872
874.206	14773
874.335	14811
874.464	14941
874.593	15081
874.722	15116
874.851	15176
874.979	15138
875.108	15199
875.237	15047
875.365	15062
875.494	15081
875.623	15222
875.751	15085
875.88	15256
876.008	15325
876.136	15329
876.265	15614
876.393	15698
876.521	15660
876.65	15728
876.778	15671
876.906	15530
877.034	15557
877.162	15614
877.29	15481
877.418	15553
877.546	15523
877.674	15477
877.802	15538
877.93	15629
878.058	15603
878.185	15386
878.313	15466
878.441	15549
878.568	15431
878.696	15523
878.824	15568
878.951	15606
879.079	15800
879.206	15934
879.333	15656
879.461	15538
879.588	15599
879.715	15755
879.842	15823
879.97	15587
880.097	15408
880.224	15378
880.351	15389
880.478	15428
880.605	15458
880.732	15268
880.859	15580
880.986	15504
881.112	15462
881.239	15207
881.366	15188
881.493	15089
881.619	15032
881.746	15028
881.872	15097
881.999	15093
882.125	14998
882.252	15157
882.378	15062
882.505	15192
882.631	15066
882.757	14948
882.883	15005
883.01	14899
883.136	14834
883.262	14724
883.388	14708
883.514	15001
883.64	15028
883.766	14750
883.892	14697
884.018	14823
884.143	14925
884.269	14956
884.395	14606
884.52	14632
884.646	14648
884.772	14431
884.897	14492
885.023	14587
885.148	14636
885.274	14648
885.399	14701
885.524	14663
885.65	14598
885.775	14629
885.9	14442
886.025	14705
886.15	14617
886.275	14541
886.4	14556
886.525	14545
886.65	14454
886.775	14552
886.9	14724
887.025	14811
887.149	14594
887.274	14457
887.399	14461
887.523	14415
887.648	14400
887.773	14431
887.897	14446
888.021	14526
888.146	14339
888.27	14571
888.395	14450
888.519	14396
888.643	14484
888.767	14476
888.891	14324
889.015	14278
889.139	14408
889.263	14267
889.387	14362
889.511	14526
889.635	14450
889.759	14199
889.883	14294
890.006	14377
890.13	14385
890.254	14233
890.377	14218
890.501	14103
890.624	14103
890.748	14225
890.871	14039
890.995	13959
891.118	13864
891.241	13944
891.364	14054
891.488	14027
891.611	14016
891.734	13963
891.857	14058
891.98	14043
892.103	14138
892.226	13967
892.349	13898
892.471	13845
892.594	13913
892.717	14020
892.839	14043
892.962	13902
893.085	14107
893.207	14062
893.33	13864
893.452	13917
893.575	14039
893.697	13974
893.819	14164
893.941	14172
894.064	14187
894.186	13989
894.308	13967
894.43	14054
894.552	14237
894.674	14214
894.796	13913
894.918	14077
895.04	14115
895.161	14130
895.283	14092
895.405	14001
895.526	14020
895.648	14191
895.769	14157
895.891	14153
896.012	14240
896.134	14180
896.255	14199
896.376	14115
896.498	14149
896.619	14161
896.74	14084
896.861	14275
896.982	14629
897.103	14659
897.224	14526
897.345	14336
897.466	14434
897.587	14537
897.708	14503
897.828	14454
897.949	14423
898.07	14374
898.19	14412
898.311	14549
898.431	14446
898.552	14552
898.672	14590
898.792	14636
898.913	14579
899.033	14473
899.153	14381
899.273	14248
899.393	14351
899.513	14457
899.633	14415
899.753	14488
899.873	14332
899.993	14488
900.113	14339
900.232	14381
900.352	14415
900.472	14263
900.591	14225
900.711	14298
900.83	14233
900.95	14400
901.069	14336
901.189	14199
901.308	14043
901.427	13887
901.546	13902
901.665	13936
901.784	13955
901.904	13772
902.023	13799
902.141	13624
902.26	13548
902.379	13559
902.498	13487
902.617	13495
902.735	13575
902.854	13483
902.973	13377
903.091	13206
903.21	13149
903.328	13259
903.446	13225
903.565	13129
903.683	13171
903.801	12935
903.919	13065
904.038	12928
904.156	12920
904.274	12977
904.392	12958
904.51	12745
904.627	12867
904.745	12882
904.863	12962
904.981	12745
905.098	12627
905.216	12612
905.334	12601
905.451	12601
905.569	12479
905.686	12597
905.803	12563
905.921	12369
906.038	12422
906.155	12433
906.272	12399
906.389	12319
906.506	12213
906.623	12213
906.74	12163
906.857	12026
906.974	12144
907.091	12171
907.208	12251
907.324	12175
907.441	12121
907.557	12003
907.674	11942
907.79	11805
907.907	11878
908.023	11878
908.139	11923
908.256	11923
908.372	11847
908.488	11760
908.604	11752
908.72	11547
908.836	11756
908.952	11623
909.068	11604
909.184	11760
909.3	11722
909.415	11775
909.531	11600
909.647	11478
909.762	11501
909.878	11463
909.993	11463
910.108	11482
910.224	11383
910.339	11463
910.454	11322
910.57	11311
910.685	11208
910.8	11524
910.915	11467
911.03	11318
911.145	11181
911.259	11121
911.374	11124
911.489	11022
911.604	10991
911.718	10900
911.833	10987
911.947	10824
912.062	10755
912.176	10828
912.291	10896
912.405	10820
912.519	11067
912.633	11105
912.748	10995
912.862	10877
912.976	10710
913.09	10611
913.204	10759
913.318	10797
913.431	10889
913.545	10854
913.659	10930
913.772	10767
913.886	10691
914	10588
914.113	10717
914.226	10850
914.34	10778
914.453	10580
914.566	10649
914.68	10542
914.793	10630
914.906	10451
915.019	10379
915.132	10352
915.245	10348
915.358	10440
915.47	10474
915.583	10478
915.696	10436
915.809	10527
915.921	10516
916.034	10329
916.146	10306
916.259	10318
916.371	10443
916.483	10417
916.595	10363
916.708	10341
916.82	10314
916.932	10276
917.044	10447
917.156	10291
917.268	10192
917.38	10322
917.491	10188
917.603	10139
917.715	10382
917.826	10432
917.938	10242
918.049	10128
918.161	10268
918.272	10432
918.384	10367
918.495	10310
918.606	10143
918.717	10025
918.828	10074
918.939	10112
919.05	10109
919.161	10071
919.272	9918
919.383	9941
919.494	10192
919.604	10333
919.715	10139
919.826	10002
919.936	10116
920.047	10230
920.157	10120
920.267	10360
920.378	10219
920.488	10143
920.598	10325
920.708	10504
920.818	10459
920.928	10314
921.038	10470
921.148	10516
921.258	10207
921.368	10101
921.477	9907
921.587	9975
921.697	9892
921.806	10078
921.916	9884
922.025	9694
922.134	9698
922.244	9690
922.353	9724
922.462	9606
922.571	9500
922.68	9386
922.789	9447
922.898	9428
923.007	9420
923.116	9405
923.224	9450
923.333	9428
923.442	9272
923.55	9203
923.659	9313
923.767	9367
923.876	9195
923.984	9317
924.092	9226
924.201	9233
924.309	9317
924.417	9310
924.525	9233
924.633	9195
924.741	10116
924.849	9039
924.956	9203
925.064	9009
925.172	9001
925.279	9047
925.387	9024
925.494	9112
925.602	9142
925.709	9173
925.816	8979
925.924	9036
926.031	9195
926.138	8994
926.245	9207
926.352	9005
926.459	9195
926.566	9237
926.673	9093
926.779	8929
926.886	8887
926.993	8845
927.099	8804
927.206	8674
927.312	8716
927.419	8838
927.525	8777
927.631	8777
927.737	8632
927.843	8708
927.95	8564
928.056	8655
928.162	8659
928.267	8739
928.373	9272
928.479	8754
928.585	8568
928.69	8583
928.796	8625
928.901	8575
929.007	8522
929.112	8571
929.218	8514
929.323	8522
929.428	8499
929.533	8636
929.638	8457
929.743	8476
929.848	8484
929.953	8522
930.058	8374
930.163	8290
930.267	8252
930.372	8499
930.477	8313
930.581	8499
930.685	8347
930.79	8168
930.894	8206
930.998	8183
931.103	8355
931.207	7989
931.311	7955
931.415	7894
931.519	7715
931.623	7723
