Data from test_V78500241_2496.txt Node
Date: Fri Mar 25 14:51:05 CST 2022
User: usil
Spectrometer: V785-0024
Trigger mode: 0
Integration Time (sec): 4.000000E-1
Scans to average: 1
Nonlinearity correction enabled: false
Boxcar width: 0
Storing dark spectrum: false
XAxis mode: Wavelengths
Number of Pixels in Spectrum: 1024
>>>>>Begin Spectral Data<<<<<
801.071	22032
801.214	21975
801.356	21793
801.499	21641
801.641	21469
801.783	21458
801.926	21386
802.068	21443
802.211	21458
802.353	21291
802.496	21195
802.638	20883
802.78	20921
802.923	20872
803.065	20678
803.208	20838
803.35	20739
803.492	20887
803.635	21005
803.777	20750
803.919	20948
804.061	21131
804.204	20918
804.346	20735
804.488	20674
804.63	20777
804.773	20651
804.915	20663
805.057	20815
805.199	20629
805.341	20781
805.483	20914
805.626	20731
805.768	20670
805.91	20807
806.052	20693
806.194	20655
806.336	20937
806.478	20670
806.62	20735
806.762	20629
806.904	20902
807.046	21093
807.188	21024
807.33	20952
807.472	21100
807.614	20910
807.756	20861
807.898	20823
808.04	20754
808.182	20754
808.324	20937
808.465	20971
808.607	20929
808.749	20971
808.891	21237
809.033	21260
809.174	21074
809.316	21039
809.458	21089
809.6	21108
809.741	21173
809.883	21127
810.025	21237
810.166	21154
810.308	21306
810.45	21146
810.591	21077
810.733	20986
810.875	20891
811.016	20811
811.158	20788
811.299	20906
811.441	20990
811.582	20990
811.724	20887
811.865	20724
812.007	20720
812.148	20739
812.29	20849
812.431	21043
812.573	21146
812.714	21146
812.855	21275
812.997	21336
813.138	21488
813.279	21477
813.421	21386
813.562	21180
813.703	21199
813.845	20971
813.986	20636
814.127	20617
814.268	20343
814.41	20480
814.551	20358
814.692	20511
814.833	20404
814.974	20305
815.115	20484
815.256	20267
815.397	20225
815.539	20161
815.68	20168
815.821	19951
815.962	20092
816.103	20027
816.244	20027
816.385	19860
816.526	19871
816.666	19750
816.807	19514
816.948	19651
817.089	19639
817.23	19567
817.371	19529
817.512	19472
817.653	19483
817.793	19419
817.934	19476
818.075	19491
818.216	19559
818.356	19434
818.497	19346
818.638	19213
818.778	19065
818.919	19198
819.06	19225
819.2	19343
819.341	19438
819.481	19426
819.622	19521
819.762	19632
819.903	19605
820.043	19514
820.184	19563
820.324	19544
820.465	19563
820.605	19491
820.746	19426
820.886	19438
821.026	19521
821.167	19506
821.307	19529
821.447	19464
821.588	19301
821.728	19202
821.868	19019
822.008	18882
822.149	18935
822.289	18882
822.429	18665
822.569	18604
822.709	18616
822.849	18346
822.99	18467
823.13	18418
823.27	18311
823.41	18220
823.55	18057
823.69	18270
823.83	18262
823.97	18140
824.11	17946
824.25	17916
824.389	17973
824.529	18098
824.669	17950
824.809	18011
824.949	18178
825.089	17996
825.228	17965
825.368	17718
825.508	17760
825.648	17817
825.787	17726
825.927	17790
826.067	17676
826.206	17687
826.346	17805
826.485	17817
826.625	17668
826.765	17756
826.904	17828
827.044	17554
827.183	17436
827.323	17512
827.462	17558
827.601	17455
827.741	17463
827.88	17448
828.02	17353
828.159	17398
828.298	17364
828.437	17497
828.577	17353
828.716	17573
828.855	17436
828.994	17246
829.134	17261
829.273	17178
829.412	17155
829.551	17025
829.69	17056
829.829	17235
829.968	17345
830.107	17265
830.246	17208
830.385	17307
830.524	17178
830.663	16999
830.802	16915
830.941	16847
831.08	16828
831.219	16862
831.357	16869
831.496	17033
831.635	16759
831.774	16778
831.913	16717
832.051	16645
832.19	16573
832.329	16607
832.467	16577
832.606	16466
832.744	16470
832.883	16584
833.022	16421
833.16	16500
833.299	16493
833.437	16512
833.576	16531
833.714	16523
833.852	16637
833.991	16508
834.129	16618
834.267	16653
834.406	16516
834.544	16527
834.682	16577
834.821	16455
834.959	16744
835.097	16493
835.235	16569
835.373	16580
835.511	16565
835.65	16512
835.788	16421
835.926	16459
836.064	16211
836.202	16303
836.34	16459
836.478	16603
836.615	16341
836.753	16523
836.891	16702
837.029	16390
837.167	16432
837.305	16371
837.443	16390
837.58	16287
837.718	16375
837.856	16249
837.993	16310
838.131	16382
838.269	16246
838.406	16352
838.544	16215
838.681	16013
838.819	16006
838.956	15846
839.094	15899
839.231	15854
839.369	16002
839.506	16226
839.643	16169
839.781	15850
839.918	15808
840.055	15949
840.193	15831
840.33	15865
840.467	15819
840.604	15835
840.742	16059
840.879	15698
841.016	15724
841.153	15819
841.29	15987
841.427	15876
841.564	15899
841.701	15842
841.838	15850
841.975	15694
842.112	15739
842.249	15671
842.385	15584
842.522	15865
842.659	15637
842.796	15663
842.933	15690
843.069	15618
843.206	15625
843.343	15694
843.479	15633
843.616	15629
843.752	15507
843.889	15435
844.025	15549
844.162	15287
844.298	15591
844.435	15447
844.571	15469
844.708	15507
844.844	15587
844.98	15595
845.117	15603
845.253	15359
845.389	15340
845.525	15435
845.661	15351
845.798	15211
845.934	15256
846.07	15093
846.206	15195
846.342	15268
846.478	15157
846.614	15085
846.75	15009
846.886	15001
847.022	15036
847.158	15127
847.294	15005
847.429	15112
847.565	15058
847.701	15283
847.837	14727
847.972	14693
848.108	14857
848.244	14815
848.379	14777
848.515	14678
848.65	14606
848.786	14663
848.921	14583
849.057	14659
849.192	14621
849.328	14701
849.463	14655
849.598	14583
849.734	14560
849.869	14511
850.004	14499
850.14	14446
850.275	14339
850.41	14267
850.545	14313
850.68	14358
850.815	14389
850.95	14389
851.085	14568
851.22	14381
851.355	14461
851.49	14374
851.625	14385
851.76	14377
851.895	14229
852.03	14286
852.165	14355
852.299	14419
852.434	14495
852.569	14492
852.703	14389
852.838	14389
852.973	14442
853.107	14613
853.242	14275
853.376	14313
853.511	14157
853.645	14248
853.78	14343
853.914	14301
854.048	14221
854.183	14282
854.317	14343
854.451	14374
854.585	14332
854.72	14172
854.854	14320
854.988	14237
855.122	14202
855.256	14149
855.39	14233
855.524	14347
855.658	14248
855.792	14237
855.926	14317
856.06	14324
856.194	14355
856.327	14324
856.461	14138
856.595	14263
856.729	14164
856.862	14275
856.996	14282
857.13	14317
857.263	14358
857.397	14381
857.53	14298
857.664	14381
857.797	14385
857.931	14434
858.064	14332
858.197	14286
858.331	14282
858.464	14164
858.597	14138
858.731	14294
858.864	14412
858.997	14271
859.13	14218
859.263	14259
859.396	14317
859.529	14195
859.662	14240
859.795	14199
859.928	14305
860.061	14400
860.194	14499
860.327	14256
860.46	14237
860.592	14343
860.725	14396
860.858	14381
860.99	14267
861.123	14240
861.256	14248
861.388	14218
861.521	14845
861.653	14069
861.786	14062
861.918	14115
862.05	14161
862.183	14275
862.315	14172
862.447	14218
862.58	14278
862.712	13993
862.844	13955
862.976	14043
863.108	14142
863.24	14313
863.372	13986
863.504	14012
863.636	13997
863.768	14084
863.9	14069
864.032	13925
864.164	14039
864.296	14119
864.428	14081
864.559	14073
864.691	14119
864.823	14062
864.954	14027
865.086	14077
865.217	14088
865.349	13894
865.48	13955
865.612	14005
865.743	14107
865.875	13963
866.006	14058
866.137	14046
866.269	14096
866.4	13925
866.531	13986
866.662	13997
866.793	13997
866.924	13982
867.055	13974
867.186	13936
867.317	13921
867.448	13947
867.579	13833
867.71	13974
867.841	13993
867.972	14073
868.103	14008
868.233	14001
868.364	14016
868.495	14115
868.625	14271
868.756	14290
868.886	14134
869.017	14305
869.147	14389
869.278	14427
869.408	14286
869.539	14214
869.669	14290
869.799	14294
869.929	14404
870.06	14495
870.19	14583
870.32	14514
870.45	14598
870.58	14606
870.71	14731
870.84	14762
870.97	14754
871.1	14640
871.23	14845
871.36	14842
871.489	14724
871.619	14781
871.749	14902
871.879	14933
872.008	14910
872.138	14902
872.267	14788
872.397	14777
872.526	14648
872.656	14632
872.785	14682
872.915	14906
873.044	14994
873.173	14975
873.303	14872
873.432	14971
873.561	15055
873.69	14998
873.819	14941
873.948	14998
874.077	14872
874.206	14941
874.335	14937
874.464	14963
874.593	15245
874.722	15165
874.851	15268
874.979	15241
875.108	15230
875.237	15135
875.365	15150
875.494	15256
875.623	15287
875.751	15272
875.88	15252
876.008	15367
876.136	15431
876.265	15732
876.393	15789
876.521	15755
876.65	15724
876.778	15686
876.906	15614
877.034	15667
877.162	15625
877.29	15622
877.418	15637
877.546	15606
877.674	15717
877.802	15690
877.93	15663
878.058	15633
878.185	15538
878.313	15629
878.441	15736
878.568	15511
878.696	15679
878.824	15800
878.951	15713
879.079	15861
879.206	15972
879.333	15838
879.461	15679
879.588	15644
879.715	15861
879.842	15842
879.97	15637
880.097	15538
880.224	15481
880.351	15485
880.478	15500
880.605	15469
880.732	15526
880.859	15682
880.986	15542
881.112	15477
881.239	15382
881.366	15306
881.493	15173
881.619	15222
881.746	15241
881.872	15146
881.999	15150
882.125	15116
882.252	15199
882.378	15146
882.505	15256
882.631	15176
882.757	15013
882.883	15036
883.01	14944
883.136	14982
883.262	14758
883.388	14826
883.514	15047
883.64	15051
883.766	14960
883.892	14765
884.018	14876
884.143	14979
884.269	15047
884.395	14762
884.52	14670
884.646	14636
884.772	14632
884.897	14625
885.023	14667
885.148	14735
885.274	14842
885.399	14731
885.524	14667
885.65	14720
885.775	14777
885.9	14724
886.025	14735
886.15	14674
886.275	14651
886.4	14602
886.525	14617
886.65	14610
886.775	14587
886.9	14819
887.025	14956
887.149	14678
887.274	14537
887.399	14461
887.523	14522
887.648	14374
887.773	14423
887.897	14541
888.021	14503
888.146	14465
888.27	14674
888.395	14602
888.519	14476
888.643	14571
888.767	14583
888.891	14370
889.015	14275
889.139	14396
889.263	14431
889.387	14518
889.511	14590
889.635	14522
889.759	14400
889.883	14339
890.006	14415
890.13	14488
890.254	14256
890.377	14301
890.501	14187
890.624	14119
890.748	14301
890.871	14123
890.995	14008
891.118	13947
891.241	14157
891.364	14206
891.488	14195
891.611	14111
891.734	14134
891.857	14229
891.98	14142
892.103	14123
892.226	14077
892.349	13955
892.471	13856
892.594	14081
892.717	14024
892.839	13944
892.962	14069
893.085	14195
893.207	14058
893.33	13925
893.452	13989
893.575	14081
893.697	14058
893.819	14218
893.941	14225
894.064	14309
894.186	14046
894.308	14069
894.43	14237
894.552	14309
894.674	14256
894.796	14020
894.918	14111
895.04	14046
895.161	14191
895.283	14176
895.405	14088
895.526	14145
895.648	14180
895.769	14259
895.891	14282
896.012	14400
896.134	14305
896.255	14286
896.376	14164
896.498	14145
896.619	14195
896.74	14237
896.861	14309
896.982	14560
897.103	14716
897.224	14495
897.345	14568
897.466	14393
897.587	14579
897.708	14651
897.828	14522
897.949	14537
898.07	14320
898.19	14503
898.311	14689
898.431	14541
898.552	14541
898.672	14674
898.792	14697
898.913	14613
899.033	14594
899.153	14408
899.273	14434
899.393	14457
899.513	14613
899.633	14473
899.753	14419
899.873	14336
899.993	14404
900.113	14389
900.232	14560
900.352	14457
900.472	14362
900.591	14393
900.711	14286
900.83	14237
900.95	14434
901.069	14374
901.189	14221
901.308	14126
901.427	14031
901.546	13997
901.665	14081
901.784	14054
901.904	13841
902.023	13780
902.141	13723
902.26	13457
902.379	13609
902.498	13605
902.617	13438
902.735	13624
902.854	13590
902.973	13529
903.091	13320
903.21	13228
903.328	13377
903.446	13244
903.565	13194
903.683	13099
903.801	13042
903.919	13103
904.038	13084
904.156	12993
904.274	13034
904.392	12993
904.51	12882
904.627	12897
904.745	13015
904.863	13103
904.981	12696
905.098	12700
905.216	12696
905.334	12658
905.451	12654
905.569	12578
905.686	12654
905.803	12635
905.921	12460
906.038	12528
906.155	12506
906.272	12342
906.389	12334
906.506	12262
906.623	12205
906.74	12129
906.857	12148
906.974	12121
907.091	12247
907.208	12376
907.324	12353
907.441	12087
907.557	11980
907.674	12003
907.79	11920
907.907	11912
908.023	11935
908.139	11923
908.256	11965
908.372	11882
908.488	11771
908.604	11748
908.72	11756
908.836	11722
908.952	11703
909.068	11786
909.184	11843
909.3	11790
909.415	11790
909.531	11710
909.647	11566
909.762	11467
909.878	11535
909.993	11448
910.108	11501
910.224	11448
910.339	11573
910.454	11372
910.57	11353
910.685	11220
910.8	11611
910.915	11543
911.03	11334
911.145	11193
911.259	11220
911.374	11239
911.489	11132
911.604	11025
911.718	10923
911.833	10957
911.947	10877
912.062	10801
912.176	10900
912.291	10984
912.405	10938
912.519	11121
912.633	11064
912.748	11037
912.862	11090
912.976	10797
913.09	10706
913.204	10801
913.318	10850
913.431	11029
913.545	10911
913.659	10957
913.772	10847
913.886	10668
914	10729
914.113	10793
914.226	10843
914.34	10831
914.453	10668
914.566	10828
914.68	10679
914.793	10641
914.906	10474
915.019	10413
915.132	10356
915.245	10417
915.358	10379
915.47	10500
915.583	10485
915.696	10542
915.809	10603
915.921	10531
916.034	10478
916.146	10379
916.259	10398
916.371	10523
916.483	10493
916.595	10322
916.708	10455
916.82	10413
916.932	10462
917.044	10432
917.156	10447
917.268	10238
917.38	10265
917.491	10272
917.603	10356
917.715	10386
917.826	10394
917.938	10299
918.049	10143
918.161	10352
918.272	10432
918.384	10436
918.495	10379
918.606	10219
918.717	10169
918.828	10128
918.939	10204
919.05	10120
919.161	10188
919.272	9937
919.383	9953
919.494	10242
919.604	10440
919.715	10158
919.826	10078
919.936	10097
920.047	10303
920.157	10196
920.267	10375
920.378	10257
920.488	10219
920.598	10352
920.708	10462
920.818	10462
920.928	10523
921.038	10607
921.148	10569
921.258	10227
921.368	10249
921.477	10093
921.587	10032
921.697	9972
921.806	10059
921.916	9983
922.025	9819
922.134	9819
922.244	9709
922.353	9717
922.462	9679
922.571	9652
922.68	9412
922.789	9439
922.898	9450
923.007	9370
923.116	9515
923.224	9466
923.333	9428
923.442	9397
923.55	9283
923.659	9351
923.767	9401
923.876	9332
923.984	9386
924.092	9291
924.201	9253
924.309	9310
924.417	9355
924.525	9222
924.633	9294
924.741	10150
924.849	9119
924.956	9226
925.064	9070
925.172	9093
925.279	9020
925.387	9138
925.494	9100
925.602	9249
925.709	9161
925.816	9032
925.924	9077
926.031	9233
926.138	9150
926.245	9142
926.352	8986
926.459	9161
926.566	9169
926.673	8990
926.779	9005
926.886	8967
926.993	8887
927.099	8800
927.206	8773
927.312	8712
927.419	8823
927.525	8864
927.631	8925
927.737	8773
927.843	8739
927.95	8590
928.056	8735
928.162	8758
928.267	8766
928.373	9348
928.479	8845
928.585	8632
928.69	8739
928.796	8750
928.901	8682
929.007	8473
929.112	8640
929.218	8590
929.323	8568
929.428	8533
929.533	8697
929.638	8431
929.743	8492
929.848	8579
929.953	8560
930.058	8469
930.163	8294
930.267	8275
930.372	8396
930.477	8339
930.581	8530
930.685	8370
930.79	8248
930.894	8259
930.998	8195
931.103	8423
931.207	8016
931.311	7951
931.415	7921
931.519	7792
931.623	7723
