Data from test_V78500241_1909.txt Node
Date: Fri Mar 25 14:47:00 CST 2022
User: usil
Spectrometer: V785-0024
Trigger mode: 0
Integration Time (sec): 4.000000E-1
Scans to average: 1
Nonlinearity correction enabled: false
Boxcar width: 0
Storing dark spectrum: false
XAxis mode: Wavelengths
Number of Pixels in Spectrum: 1024
>>>>>Begin Spectral Data<<<<<
801.071	21975
801.214	21880
801.356	21709
801.499	21580
801.641	21435
801.783	21408
801.926	21450
802.068	21344
802.211	21332
802.353	21298
802.496	21089
802.638	20990
802.78	20925
802.923	20754
803.065	20762
803.208	20796
803.35	20823
803.492	20830
803.635	20838
803.777	20914
803.919	20933
804.061	21188
804.204	20826
804.346	20727
804.488	20651
804.63	20689
804.773	20640
804.915	20705
805.057	20769
805.199	20693
805.341	20788
805.483	20880
805.626	20811
805.768	20526
805.91	20701
806.052	20629
806.194	20579
806.336	20796
806.478	20663
806.62	20587
806.762	20800
806.904	20861
807.046	21013
807.188	20906
807.33	20952
807.472	21123
807.614	20861
807.756	20933
807.898	20823
808.04	20712
808.182	20830
808.324	20746
808.465	20788
808.607	21009
808.749	21051
808.891	21188
809.033	21214
809.174	21108
809.316	21039
809.458	21081
809.6	20994
809.741	21020
809.883	21131
810.025	21214
810.166	21310
810.308	21138
810.45	21173
810.591	21077
810.733	21047
810.875	20849
811.016	20781
811.158	20674
811.299	20975
811.441	21013
811.582	20937
811.724	20883
811.865	20667
812.007	20739
812.148	20834
812.29	20712
812.431	21024
812.573	21085
812.714	21173
812.855	21275
812.997	21374
813.138	21549
813.279	21443
813.421	21348
813.562	21336
813.703	21173
813.845	20906
813.986	20724
814.127	20522
814.268	20355
814.41	20530
814.551	20419
814.692	20396
814.833	20328
814.974	20206
815.115	20374
815.256	20301
815.397	20168
815.539	20199
815.68	20168
815.821	20046
815.962	20187
816.103	20046
816.244	19909
816.385	19906
816.526	19841
816.666	19704
816.807	19457
816.948	19670
817.089	19761
817.23	19472
817.371	19544
817.512	19578
817.653	19487
817.793	19343
817.934	19506
818.075	19453
818.216	19518
818.356	19384
818.497	19289
818.638	19179
818.778	19190
818.919	19072
819.06	19225
819.2	19362
819.341	19346
819.481	19396
819.622	19491
819.762	19780
819.903	19662
820.043	19552
820.184	19529
820.324	19472
820.465	19693
820.605	19521
820.746	19540
820.886	19308
821.026	19464
821.167	19457
821.307	19624
821.447	19396
821.588	19293
821.728	19236
821.868	19015
822.008	18989
822.149	18916
822.289	18920
822.429	18688
822.569	18582
822.709	18585
822.849	18372
822.99	18369
823.13	18403
823.27	18350
823.41	18315
823.55	18114
823.69	18262
823.83	18171
823.97	18053
824.11	17931
824.25	18060
824.389	18034
824.529	18026
824.669	17984
824.809	18106
824.949	18049
825.089	17984
825.228	18022
825.368	17745
825.508	17729
825.648	17809
825.787	17866
825.927	17775
826.067	17790
826.206	17771
826.346	17828
826.485	17798
826.625	17726
826.765	17809
826.904	17767
827.044	17493
827.183	17474
827.323	17322
827.462	17482
827.601	17478
827.741	17269
827.88	17414
828.02	17360
828.159	17444
828.298	17471
828.437	17532
828.577	17364
828.716	17558
828.855	17448
828.994	17223
829.134	17162
829.273	17231
829.412	17155
829.551	17246
829.69	17178
829.829	17250
829.968	17433
830.107	17178
830.246	17170
830.385	17151
830.524	17193
830.663	16976
830.802	17003
830.941	16896
831.08	16847
831.219	16873
831.357	16885
831.496	17052
831.635	16873
831.774	16706
831.913	16763
832.051	16615
832.19	16603
832.329	16599
832.467	16607
832.606	16443
832.744	16531
832.883	16546
833.022	16375
833.16	16607
833.299	16618
833.437	16626
833.576	16607
833.714	16504
833.852	16679
833.991	16523
834.129	16592
834.267	16603
834.406	16664
834.544	16645
834.682	16679
834.821	16550
834.959	16782
835.097	16542
835.235	16736
835.373	16672
835.511	16565
835.65	16504
835.788	16535
835.926	16287
836.064	16333
836.202	16405
836.34	16611
836.478	16611
836.615	16561
836.753	16611
836.891	16649
837.029	16523
837.167	16573
837.305	16363
837.443	16417
837.58	16493
837.718	16478
837.856	16402
837.993	16390
838.131	16443
838.269	16443
838.406	16329
838.544	16230
838.681	16196
838.819	16097
838.956	15987
839.094	15949
839.231	15972
839.369	16131
839.506	16478
839.643	16219
839.781	15915
839.918	15922
840.055	15972
840.193	16078
840.33	15934
840.467	15892
840.604	15983
840.742	16223
840.879	15934
841.016	15926
841.153	15800
841.29	16101
841.427	15960
841.564	15987
841.701	16002
841.838	15937
841.975	15880
842.112	15972
842.249	15884
842.385	15751
842.522	16063
842.659	15766
842.796	15743
842.933	15747
843.069	15641
843.206	15789
843.343	15827
843.479	15755
843.616	15861
843.752	15572
843.889	15530
844.025	15690
844.162	15454
844.298	15557
844.435	15584
844.571	15507
844.708	15557
844.844	15686
844.98	15610
845.117	15660
845.253	15549
845.389	15424
845.525	15481
845.661	15496
845.798	15329
845.934	15443
846.07	15222
846.206	15378
846.342	15435
846.478	15355
846.614	15108
846.75	15070
846.886	15074
847.022	15173
847.158	15123
847.294	15119
847.429	15165
847.565	15131
847.701	15370
847.837	14929
847.972	14853
848.108	14963
848.244	14994
848.379	14800
848.515	14743
848.65	14762
848.786	14769
848.921	14689
849.057	14830
849.192	14902
849.328	14788
849.463	14674
849.598	14632
849.734	14632
849.869	14541
850.004	14492
850.14	14503
850.275	14507
850.41	14370
850.545	14511
850.68	14442
850.815	14511
850.95	14495
851.085	14731
851.22	14545
851.355	14602
851.49	14457
851.625	14488
851.76	14446
851.895	14415
852.03	14336
852.165	14503
852.299	14537
852.434	14537
852.569	14530
852.703	14419
852.838	14602
852.973	14556
853.107	14492
853.242	14442
853.376	14366
853.511	14259
853.645	14229
853.78	14419
853.914	14328
854.048	14332
854.183	14347
854.317	14294
854.451	14579
854.585	14374
854.72	14221
854.854	14408
854.988	14210
855.122	14328
855.256	14233
855.39	14366
855.524	14393
855.658	14442
855.792	14317
855.926	14412
856.06	14404
856.194	14503
856.327	14324
856.461	14332
856.595	14320
856.729	14385
856.862	14427
856.996	14408
857.13	14488
857.263	14450
857.397	14518
857.53	14313
857.664	14442
857.797	14415
857.931	14457
858.064	14431
858.197	14358
858.331	14309
858.464	14450
858.597	14123
858.731	14393
858.864	14381
858.997	14332
859.13	14473
859.263	14377
859.396	14389
859.529	14286
859.662	14324
859.795	14355
859.928	14400
860.061	14598
860.194	14537
860.327	14343
860.46	14339
860.592	14476
860.725	14427
860.858	14526
860.99	14408
861.123	14343
861.256	14328
861.388	14419
861.521	15104
861.653	14320
861.786	14195
861.918	14138
862.05	14290
862.183	14309
862.315	14374
862.447	14309
862.58	14328
862.712	14119
862.844	14092
862.976	14138
863.108	14256
863.24	14526
863.372	14020
863.504	14134
863.636	14145
863.768	14130
863.9	14149
864.032	14062
864.164	14001
864.296	14130
864.428	14248
864.559	14183
864.691	14305
864.823	14225
864.954	14084
865.086	14180
865.217	14191
865.349	14054
865.48	14107
865.612	14172
865.743	14305
865.875	14161
866.006	14088
866.137	14142
866.269	14119
866.4	14088
866.531	14062
866.662	14062
866.793	14134
866.924	14084
867.055	14050
867.186	14142
867.317	14077
867.448	14043
867.579	14050
867.71	14005
867.841	13989
867.972	14043
868.103	14149
868.233	14092
868.364	14084
868.495	14286
868.625	14317
868.756	14457
868.886	14286
869.017	14339
869.147	14537
869.278	14454
869.408	14351
869.539	14309
869.669	14438
869.799	14450
869.929	14484
870.06	14564
870.19	14701
870.32	14625
870.45	14667
870.58	14785
870.71	14906
870.84	14868
870.97	14762
871.1	14716
871.23	14967
871.36	14914
871.489	14872
871.619	14952
871.749	14830
871.879	15009
872.008	15135
872.138	14910
872.267	14929
872.397	14819
872.526	14792
872.656	14857
872.785	14876
872.915	15039
873.044	14998
873.173	14960
873.303	14998
873.432	15070
873.561	15001
873.69	14944
873.819	14982
873.948	15013
874.077	15039
874.206	15077
874.335	15009
874.464	15081
874.593	15264
874.722	15127
874.851	15355
874.979	15348
875.108	15340
875.237	15336
875.365	15150
875.494	15230
875.623	15363
875.751	15321
875.88	15420
876.008	15492
876.136	15641
876.265	15781
876.393	15846
876.521	15850
876.65	15823
876.778	15781
876.906	15660
877.034	15667
877.162	15755
877.29	15656
877.418	15743
877.546	15743
877.674	15637
877.802	15747
877.93	15766
878.058	15663
878.185	15663
878.313	15717
878.441	15717
878.568	15545
878.696	15641
878.824	15789
878.951	15838
879.079	15838
879.206	16048
879.333	15895
879.461	15743
879.588	15759
879.715	15827
879.842	16029
879.97	15823
880.097	15561
880.224	15568
880.351	15701
880.478	15568
880.605	15568
880.732	15637
880.859	15808
880.986	15523
881.112	15614
881.239	15542
881.366	15374
881.493	15374
881.619	15214
881.746	15332
881.872	15294
881.999	15108
882.125	15146
882.252	15325
882.378	15321
882.505	15416
882.631	15283
882.757	15013
882.883	15226
883.01	15036
883.136	15039
883.262	14982
883.388	14891
883.514	15161
883.64	15104
883.766	14990
883.892	14880
884.018	14982
884.143	15127
884.269	15138
884.395	14941
884.52	14834
884.646	14800
884.772	14773
884.897	14655
885.023	14769
885.148	14914
885.274	14906
885.399	14819
885.524	14853
885.65	14769
885.775	14815
885.9	14800
886.025	14868
886.15	14804
886.275	14754
886.4	14670
886.525	14724
886.65	14716
886.775	14750
886.9	14918
887.025	14887
887.149	14781
887.274	14610
887.399	14514
887.523	14530
887.648	14594
887.773	14575
887.897	14682
888.021	14697
888.146	14560
888.27	14720
888.395	14792
888.519	14594
888.643	14686
888.767	14632
888.891	14533
889.015	14396
889.139	14465
889.263	14385
889.387	14579
889.511	14644
889.635	14590
889.759	14374
889.883	14404
890.006	14434
890.13	14549
890.254	14400
890.377	14404
890.501	14221
890.624	14191
890.748	14317
890.871	14248
890.995	14062
891.118	14145
891.241	14119
891.364	14199
891.488	14298
891.611	14111
891.734	14214
891.857	14221
891.98	14111
892.103	14278
892.226	14157
892.349	14126
892.471	14077
892.594	14134
892.717	14176
892.839	14100
892.962	14233
893.085	14210
893.207	14202
893.33	14005
893.452	14065
893.575	14210
893.697	14126
893.819	14244
893.941	14343
894.064	14355
894.186	14119
894.308	14119
894.43	14267
894.552	14404
894.674	14309
894.796	14119
894.918	14157
895.04	14134
895.161	14240
895.283	14237
895.405	14256
895.526	14259
895.648	14355
895.769	14339
895.891	14271
896.012	14336
896.134	14309
896.255	14298
896.376	14225
896.498	14374
896.619	14336
896.74	14278
896.861	14313
896.982	14602
897.103	14788
897.224	14583
897.345	14545
897.466	14560
897.587	14594
897.708	14720
897.828	14610
897.949	14526
898.07	14549
898.19	14549
898.311	14701
898.431	14537
898.552	14625
898.672	14826
898.792	14777
898.913	14686
899.033	14594
899.153	14393
899.273	14473
899.393	14568
899.513	14476
899.633	14514
899.753	14549
899.873	14522
899.993	14545
900.113	14404
900.232	14564
900.352	14393
900.472	14446
900.591	14408
900.711	14347
900.83	14358
900.95	14461
901.069	14374
901.189	14267
901.308	14062
901.427	14062
901.546	13997
901.665	14043
901.784	14058
901.904	13944
902.023	13887
902.141	13727
902.26	13666
902.379	13719
902.498	13548
902.617	13605
902.735	13590
902.854	13575
902.973	13556
903.091	13377
903.21	13316
903.328	13312
903.446	13316
903.565	13152
903.683	13187
903.801	13046
903.919	13198
904.038	13202
904.156	13015
904.274	13107
904.392	12993
904.51	12863
904.627	12989
904.745	12993
904.863	13084
904.981	12859
905.098	12654
905.216	12665
905.334	12646
905.451	12787
905.569	12646
905.686	12730
905.803	12772
905.921	12441
906.038	12654
906.155	12551
906.272	12372
906.389	12388
906.506	12327
906.623	12235
906.74	12239
906.857	12167
906.974	12342
907.091	12319
907.208	12429
907.324	12353
907.441	12197
907.557	12057
907.674	11992
907.79	11996
907.907	12034
908.023	12148
908.139	11996
908.256	11954
908.372	11999
908.488	11851
908.604	11885
908.72	11809
908.836	11851
908.952	11817
909.068	11855
909.184	11885
909.3	11866
909.415	11745
909.531	11748
909.647	11589
909.762	11608
909.878	11509
909.993	11729
910.108	11547
910.224	11524
910.339	11646
910.454	11433
910.57	11490
910.685	11349
910.8	11726
910.915	11551
911.03	11448
911.145	11345
911.259	11288
911.374	11246
911.489	11254
911.604	11197
911.718	11083
911.833	11121
911.947	10976
912.062	10831
912.176	10999
912.291	11056
912.405	11124
912.519	11246
912.633	11269
912.748	11162
912.862	10995
912.976	10881
913.09	10889
913.204	10904
913.318	10915
913.431	11052
913.545	10995
913.659	11003
913.772	10866
913.886	10824
914	10854
914.113	10946
914.226	10892
914.34	10831
914.453	10748
914.566	10885
914.68	10759
914.793	10736
914.906	10561
915.019	10497
915.132	10462
915.245	10508
915.358	10538
915.47	10584
915.583	10577
915.696	10599
915.809	10748
915.921	10778
916.034	10554
916.146	10493
916.259	10523
916.371	10500
916.483	10592
916.595	10390
916.708	10565
916.82	10523
916.932	10512
917.044	10542
917.156	10432
917.268	10379
917.38	10394
917.491	10329
917.603	10379
917.715	10413
917.826	10470
917.938	10318
918.049	10344
918.161	10360
918.272	10535
918.384	10451
918.495	10409
918.606	10265
918.717	10177
918.828	10287
918.939	10261
919.05	10215
919.161	10276
919.272	10105
919.383	10173
919.494	10322
919.604	10550
919.715	10280
919.826	10299
919.936	10268
920.047	10379
920.157	10344
920.267	10478
920.378	10447
920.488	10238
920.598	10428
920.708	10653
920.818	10440
920.928	10512
921.038	10634
921.148	10569
921.258	10306
921.368	10207
921.477	10112
921.587	10090
921.697	9994
921.806	10181
921.916	10112
922.025	9899
922.134	9854
922.244	9759
922.353	9873
922.462	9751
922.571	9717
922.68	9553
922.789	9481
922.898	9561
923.007	9462
923.116	9599
923.224	9564
923.333	9485
923.442	9416
923.55	9401
923.659	9378
923.767	9454
923.876	9397
923.984	9469
924.092	9298
924.201	9405
924.309	9389
924.417	9405
924.525	9386
924.633	9393
924.741	10265
924.849	9138
924.956	9340
925.064	9222
925.172	9077
925.279	9146
925.387	9233
925.494	9222
925.602	9302
925.709	9268
925.816	9100
925.924	9233
926.031	9245
926.138	9123
926.245	9188
926.352	9112
926.459	9264
926.566	9237
926.673	9112
926.779	9036
926.886	9085
926.993	8925
927.099	8960
927.206	8864
927.312	8864
927.419	8948
927.525	8910
927.631	8914
927.737	8857
927.843	8773
927.95	8674
928.056	8746
928.162	8811
928.267	8853
928.373	9382
928.479	8853
928.585	8640
928.69	8781
928.796	8785
928.901	8705
929.007	8556
929.112	8705
929.218	8686
929.323	8625
929.428	8678
929.533	8773
929.638	8564
929.743	8537
929.848	8644
929.953	8663
930.058	8533
930.163	8381
930.267	8377
930.372	8511
930.477	8343
930.581	8575
930.685	8488
930.79	8298
930.894	8377
930.998	8263
931.103	8415
931.207	8107
931.311	8111
931.415	8024
931.519	7856
931.623	7864
