Data from test_V78500241_1427.txt Node
Date: Fri Mar 25 14:43:39 CST 2022
User: usil
Spectrometer: V785-0024
Trigger mode: 0
Integration Time (sec): 4.000000E-1
Scans to average: 1
Nonlinearity correction enabled: false
Boxcar width: 0
Storing dark spectrum: false
XAxis mode: Wavelengths
Number of Pixels in Spectrum: 1024
>>>>>Begin Spectral Data<<<<<
801.071	22398
801.214	22360
801.356	22070
801.499	21991
801.641	21774
801.783	21751
801.926	21793
802.068	21675
802.211	21583
802.353	21523
802.496	21272
802.638	21260
802.78	21241
802.923	21161
803.065	20994
803.208	21009
803.35	21150
803.492	21291
803.635	21108
803.777	21169
803.919	21211
804.061	21481
804.204	21119
804.346	21203
804.488	20994
804.63	21028
804.773	21066
804.915	21058
805.057	21245
805.199	21043
805.341	21070
805.483	21233
805.626	21199
805.768	21009
805.91	21104
806.052	21074
806.194	20990
806.336	21058
806.478	21066
806.62	21009
806.762	21081
806.904	21233
807.046	21496
807.188	21431
807.33	21348
807.472	21428
807.614	21496
807.756	21420
807.898	21329
808.04	21199
808.182	21233
808.324	21317
808.465	21355
808.607	21564
808.749	21633
808.891	21884
809.033	21804
809.174	21766
809.316	21686
809.458	21675
809.6	21564
809.741	21599
809.883	21504
810.025	21595
810.166	21736
810.308	21625
810.45	21515
810.591	21542
810.733	21336
810.875	21313
811.016	21283
811.158	21100
811.299	21332
811.441	21538
811.582	21275
811.724	21199
811.865	21184
812.007	21256
812.148	21207
812.29	21325
812.431	21389
812.573	21424
812.714	21694
812.855	21804
812.997	21854
813.138	21861
813.279	21797
813.421	21720
813.562	21587
813.703	21469
813.845	21401
813.986	20990
814.127	20982
814.268	20891
814.41	20914
814.551	20807
814.692	20788
814.833	20651
814.974	20754
815.115	20689
815.256	20530
815.397	20613
815.539	20651
815.68	20362
815.821	20412
815.962	20537
816.103	20495
816.244	20317
816.385	20267
816.526	20229
816.666	20081
816.807	19959
816.948	19974
817.089	20145
817.23	19890
817.371	19963
817.512	19822
817.653	19902
817.793	19860
817.934	20005
818.075	19879
818.216	19974
818.356	19936
818.497	19761
818.638	19544
818.778	19514
818.919	19632
819.06	19556
819.2	19696
819.341	19757
819.481	19818
819.622	19936
819.762	20157
819.903	20134
820.043	19894
820.184	19936
820.324	19784
820.465	19947
820.605	19944
820.746	19822
820.886	19814
821.026	19887
821.167	19826
821.307	19887
821.447	19776
821.588	19807
821.728	19578
821.868	19510
822.008	19293
822.149	19365
822.289	19289
822.429	19057
822.569	19053
822.709	18920
822.849	18738
822.99	18810
823.13	18661
823.27	18776
823.41	18639
823.55	18441
823.69	18646
823.83	18616
823.97	18521
824.11	18448
824.25	18254
824.389	18407
824.529	18536
824.669	18448
824.809	18361
824.949	18391
825.089	18437
825.228	18281
825.368	18239
825.508	18178
825.648	18251
825.787	18209
825.927	18273
826.067	18102
826.206	18121
826.346	18091
826.485	18133
826.625	18057
826.765	18220
826.904	18186
827.044	17764
827.183	17893
827.323	17764
827.462	17954
827.601	17908
827.741	17843
827.88	17870
828.02	17672
828.159	17817
828.298	17863
828.437	17878
828.577	17851
828.716	18045
828.855	17836
828.994	17642
829.134	17608
829.273	17638
829.412	17467
829.551	17474
829.69	17524
829.829	17528
829.968	17608
830.107	17714
830.246	17585
830.385	17566
830.524	17463
830.663	17364
830.802	17337
830.941	17212
831.08	17204
831.219	17227
831.357	17235
831.496	17509
831.635	17204
831.774	17143
831.913	17132
832.051	16984
832.19	17045
832.329	17079
832.467	17052
832.606	16869
832.744	16835
832.883	16835
833.022	16919
833.16	16797
833.299	16927
833.437	16942
833.576	16938
833.714	16980
833.852	17102
833.991	16968
834.129	16984
834.267	16923
834.406	16904
834.544	17056
834.682	16987
834.821	16885
834.959	17181
835.097	16949
835.235	17079
835.373	16995
835.511	16972
835.65	16908
835.788	16896
835.926	16778
836.064	16672
836.202	16809
836.34	16862
836.478	16965
836.615	16812
836.753	16896
836.891	16904
837.029	16961
837.167	16866
837.305	16687
837.443	16725
837.58	16755
837.718	16736
837.856	16668
837.993	16660
838.131	16763
838.269	16573
838.406	16710
838.544	16535
838.681	16447
838.819	16455
838.956	16257
839.094	16226
839.231	16295
839.369	16337
839.506	16672
839.643	16436
839.781	16265
839.918	16101
840.055	16299
840.193	16352
840.33	16177
840.467	16242
840.604	16276
840.742	16508
840.879	16154
841.016	16223
841.153	16173
841.29	16402
841.427	16261
841.564	16371
841.701	16344
841.838	16154
841.975	16143
842.112	16158
842.249	16010
842.385	15960
842.522	16196
842.659	16139
842.796	16013
842.933	16067
843.069	16029
843.206	16063
843.343	16097
843.479	16177
843.616	16086
843.752	15827
843.889	15884
844.025	15991
844.162	15793
844.298	15899
844.435	15934
844.571	15785
844.708	15930
844.844	15975
844.98	15956
845.117	15899
845.253	15922
845.389	15759
845.525	15930
845.661	15865
845.798	15831
845.934	15930
846.07	15865
846.206	15895
846.342	16044
846.478	15690
846.614	15652
846.75	15408
846.886	15447
847.022	15485
847.158	15500
847.294	15370
847.429	15420
847.565	15264
847.701	15705
847.837	15127
847.972	15070
848.108	15192
848.244	15173
848.379	15047
848.515	15024
848.65	15017
848.786	15013
848.921	14967
849.057	15150
849.192	15089
849.328	15009
849.463	14986
849.598	15001
849.734	14845
849.869	14982
850.004	14727
850.14	14842
850.275	14872
850.41	14716
850.545	14712
850.68	14769
850.815	14773
850.95	14735
851.085	14910
851.22	14941
851.355	14705
851.49	14735
851.625	14735
851.76	14739
851.895	14610
852.03	14602
852.165	14697
852.299	14743
852.434	14902
852.569	14785
852.703	14762
852.838	14838
852.973	14857
853.107	14853
853.242	14727
853.376	14682
853.511	14640
853.645	14640
853.78	14773
853.914	14750
854.048	14594
854.183	14610
854.317	14655
854.451	14735
854.585	14602
854.72	14598
854.854	14663
854.988	14606
855.122	14480
855.256	14469
855.39	14514
855.524	14670
855.658	14560
855.792	14606
855.926	14549
856.06	14716
856.194	14667
856.327	14560
856.461	14507
856.595	14606
856.729	14571
856.862	14746
856.996	14716
857.13	14644
857.263	14686
857.397	14781
857.53	14606
857.664	14678
857.797	14689
857.931	14800
858.064	14743
858.197	14800
858.331	14682
858.464	14625
858.597	14473
858.731	14636
858.864	14621
858.997	14579
859.13	14708
859.263	14678
859.396	14670
859.529	14625
859.662	14511
859.795	14621
859.928	14705
860.061	14781
860.194	14701
860.327	14648
860.46	14629
860.592	14773
860.725	14697
860.858	14697
860.99	14575
861.123	14511
861.256	14442
861.388	14564
861.521	15348
861.653	14457
861.786	14389
861.918	14514
862.05	14545
862.183	14450
862.315	14549
862.447	14659
862.58	14511
862.712	14332
862.844	14298
862.976	14377
863.108	14469
863.24	14906
863.372	14366
863.504	14473
863.636	14393
863.768	14530
863.9	14476
864.032	14412
864.164	14263
864.296	14427
864.428	14488
864.559	14495
864.691	14465
864.823	14499
864.954	14480
865.086	14450
865.217	14450
865.349	14301
865.48	14343
865.612	14374
865.743	14431
865.875	14415
866.006	14343
866.137	14259
866.269	14423
866.4	14362
866.531	14396
866.662	14294
866.793	14370
866.924	14347
867.055	14362
867.186	14389
867.317	14328
867.448	14168
867.579	14366
867.71	14305
867.841	14305
867.972	14419
868.103	14412
868.233	14381
868.364	14408
868.495	14427
868.625	14552
868.756	14743
868.886	14495
869.017	14693
869.147	14743
869.278	14754
869.408	14674
869.539	14610
869.669	14667
869.799	14640
869.929	14785
870.06	14716
870.19	14914
870.32	14895
870.45	14963
870.58	15047
870.71	15138
870.84	15176
870.97	14998
871.1	14948
871.23	15252
871.36	15199
871.489	15135
871.619	15085
871.749	15203
871.879	15230
872.008	15386
872.138	15260
872.267	15184
872.397	15081
872.526	14994
872.656	15028
872.785	15135
872.915	15241
873.044	15370
873.173	15260
873.303	15302
873.432	15378
873.561	15359
873.69	15351
873.819	15298
873.948	15348
874.077	15283
874.206	15192
874.335	15348
874.464	15378
874.593	15492
874.722	15511
874.851	15580
874.979	15485
875.108	15637
875.237	15526
875.365	15557
875.494	15549
875.623	15713
875.751	15496
875.88	15553
876.008	15717
876.136	15854
876.265	16078
876.393	16112
876.521	16006
876.65	16063
876.778	16097
876.906	15964
877.034	15895
877.162	15968
877.29	15876
877.418	16067
877.546	15979
877.674	15972
877.802	15968
877.93	16059
878.058	15949
878.185	15941
878.313	15983
878.441	16044
878.568	15804
878.696	16029
878.824	16055
878.951	16196
879.079	16166
879.206	16447
879.333	16215
879.461	16147
879.588	16238
879.715	16291
879.842	16409
879.97	16177
880.097	15941
880.224	15941
880.351	15922
880.478	15922
880.605	15823
880.732	15854
880.859	16074
880.986	15915
881.112	15842
881.239	15698
881.366	15603
881.493	15519
881.619	15469
881.746	15492
881.872	15481
881.999	15523
882.125	15439
882.252	15587
882.378	15481
882.505	15584
882.631	15450
882.757	15355
882.883	15317
883.01	15317
883.136	15325
883.262	15233
883.388	15245
883.514	15336
883.64	15367
883.766	15188
883.892	15188
884.018	15097
884.143	15260
884.269	15420
884.395	15131
884.52	15047
884.646	15116
884.772	15051
884.897	14986
885.023	15047
885.148	15176
885.274	15188
885.399	15123
885.524	15157
885.65	15013
885.775	15058
885.9	15009
886.025	15131
886.15	15142
886.275	14975
886.4	14910
886.525	14990
886.65	14933
886.775	14948
886.9	15192
887.025	15256
887.149	15001
887.274	14785
887.399	14765
887.523	14921
887.648	14746
887.773	14670
887.897	14872
888.021	14963
888.146	14891
888.27	15028
888.395	15005
888.519	14902
888.643	14857
888.767	14876
888.891	14849
889.015	14705
889.139	14705
889.263	14708
889.387	14823
889.511	14891
889.635	14853
889.759	14697
889.883	14708
890.006	14587
890.13	14762
890.254	14678
890.377	14659
890.501	14488
890.624	14533
890.748	14541
890.871	14480
890.995	14438
891.118	14218
891.241	14385
891.364	14339
891.488	14564
891.611	14381
891.734	14336
891.857	14461
891.98	14358
892.103	14492
892.226	14427
892.349	14339
892.471	14199
892.594	14332
892.717	14442
892.839	14377
892.962	14294
893.085	14419
893.207	14377
893.33	14221
893.452	14286
893.575	14431
893.697	14347
893.819	14602
893.941	14556
894.064	14571
894.186	14389
894.308	14396
894.43	14461
894.552	14594
894.674	14537
894.796	14355
894.918	14419
895.04	14522
895.161	14533
895.283	14549
895.405	14385
895.526	14400
895.648	14526
895.769	14549
895.891	14625
896.012	14602
896.134	14655
896.255	14518
896.376	14549
896.498	14560
896.619	14457
896.74	14484
896.861	14606
896.982	14998
897.103	14925
897.224	14868
897.345	14811
897.466	14769
897.587	14826
897.708	14952
897.828	14845
897.949	14857
898.07	14697
898.19	14762
898.311	14876
898.431	14815
898.552	14895
898.672	15036
898.792	14921
898.913	14933
899.033	14788
899.153	14758
899.273	14682
899.393	14720
899.513	14754
899.633	14762
899.753	14788
899.873	14735
899.993	14758
900.113	14769
900.232	14785
900.352	14777
900.472	14617
900.591	14651
900.711	14606
900.83	14606
900.95	14689
901.069	14705
901.189	14495
901.308	14278
901.427	14275
901.546	14195
901.665	14301
901.784	14278
901.904	14168
902.023	14103
902.141	13898
902.26	13830
902.379	13978
902.498	13818
902.617	13693
902.735	13982
902.854	13928
902.973	13826
903.091	13548
903.21	13556
903.328	13578
903.446	13533
903.565	13438
903.683	13445
903.801	13327
903.919	13381
904.038	13308
904.156	13263
904.274	13343
904.392	13213
904.51	13145
904.627	13145
904.745	13278
904.863	13209
904.981	12981
905.098	12875
905.216	12905
905.334	13031
905.451	12958
905.569	12825
905.686	12939
905.803	12890
905.921	12726
906.038	12795
906.155	12768
906.272	12631
906.389	12623
906.506	12467
906.623	12376
906.74	12479
906.857	12330
906.974	12460
907.091	12593
907.208	12559
907.324	12414
907.441	12407
907.557	12220
907.674	12205
907.79	12114
907.907	12171
908.023	12292
908.139	12239
908.256	12182
908.372	12167
908.488	12159
908.604	11988
908.72	11969
908.836	12038
908.952	11958
909.068	11988
909.184	12041
909.3	12007
909.415	12015
909.531	12019
909.647	11832
909.762	11699
909.878	11703
909.993	11809
910.108	11748
910.224	11733
910.339	11813
910.454	11672
910.57	11581
910.685	11535
910.8	11859
910.915	11676
911.03	11615
911.145	11547
911.259	11497
911.374	11455
911.489	11406
911.604	11429
911.718	11284
911.833	11250
911.947	11121
912.062	10980
912.176	11220
912.291	11223
912.405	11124
912.519	11402
912.633	11372
912.748	11353
912.862	11254
912.976	10991
913.09	11029
913.204	11048
913.318	11105
913.431	11170
913.545	11185
913.659	11212
913.772	11037
913.886	10949
914	10904
914.113	11010
914.226	11117
914.34	11079
914.453	10908
914.566	11071
914.68	10869
914.793	10900
914.906	10679
915.019	10706
915.132	10653
915.245	10687
915.358	10725
915.47	10668
915.583	10763
915.696	10828
915.809	10786
915.921	10816
916.034	10710
916.146	10668
916.259	10611
916.371	10729
916.483	10687
916.595	10603
916.708	10626
916.82	10710
916.932	10565
917.044	10588
917.156	10637
917.268	10493
917.38	10550
917.491	10466
917.603	10569
917.715	10626
917.826	10645
917.938	10523
918.049	10402
918.161	10489
918.272	10580
918.384	10691
918.495	10561
918.606	10421
918.717	10280
918.828	10344
918.939	10417
919.05	10356
919.161	10440
919.272	10158
919.383	10318
919.494	10459
919.604	10603
919.715	10409
919.826	10291
919.936	10417
920.047	10462
920.157	10405
920.267	10607
920.378	10440
920.488	10367
920.598	10596
920.708	10816
920.818	10660
920.928	10546
921.038	10801
921.148	10725
921.258	10500
921.368	10379
921.477	10257
921.587	10246
921.697	10188
921.806	10398
921.916	10086
922.025	10002
922.134	9987
922.244	9964
922.353	10078
922.462	9937
922.571	9842
922.68	9625
922.789	9599
922.898	9667
923.007	9641
923.116	9667
923.224	9644
923.333	9599
923.442	9549
923.55	9504
923.659	9561
923.767	9572
923.876	9454
923.984	9568
924.092	9447
924.201	9511
924.309	9408
924.417	9481
924.525	9507
924.633	9454
924.741	10421
924.849	9283
924.956	9485
925.064	9351
925.172	9173
925.279	9211
925.387	9291
925.494	9245
925.602	9507
925.709	9332
925.816	9226
925.924	9298
926.031	9439
926.138	9272
926.245	9363
926.352	9222
926.459	9359
926.566	9359
926.673	9237
926.779	9142
926.886	9123
926.993	8937
927.099	8963
927.206	9009
927.312	8994
927.419	9043
927.525	8994
927.631	9116
927.737	8963
927.843	8941
927.95	8861
928.056	8857
928.162	8937
928.267	8902
928.373	9614
928.479	8998
928.585	8693
928.69	8963
928.796	8887
928.901	8758
929.007	8659
929.112	8845
929.218	8792
929.323	8670
929.428	8743
929.533	8838
929.638	8610
929.743	8602
929.848	8727
929.953	8670
930.058	8583
930.163	8415
930.267	8495
930.372	8632
930.477	8438
930.581	8697
930.685	8522
930.79	8438
930.894	8492
930.998	8366
931.103	8545
931.207	8183
931.311	8123
931.415	8153
931.519	8001
931.623	7951
