Data from test_V78500241_206.txt Node
Date: Fri Mar 25 14:35:09 CST 2022
User: usil
Spectrometer: V785-0024
Trigger mode: 0
Integration Time (sec): 4.000000E-1
Scans to average: 1
Nonlinearity correction enabled: false
Boxcar width: 0
Storing dark spectrum: false
XAxis mode: Wavelengths
Number of Pixels in Spectrum: 1024
>>>>>Begin Spectral Data<<<<<
801.071	28048
801.214	27983
801.356	27679
801.499	27622
801.641	27610
801.783	27466
801.926	27412
802.068	27268
802.211	27313
802.353	27249
802.496	27131
802.638	27108
802.78	27043
802.923	26933
803.065	26891
803.208	26823
803.35	26940
803.492	27001
803.635	27104
803.777	27058
803.919	27043
804.061	27370
804.204	27195
804.346	26834
804.488	26838
804.63	26918
804.773	26845
804.915	26902
805.057	27093
805.199	26944
805.341	27093
805.483	27043
805.626	27123
805.768	26880
805.91	27024
806.052	26940
806.194	26876
806.336	27317
806.478	27058
806.62	27005
806.762	27089
806.904	27241
807.046	27355
807.188	27355
807.33	27397
807.472	27549
807.614	27397
807.756	27462
807.898	27408
808.04	27374
808.182	27420
808.324	27397
808.465	27728
808.607	27960
808.749	28059
808.891	28287
809.033	28287
809.174	28135
809.316	28200
809.458	28021
809.6	27838
809.741	27827
809.883	27747
810.025	27838
810.166	27816
810.308	27694
810.45	27812
810.591	27701
810.733	27462
810.875	27576
811.016	27439
811.158	27348
811.299	27306
811.441	27538
811.582	27439
811.724	27157
811.865	27291
812.007	27363
812.148	27211
812.29	27447
812.431	27587
812.573	27789
812.714	27698
812.855	27762
812.997	27949
813.138	28067
813.279	27827
813.421	27937
813.562	27876
813.703	27507
813.845	27496
813.986	27302
814.127	26956
814.268	26944
814.41	27036
814.551	26960
814.692	27047
814.833	27017
814.974	26998
815.115	26918
815.256	26693
815.397	26746
815.539	26674
815.68	26659
815.821	26533
815.962	26522
816.103	26659
816.244	26453
816.385	26301
816.526	26396
816.666	26145
816.807	26084
816.948	26172
817.089	26282
817.23	26046
817.371	26084
817.512	26069
817.653	26024
817.793	25921
817.934	26058
818.075	25997
818.216	26107
818.356	25921
818.497	25871
818.638	25753
818.778	25719
818.919	25594
819.06	25811
819.2	25837
819.341	25951
819.481	25849
819.622	26096
819.762	26351
819.903	26206
820.043	25921
820.184	25894
820.324	25997
820.465	26031
820.605	25978
820.746	25871
820.886	25811
821.026	25902
821.167	25868
821.307	25909
821.447	25841
821.588	25818
821.728	25685
821.868	25502
822.008	25297
822.149	25289
822.289	25339
822.429	25145
822.569	24970
822.709	24939
822.849	24779
822.99	24791
823.13	24821
823.27	24684
823.41	24608
823.55	24528
823.69	24669
823.83	24513
823.97	24475
824.11	24380
824.25	24311
824.389	24334
824.529	24376
824.669	24323
824.809	24513
824.949	24433
825.089	24414
825.228	24380
825.368	24247
825.508	24167
825.648	24167
825.787	24098
825.927	24277
826.067	24159
826.206	24129
826.346	24190
826.485	24266
826.625	24098
826.765	24072
826.904	24232
827.044	23889
827.183	23923
827.323	23703
827.462	23821
827.601	23726
827.741	23828
827.88	23824
828.02	23710
828.159	23726
828.298	23870
828.437	23874
828.577	23794
828.716	23870
828.855	23710
828.994	23581
829.134	23543
829.273	23459
829.412	23516
829.551	23436
829.69	23505
829.829	23551
829.968	23615
830.107	23516
830.246	23482
830.385	23334
830.524	23391
830.663	23322
830.802	23185
830.941	23083
831.08	23060
831.219	23204
831.357	23143
831.496	23303
831.635	22991
831.774	23010
831.913	22820
832.051	22812
832.19	22877
832.329	22862
832.467	22672
832.606	22778
832.744	22702
832.883	22691
833.022	22626
833.16	22664
833.299	22675
833.437	22710
833.576	22706
833.714	22694
833.852	22744
833.991	22725
834.129	22900
834.267	22748
834.406	22698
834.544	22793
834.682	22573
834.821	22801
834.959	22759
835.097	22615
835.235	22599
835.373	22698
835.511	22596
835.65	22474
835.788	22504
835.926	22451
836.064	22295
836.202	22390
836.34	22561
836.478	22706
836.615	22394
836.753	22474
836.891	22504
837.029	22531
837.167	22443
837.305	22462
837.443	22443
837.58	22310
837.718	22474
837.856	22455
837.993	22204
838.131	22394
838.269	22143
838.406	22215
838.544	22059
838.681	21884
838.819	21846
838.956	21781
839.094	21759
839.231	21694
839.369	21846
839.506	22090
839.643	21964
839.781	21892
839.918	21823
840.055	21751
840.193	21709
840.33	21603
840.467	21599
840.604	21793
840.742	21937
840.879	21549
841.016	21568
841.153	21576
841.29	21823
841.427	21629
841.564	21633
841.701	21580
841.838	21633
841.975	21458
842.112	21511
842.249	21454
842.385	21340
842.522	21568
842.659	21321
842.796	21310
842.933	21428
843.069	21188
843.206	21363
843.343	21405
843.479	21374
843.616	21294
843.752	21146
843.889	21272
844.025	21233
844.162	21146
844.298	21211
844.435	21081
844.571	21081
844.708	21100
844.844	21241
844.98	21340
845.117	21298
845.253	21119
845.389	21058
845.525	21207
845.661	21431
845.798	21473
845.934	21724
846.07	21808
846.206	21759
846.342	21682
846.478	21401
846.614	20982
846.75	20777
846.886	20746
847.022	20617
847.158	20609
847.294	20526
847.429	20537
847.565	20602
847.701	20800
847.837	20332
847.972	20286
848.108	20370
848.244	20362
848.379	20130
848.515	20145
848.65	19978
848.786	20119
848.921	20111
849.057	20252
849.192	20130
849.328	20035
849.463	20176
849.598	19970
849.734	19883
849.869	19902
850.004	19898
850.14	19978
850.275	19841
850.41	19689
850.545	19837
850.68	19791
850.815	19860
850.95	19822
851.085	19955
851.22	19879
851.355	19913
851.49	19826
851.625	19803
851.76	19776
851.895	19700
852.03	19693
852.165	19795
852.299	19814
852.434	19811
852.569	19845
852.703	19830
852.838	19913
852.973	19849
853.107	19909
853.242	19868
853.376	19624
853.511	19495
853.645	19552
853.78	19746
853.914	19723
854.048	19559
854.183	19597
854.317	19597
854.451	19837
854.585	19590
854.72	19696
854.854	19769
854.988	19510
855.122	19643
855.256	19552
855.39	19616
855.524	19753
855.658	19731
855.792	19552
855.926	19613
856.06	19719
856.194	19594
856.327	19605
856.461	19506
856.595	19571
856.729	19548
856.862	19776
856.996	19605
857.13	19643
857.263	19765
857.397	19780
857.53	19578
857.664	19616
857.797	19666
857.931	19837
858.064	19651
858.197	19643
858.331	19540
858.464	19518
858.597	19548
858.731	19693
858.864	19502
858.997	19468
859.13	19548
859.263	19624
859.396	19753
859.529	19472
859.662	19544
859.795	19529
859.928	19514
860.061	19693
860.194	19681
860.327	19521
860.46	19655
860.592	19624
860.725	19559
860.858	19727
860.99	19521
861.123	19392
861.256	19460
861.388	19620
861.521	20206
861.653	19396
861.786	19476
861.918	19499
862.05	19438
862.183	19514
862.315	19597
862.447	19677
862.58	19582
862.712	19354
862.844	19350
862.976	19400
863.108	19384
863.24	19658
863.372	19232
863.504	19312
863.636	19282
863.768	19297
863.9	19369
864.032	19084
864.164	19228
864.296	19179
864.428	19373
864.559	19312
864.691	19282
864.823	19282
864.954	19308
865.086	19343
865.217	19232
865.349	19110
865.48	19148
865.612	19126
865.743	19377
865.875	19240
866.006	19076
866.137	19126
866.269	19183
866.4	19122
866.531	19110
866.662	19145
866.793	19129
866.924	19107
867.055	19175
867.186	18962
867.317	19141
867.448	19031
867.579	19099
867.71	19042
867.841	18989
867.972	19038
868.103	19209
868.233	19110
868.364	19107
868.495	19156
868.625	19301
868.756	19400
868.886	19221
869.017	19339
869.147	19403
869.278	19460
869.408	19324
869.539	19354
869.669	19365
869.799	19453
869.929	19438
870.06	19396
870.19	19609
870.32	19567
870.45	19620
870.58	19651
870.71	19837
870.84	19879
870.97	19753
871.1	19731
871.23	19856
871.36	19902
871.489	19837
871.619	19925
871.749	19947
871.879	19951
872.008	20005
872.138	20008
872.267	19974
872.397	19860
872.526	19700
872.656	19750
872.785	19628
872.915	20012
873.044	19986
873.173	20020
873.303	19982
873.432	19894
873.561	20020
873.69	19875
873.819	19909
873.948	19970
874.077	20031
874.206	19936
874.335	19951
874.464	20084
874.593	20294
874.722	20096
874.851	20199
874.979	20180
875.108	20275
875.237	20187
875.365	20111
875.494	20138
875.623	20419
875.751	20225
875.88	20282
876.008	20438
876.136	20366
876.265	20564
876.393	20655
876.521	20731
876.65	20689
876.778	20663
876.906	20632
877.034	20545
877.162	20568
877.29	20480
877.418	20762
877.546	20727
877.674	20689
877.802	20629
877.93	20625
878.058	20602
878.185	20663
878.313	20571
878.441	20651
878.568	20587
878.696	20765
878.824	20765
878.951	20880
879.079	20910
879.206	21135
879.333	21173
879.461	20979
879.588	21226
879.715	21195
879.842	21367
879.97	20963
880.097	20765
880.224	20590
880.351	20674
880.478	20568
880.605	20492
880.732	20560
880.859	20902
880.986	20587
881.112	20644
881.239	20480
881.366	20358
881.493	20214
881.619	20176
881.746	20195
881.872	20294
881.999	20195
882.125	20180
882.252	20275
882.378	20172
882.505	20225
882.631	20210
882.757	19913
882.883	20039
883.01	19932
883.136	19864
883.262	19887
883.388	19849
883.514	19830
883.64	19947
883.766	19940
883.892	19757
884.018	19708
884.143	19925
884.269	19944
884.395	19753
884.52	19590
884.646	19594
884.772	19620
884.897	19460
885.023	19525
885.148	19772
885.274	19696
885.399	19677
885.524	19578
885.65	19601
885.775	19514
885.9	19480
886.025	19670
886.15	19670
886.275	19483
886.4	19373
886.525	19491
886.65	19594
886.775	19392
886.9	19594
887.025	19734
887.149	19647
887.274	19369
887.399	19255
887.523	19289
887.648	19285
887.773	19206
887.897	19403
888.021	19362
888.146	19247
888.27	19487
888.395	19343
888.519	19240
888.643	19259
888.767	19251
888.891	19061
889.015	19042
889.139	19088
889.263	19126
889.387	19122
889.511	19278
889.635	19164
889.759	18993
889.883	18977
890.006	19004
890.13	19160
890.254	19027
890.377	19023
890.501	18749
890.624	18768
890.748	18871
890.871	18711
890.995	18707
891.118	18540
891.241	18555
891.364	18764
891.488	18749
891.611	18760
891.734	18631
891.857	18730
891.98	18654
892.103	18650
892.226	18654
892.349	18783
892.471	18486
892.594	18540
892.717	18734
892.839	18479
892.962	18582
893.085	18673
893.207	18570
893.33	18483
893.452	18509
893.575	18620
893.697	18589
893.819	18616
893.941	18692
894.064	18654
894.186	18547
894.308	18536
894.43	18631
894.552	18741
894.674	18642
894.796	18429
894.918	18490
895.04	18574
895.161	18623
895.283	18635
895.405	18445
895.526	18623
895.648	18559
895.769	18608
895.891	18692
896.012	18585
896.134	18787
896.255	18627
896.376	18601
896.498	18620
896.619	18616
896.74	18642
896.861	18703
896.982	18897
897.103	19129
897.224	18920
897.345	18890
897.466	18825
897.587	19004
897.708	19057
897.828	19004
897.949	18787
898.07	18631
898.19	18932
898.311	18928
898.431	18821
898.552	18833
898.672	18894
898.792	18840
898.913	18840
899.033	18692
899.153	18764
899.273	18429
899.393	18506
899.513	18601
899.633	18639
899.753	18669
899.873	18555
899.993	18658
900.113	18532
900.232	18684
900.352	18437
900.472	18456
900.591	18372
900.711	18532
900.83	18452
900.95	18483
901.069	18547
901.189	18388
901.308	18194
901.427	18019
901.546	18064
901.665	18068
901.784	18148
901.904	17874
902.023	17775
902.141	17672
902.26	17592
902.379	17707
902.498	17627
902.617	17528
902.735	17558
902.854	17592
902.973	17440
903.091	17250
903.21	17105
903.328	17189
903.446	17105
903.565	17086
903.683	17071
903.801	16999
903.919	16999
904.038	17022
904.156	16774
904.274	17029
904.392	16679
904.51	16763
904.627	16774
904.745	16793
904.863	16812
904.981	16607
905.098	16599
905.216	16466
905.334	16527
905.451	16516
905.569	16447
905.686	16493
905.803	16314
905.921	16215
906.038	16333
906.155	16185
906.272	16074
906.389	16154
906.506	16074
906.623	15968
906.74	16002
906.857	15842
906.974	15941
907.091	16002
907.208	16112
907.324	15964
907.441	15842
907.557	15728
907.674	15686
907.79	15641
907.907	15584
908.023	15682
908.139	15667
908.256	15542
908.372	15580
908.488	15599
908.604	15443
908.72	15397
908.836	15458
908.952	15348
909.068	15389
909.184	15386
909.3	15310
909.415	15405
909.531	15443
909.647	15142
909.762	15089
909.878	14998
909.993	15119
910.108	15017
910.224	15089
910.339	14990
910.454	15043
910.57	14891
910.685	14880
910.8	15032
910.915	15001
911.03	14853
911.145	14670
911.259	14678
911.374	14689
911.489	14602
911.604	14454
911.718	14473
911.833	14404
911.947	14336
912.062	14256
912.176	14412
912.291	14492
912.405	14381
912.519	14610
912.633	14712
912.748	14541
912.862	14431
912.976	14320
913.09	14153
913.204	14202
913.318	14248
913.431	14317
913.545	14351
913.659	14256
913.772	14191
913.886	14161
914	14115
914.113	14020
914.226	14161
914.34	14100
914.453	13894
914.566	14142
914.68	14016
914.793	13917
914.906	13864
915.019	13761
915.132	13681
915.245	13685
915.358	13689
915.47	13833
915.583	13742
915.696	13826
915.809	13776
915.921	13833
916.034	13655
916.146	13620
916.259	13616
916.371	13693
916.483	13578
916.595	13567
916.708	13605
916.82	13620
916.932	13571
917.044	13495
917.156	13537
917.268	13438
917.38	13419
917.491	13426
917.603	13396
917.715	13521
917.826	13499
917.938	13362
918.049	13266
918.161	13445
918.272	13525
918.384	13567
918.495	13426
918.606	13232
918.717	13145
918.828	13187
918.939	13232
919.05	13145
919.161	13175
919.272	12966
919.383	12977
919.494	13274
919.604	13403
919.715	13190
919.826	13110
919.936	13152
920.047	13240
920.157	13259
920.267	13411
920.378	13251
920.488	13149
920.598	13331
920.708	13438
920.818	13225
920.928	13270
921.038	13468
921.148	13373
921.258	13149
921.368	12993
921.477	12996
921.587	12962
921.697	12757
921.806	12901
921.916	12688
922.025	12559
922.134	12620
922.244	12506
922.353	12574
922.462	12464
922.571	12376
922.68	12277
922.789	12205
922.898	12235
923.007	12205
923.116	12243
923.224	12224
923.333	12175
923.442	12095
923.55	12049
923.659	12049
923.767	12106
923.876	11999
923.984	12114
924.092	11980
924.201	12098
924.309	11958
924.417	11984
924.525	11878
924.633	12030
924.741	12913
924.849	11756
924.956	11855
925.064	11718
925.172	11627
925.279	11745
925.387	11722
925.494	11710
925.602	11824
925.709	11847
925.816	11703
925.924	11623
926.031	11729
926.138	11653
926.245	11703
926.352	11638
926.459	11779
926.566	11741
926.673	11608
926.779	11444
926.886	11414
926.993	11356
927.099	11345
927.206	11315
927.312	11220
927.419	11383
927.525	11356
927.631	11360
927.737	11239
927.843	11136
927.95	11048
928.056	11201
928.162	11185
928.267	11193
928.373	11851
928.479	11299
928.585	10949
928.69	11128
928.796	11090
928.901	11029
929.007	10919
929.112	11086
929.218	10904
929.323	10957
929.428	10847
929.533	10991
929.638	10831
929.743	10949
929.848	10873
929.953	10881
930.058	10782
930.163	10561
930.267	10679
930.372	10706
930.477	10580
930.581	10752
930.685	10748
930.79	10493
930.894	10497
930.998	10493
931.103	10618
931.207	10207
931.311	10207
931.415	10139
931.519	9964
931.623	9934
