Data from test_V78500241_1289.txt Node
Date: Fri Mar 25 14:42:41 CST 2022
User: usil
Spectrometer: V785-0024
Trigger mode: 0
Integration Time (sec): 4.000000E-1
Scans to average: 1
Nonlinearity correction enabled: false
Boxcar width: 0
Storing dark spectrum: false
XAxis mode: Wavelengths
Number of Pixels in Spectrum: 1024
>>>>>Begin Spectral Data<<<<<
801.071	22363
801.214	22390
801.356	22105
801.499	21991
801.641	21804
801.783	21892
801.926	21717
802.068	21713
802.211	21652
802.353	21469
802.496	21389
802.638	21119
802.78	21249
802.923	21214
803.065	21070
803.208	21157
803.35	21207
803.492	21108
803.635	21173
803.777	21047
803.919	21226
804.061	21393
804.204	20982
804.346	21112
804.488	20933
804.63	21032
804.773	21001
804.915	21020
805.057	21222
805.199	21036
805.341	21081
805.483	21150
805.626	21138
805.768	20967
805.91	21096
806.052	21074
806.194	20956
806.336	21230
806.478	20963
806.62	21047
806.762	21127
806.904	21279
807.046	21389
807.188	21329
807.33	21332
807.472	21450
807.614	21317
807.756	21389
807.898	21268
808.04	21032
808.182	21245
808.324	21180
808.465	21180
808.607	21443
808.749	21625
808.891	21751
809.033	21778
809.174	21690
809.316	21610
809.458	21519
809.6	21507
809.741	21644
809.883	21549
810.025	21641
810.166	21622
810.308	21599
810.45	21462
810.591	21469
810.733	21370
810.875	21313
811.016	21127
811.158	21085
811.299	21336
811.441	21207
811.582	21275
811.724	21237
811.865	21313
812.007	21184
812.148	21283
812.29	21272
812.431	21355
812.573	21526
812.714	21641
812.855	21751
812.997	21816
813.138	21983
813.279	21884
813.421	21694
813.562	21538
813.703	21485
813.845	21340
813.986	21176
814.127	20819
814.268	20887
814.41	20750
814.551	20651
814.692	20765
814.833	20724
814.974	20640
815.115	20781
815.256	20583
815.397	20575
815.539	20571
815.68	20518
815.821	20374
815.962	20511
816.103	20454
816.244	20278
816.385	20294
816.526	20145
816.666	20046
816.807	19864
816.948	19993
817.089	20054
817.23	19959
817.371	19947
817.512	19849
817.653	19860
817.793	19761
817.934	19814
818.075	19982
818.216	19875
818.356	19879
818.497	19693
818.638	19689
818.778	19616
818.919	19529
819.06	19628
819.2	19723
819.341	19868
819.481	19769
819.622	19849
819.762	20183
819.903	20073
820.043	19868
820.184	19909
820.324	19978
820.465	19955
820.605	19921
820.746	19883
820.886	19822
821.026	19818
821.167	19902
821.307	19974
821.447	19871
821.588	19734
821.728	19597
821.868	19438
822.008	19324
822.149	19308
822.289	19225
822.429	18954
822.569	18981
822.709	18943
822.849	18966
822.99	18798
823.13	18707
823.27	18730
823.41	18681
823.55	18536
823.69	18635
823.83	18601
823.97	18513
824.11	18327
824.25	18384
824.389	18395
824.529	18464
824.669	18376
824.809	18410
824.949	18437
825.089	18471
825.228	18357
825.368	18292
825.508	18140
825.648	18102
825.787	18209
825.927	18205
826.067	18121
826.206	18117
826.346	18194
826.485	18254
826.625	18167
826.765	18319
826.904	18216
827.044	17961
827.183	17946
827.323	17859
827.462	17908
827.601	17904
827.741	17973
827.88	17920
828.02	17802
828.159	17836
828.298	17760
828.437	17851
828.577	17745
828.716	17832
828.855	17710
828.994	17558
829.134	17684
829.273	17509
829.412	17543
829.551	17417
829.69	17558
829.829	17653
829.968	17623
830.107	17642
830.246	17581
830.385	17608
830.524	17395
830.663	17421
830.802	17307
830.941	17303
831.08	17136
831.219	17223
831.357	17269
831.496	17478
831.635	17174
831.774	17102
831.913	17132
832.051	17018
832.19	17128
832.329	17094
832.467	16965
832.606	16892
832.744	16934
832.883	16949
833.022	16892
833.16	17048
833.299	16965
833.437	16908
833.576	16957
833.714	17037
833.852	16995
833.991	16938
834.129	17045
834.267	17109
834.406	16976
834.544	17056
834.682	16987
834.821	16999
834.959	17155
835.097	16991
835.235	17159
835.373	16987
835.511	17003
835.65	16934
835.788	16942
835.926	16736
836.064	16691
836.202	16748
836.34	16965
836.478	16942
836.615	16778
836.753	16824
836.891	16999
837.029	16942
837.167	16919
837.305	16839
837.443	16725
837.58	16706
837.718	16847
837.856	16866
837.993	16668
838.131	16725
838.269	16615
838.406	16660
838.544	16615
838.681	16455
838.819	16402
838.956	16318
839.094	16226
839.231	16291
839.369	16394
839.506	16710
839.643	16634
839.781	16329
839.918	16249
840.055	16333
840.193	16276
840.33	16333
840.467	16318
840.604	16238
840.742	16607
840.879	16162
841.016	16143
841.153	16173
841.29	16398
841.427	16268
841.564	16291
841.701	16367
841.838	16299
841.975	16238
842.112	16284
842.249	16150
842.385	16006
842.522	16230
842.659	16169
842.796	16055
842.933	15994
843.069	15979
843.206	16101
843.343	16143
843.479	16059
843.616	16135
843.752	15911
843.889	15873
844.025	15987
844.162	15831
844.298	16040
844.435	15831
844.571	15850
844.708	15911
844.844	15968
844.98	15926
845.117	16006
845.253	15747
845.389	15755
845.525	15774
845.661	15838
845.798	15778
845.934	15949
846.07	15922
846.206	15949
846.342	15911
846.478	15724
846.614	15534
846.75	15401
846.886	15405
847.022	15652
847.158	15416
847.294	15370
847.429	15454
847.565	15439
847.701	15675
847.837	15207
847.972	15097
848.108	15188
848.244	15313
848.379	15100
848.515	15039
848.65	15032
848.786	15116
848.921	15043
849.057	15169
849.192	15165
849.328	14998
849.463	14994
849.598	15001
849.734	14944
849.869	14967
850.004	14842
850.14	14853
850.275	14853
850.41	14670
850.545	14804
850.68	14834
850.815	14765
850.95	14769
851.085	14982
851.22	14929
851.355	14819
851.49	14735
851.625	14765
851.76	14792
851.895	14663
852.03	14731
852.165	14800
852.299	14826
852.434	14880
852.569	14861
852.703	14910
852.838	14963
852.973	14986
853.107	15074
853.242	14762
853.376	14674
853.511	14594
853.645	14712
853.78	14880
853.914	14705
854.048	14621
854.183	14667
854.317	14727
854.451	14929
854.585	14758
854.72	14598
854.854	14754
854.988	14537
855.122	14724
855.256	14556
855.39	14602
855.524	14682
855.658	14769
855.792	14708
855.926	14750
856.06	14708
856.194	14815
856.327	14686
856.461	14583
856.595	14606
856.729	14727
856.862	14754
856.996	14800
857.13	14727
857.263	14792
857.397	14762
857.53	14716
857.664	14746
857.797	14746
857.931	14823
858.064	14838
858.197	14830
858.331	14724
858.464	14648
858.597	14541
858.731	14678
858.864	14746
858.997	14705
859.13	14648
859.263	14781
859.396	14705
859.529	14636
859.662	14655
859.795	14583
859.928	14750
860.061	14868
860.194	14937
860.327	14739
860.46	14701
860.592	14807
860.725	14845
860.858	14861
860.99	14701
861.123	14697
861.256	14697
861.388	14724
861.521	15439
861.653	14610
861.786	14469
861.918	14560
862.05	14552
862.183	14617
862.315	14621
862.447	14769
862.58	14602
862.712	14492
862.844	14362
862.976	14560
863.108	14480
863.24	14891
863.372	14431
863.504	14450
863.636	14423
863.768	14507
863.9	14473
864.032	14320
864.164	14415
864.296	14564
864.428	14518
864.559	14522
864.691	14484
864.823	14495
864.954	14415
865.086	14469
865.217	14446
865.349	14275
865.48	14370
865.612	14381
865.743	14514
865.875	14438
866.006	14389
866.137	14552
866.269	14442
866.4	14484
866.531	14362
866.662	14317
866.793	14381
866.924	14442
867.055	14465
867.186	14446
867.317	14454
867.448	14347
867.579	14431
867.71	14419
867.841	14347
867.972	14404
868.103	14381
868.233	14457
868.364	14385
868.495	14507
868.625	14663
868.756	14765
868.886	14617
869.017	14648
869.147	14724
869.278	14781
869.408	14678
869.539	14670
869.669	14868
869.799	14659
869.929	14857
870.06	14842
870.19	14948
870.32	14971
870.45	14994
870.58	14998
870.71	15241
870.84	15195
870.97	15036
871.1	15051
871.23	15294
871.36	15241
871.489	15188
871.619	15252
871.749	15180
871.879	15313
872.008	15264
872.138	15291
872.267	15268
872.397	15104
872.526	15077
872.656	15097
872.785	15104
872.915	15382
873.044	15344
873.173	15241
873.303	15382
873.432	15340
873.561	15378
873.69	15348
873.819	15325
873.948	15310
874.077	15252
874.206	15214
874.335	15397
874.464	15397
874.593	15660
874.722	15591
874.851	15606
874.979	15618
875.108	15781
875.237	15576
875.365	15603
875.494	15641
875.623	15633
875.751	15656
875.88	15667
876.008	15713
876.136	15873
876.265	16051
876.393	16162
876.521	16181
876.65	16040
876.778	16074
876.906	15949
877.034	15880
877.162	16059
877.29	15941
877.418	16116
877.546	16162
877.674	16116
877.802	16048
877.93	16086
878.058	16017
878.185	15911
878.313	16032
878.441	16002
878.568	16002
878.696	16032
878.824	16067
878.951	16090
879.079	16284
879.206	16394
879.333	16333
879.461	16154
879.588	16344
879.715	16318
879.842	16455
879.97	16200
880.097	15972
880.224	15888
880.351	15968
880.478	15876
880.605	15869
880.732	15907
880.859	16112
880.986	15960
881.112	15907
881.239	15709
881.366	15698
881.493	15618
881.619	15545
881.746	15595
881.872	15671
881.999	15564
882.125	15450
882.252	15679
882.378	15538
882.505	15816
882.631	15584
882.757	15466
882.883	15424
883.01	15424
883.136	15313
883.262	15249
883.388	15272
883.514	15283
883.64	15355
883.766	15408
883.892	15252
884.018	15165
884.143	15469
884.269	15348
884.395	15180
884.52	15138
884.646	15104
884.772	15066
884.897	14994
885.023	15077
885.148	15211
885.274	15211
885.399	15097
885.524	15032
885.65	15055
885.775	15131
885.9	15077
886.025	15123
886.15	15207
886.275	14872
886.4	14975
886.525	15024
886.65	14948
886.775	14998
886.9	15222
887.025	15260
887.149	15077
887.274	14925
887.399	14842
887.523	14902
887.648	14861
887.773	14796
887.897	15032
888.021	14948
888.146	14834
888.27	15036
888.395	14986
888.519	14944
888.643	14982
888.767	15032
888.891	14823
889.015	14644
889.139	14705
889.263	14792
889.387	14883
889.511	14891
889.635	14815
889.759	14739
889.883	14716
890.006	14758
890.13	14906
890.254	14632
890.377	14716
890.501	14526
890.624	14556
890.748	14629
890.871	14476
890.995	14419
891.118	14355
891.241	14484
891.364	14469
891.488	14526
891.611	14347
891.734	14450
891.857	14533
891.98	14511
892.103	14545
892.226	14434
892.349	14476
892.471	14263
892.594	14469
892.717	14343
892.839	14434
892.962	14480
893.085	14522
893.207	14522
893.33	14381
893.452	14427
893.575	14469
893.697	14370
893.819	14613
893.941	14735
894.064	14530
894.186	14434
894.308	14415
894.43	14503
894.552	14545
894.674	14575
894.796	14423
894.918	14511
895.04	14427
895.161	14533
895.283	14556
895.405	14469
895.526	14575
895.648	14598
895.769	14617
895.891	14598
896.012	14598
896.134	14640
896.255	14541
896.376	14507
896.498	14533
896.619	14689
896.74	14522
896.861	14610
896.982	14982
897.103	15047
897.224	14876
897.345	14785
897.466	14785
897.587	14823
897.708	14941
897.828	14868
897.949	14902
898.07	14739
898.19	14845
898.311	15051
898.431	14811
898.552	14883
898.672	15024
898.792	15009
898.913	14967
899.033	14754
899.153	14712
899.273	14720
899.393	14651
899.513	14727
899.633	14823
899.753	14743
899.873	14777
899.993	14785
900.113	14830
900.232	14758
900.352	14781
900.472	14667
900.591	14590
900.711	14537
900.83	14686
900.95	14644
901.069	14697
901.189	14583
901.308	14465
901.427	14225
901.546	14309
901.665	14275
901.784	14225
901.904	14218
902.023	14149
902.141	13879
902.26	13864
902.379	13947
902.498	13921
902.617	13742
902.735	13902
902.854	13849
902.973	13769
903.091	13628
903.21	13575
903.328	13559
903.446	13499
903.565	13403
903.683	13362
903.801	13274
903.919	13430
904.038	13453
904.156	13274
904.274	13324
904.392	13282
904.51	13274
904.627	13209
904.745	13301
904.863	13301
904.981	12962
905.098	12947
905.216	12970
905.334	12920
905.451	12951
905.569	12909
905.686	12981
905.803	12989
905.921	12738
906.038	12856
906.155	12772
906.272	12719
906.389	12623
906.506	12494
906.623	12429
906.74	12521
906.857	12357
906.974	12376
907.091	12532
907.208	12677
907.324	12486
907.441	12437
907.557	12190
907.674	12296
907.79	12194
907.907	12239
908.023	12292
908.139	12330
908.256	12197
908.372	12205
908.488	12194
908.604	12102
908.72	12041
908.836	12064
908.952	11999
909.068	11942
909.184	12121
909.3	12072
909.415	12110
909.531	12034
909.647	11786
909.762	11764
909.878	11649
909.993	11821
910.108	11733
910.224	11764
910.339	11798
910.454	11695
910.57	11642
910.685	11600
910.8	11927
910.915	11817
911.03	11585
911.145	11474
911.259	11463
911.374	11535
911.489	11383
911.604	11387
911.718	11311
911.833	11288
911.947	11201
912.062	11121
912.176	11201
912.291	11254
912.405	11197
912.519	11429
912.633	11474
912.748	11322
912.862	11197
912.976	11090
913.09	11052
913.204	11037
913.318	11140
913.431	11128
913.545	11246
913.659	11223
913.772	11105
913.886	10980
914	10999
914.113	11033
914.226	11299
914.34	11170
914.453	10961
914.566	11094
914.68	10934
914.793	10949
914.906	10790
915.019	10767
915.132	10634
915.245	10698
915.358	10675
915.47	10641
915.583	10740
915.696	10748
915.809	10816
915.921	10877
916.034	10634
916.146	10668
916.259	10656
916.371	10793
916.483	10725
916.595	10687
916.708	10630
916.82	10645
916.932	10656
917.044	10679
917.156	10653
917.268	10489
917.38	10527
917.491	10561
917.603	10554
917.715	10710
917.826	10679
917.938	10546
918.049	10409
918.161	10580
918.272	10588
918.384	10611
918.495	10573
918.606	10417
918.717	10428
918.828	10500
918.939	10500
919.05	10299
919.161	10413
919.272	10249
919.383	10287
919.494	10470
919.604	10660
919.715	10402
919.826	10272
919.936	10417
920.047	10550
920.157	10504
920.267	10637
920.378	10493
920.488	10432
920.598	10702
920.708	10771
920.818	10588
920.928	10668
921.038	10786
921.148	10752
921.258	10493
921.368	10386
921.477	10390
921.587	10272
921.697	10173
921.806	10379
921.916	10147
922.025	10040
922.134	10010
922.244	9949
922.353	10055
922.462	9892
922.571	9838
922.68	9713
922.789	9606
922.898	9675
923.007	9671
923.116	9759
923.224	9660
923.333	9675
923.442	9580
923.55	9595
923.659	9553
923.767	9644
923.876	9507
923.984	9584
924.092	9511
924.201	9553
924.309	9519
924.417	9526
924.525	9485
924.633	9481
924.741	10299
924.849	9355
924.956	9416
925.064	9408
925.172	9302
925.279	9325
925.387	9359
925.494	9317
925.602	9454
925.709	9374
925.816	9249
925.924	9329
926.031	9439
926.138	9329
926.245	9389
926.352	9249
926.459	9401
926.566	9443
926.673	9344
926.779	9233
926.886	9176
926.993	9039
927.099	9043
927.206	8986
927.312	8937
927.419	9055
927.525	8967
927.631	9100
927.737	8956
927.843	8929
927.95	8773
928.056	8925
928.162	8811
928.267	9051
928.373	9603
928.479	8979
928.585	8769
928.69	8967
928.796	8963
928.901	8819
929.007	8682
929.112	8853
929.218	8792
929.323	8693
929.428	8693
929.533	8864
929.638	8686
929.743	8697
929.848	8781
929.953	8724
930.058	8587
930.163	8457
930.267	8636
930.372	8663
930.477	8499
930.581	8678
930.685	8655
930.79	8400
930.894	8404
930.998	8423
931.103	8545
931.207	8168
931.311	8157
931.415	8062
931.519	7890
931.623	7887
