Data from test_V78500241_299.txt Node
Date: Fri Mar 25 14:35:48 CST 2022
User: usil
Spectrometer: V785-0024
Trigger mode: 0
Integration Time (sec): 4.000000E-1
Scans to average: 1
Nonlinearity correction enabled: false
Boxcar width: 0
Storing dark spectrum: false
XAxis mode: Wavelengths
Number of Pixels in Spectrum: 1024
>>>>>Begin Spectral Data<<<<<
801.071	27150
801.214	27108
801.356	26914
801.499	26739
801.641	26674
801.783	26613
801.926	26712
802.068	26579
802.211	26503
802.353	26469
802.496	26366
802.638	26229
802.78	26206
802.923	26187
803.065	26054
803.208	25986
803.35	26012
803.492	26107
803.635	26191
803.777	26119
803.919	26286
804.061	26533
804.204	26317
804.346	25989
804.488	26142
804.63	26096
804.773	26008
804.915	26218
805.057	26427
805.199	26172
805.341	26195
805.483	26096
805.626	26172
805.768	26046
805.91	26225
806.052	26126
806.194	26180
806.336	26419
806.478	26263
806.62	26164
806.762	26263
806.904	26473
807.046	26617
807.188	26560
807.33	26686
807.472	26465
807.614	26332
807.756	26625
807.898	26453
808.04	26309
808.182	26396
808.324	26442
808.465	26396
808.607	26674
808.749	26678
808.891	26845
809.033	26895
809.174	26815
809.316	26838
809.458	26762
809.6	26720
809.741	26739
809.883	26708
810.025	26796
810.166	26838
810.308	27066
810.45	26872
810.591	26857
810.733	26655
810.875	26609
811.016	26438
811.158	26358
811.299	26667
811.441	26754
811.582	26613
811.724	26549
811.865	26518
812.007	26511
812.148	26556
812.29	26705
812.431	26598
812.573	26842
812.714	26895
812.855	27047
812.997	27104
813.138	27226
813.279	27112
813.421	27055
813.562	27024
813.703	26891
813.845	26769
813.986	26453
814.127	26282
814.268	26092
814.41	26214
814.551	26107
814.692	26149
814.833	26122
814.974	26012
815.115	26161
815.256	25887
815.397	25982
815.539	25928
815.68	25837
815.821	25811
815.962	25902
816.103	25826
816.244	25670
816.385	25723
816.526	25586
816.666	25434
816.807	25293
816.948	25415
817.089	25479
817.23	25228
817.371	25236
817.512	25232
817.653	25392
817.793	25183
817.934	25209
818.075	25289
818.216	25213
818.356	25046
818.497	25091
818.638	24905
818.778	24848
818.919	25027
819.06	25095
819.2	25126
819.341	25282
819.481	25038
819.622	25285
819.762	25483
819.903	25365
820.043	25358
820.184	25122
820.324	25225
820.465	25335
820.605	25240
820.746	25027
820.886	25050
821.026	25145
821.167	25091
821.307	25168
821.447	25118
821.588	24958
821.728	24833
821.868	24833
822.008	24593
822.149	24551
822.289	24544
822.429	24292
822.569	24186
822.709	24140
822.849	24060
822.99	24072
823.13	23893
823.27	23973
823.41	23832
823.55	23672
823.69	23897
823.83	23691
823.97	23779
824.11	23554
824.25	23398
824.389	23596
824.529	23703
824.669	23547
824.809	23680
824.949	23722
825.089	23619
825.228	23665
825.368	23288
825.508	23471
825.648	23391
825.787	23254
825.927	23436
826.067	23299
826.206	23330
826.346	23322
826.485	23448
826.625	23292
826.765	23509
826.904	23349
827.044	23098
827.183	23132
827.323	22946
827.462	23113
827.601	23052
827.741	22824
827.88	23109
828.02	22991
828.159	22919
828.298	22946
828.437	23132
828.577	22885
828.716	23102
828.855	22930
828.994	22797
829.134	22721
829.273	22782
829.412	22622
829.551	22550
829.69	22694
829.829	22679
829.968	22831
830.107	22725
830.246	22793
830.385	22637
830.524	22675
830.663	22493
830.802	22379
830.941	22295
831.08	22253
831.219	22253
831.357	22257
831.496	22474
831.635	22329
831.774	22261
831.913	22120
832.051	22074
832.19	22131
832.329	22013
832.467	22013
832.606	22070
832.744	21895
832.883	21998
833.022	21880
833.16	21918
833.299	21953
833.437	21823
833.576	22036
833.714	21816
833.852	21960
833.991	21930
834.129	21998
834.267	21998
834.406	21953
834.544	22013
834.682	21869
834.821	21797
834.959	21991
835.097	21880
835.235	22013
835.373	21892
835.511	21979
835.65	21816
835.788	21766
835.926	21610
836.064	21477
836.202	21648
836.34	21819
836.478	21808
836.615	21648
836.753	21701
836.891	21808
837.029	21728
837.167	21717
837.305	21614
837.443	21583
837.58	21629
837.718	21652
837.856	21625
837.993	21583
838.131	21500
838.269	21431
838.406	21580
838.544	21530
838.681	21298
838.819	21291
838.956	21127
839.094	21043
839.231	21131
839.369	21135
839.506	21424
839.643	21176
839.781	21032
839.918	21032
840.055	20876
840.193	20960
840.33	20857
840.467	20902
840.604	20876
840.742	21138
840.879	20944
841.016	20941
841.153	20807
841.29	21001
841.427	20982
841.564	20990
841.701	20918
841.838	20944
841.975	20788
842.112	20918
842.249	20560
842.385	20606
842.522	20864
842.659	20659
842.796	20693
842.933	20689
843.069	20663
843.206	20590
843.343	20716
843.479	20712
843.616	20602
843.752	20613
843.889	20488
844.025	20587
844.162	20408
844.298	20469
844.435	20358
844.571	20328
844.708	20469
844.844	20522
844.98	20670
845.117	20598
845.253	20358
845.389	20427
845.525	20286
845.661	20339
845.798	20313
845.934	20408
846.07	20233
846.206	20473
846.342	20427
846.478	20206
846.614	19989
846.75	19970
846.886	19830
847.022	20016
847.158	19925
847.294	19841
847.429	19947
847.565	19852
847.701	20206
847.837	19723
847.972	19616
848.108	19746
848.244	19757
848.379	19514
848.515	19335
848.65	19407
848.786	19396
848.921	19441
849.057	19556
849.192	19575
849.328	19339
849.463	19434
849.598	19381
849.734	19369
849.869	19263
850.004	19304
850.14	19202
850.275	19206
850.41	19023
850.545	19141
850.68	19088
850.815	19221
850.95	19152
851.085	19476
851.22	19308
851.355	19209
851.49	19122
851.625	19118
851.76	19187
851.895	18985
852.03	19126
852.165	19244
852.299	19171
852.434	19244
852.569	19129
852.703	19145
852.838	19107
852.973	19236
853.107	19274
853.242	19103
853.376	19004
853.511	18798
853.645	19050
853.78	19206
853.914	19015
854.048	18901
854.183	18966
854.317	19019
854.451	19133
854.585	18970
854.72	18951
854.854	18928
854.988	18844
855.122	18958
855.256	18909
855.39	19008
855.524	18928
855.658	18905
855.792	18970
855.926	18932
856.06	19019
856.194	19038
856.327	18928
856.461	18947
856.595	18962
856.729	19023
856.862	19107
856.996	18863
857.13	19027
857.263	19053
857.397	19080
857.53	18966
857.664	18932
857.797	18977
857.931	19046
858.064	19004
858.197	19008
858.331	18825
858.464	18882
858.597	18821
858.731	18935
858.864	18920
858.997	18973
859.13	18886
859.263	18981
859.396	18966
859.529	18878
859.662	18878
859.795	18837
859.928	18909
860.061	19046
860.194	19031
860.327	19023
860.46	18973
860.592	18996
860.725	19012
860.858	18920
860.99	18981
861.123	18817
861.256	18871
861.388	18913
861.521	19575
861.653	18738
861.786	18612
861.918	18806
862.05	18829
862.183	18951
862.315	18947
862.447	18943
862.58	18909
862.712	18798
862.844	18658
862.976	18684
863.108	18745
863.24	19076
863.372	18574
863.504	18555
863.636	18650
863.768	18715
863.9	18730
864.032	18582
864.164	18498
864.296	18604
864.428	18688
864.559	18635
864.691	18703
864.823	18654
864.954	18574
865.086	18677
865.217	18521
865.349	18437
865.48	18502
865.612	18555
865.743	18627
865.875	18559
866.006	18437
866.137	18563
866.269	18528
866.4	18517
866.531	18456
866.662	18437
866.793	18486
866.924	18475
867.055	18433
867.186	18509
867.317	18388
867.448	18334
867.579	18483
867.71	18426
867.841	18296
867.972	18547
868.103	18448
868.233	18441
868.364	18521
868.495	18517
868.625	18669
868.756	18886
868.886	18574
869.017	18791
869.147	18871
869.278	18875
869.408	18665
869.539	18703
869.669	18715
869.799	18658
869.929	18871
870.06	18791
870.19	19027
870.32	19061
870.45	18996
870.58	19118
870.71	19164
870.84	19164
870.97	19069
871.1	19076
871.23	19362
871.36	19289
871.489	19221
871.619	19324
871.749	19312
871.879	19301
872.008	19476
872.138	19365
872.267	19312
872.397	19236
872.526	19114
872.656	19148
872.785	19251
872.915	19316
873.044	19304
873.173	19354
873.303	19430
873.432	19350
873.561	19438
873.69	19381
873.819	19377
873.948	19365
874.077	19388
874.206	19346
874.335	19259
874.464	19464
874.593	19628
874.722	19483
874.851	19601
874.979	19635
875.108	19651
875.237	19613
875.365	19518
875.494	19556
875.623	19582
875.751	19563
875.88	19662
876.008	19772
876.136	19936
876.265	19982
876.393	20103
876.521	20073
876.65	20012
876.778	19883
876.906	19921
877.034	20024
877.162	19986
877.29	19871
877.418	19989
877.546	20027
877.674	19989
877.802	19940
877.93	19970
878.058	19955
878.185	19864
878.313	19970
878.441	20046
878.568	19845
878.696	20001
878.824	20012
878.951	20153
879.079	20229
879.206	20351
879.333	20294
879.461	20039
879.588	20157
879.715	20286
879.842	20351
879.97	20012
880.097	19811
880.224	19871
880.351	19841
880.478	19932
880.605	19845
880.732	19750
880.859	20084
880.986	19845
881.112	19795
881.239	19776
881.366	19624
881.493	19525
881.619	19567
881.746	19487
881.872	19502
881.999	19460
882.125	19407
882.252	19476
882.378	19381
882.505	19586
882.631	19316
882.757	19202
882.883	19236
883.01	19263
883.136	19171
883.262	19034
883.388	19103
883.514	19202
883.64	19289
883.766	19190
883.892	19004
884.018	19053
884.143	19133
884.269	19217
884.395	18951
884.52	18886
884.646	18848
884.772	18738
884.897	18677
885.023	18951
885.148	18935
885.274	19072
885.399	19027
885.524	18871
885.65	18844
885.775	18886
885.9	18928
886.025	18970
886.15	18916
886.275	18837
886.4	18673
886.525	18829
886.65	18840
886.775	18840
886.9	18909
887.025	19065
887.149	18757
887.274	18753
887.399	18521
887.523	18464
887.648	18593
887.773	18471
887.897	18711
888.021	18654
888.146	18597
888.27	18711
888.395	18776
888.519	18642
888.643	18677
888.767	18532
888.891	18551
889.015	18399
889.139	18471
889.263	18365
889.387	18448
889.511	18528
889.635	18521
889.759	18418
889.883	18262
890.006	18426
890.13	18509
890.254	18319
890.377	18369
890.501	18114
890.624	18117
890.748	18319
890.871	18098
890.995	17958
891.118	17904
891.241	17996
891.364	18049
891.488	18053
891.611	17908
891.734	18038
891.857	18144
891.98	18053
892.103	18213
892.226	18064
892.349	18068
892.471	17859
892.594	17992
892.717	17996
892.839	17927
892.962	17996
893.085	18026
893.207	17920
893.33	17878
893.452	17882
893.575	17927
893.697	17977
893.819	18076
893.941	18136
894.064	18053
894.186	17908
894.308	17901
894.43	18049
894.552	18106
894.674	18129
894.796	17904
894.918	17923
895.04	17866
895.161	18053
895.283	18049
895.405	17885
895.526	17950
895.648	17916
895.769	18095
895.891	18121
896.012	18152
896.134	18053
896.255	18068
896.376	18098
896.498	18057
896.619	18163
896.74	18152
896.861	18110
896.982	18403
897.103	18536
897.224	18292
897.345	18315
897.466	18209
897.587	18243
897.708	18414
897.828	18407
897.949	18190
898.07	18167
898.19	18235
898.311	18365
898.431	18372
898.552	18178
898.672	18334
898.792	18346
898.913	18330
899.033	18285
899.153	18083
899.273	17969
899.393	17996
899.513	18155
899.633	18011
899.753	18121
899.873	18083
899.993	18003
900.113	18030
900.232	18041
900.352	17984
900.472	17950
900.591	17752
900.711	17794
900.83	17817
900.95	17977
901.069	17996
901.189	17798
901.308	17646
901.427	17501
901.546	17539
901.665	17444
901.784	17509
901.904	17273
902.023	17337
902.141	17086
902.26	17041
902.379	17037
902.498	16896
902.617	17098
902.735	17048
902.854	16934
902.973	16927
903.091	16763
903.21	16592
903.328	16736
903.446	16599
903.565	16489
903.683	16500
903.801	16436
903.919	16413
904.038	16409
904.156	16272
904.274	16398
904.392	16382
904.51	16246
904.627	16310
904.745	16207
904.863	16230
904.981	16036
905.098	16017
905.216	15960
905.334	16017
905.451	15979
905.569	15964
905.686	15960
905.803	15831
905.921	15800
906.038	15797
906.155	15762
906.272	15675
906.389	15713
906.506	15462
906.623	15519
906.74	15515
906.857	15367
906.974	15321
907.091	15576
907.208	15610
907.324	15420
907.441	15439
907.557	15245
907.674	15180
907.79	15180
907.907	15180
908.023	15218
908.139	15195
908.256	15097
908.372	14963
908.488	15058
908.604	14990
908.72	15009
908.836	14807
908.952	14895
909.068	14910
909.184	15017
909.3	14842
909.415	14918
909.531	14785
909.647	14686
909.762	14655
909.878	14610
909.993	14514
910.108	14469
910.224	14507
910.339	14556
910.454	14442
910.57	14434
910.685	14332
910.8	14598
910.915	14670
911.03	14465
911.145	14267
911.259	14195
911.374	14145
911.489	14221
911.604	14168
911.718	13989
911.833	14035
911.947	13845
912.062	13727
912.176	13902
912.291	13940
912.405	13925
912.519	14161
912.633	14187
912.748	13978
912.862	13951
912.976	13681
913.09	13674
913.204	13750
913.318	13837
913.431	13898
913.545	13841
913.659	13852
913.772	13799
913.886	13662
914	13731
914.113	13765
914.226	13738
914.34	13795
914.453	13499
914.566	13708
914.68	13430
914.793	13556
914.906	13274
915.019	13324
915.132	13301
915.245	13293
915.358	13259
915.47	13289
915.583	13225
915.696	13365
915.809	13422
915.921	13392
916.034	13244
916.146	13266
916.259	13190
916.371	13316
916.483	13282
916.595	13137
916.708	13152
916.82	13179
916.932	13065
917.044	13072
917.156	13076
917.268	13027
917.38	12993
917.491	12935
917.603	12996
917.715	13057
917.826	13095
917.938	13015
918.049	12795
918.161	13027
918.272	13034
918.384	13084
918.495	13000
918.606	12863
918.717	12753
918.828	12852
918.939	12848
919.05	12726
919.161	12692
919.272	12639
919.383	12703
919.494	12760
919.604	13050
919.715	12719
919.826	12604
919.936	12711
920.047	12844
920.157	12833
920.267	12981
920.378	12768
920.488	12779
920.598	12882
920.708	13019
920.818	12825
920.928	12890
921.038	13095
921.148	13069
921.258	12779
921.368	12703
921.477	12544
921.587	12525
921.697	12418
921.806	12471
921.916	12323
922.025	12190
922.134	12205
922.244	12091
922.353	12254
922.462	12155
922.571	12003
922.68	11889
922.789	11840
922.898	11805
923.007	11783
923.116	11847
923.224	11893
923.333	11836
923.442	11691
923.55	11710
923.659	11764
923.767	11729
923.876	11558
923.984	11748
924.092	11668
924.201	11684
924.309	11649
924.417	11657
924.525	11646
924.633	11615
924.741	12490
924.849	11303
924.956	11524
925.064	11414
925.172	11315
925.279	11326
925.387	11410
925.494	11383
925.602	11497
925.709	11417
925.816	11326
925.924	11414
926.031	11463
926.138	11360
926.245	11326
926.352	11178
926.459	11387
926.566	11429
926.673	11280
926.779	11113
926.886	11147
926.993	11045
927.099	10949
927.206	10995
927.312	10961
927.419	11037
927.525	11045
927.631	10995
927.737	10889
927.843	10862
927.95	10801
928.056	10831
928.162	10869
928.267	10869
928.373	11421
928.479	10957
928.585	10653
928.69	10847
928.796	10881
928.901	10786
929.007	10592
929.112	10702
929.218	10637
929.323	10618
929.428	10554
929.533	10687
929.638	10500
929.743	10542
929.848	10596
929.953	10588
930.058	10443
930.163	10325
930.267	10303
930.372	10436
930.477	10314
930.581	10531
930.685	10268
930.79	10223
930.894	10253
930.998	10173
931.103	10352
931.207	9987
931.311	9857
931.415	9755
931.519	9633
931.623	9622
