Data from test_V78500241_2517.txt Node
Date: Fri Mar 25 14:51:14 CST 2022
User: usil
Spectrometer: V785-0024
Trigger mode: 0
Integration Time (sec): 4.000000E-1
Scans to average: 1
Nonlinearity correction enabled: false
Boxcar width: 0
Storing dark spectrum: false
XAxis mode: Wavelengths
Number of Pixels in Spectrum: 1024
>>>>>Begin Spectral Data<<<<<
801.071	22090
801.214	22006
801.356	21583
801.499	21614
801.641	21587
801.783	21420
801.926	21469
802.068	21488
802.211	21378
802.353	21192
802.496	21028
802.638	21013
802.78	20982
802.923	20891
803.065	20693
803.208	20769
803.35	20853
803.492	20796
803.635	20963
803.777	20788
803.919	20826
804.061	21268
804.204	20830
804.346	20682
804.488	20773
804.63	20746
804.773	20648
804.915	20708
805.057	20743
805.199	20705
805.341	20796
805.483	20979
805.626	20796
805.768	20739
805.91	20769
806.052	20777
806.194	20613
806.336	20758
806.478	20659
806.62	20594
806.762	20773
806.904	20785
807.046	21096
807.188	21089
807.33	21093
807.472	21070
807.614	20937
807.756	20838
807.898	20800
808.04	20727
808.182	20640
808.324	20785
808.465	20826
808.607	20998
808.749	21074
808.891	21230
809.033	21249
809.174	21157
809.316	20948
809.458	21108
809.6	21036
809.741	21131
809.883	21123
810.025	21291
810.166	21264
810.308	21176
810.45	21203
810.591	21150
810.733	21009
810.875	20807
811.016	20769
811.158	20564
811.299	20883
811.441	20971
811.582	21047
811.724	20811
811.865	20735
812.007	20781
812.148	20758
812.29	20834
812.431	21043
812.573	21176
812.714	21336
812.855	21264
812.997	21370
813.138	21618
813.279	21504
813.421	21313
813.562	21340
813.703	21005
813.845	20925
813.986	20613
814.127	20598
814.268	20461
814.41	20511
814.551	20396
814.692	20442
814.833	20377
814.974	20415
815.115	20278
815.256	20305
815.397	20290
815.539	20240
815.68	20187
815.821	20058
815.962	20088
816.103	20119
816.244	19871
816.385	19837
816.526	19890
816.666	19708
816.807	19563
816.948	19639
817.089	19624
817.23	19495
817.371	19449
817.512	19434
817.653	19529
817.793	19540
817.934	19453
818.075	19464
818.216	19521
818.356	19396
818.497	19434
818.638	19168
818.778	19156
818.919	19244
819.06	19244
819.2	19365
819.341	19403
819.481	19369
819.622	19369
819.762	19609
819.903	19677
820.043	19548
820.184	19556
820.324	19499
820.465	19518
820.605	19525
820.746	19483
820.886	19350
821.026	19476
821.167	19388
821.307	19499
821.447	19415
821.588	19350
821.728	19206
821.868	19000
822.008	18791
822.149	18905
822.289	18787
822.429	18665
822.569	18559
822.709	18620
822.849	18346
822.99	18365
823.13	18289
823.27	18346
823.41	18224
823.55	18068
823.69	18232
823.83	18330
823.97	18178
824.11	17996
824.25	17851
824.389	17999
824.529	18019
824.669	18026
824.809	18045
824.949	18034
825.089	17969
825.228	17980
825.368	17859
825.508	17737
825.648	17699
825.787	18003
825.927	17855
826.067	17748
826.206	17649
826.346	17703
826.485	17699
826.625	17672
826.765	17813
826.904	17824
827.044	17532
827.183	17535
827.323	17429
827.462	17535
827.601	17421
827.741	17387
827.88	17444
828.02	17261
828.159	17459
828.298	17398
828.437	17646
828.577	17349
828.716	17604
828.855	17406
828.994	17223
829.134	17208
829.273	17242
829.412	17075
829.551	17102
829.69	17159
829.829	17200
829.968	17246
830.107	17258
830.246	17239
830.385	17086
830.524	17117
830.663	17006
830.802	16961
830.941	16793
831.08	16736
831.219	16759
831.357	16911
831.496	16942
831.635	16774
831.774	16702
831.913	16611
832.051	16569
832.19	16645
832.329	16683
832.467	16637
832.606	16542
832.744	16542
832.883	16470
833.022	16474
833.16	16455
833.299	16577
833.437	16603
833.576	16599
833.714	16565
833.852	16523
833.991	16489
834.129	16565
834.267	16573
834.406	16542
834.544	16630
834.682	16599
834.821	16478
834.959	16664
835.097	16489
835.235	16656
835.373	16573
835.511	16577
835.65	16485
835.788	16500
835.926	16348
836.064	16291
836.202	16287
836.34	16470
836.478	16546
836.615	16451
836.753	16531
836.891	16516
837.029	16478
837.167	16481
837.305	16413
837.443	16379
837.58	16356
837.718	16318
837.856	16421
837.993	16325
838.131	16474
838.269	16249
838.406	16261
838.544	16158
838.681	16002
838.819	16067
838.956	15876
839.094	15861
839.231	15994
839.369	15994
839.506	16287
839.643	16131
839.781	15892
839.918	15835
840.055	15953
840.193	15930
840.33	15850
840.467	15846
840.604	15956
840.742	16116
840.879	15785
841.016	15812
841.153	15797
841.29	16010
841.427	15888
841.564	15994
841.701	15994
841.838	15781
841.975	15770
842.112	15797
842.249	15694
842.385	15614
842.522	15861
842.659	15648
842.796	15690
842.933	15759
843.069	15549
843.206	15625
843.343	15610
843.479	15720
843.616	15644
843.752	15469
843.889	15485
844.025	15663
844.162	15386
844.298	15599
844.435	15481
844.571	15336
844.708	15431
844.844	15610
844.98	15644
845.117	15599
845.253	15420
845.389	15302
845.525	15393
845.661	15382
845.798	15279
845.934	15386
846.07	15306
846.206	15291
846.342	15264
846.478	15218
846.614	15138
846.75	14941
846.886	15047
847.022	14990
847.158	14994
847.294	15097
847.429	15138
847.565	14971
847.701	15272
847.837	14765
847.972	14594
848.108	14868
848.244	14811
848.379	14773
848.515	14667
848.65	14636
848.786	14781
848.921	14621
849.057	14720
849.192	14727
849.328	14648
849.463	14610
849.598	14689
849.734	14507
849.869	14488
850.004	14377
850.14	14454
850.275	14366
850.41	14347
850.545	14267
850.68	14343
850.815	14427
850.95	14301
851.085	14552
851.22	14511
851.355	14423
851.49	14446
851.625	14374
851.76	14374
851.895	14305
852.03	14339
852.165	14347
852.299	14362
852.434	14511
852.569	14343
852.703	14381
852.838	14431
852.973	14575
853.107	14541
853.242	14454
853.376	14336
853.511	14157
853.645	14134
853.78	14408
853.914	14233
854.048	14161
854.183	14210
854.317	14275
854.451	14484
854.585	14282
854.72	14199
854.854	14309
854.988	14259
855.122	14202
855.256	14176
855.39	14145
855.524	14313
855.658	14347
855.792	14351
855.926	14244
856.06	14377
856.194	14339
856.327	14320
856.461	14240
856.595	14199
856.729	14164
856.862	14404
856.996	14313
857.13	14339
857.263	14377
857.397	14419
857.53	14191
857.664	14347
857.797	14351
857.931	14400
858.064	14328
858.197	14301
858.331	14199
858.464	14187
858.597	14153
858.731	14119
858.864	14187
858.997	14191
859.13	14313
859.263	14286
859.396	14492
859.529	14305
859.662	14187
859.795	14195
859.928	14282
860.061	14450
860.194	14385
860.327	14313
860.46	14309
860.592	14343
860.725	14290
860.858	14366
860.99	14332
861.123	14107
861.256	14168
861.388	14183
861.521	14773
861.653	14183
861.786	14172
861.918	14153
862.05	14168
862.183	14305
862.315	14275
862.447	14275
862.58	14187
862.712	13997
862.844	14058
862.976	14119
863.108	14065
863.24	14415
863.372	13807
863.504	14005
863.636	14088
863.768	14024
863.9	14035
864.032	13986
864.164	13986
864.296	14054
864.428	14054
864.559	14187
864.691	14153
864.823	14119
864.954	14043
865.086	14050
865.217	14123
865.349	13974
865.48	14001
865.612	14008
865.743	14100
865.875	14024
866.006	14050
866.137	14100
866.269	14065
866.4	14081
866.531	13940
866.662	13951
866.793	13917
866.924	13913
867.055	14050
867.186	13997
867.317	13982
867.448	13921
867.579	13925
867.71	14027
867.841	13936
867.972	13993
868.103	14027
868.233	14016
868.364	14016
868.495	14100
868.625	14225
868.756	14347
868.886	14172
869.017	14263
869.147	14511
869.278	14461
869.408	14256
869.539	14301
869.669	14385
869.799	14259
869.929	14438
870.06	14339
870.19	14533
870.32	14575
870.45	14590
870.58	14682
870.71	14826
870.84	14765
870.97	14629
871.1	14686
871.23	14880
871.36	14868
871.489	14743
871.619	14880
871.749	14902
871.879	14944
872.008	15001
872.138	14883
872.267	14845
872.397	14663
872.526	14720
872.656	14697
872.785	14682
872.915	14902
873.044	14937
873.173	14975
873.303	14994
873.432	14883
873.561	14979
873.69	14880
873.819	14929
873.948	14979
874.077	14956
874.206	14872
874.335	14937
874.464	15062
874.593	15157
874.722	15112
874.851	15260
874.979	15351
875.108	15336
875.237	15287
875.365	15142
875.494	15249
875.623	15302
875.751	15245
875.88	15230
876.008	15389
876.136	15458
876.265	15728
876.393	15797
876.521	15736
876.65	15675
876.778	15698
876.906	15629
877.034	15606
877.162	15599
877.29	15641
877.418	15682
877.546	15675
877.674	15629
877.802	15747
877.93	15660
878.058	15591
878.185	15610
878.313	15561
878.441	15595
878.568	15534
878.696	15519
878.824	15751
878.951	15641
879.079	15812
879.206	15975
879.333	15876
879.461	15633
879.588	15770
879.715	15888
879.842	16017
879.97	15682
880.097	15553
880.224	15496
880.351	15500
880.478	15599
880.605	15420
880.732	15492
880.859	15762
880.986	15545
881.112	15568
881.239	15378
881.366	15256
881.493	15146
881.619	15036
881.746	15176
881.872	15077
881.999	15195
882.125	15058
882.252	15260
882.378	15142
882.505	15329
882.631	15039
882.757	15001
882.883	15108
883.01	14899
883.136	14956
883.262	14758
883.388	14826
883.514	14994
883.64	14929
883.766	14994
883.892	14716
884.018	14804
884.143	14937
884.269	15058
884.395	14720
884.52	14556
884.646	14693
884.772	14583
884.897	14693
885.023	14769
885.148	14773
885.274	14781
885.399	14902
885.524	14651
885.65	14682
885.775	14636
885.9	14701
886.025	14811
886.15	14743
886.275	14629
886.4	14571
886.525	14606
886.65	14583
886.775	14598
886.9	14739
887.025	14914
887.149	14579
887.274	14526
887.399	14404
887.523	14415
887.648	14408
887.773	14484
887.897	14636
888.021	14495
888.146	14442
888.27	14590
888.395	14602
888.519	14587
888.643	14625
888.767	14564
888.891	14328
889.015	14385
889.139	14412
889.263	14282
889.387	14446
889.511	14682
889.635	14514
889.759	14419
889.883	14317
890.006	14442
890.13	14537
890.254	14278
890.377	14317
890.501	14168
890.624	14183
890.748	14244
890.871	14111
890.995	14103
891.118	13928
891.241	14103
891.364	14088
891.488	14206
891.611	14126
891.734	14153
891.857	14164
891.98	14058
892.103	14180
892.226	14130
892.349	14054
892.471	14001
892.594	14096
892.717	14115
892.839	14073
892.962	14157
893.085	14164
893.207	14012
893.33	14031
893.452	13997
893.575	14187
893.697	14153
893.819	14202
893.941	14180
894.064	14240
894.186	14039
894.308	14096
894.43	14191
894.552	14221
894.674	14240
894.796	14027
894.918	14206
895.04	14161
895.161	14199
895.283	14221
895.405	14062
895.526	14161
895.648	14142
895.769	14195
895.891	14259
896.012	14252
896.134	14267
896.255	14248
896.376	14183
896.498	14256
896.619	14305
896.74	14248
896.861	14434
896.982	14587
897.103	14746
897.224	14632
897.345	14503
897.466	14480
897.587	14450
897.708	14655
897.828	14541
897.949	14476
898.07	14389
898.19	14457
898.311	14640
898.431	14545
898.552	14590
898.672	14617
898.792	14655
898.913	14667
899.033	14549
899.153	14469
899.273	14301
899.393	14431
899.513	14507
899.633	14412
899.753	14419
899.873	14423
899.993	14514
900.113	14412
900.232	14408
900.352	14442
900.472	14343
900.591	14313
900.711	14332
900.83	14278
900.95	14404
901.069	14385
901.189	14221
901.308	14123
901.427	13974
901.546	14058
901.665	13974
901.784	13993
901.904	13906
902.023	13769
902.141	13632
902.26	13537
902.379	13655
902.498	13480
902.617	13460
902.735	13647
902.854	13559
902.973	13552
903.091	13301
903.21	13343
903.328	13263
903.446	13247
903.565	13137
903.683	13107
903.801	13084
903.919	13118
904.038	13076
904.156	12981
904.274	13091
904.392	12966
904.51	12897
904.627	12875
904.745	12973
904.863	12939
904.981	12749
905.098	12650
905.216	12696
905.334	12707
905.451	12646
905.569	12589
905.686	12730
905.803	12654
905.921	12372
906.038	12566
906.155	12369
906.272	12346
906.389	12365
906.506	12159
906.623	12251
906.74	12228
906.857	12041
906.974	12129
907.091	12289
907.208	12338
907.324	12346
907.441	12277
907.557	11988
907.674	11961
907.79	11923
907.907	12019
908.023	12057
908.139	12019
908.256	11912
908.372	11954
908.488	11874
908.604	11729
908.72	11710
908.836	11691
908.952	11680
909.068	11764
909.184	11794
909.3	11752
909.415	11786
909.531	11733
909.647	11490
909.762	11554
909.878	11516
909.993	11532
910.108	11558
910.224	11455
910.339	11421
910.454	11440
910.57	11273
910.685	11379
910.8	11570
910.915	11516
911.03	11341
911.145	11197
911.259	11261
911.374	11151
911.489	11117
911.604	11067
911.718	11010
911.833	11022
911.947	10831
912.062	10831
912.176	10946
912.291	10972
912.405	11006
912.519	11136
912.633	11242
912.748	10987
912.862	10942
912.976	10790
913.09	10759
913.204	10801
913.318	10854
913.431	10934
913.545	10908
913.659	10946
913.772	10831
913.886	10824
914	10763
914.113	10824
914.226	10904
914.34	10816
914.453	10672
914.566	10809
914.68	10714
914.793	10656
914.906	10493
915.019	10447
915.132	10436
915.245	10405
915.358	10523
915.47	10489
915.583	10554
915.696	10523
915.809	10744
915.921	10630
916.034	10523
916.146	10455
916.259	10424
916.371	10558
916.483	10466
916.595	10337
916.708	10402
916.82	10474
916.932	10382
917.044	10348
917.156	10493
917.268	10284
917.38	10303
917.491	10284
917.603	10325
917.715	10440
917.826	10421
917.938	10291
918.049	10166
918.161	10314
918.272	10497
918.384	10432
918.495	10360
918.606	10154
918.717	10116
918.828	10223
918.939	10135
919.05	10082
919.161	10166
919.272	10010
919.383	10097
919.494	10211
919.604	10436
919.715	10200
919.826	10200
919.936	10177
920.047	10299
920.157	10261
920.267	10394
920.378	10192
920.488	10139
920.598	10386
920.708	10558
920.818	10470
920.928	10352
921.038	10531
921.148	10516
921.258	10181
921.368	10154
921.477	10078
921.587	10029
921.697	9994
921.806	10025
921.916	9991
922.025	9698
922.134	9816
922.244	9682
922.353	9743
922.462	9663
922.571	9641
922.68	9507
922.789	9374
922.898	9416
923.007	9420
923.116	9462
923.224	9424
923.333	9386
923.442	9378
923.55	9283
923.659	9329
923.767	9435
923.876	9291
923.984	9367
924.092	9226
924.201	9336
924.309	9386
924.417	9363
924.525	9291
924.633	9344
924.741	10154
924.849	9070
924.956	9226
925.064	9055
925.172	9013
925.279	9112
925.387	9176
925.494	9116
925.602	9207
925.709	9218
925.816	9028
925.924	9051
926.031	9211
926.138	9192
926.245	9180
926.352	9058
926.459	9180
926.566	9173
926.673	9123
926.779	8963
926.886	9043
926.993	8876
927.099	8781
927.206	8766
927.312	8766
927.419	8842
927.525	8849
927.631	8891
927.737	8746
927.843	8731
927.95	8648
928.056	8712
928.162	8750
928.267	8701
928.373	9389
928.479	8781
928.585	8533
928.69	8712
928.796	8739
928.901	8678
929.007	8560
929.112	8617
929.218	8590
929.323	8533
929.428	8518
929.533	8598
929.638	8469
929.743	8465
929.848	8522
929.953	8579
930.058	8377
930.163	8256
930.267	8347
930.372	8476
930.477	8263
930.581	8545
930.685	8374
930.79	8263
930.894	8336
930.998	8294
931.103	8362
931.207	8065
931.311	8054
931.415	7909
931.519	7765
931.623	7738
