Data from test_V78500241_2049.txt Node
Date: Fri Mar 25 14:47:58 CST 2022
User: usil
Spectrometer: V785-0024
Trigger mode: 0
Integration Time (sec): 4.000000E-1
Scans to average: 1
Nonlinearity correction enabled: false
Boxcar width: 0
Storing dark spectrum: false
XAxis mode: Wavelengths
Number of Pixels in Spectrum: 1024
>>>>>Begin Spectral Data<<<<<
801.071	22139
801.214	22067
801.356	21899
801.499	21709
801.641	21488
801.783	21420
801.926	21447
802.068	21485
802.211	21359
802.353	21260
802.496	21028
802.638	20864
802.78	20921
802.923	20800
803.065	20811
803.208	20815
803.35	20849
803.492	20849
803.635	21104
803.777	20918
803.919	20986
804.061	21199
804.204	20906
804.346	20754
804.488	20663
804.63	20906
804.773	20670
804.915	20762
805.057	20823
805.199	20689
805.341	20750
805.483	20975
805.626	20842
805.768	20746
805.91	20785
806.052	20777
806.194	20636
806.336	20895
806.478	20701
806.62	20724
806.762	20861
806.904	20880
807.046	21047
807.188	21131
807.33	21062
807.472	21165
807.614	20994
807.756	20982
807.898	20918
808.04	20864
808.182	20758
808.324	20845
808.465	20895
808.607	20979
808.749	21116
808.891	21154
809.033	21317
809.174	21169
809.316	21036
809.458	21116
809.6	21142
809.741	21275
809.883	21176
810.025	21302
810.166	21230
810.308	21317
810.45	21123
810.591	21203
810.733	21005
810.875	20864
811.016	20796
811.158	20758
811.299	20967
811.441	20891
811.582	20944
811.724	20906
811.865	20800
812.007	20807
812.148	20800
812.29	20906
812.431	21009
812.573	21256
812.714	21237
812.855	21283
812.997	21466
813.138	21644
813.279	21504
813.421	21367
813.562	21348
813.703	21203
813.845	21089
813.986	20750
814.127	20590
814.268	20488
814.41	20492
814.551	20320
814.692	20526
814.833	20415
814.974	20473
815.115	20355
815.256	20339
815.397	20202
815.539	20294
815.68	20180
815.821	20111
815.962	20065
816.103	20073
816.244	20024
816.385	19883
816.526	19967
816.666	19742
816.807	19586
816.948	19677
817.089	19605
817.23	19620
817.371	19491
817.512	19487
817.653	19559
817.793	19464
817.934	19495
818.075	19613
818.216	19666
818.356	19480
818.497	19426
818.638	19164
818.778	19221
818.919	19259
819.06	19304
819.2	19476
819.341	19411
819.481	19415
819.622	19590
819.762	19696
819.903	19693
820.043	19571
820.184	19582
820.324	19609
820.465	19594
820.605	19540
820.746	19540
820.886	19335
821.026	19487
821.167	19521
821.307	19540
821.447	19476
821.588	19396
821.728	19202
821.868	19084
822.008	19027
822.149	18993
822.289	18897
822.429	18604
822.569	18642
822.709	18639
822.849	18445
822.99	18433
823.13	18486
823.27	18441
823.41	18285
823.55	18174
823.69	18369
823.83	18262
823.97	18163
824.11	18076
824.25	17942
824.389	18022
824.529	18106
824.669	18022
824.809	18155
824.949	18110
825.089	18102
825.228	18144
825.368	17821
825.508	17847
825.648	17859
825.787	17798
825.927	17855
826.067	17699
826.206	17764
826.346	17794
826.485	17847
826.625	17786
826.765	17874
826.904	17847
827.044	17573
827.183	17524
827.323	17505
827.462	17581
827.601	17444
827.741	17512
827.88	17532
828.02	17421
828.159	17505
828.298	17486
828.437	17539
828.577	17398
828.716	17672
828.855	17471
828.994	17292
829.134	17200
829.273	17280
829.412	17181
829.551	17204
829.69	17178
829.829	17269
829.968	17395
830.107	17349
830.246	17318
830.385	17140
830.524	17178
830.663	17003
830.802	17010
830.941	16881
831.08	16820
831.219	16934
831.357	17022
831.496	17060
831.635	16797
831.774	16828
831.913	16759
832.051	16713
832.19	16626
832.329	16713
832.467	16516
832.606	16592
832.744	16542
832.883	16512
833.022	16580
833.16	16577
833.299	16569
833.437	16645
833.576	16580
833.714	16493
833.852	16531
833.991	16573
834.129	16702
834.267	16679
834.406	16615
834.544	16634
834.682	16736
834.821	16546
834.959	16843
835.097	16592
835.235	16691
835.373	16702
835.511	16702
835.65	16660
835.788	16607
835.926	16402
836.064	16322
836.202	16348
836.34	16596
836.478	16546
836.615	16558
836.753	16516
836.891	16516
837.029	16428
837.167	16322
837.305	16390
837.443	16462
837.58	16356
837.718	16421
837.856	16436
837.993	16356
838.131	16413
838.269	16299
838.406	16299
838.544	16272
838.681	16150
838.819	16120
838.956	15968
839.094	15979
839.231	16002
839.369	16105
839.506	16287
839.643	16204
839.781	15953
839.918	15884
840.055	15987
840.193	15960
840.33	15930
840.467	15918
840.604	15991
840.742	16173
840.879	15766
841.016	15903
841.153	15819
841.29	16105
841.427	15972
841.564	15983
841.701	15937
841.838	15899
841.975	15854
842.112	15857
842.249	15785
842.385	15717
842.522	15819
842.659	15739
842.796	15679
842.933	15686
843.069	15778
843.206	15736
843.343	15751
843.479	15713
843.616	15667
843.752	15507
843.889	15553
844.025	15701
844.162	15496
844.298	15595
844.435	15553
844.571	15447
844.708	15625
844.844	15724
844.98	15766
845.117	15759
845.253	15477
845.389	15405
845.525	15416
845.661	15564
845.798	15310
845.934	15393
846.07	15325
846.206	15332
846.342	15412
846.478	15313
846.614	15157
846.75	15093
846.886	15009
847.022	15142
847.158	15081
847.294	15055
847.429	15135
847.565	15001
847.701	15325
847.837	14823
847.972	14807
848.108	14952
848.244	14906
848.379	14720
848.515	14682
848.65	14621
848.786	14727
848.921	14781
849.057	14826
849.192	14773
849.328	14716
849.463	14632
849.598	14689
849.734	14617
849.869	14602
850.004	14583
850.14	14499
850.275	14476
850.41	14339
850.545	14355
850.68	14366
850.815	14476
850.95	14473
851.085	14689
851.22	14545
851.355	14438
851.49	14419
851.625	14313
851.76	14404
851.895	14313
852.03	14328
852.165	14442
852.299	14564
852.434	14522
852.569	14545
852.703	14434
852.838	14640
852.973	14610
853.107	14606
853.242	14408
853.376	14347
853.511	14237
853.645	14259
853.78	14526
853.914	14282
854.048	14347
854.183	14290
854.317	14370
854.451	14457
854.585	14259
854.72	14324
854.854	14385
854.988	14225
855.122	14259
855.256	14187
855.39	14385
855.524	14415
855.658	14423
855.792	14248
855.926	14370
856.06	14438
856.194	14438
856.327	14282
856.461	14229
856.595	14248
856.729	14332
856.862	14412
856.996	14427
857.13	14412
857.263	14385
857.397	14457
857.53	14324
857.664	14267
857.797	14404
857.931	14412
858.064	14412
858.197	14393
858.331	14298
858.464	14275
858.597	14282
858.731	14298
858.864	14389
858.997	14290
859.13	14347
859.263	14423
859.396	14389
859.529	14263
859.662	14263
859.795	14259
859.928	14374
860.061	14415
860.194	14423
860.327	14385
860.46	14374
860.592	14370
860.725	14495
860.858	14438
860.99	14282
861.123	14210
861.256	14275
861.388	14290
861.521	14994
861.653	14195
861.786	14134
861.918	14343
862.05	14244
862.183	14275
862.315	14298
862.447	14381
862.58	14130
862.712	14065
862.844	13986
862.976	14248
863.108	14172
863.24	14457
863.372	14050
863.504	14073
863.636	14081
863.768	14237
863.9	14142
864.032	14119
864.164	14103
864.296	14142
864.428	14153
864.559	14202
864.691	14172
864.823	14115
864.954	14180
865.086	14153
865.217	14081
865.349	13970
865.48	14031
865.612	14081
865.743	14237
865.875	14046
866.006	14050
866.137	14012
866.269	14126
866.4	14046
866.531	13993
866.662	13955
866.793	14005
866.924	14012
867.055	14088
867.186	13993
867.317	14054
867.448	13978
867.579	14008
867.71	14081
867.841	14008
867.972	14035
868.103	14107
868.233	14107
868.364	14077
868.495	14134
868.625	14294
868.756	14438
868.886	14206
869.017	14294
869.147	14461
869.278	14457
869.408	14320
869.539	14275
869.669	14351
869.799	14419
869.929	14545
870.06	14473
870.19	14606
870.32	14655
870.45	14686
870.58	14678
870.71	14807
870.84	14853
870.97	14819
871.1	14636
871.23	14891
871.36	14963
871.489	14842
871.619	14906
871.749	14937
871.879	15005
872.008	15013
872.138	14902
872.267	14891
872.397	14868
872.526	14689
872.656	14697
872.785	14689
872.915	14925
873.044	15001
873.173	14998
873.303	15009
873.432	15051
873.561	15123
873.69	14960
873.819	14941
873.948	15112
874.077	15081
874.206	14994
874.335	14982
874.464	15077
874.593	15310
874.722	15127
874.851	15420
874.979	15252
875.108	15370
875.237	15249
875.365	15195
875.494	15260
875.623	15332
875.751	15169
875.88	15367
876.008	15530
876.136	15466
876.265	15652
876.393	15835
876.521	15766
876.65	15755
876.778	15873
876.906	15652
877.034	15618
877.162	15739
877.29	15633
877.418	15720
877.546	15656
877.674	15671
877.802	15755
877.93	15694
878.058	15614
878.185	15644
878.313	15580
878.441	15671
878.568	15519
878.696	15690
878.824	15739
878.951	15785
879.079	15899
879.206	16021
879.333	15899
879.461	15808
879.588	15823
879.715	15895
879.842	16006
879.97	15766
880.097	15641
880.224	15610
880.351	15622
880.478	15595
880.605	15580
880.732	15485
880.859	15751
880.986	15606
881.112	15584
881.239	15469
881.366	15268
881.493	15386
881.619	15211
881.746	15249
881.872	15275
881.999	15161
882.125	15192
882.252	15252
882.378	15173
882.505	15393
882.631	15146
882.757	15005
882.883	15138
883.01	15066
883.136	14941
883.262	14853
883.388	14941
883.514	15039
883.64	15028
883.766	15043
883.892	14872
884.018	14941
884.143	14986
884.269	15077
884.395	14826
884.52	14773
884.646	14838
884.772	14708
884.897	14587
885.023	14705
885.148	14769
885.274	14864
885.399	14899
885.524	14678
885.65	14834
885.775	14746
885.9	14735
886.025	14815
886.15	14895
886.275	14670
886.4	14632
886.525	14758
886.65	14629
886.775	14590
886.9	14838
887.025	14986
887.149	14731
887.274	14583
887.399	14594
887.523	14598
887.648	14461
887.773	14457
887.897	14648
888.021	14598
888.146	14457
888.27	14648
888.395	14746
888.519	14663
888.643	14571
888.767	14594
888.891	14530
889.015	14492
889.139	14488
889.263	14317
889.387	14545
889.511	14575
889.635	14533
889.759	14389
889.883	14381
890.006	14499
890.13	14503
890.254	14381
890.377	14347
890.501	14259
890.624	14225
890.748	14290
890.871	14176
890.995	13997
891.118	14084
891.241	14077
891.364	14130
891.488	14142
891.611	14115
891.734	14050
891.857	14229
891.98	14191
892.103	14164
892.226	14107
892.349	14176
892.471	14024
892.594	14142
892.717	14145
892.839	14111
892.962	14096
893.085	14202
893.207	14123
893.33	14039
893.452	14005
893.575	14240
893.697	14107
893.819	14374
893.941	14336
894.064	14210
894.186	14065
894.308	14119
894.43	14278
894.552	14358
894.674	14301
894.796	14153
894.918	14195
895.04	14119
895.161	14286
895.283	14305
895.405	14119
895.526	14191
895.648	14218
895.769	14240
895.891	14320
896.012	14343
896.134	14259
896.255	14256
896.376	14267
896.498	14347
896.619	14381
896.74	14305
896.861	14381
896.982	14678
897.103	14750
897.224	14610
897.345	14587
897.466	14518
897.587	14518
897.708	14663
897.828	14625
897.949	14457
898.07	14358
898.19	14564
898.311	14697
898.431	14579
898.552	14571
898.672	14773
898.792	14762
898.913	14693
899.033	14701
899.153	14549
899.273	14389
899.393	14434
899.513	14484
899.633	14480
899.753	14511
899.873	14434
899.993	14533
900.113	14488
900.232	14606
900.352	14442
900.472	14419
900.591	14366
900.711	14385
900.83	14221
900.95	14495
901.069	14476
901.189	14351
901.308	14142
901.427	13967
901.546	13997
901.665	14054
901.784	14115
901.904	13921
902.023	13807
902.141	13685
902.26	13590
902.379	13613
902.498	13632
902.617	13601
902.735	13704
902.854	13571
902.973	13537
903.091	13373
903.21	13247
903.328	13331
903.446	13289
903.565	13255
903.683	13244
903.801	13141
903.919	13156
904.038	13194
904.156	13012
904.274	12989
904.392	12951
904.51	12970
904.627	13000
904.745	13061
904.863	13072
904.981	12867
905.098	12696
905.216	12684
905.334	12764
905.451	12760
905.569	12768
905.686	12715
905.803	12681
905.921	12483
906.038	12601
906.155	12623
906.272	12388
906.389	12452
906.506	12251
906.623	12369
906.74	12266
906.857	12186
906.974	12190
907.091	12273
907.208	12369
907.324	12319
907.441	12171
907.557	12079
907.674	11988
907.79	11920
907.907	12041
908.023	12091
908.139	12022
908.256	11980
908.372	12011
908.488	11923
908.604	11805
908.72	11821
908.836	11798
908.952	11824
909.068	11809
909.184	11859
909.3	11802
909.415	11851
909.531	11859
909.647	11551
909.762	11581
909.878	11497
909.993	11600
910.108	11512
910.224	11512
910.339	11554
910.454	11368
910.57	11402
910.685	11387
910.8	11577
910.915	11528
911.03	11433
911.145	11326
911.259	11201
911.374	11261
911.489	11132
911.604	11124
911.718	11060
911.833	11056
911.947	10930
912.062	10854
912.176	11052
912.291	10968
912.405	11098
912.519	11166
912.633	11250
912.748	11048
912.862	11003
912.976	10953
913.09	10710
913.204	10862
913.318	10854
913.431	10968
913.545	10949
913.659	10991
913.772	10889
913.886	10774
914	10706
914.113	10820
914.226	10881
914.34	10801
914.453	10714
914.566	10835
914.68	10752
914.793	10748
914.906	10622
915.019	10481
915.132	10440
915.245	10386
915.358	10573
915.47	10542
915.583	10485
915.696	10569
915.809	10645
915.921	10626
916.034	10489
916.146	10462
916.259	10398
916.371	10607
916.483	10497
916.595	10474
916.708	10432
916.82	10481
916.932	10459
917.044	10424
917.156	10322
917.268	10322
917.38	10386
917.491	10356
917.603	10356
917.715	10459
917.826	10432
917.938	10443
918.049	10234
918.161	10344
918.272	10466
918.384	10485
918.495	10303
918.606	10227
918.717	10143
918.828	10253
918.939	10322
919.05	10086
919.161	10246
919.272	10063
919.383	10063
919.494	10219
919.604	10409
919.715	10234
919.826	10207
919.936	10230
920.047	10287
920.157	10333
920.267	10451
920.378	10246
920.488	10204
920.598	10348
920.708	10656
920.818	10413
920.928	10443
921.038	10656
921.148	10554
921.258	10280
921.368	10291
921.477	10124
921.587	10055
921.697	9937
921.806	10188
921.916	10029
922.025	9888
922.134	9781
922.244	9724
922.353	9846
922.462	9755
922.571	9656
922.68	9523
922.789	9443
922.898	9515
923.007	9488
923.116	9549
923.224	9462
923.333	9477
923.442	9428
923.55	9313
923.659	9386
923.767	9466
923.876	9386
923.984	9450
924.092	9230
924.201	9325
924.309	9340
924.417	9378
924.525	9344
924.633	9310
924.741	10265
924.849	9154
924.956	9275
925.064	9131
925.172	9081
925.279	9119
925.387	9150
925.494	9127
925.602	9291
925.709	9180
925.816	9093
925.924	9173
926.031	9226
926.138	9142
926.245	9199
926.352	9123
926.459	9203
926.566	9245
926.673	9100
926.779	8963
926.886	8971
926.993	8933
927.099	8845
927.206	8769
927.312	8815
927.419	8899
927.525	8838
927.631	8914
927.737	8815
927.843	8796
927.95	8602
928.056	8785
928.162	8754
928.267	8853
928.373	9485
928.479	8800
928.585	8621
928.69	8712
928.796	8807
928.901	8720
929.007	8507
929.112	8640
929.218	8568
929.323	8587
929.428	8598
929.533	8697
929.638	8522
929.743	8571
929.848	8625
929.953	8560
930.058	8518
930.163	8286
930.267	8377
930.372	8533
930.477	8298
930.581	8579
930.685	8423
930.79	8271
930.894	8229
930.998	8237
931.103	8370
931.207	8058
931.311	7993
931.415	7997
931.519	7772
931.623	7772
