Data from test_V78500241_1624.txt Node
Date: Fri Mar 25 14:45:01 CST 2022
User: usil
Spectrometer: V785-0024
Trigger mode: 0
Integration Time (sec): 4.000000E-1
Scans to average: 1
Nonlinearity correction enabled: false
Boxcar width: 0
Storing dark spectrum: false
XAxis mode: Wavelengths
Number of Pixels in Spectrum: 1024
>>>>>Begin Spectral Data<<<<<
801.071	22455
801.214	22211
801.356	21907
801.499	21797
801.641	21660
801.783	21736
801.926	21785
802.068	21648
802.211	21523
802.353	21454
802.496	21279
802.638	21268
802.78	21176
802.923	21176
803.065	20941
803.208	21028
803.35	21127
803.492	21180
803.635	21154
803.777	20998
803.919	21165
804.061	21393
804.204	21173
804.346	20929
804.488	20834
804.63	20929
804.773	20929
804.915	20971
805.057	21058
805.199	21081
805.341	21043
805.483	21081
805.626	21104
805.768	20960
805.91	20933
806.052	20941
806.194	20826
806.336	21062
806.478	20948
806.62	20883
806.762	21001
806.904	21222
807.046	21469
807.188	21374
807.33	21412
807.472	21367
807.614	21176
807.756	21241
807.898	21108
808.04	21047
808.182	21055
808.324	21150
808.465	21112
808.607	21329
808.749	21428
808.891	21450
809.033	21599
809.174	21435
809.316	21405
809.458	21488
809.6	21294
809.741	21462
809.883	21374
810.025	21622
810.166	21397
810.308	21431
810.45	21496
810.591	21443
810.733	21230
810.875	21195
811.016	21116
811.158	20994
811.299	21180
811.441	21214
811.582	21279
811.724	21093
811.865	21142
812.007	21108
812.148	21192
812.29	21237
812.431	21393
812.573	21557
812.714	21504
812.855	21667
812.997	21644
813.138	21892
813.279	21671
813.421	21614
813.562	21568
813.703	21416
813.845	21310
813.986	20960
814.127	20773
814.268	20731
814.41	20800
814.551	20598
814.692	20697
814.833	20541
814.974	20651
815.115	20609
815.256	20541
815.397	20514
815.539	20507
815.68	20415
815.821	20362
815.962	20434
816.103	20396
816.244	20301
816.385	20164
816.526	20221
816.666	19917
816.807	19909
816.948	19925
817.089	19959
817.23	19845
817.371	19818
817.512	19784
817.653	19951
817.793	19757
817.934	19982
818.075	19860
818.216	19807
818.356	19890
818.497	19624
818.638	19491
818.778	19415
818.919	19502
819.06	19506
819.2	19681
819.341	19624
819.481	19757
819.622	19875
819.762	20039
819.903	19967
820.043	19932
820.184	19799
820.324	19750
820.465	19822
820.605	19841
820.746	19807
820.886	19632
821.026	19635
821.167	19807
821.307	19833
821.447	19689
821.588	19601
821.728	19426
821.868	19350
822.008	19236
822.149	19202
822.289	19236
822.429	18993
822.569	18970
822.709	18882
822.849	18791
822.99	18673
823.13	18681
823.27	18696
823.41	18540
823.55	18532
823.69	18483
823.83	18467
823.97	18452
824.11	18285
824.25	18239
824.389	18239
824.529	18289
824.669	18361
824.809	18361
824.949	18273
825.089	18380
825.228	18152
825.368	18102
825.508	18095
825.648	17980
825.787	18171
825.927	18057
826.067	18106
826.206	17954
826.346	18133
826.485	18034
826.625	17988
826.765	18114
826.904	18087
827.044	17794
827.183	17809
827.323	17691
827.462	17733
827.601	17672
827.741	17649
827.88	17695
828.02	17608
828.159	17714
828.298	17756
828.437	17916
828.577	17695
828.716	17821
828.855	17737
828.994	17501
829.134	17516
829.273	17554
829.412	17543
829.551	17311
829.69	17490
829.829	17516
829.968	17573
830.107	17490
830.246	17455
830.385	17326
830.524	17436
830.663	17296
830.802	17185
830.941	17086
831.08	17086
831.219	17037
831.357	17136
831.496	17379
831.635	17132
831.774	17018
831.913	17113
832.051	16786
832.19	16869
832.329	17003
832.467	16873
832.606	16713
832.744	16774
832.883	16725
833.022	16755
833.16	16740
833.299	16801
833.437	16889
833.576	16854
833.714	16835
833.852	16778
833.991	16809
834.129	16850
834.267	16790
834.406	16759
834.544	16915
834.682	16812
834.821	16881
834.959	16919
835.097	16748
835.235	16889
835.373	16877
835.511	16828
835.65	16752
835.788	16691
835.926	16618
836.064	16489
836.202	16607
836.34	16824
836.478	16801
836.615	16782
836.753	16717
836.891	16706
837.029	16698
837.167	16763
837.305	16656
837.443	16596
837.58	16637
837.718	16679
837.856	16542
837.993	16497
838.131	16588
838.269	16481
838.406	16459
838.544	16409
838.681	16299
838.819	16306
838.956	16017
839.094	16154
839.231	16223
839.369	16249
839.506	16546
839.643	16333
839.781	16154
839.918	16048
840.055	16207
840.193	16139
840.33	16124
840.467	16105
840.604	16086
840.742	16322
840.879	15922
841.016	15979
841.153	16010
841.29	16322
841.427	16226
841.564	16147
841.701	16116
841.838	16078
841.975	15972
842.112	15975
842.249	15915
842.385	15857
842.522	16071
842.659	15899
842.796	15797
842.933	15915
843.069	15937
843.206	15816
843.343	15983
843.479	16040
843.616	15888
843.752	15812
843.889	15690
844.025	15808
844.162	15724
844.298	15789
844.435	15675
844.571	15656
844.708	15755
844.844	15736
844.98	15850
845.117	15819
845.253	15610
845.389	15454
845.525	15690
845.661	15591
845.798	15477
845.934	15667
846.07	15511
846.206	15603
846.342	15701
846.478	15526
846.614	15351
846.75	15195
846.886	15161
847.022	15313
847.158	15313
847.294	15272
847.429	15332
847.565	15157
847.701	15397
847.837	15036
847.972	14967
848.108	15146
848.244	14956
848.379	14910
848.515	14948
848.65	14800
848.786	14883
848.921	14937
849.057	14937
849.192	14982
849.328	14895
849.463	14804
849.598	14853
849.734	14769
849.869	14682
850.004	14667
850.14	14765
850.275	14613
850.41	14598
850.545	14469
850.68	14537
850.815	14598
850.95	14571
851.085	14769
851.22	14629
851.355	14682
851.49	14545
851.625	14526
851.76	14541
851.895	14492
852.03	14511
852.165	14636
852.299	14621
852.434	14785
852.569	14648
852.703	14552
852.838	14693
852.973	14800
853.107	14762
853.242	14632
853.376	14473
853.511	14339
853.645	14362
853.78	14667
853.914	14545
854.048	14412
854.183	14423
854.317	14533
854.451	14678
854.585	14427
854.72	14396
854.854	14549
854.988	14366
855.122	14412
855.256	14282
855.39	14480
855.524	14526
855.658	14564
855.792	14492
855.926	14537
856.06	14507
856.194	14579
856.327	14469
856.461	14415
856.595	14450
856.729	14438
856.862	14579
856.996	14499
857.13	14552
857.263	14575
857.397	14617
857.53	14465
857.664	14507
857.797	14590
857.931	14556
858.064	14465
858.197	14632
858.331	14522
858.464	14469
858.597	14419
858.731	14431
858.864	14457
858.997	14511
859.13	14560
859.263	14450
859.396	14648
859.529	14473
859.662	14454
859.795	14385
859.928	14610
860.061	14587
860.194	14636
860.327	14594
860.46	14450
860.592	14655
860.725	14670
860.858	14530
860.99	14408
861.123	14469
861.256	14522
861.388	14552
861.521	15291
861.653	14404
861.786	14275
861.918	14438
862.05	14396
862.183	14347
862.315	14434
862.447	14438
862.58	14412
862.712	14142
862.844	14145
862.976	14332
863.108	14252
863.24	14750
863.372	14153
863.504	14343
863.636	14282
863.768	14263
863.9	14351
864.032	14206
864.164	14202
864.296	14301
864.428	14358
864.559	14347
864.691	14461
864.823	14290
864.954	14294
865.086	14298
865.217	14183
865.349	14218
865.48	14157
865.612	14187
865.743	14454
865.875	14244
866.006	14244
866.137	14195
866.269	14233
866.4	14244
866.531	14218
866.662	14145
866.793	14164
866.924	14111
867.055	14168
867.186	14115
867.317	14153
867.448	14123
867.579	14134
867.71	14187
867.841	14119
867.972	14180
868.103	14282
868.233	14237
868.364	14210
868.495	14336
868.625	14533
868.756	14549
868.886	14358
869.017	14442
869.147	14514
869.278	14640
869.408	14461
869.539	14522
869.669	14594
869.799	14446
869.929	14590
870.06	14621
870.19	14853
870.32	14792
870.45	14864
870.58	14842
870.71	15001
870.84	15032
870.97	14883
871.1	14861
871.23	15116
871.36	15085
871.489	14990
871.619	15013
871.749	15066
871.879	15070
872.008	15123
872.138	15150
872.267	15020
872.397	15032
872.526	14975
872.656	14918
872.785	14849
872.915	15020
873.044	15074
873.173	15070
873.303	15146
873.432	15104
873.561	15195
873.69	15108
873.819	15138
873.948	15226
874.077	15142
874.206	15127
874.335	15131
874.464	15325
874.593	15523
874.722	15321
874.851	15412
874.979	15428
875.108	15431
875.237	15382
875.365	15370
875.494	15443
875.623	15504
875.751	15397
875.88	15424
876.008	15542
876.136	15584
876.265	15831
876.393	15926
876.521	15857
876.65	15873
876.778	15835
876.906	15793
877.034	15850
877.162	15819
877.29	15816
877.418	15888
877.546	15850
877.674	15892
877.802	15915
877.93	15846
878.058	15842
878.185	15778
878.313	15759
878.441	15842
878.568	15603
878.696	15774
878.824	15892
878.951	15903
879.079	15987
879.206	16154
879.333	16036
879.461	15994
879.588	15987
879.715	16109
879.842	16177
879.97	15968
880.097	15789
880.224	15793
880.351	15736
880.478	15743
880.605	15644
880.732	15675
880.859	15987
880.986	15827
881.112	15774
881.239	15603
881.366	15447
881.493	15344
881.619	15344
881.746	15458
881.872	15367
881.999	15351
882.125	15317
882.252	15515
882.378	15378
882.505	15458
882.631	15195
882.757	15211
882.883	15146
883.01	15241
883.136	15157
883.262	15081
883.388	15051
883.514	15154
883.64	15214
883.766	15066
883.892	14902
884.018	15104
884.143	15150
884.269	15230
884.395	14963
884.52	14857
884.646	14845
884.772	14815
884.897	14739
885.023	14902
885.148	15017
885.274	15032
885.399	14937
885.524	14826
885.65	14815
885.775	14956
885.9	14921
886.025	15024
886.15	15032
886.275	14849
886.4	14823
886.525	14834
886.65	14796
886.775	14800
886.9	14994
887.025	15058
887.149	14937
887.274	14785
887.399	14583
887.523	14735
887.648	14613
887.773	14556
887.897	14746
888.021	14708
888.146	14610
888.27	14773
888.395	14773
888.519	14701
888.643	14750
888.767	14750
888.891	14651
889.015	14541
889.139	14598
889.263	14625
889.387	14606
889.511	14754
889.635	14819
889.759	14590
889.883	14545
890.006	14587
890.13	14701
890.254	14400
890.377	14514
890.501	14450
890.624	14339
890.748	14469
890.871	14313
890.995	14229
891.118	14134
891.241	14206
891.364	14324
891.488	14347
891.611	14278
891.734	14206
891.857	14298
891.98	14317
892.103	14389
892.226	14343
892.349	14275
892.471	14126
892.594	14134
892.717	14221
892.839	14214
892.962	14252
893.085	14366
893.207	14210
893.33	14161
893.452	14191
893.575	14362
893.697	14252
893.819	14434
893.941	14476
894.064	14404
894.186	14233
894.308	14202
894.43	14298
894.552	14328
894.674	14343
894.796	14183
894.918	14263
895.04	14336
895.161	14381
895.283	14400
895.405	14351
895.526	14336
895.648	14374
895.769	14446
895.891	14408
896.012	14533
896.134	14377
896.255	14404
896.376	14431
896.498	14412
896.619	14457
896.74	14465
896.861	14461
896.982	14705
897.103	14864
897.224	14739
897.345	14625
897.466	14587
897.587	14785
897.708	14750
897.828	14773
897.949	14670
898.07	14560
898.19	14606
898.311	14826
898.431	14724
898.552	14746
898.672	14834
898.792	14857
898.913	14868
899.033	14716
899.153	14590
899.273	14495
899.393	14667
899.513	14610
899.633	14659
899.753	14686
899.873	14579
899.993	14667
900.113	14511
900.232	14655
900.352	14598
900.472	14511
900.591	14503
900.711	14526
900.83	14400
900.95	14571
901.069	14549
901.189	14377
901.308	14225
901.427	14103
901.546	14180
901.665	14145
901.784	14305
901.904	14062
902.023	13974
902.141	13784
902.26	13715
902.379	13799
902.498	13742
902.617	13769
902.735	13727
902.854	13757
902.973	13742
903.091	13449
903.21	13381
903.328	13400
903.446	13441
903.565	13350
903.683	13285
903.801	13247
903.919	13244
904.038	13312
904.156	13149
904.274	13171
904.392	13072
904.51	13183
904.627	12981
904.745	13076
904.863	13099
904.981	12897
905.098	12863
905.216	12848
905.334	12734
905.451	12798
905.569	12787
905.686	12798
905.803	12726
905.921	12662
906.038	12791
906.155	12646
906.272	12445
906.389	12563
906.506	12384
906.623	12330
906.74	12410
906.857	12228
906.974	12319
907.091	12429
907.208	12502
907.324	12479
907.441	12361
907.557	12186
907.674	12045
907.79	12079
907.907	12083
908.023	12114
908.139	12117
908.256	12068
908.372	12068
908.488	12041
908.604	11901
908.72	11790
908.836	11901
908.952	11836
909.068	11916
909.184	12026
909.3	11939
909.415	11935
909.531	11863
909.647	11642
909.762	11646
909.878	11657
909.993	11638
910.108	11661
910.224	11676
910.339	11695
910.454	11554
910.57	11505
910.685	11463
910.8	11764
910.915	11600
911.03	11486
911.145	11311
911.259	11318
911.374	11334
911.489	11212
911.604	11299
911.718	11159
911.833	11159
911.947	10938
912.062	10995
912.176	11045
912.291	11159
912.405	11124
912.519	11296
912.633	11307
912.748	11143
912.862	11197
912.976	11014
913.09	10866
913.204	10858
913.318	11037
913.431	11090
913.545	11128
913.659	11159
913.772	10999
913.886	10911
914	10889
914.113	10972
914.226	11041
914.34	10999
914.453	10885
914.566	10968
914.68	10816
914.793	10850
914.906	10679
915.019	10649
915.132	10535
915.245	10611
915.358	10645
915.47	10755
915.583	10679
915.696	10744
915.809	10839
915.921	10767
916.034	10649
916.146	10561
916.259	10588
916.371	10687
916.483	10706
916.595	10550
916.708	10527
916.82	10546
916.932	10573
917.044	10497
917.156	10493
917.268	10459
917.38	10451
917.491	10409
917.603	10436
917.715	10512
917.826	10565
917.938	10432
918.049	10409
918.161	10489
918.272	10573
918.384	10592
918.495	10523
918.606	10382
918.717	10246
918.828	10379
918.939	10329
919.05	10287
919.161	10322
919.272	10116
919.383	10253
919.494	10337
919.604	10504
919.715	10348
919.826	10325
919.936	10348
920.047	10436
920.157	10375
920.267	10573
920.378	10386
920.488	10356
920.598	10569
920.708	10687
920.818	10436
920.928	10504
921.038	10687
921.148	10706
921.258	10417
921.368	10329
921.477	10261
921.587	10147
921.697	10101
921.806	10219
921.916	10147
922.025	9876
922.134	9975
922.244	9857
922.353	9949
922.462	9797
922.571	9778
922.68	9644
922.789	9644
922.898	9644
923.007	9587
923.116	9629
923.224	9557
923.333	9629
923.442	9492
923.55	9542
923.659	9507
923.767	9523
923.876	9382
923.984	9507
924.092	9389
924.201	9477
924.309	9515
924.417	9477
924.525	9416
924.633	9488
924.741	10162
924.849	9260
924.956	9367
925.064	9157
925.172	9169
925.279	9203
925.387	9306
925.494	9283
925.602	9325
925.709	9294
925.816	9241
925.924	9291
926.031	9329
926.138	9249
926.245	9317
926.352	9176
926.459	9275
926.566	9412
926.673	9180
926.779	9127
926.886	9142
926.993	9001
927.099	8990
927.206	8902
927.312	8902
927.419	9051
927.525	8948
927.631	9051
927.737	8925
927.843	8830
927.95	8762
928.056	8830
928.162	8876
928.267	8967
928.373	9389
928.479	8956
928.585	8678
928.69	8842
928.796	8883
928.901	8815
929.007	8682
929.112	8746
929.218	8750
929.323	8724
929.428	8659
929.533	8792
929.638	8636
929.743	8689
929.848	8648
929.953	8659
930.058	8575
930.163	8454
930.267	8446
930.372	8590
930.477	8400
930.581	8697
930.685	8476
930.79	8389
930.894	8381
930.998	8415
931.103	8488
931.207	8115
931.311	8134
931.415	8027
931.519	7875
931.623	7894
