Data from test_V78500241_2930.txt Node
Date: Fri Mar 25 14:54:06 CST 2022
User: usil
Spectrometer: V785-0024
Trigger mode: 0
Integration Time (sec): 4.000000E-1
Scans to average: 1
Nonlinearity correction enabled: false
Boxcar width: 0
Storing dark spectrum: false
XAxis mode: Wavelengths
Number of Pixels in Spectrum: 1024
>>>>>Begin Spectral Data<<<<<
801.071	22230
801.214	21994
801.356	21762
801.499	21819
801.641	21538
801.783	21340
801.926	21488
802.068	21450
802.211	21439
802.353	21302
802.496	21074
802.638	21051
802.78	20918
802.923	20849
803.065	20701
803.208	20830
803.35	20750
803.492	20838
803.635	20883
803.777	20826
803.919	20861
804.061	21116
804.204	20838
804.346	20689
804.488	20545
804.63	20746
804.773	20606
804.915	20663
805.057	20796
805.199	20754
805.341	20792
805.483	20838
805.626	20689
805.768	20670
805.91	20697
806.052	20739
806.194	20659
806.336	20819
806.478	20579
806.62	20648
806.762	20849
806.904	20887
807.046	21089
807.188	21077
807.33	20982
807.472	21127
807.614	20769
807.756	20979
807.898	20857
808.04	20785
808.182	20910
808.324	20792
808.465	20739
808.607	20937
808.749	21150
808.891	21195
809.033	21275
809.174	21161
809.316	21119
809.458	21001
809.6	21032
809.741	21081
809.883	21112
810.025	21176
810.166	21336
810.308	21310
810.45	21100
810.591	21066
810.733	20967
810.875	20902
811.016	20815
811.158	20716
811.299	20933
811.441	20891
811.582	21055
811.724	20883
811.865	20758
812.007	20773
812.148	20830
812.29	20925
812.431	20929
812.573	21203
812.714	21184
812.855	21310
812.997	21447
813.138	21595
813.279	21370
813.421	21367
813.562	21268
813.703	21017
813.845	20998
813.986	20815
814.127	20579
814.268	20412
814.41	20442
814.551	20370
814.692	20419
814.833	20301
814.974	20294
815.115	20438
815.256	20225
815.397	20328
815.539	20126
815.68	20161
815.821	20180
815.962	20069
816.103	20020
816.244	19978
816.385	19830
816.526	19753
816.666	19727
816.807	19601
816.948	19651
817.089	19731
817.23	19578
817.371	19514
817.512	19590
817.653	19487
817.793	19464
817.934	19476
818.075	19495
818.216	19396
818.356	19453
818.497	19358
818.638	19232
818.778	19213
818.919	19228
819.06	19251
819.2	19384
819.341	19331
819.481	19422
819.622	19487
819.762	19822
819.903	19605
820.043	19544
820.184	19430
820.324	19491
820.465	19586
820.605	19533
820.746	19521
820.886	19285
821.026	19384
821.167	19445
821.307	19658
821.447	19415
821.588	19301
821.728	19152
821.868	19023
822.008	18897
822.149	18989
822.289	18814
822.429	18658
822.569	18620
822.709	18627
822.849	18365
822.99	18372
823.13	18350
823.27	18357
823.41	18228
823.55	18007
823.69	18182
823.83	18247
823.97	18152
824.11	17999
824.25	17916
824.389	18011
824.529	17969
824.669	17901
824.809	18030
824.949	18034
825.089	17965
825.228	17984
825.368	17676
825.508	17729
825.648	17741
825.787	17707
825.927	17809
826.067	17672
826.206	17718
826.346	17783
826.485	17798
826.625	17722
826.765	17771
826.904	17786
827.044	17501
827.183	17524
827.323	17444
827.462	17474
827.601	17398
827.741	17429
827.88	17471
828.02	17417
828.159	17322
828.298	17372
828.437	17429
828.577	17368
828.716	17486
828.855	17379
828.994	17235
829.134	17212
829.273	17197
829.412	17056
829.551	17109
829.69	17105
829.829	17083
829.968	17239
830.107	17159
830.246	17166
830.385	17117
830.524	17045
830.663	16976
830.802	17018
830.941	16843
831.08	16706
831.219	16904
831.357	16873
831.496	16968
831.635	16771
831.774	16736
831.913	16687
832.051	16592
832.19	16519
832.329	16535
832.467	16558
832.606	16455
832.744	16512
832.883	16481
833.022	16394
833.16	16462
833.299	16527
833.437	16588
833.576	16493
833.714	16523
833.852	16451
833.991	16618
834.129	16546
834.267	16577
834.406	16504
834.544	16417
834.682	16615
834.821	16481
834.959	16672
835.097	16546
835.235	16596
835.373	16504
835.511	16538
835.65	16405
835.788	16542
835.926	16177
836.064	16150
836.202	16204
836.34	16428
836.478	16516
836.615	16356
836.753	16367
836.891	16489
837.029	16508
837.167	16455
837.305	16405
837.443	16356
837.58	16173
837.718	16276
837.856	16428
837.993	16268
838.131	16291
838.269	16169
838.406	16154
838.544	16169
838.681	15941
838.819	15975
838.956	15797
839.094	15888
839.231	15857
839.369	15937
839.506	16276
839.643	16048
839.781	15838
839.918	15835
840.055	15838
840.193	15789
840.33	15846
840.467	15774
840.604	15747
840.742	16109
840.879	15595
841.016	15747
841.153	15660
841.29	15899
841.427	15842
841.564	15869
841.701	15861
841.838	15812
841.975	15686
842.112	15717
842.249	15595
842.385	15667
842.522	15762
842.659	15633
842.796	15580
842.933	15591
843.069	15564
843.206	15492
843.343	15720
843.479	15622
843.616	15656
843.752	15412
843.889	15397
844.025	15526
844.162	15359
844.298	15538
844.435	15382
844.571	15351
844.708	15435
844.844	15587
844.98	15660
845.117	15450
845.253	15412
845.389	15279
845.525	15287
845.661	15264
845.798	15135
845.934	15218
846.07	15161
846.206	15279
846.342	15294
846.478	15283
846.614	15066
846.75	14967
846.886	14899
847.022	15036
847.158	14941
847.294	14967
847.429	15001
847.565	14880
847.701	15180
847.837	14705
847.972	14731
848.108	14880
848.244	14804
848.379	14712
848.515	14575
848.65	14495
848.786	14473
848.921	14579
849.057	14617
849.192	14651
849.328	14526
849.463	14594
849.598	14507
849.734	14469
849.869	14469
850.004	14271
850.14	14271
850.275	14229
850.41	14252
850.545	14233
850.68	14309
850.815	14324
850.95	14370
851.085	14552
851.22	14358
851.355	14282
851.49	14328
851.625	14256
851.76	14324
851.895	14271
852.03	14271
852.165	14275
852.299	14408
852.434	14389
852.569	14404
852.703	14233
852.838	14374
852.973	14465
853.107	14385
853.242	14161
853.376	14244
853.511	14138
853.645	14161
853.78	14366
853.914	14248
854.048	14164
854.183	14164
854.317	14134
854.451	14355
854.585	14214
854.72	14096
854.854	14161
854.988	14107
855.122	14123
855.256	14073
855.39	14210
855.524	14275
855.658	14206
855.792	14126
855.926	14278
856.06	14290
856.194	14218
856.327	14252
856.461	14153
856.595	14138
856.729	14199
856.862	14149
856.996	14199
857.13	14252
857.263	14336
857.397	14366
857.53	14176
857.664	14206
857.797	14237
857.931	14309
858.064	14256
858.197	14301
858.331	14107
858.464	14119
858.597	14065
858.731	14138
858.864	14206
858.997	14195
859.13	14134
859.263	14206
859.396	14275
859.529	14096
859.662	14172
859.795	14263
859.928	14244
860.061	14286
860.194	14309
860.327	14244
860.46	14153
860.592	14343
860.725	14366
860.858	14301
860.99	14206
861.123	14100
861.256	14267
861.388	14176
861.521	14834
861.653	14046
861.786	14103
861.918	14054
862.05	14191
862.183	14142
862.315	14317
862.447	14278
862.58	14195
862.712	13982
862.844	14024
862.976	14119
863.108	14088
863.24	14389
863.372	13864
863.504	13993
863.636	14005
863.768	14069
863.9	14050
864.032	14008
864.164	13993
864.296	14084
864.428	14145
864.559	14012
864.691	14088
864.823	14145
864.954	14069
865.086	14081
865.217	14005
865.349	14008
865.48	13997
865.612	13993
865.743	14164
865.875	13959
866.006	13951
866.137	14050
866.269	13993
866.4	14046
866.531	13947
866.662	13955
866.793	14035
866.924	13974
867.055	14031
867.186	13959
867.317	13913
867.448	13902
867.579	13986
867.71	13963
867.841	13925
867.972	13921
868.103	13978
868.233	13974
868.364	13963
868.495	14062
868.625	14180
868.756	14324
868.886	14130
869.017	14267
869.147	14301
869.278	14282
869.408	14267
869.539	14252
869.669	14313
869.799	14248
869.929	14294
870.06	14381
870.19	14636
870.32	14533
870.45	14610
870.58	14606
870.71	14693
870.84	14731
870.97	14682
871.1	14663
871.23	14773
871.36	14891
871.489	14735
871.619	14785
871.749	14948
871.879	14872
872.008	14891
872.138	14956
872.267	14941
872.397	14777
872.526	14587
872.656	14743
872.785	14701
872.915	14872
873.044	14967
873.173	14815
873.303	15047
873.432	14994
873.561	15055
873.69	14887
873.819	14971
873.948	14998
874.077	14948
874.206	14864
874.335	14971
874.464	15009
874.593	15169
874.722	15085
874.851	15203
874.979	15317
875.108	15214
875.237	15108
875.365	15169
875.494	15222
875.623	15317
875.751	15169
875.88	15207
876.008	15321
876.136	15443
876.265	15679
876.393	15793
876.521	15774
876.65	15618
876.778	15644
876.906	15637
877.034	15572
877.162	15717
877.29	15530
877.418	15614
877.546	15633
877.674	15576
877.802	15690
877.93	15648
878.058	15698
878.185	15610
878.313	15572
878.441	15595
878.568	15458
878.696	15610
878.824	15633
878.951	15694
879.079	15873
879.206	15953
879.333	15793
879.461	15667
879.588	15663
879.715	15831
879.842	15895
879.97	15705
880.097	15450
880.224	15481
880.351	15618
880.478	15481
880.605	15496
880.732	15466
880.859	15671
880.986	15561
881.112	15614
881.239	15386
881.366	15325
881.493	15146
881.619	15207
881.746	15173
881.872	15104
881.999	15077
882.125	14994
882.252	15157
882.378	15142
882.505	15374
882.631	15017
882.757	14918
882.883	15100
883.01	14971
883.136	14929
883.262	14762
883.388	14788
883.514	14963
883.64	14921
883.766	14864
883.892	14735
884.018	14762
884.143	14960
884.269	15062
884.395	14640
884.52	14636
884.646	14750
884.772	14640
884.897	14526
885.023	14689
885.148	14739
885.274	14857
885.399	14857
885.524	14750
885.65	14670
885.775	14701
885.9	14629
886.025	14845
886.15	14606
886.275	14701
886.4	14560
886.525	14632
886.65	14556
886.775	14659
886.9	14754
887.025	14777
887.149	14606
887.274	14469
887.399	14476
887.523	14461
887.648	14438
887.773	14438
887.897	14541
888.021	14632
888.146	14446
888.27	14590
888.395	14678
888.519	14579
888.643	14518
888.767	14579
888.891	14404
889.015	14343
889.139	14412
889.263	14324
889.387	14434
889.511	14530
889.635	14454
889.759	14347
889.883	14214
890.006	14347
890.13	14484
890.254	14233
890.377	14381
890.501	14210
890.624	14153
890.748	14218
890.871	14081
890.995	14020
891.118	13917
891.241	14092
891.364	14115
891.488	14054
891.611	14016
891.734	14100
891.857	13989
891.98	14088
892.103	14115
892.226	14107
892.349	14008
892.471	13837
892.594	13970
892.717	14111
892.839	14012
892.962	14050
893.085	14153
893.207	14046
893.33	13902
893.452	13978
893.575	14077
893.697	14020
893.819	14290
893.941	14263
894.064	14225
894.186	13974
894.308	13955
894.43	14168
894.552	14225
894.674	14218
894.796	13989
894.918	14039
895.04	14149
895.161	14259
895.283	14172
895.405	14046
895.526	14157
895.648	14176
895.769	14225
895.891	14259
896.012	14317
896.134	14248
896.255	14172
896.376	14195
896.498	14214
896.619	14298
896.74	14294
896.861	14286
896.982	14590
897.103	14762
897.224	14568
897.345	14473
897.466	14446
897.587	14518
897.708	14625
897.828	14514
897.949	14507
898.07	14473
898.19	14438
898.311	14587
898.431	14518
898.552	14598
898.672	14678
898.792	14720
898.913	14613
899.033	14480
899.153	14419
899.273	14351
899.393	14358
899.513	14450
899.633	14415
899.753	14480
899.873	14393
899.993	14526
900.113	14385
900.232	14526
900.352	14541
900.472	14290
900.591	14271
900.711	14275
900.83	14210
900.95	14446
901.069	14454
901.189	14229
901.308	14035
901.427	13947
901.546	13925
901.665	14046
901.784	14043
901.904	13799
902.023	13818
902.141	13632
902.26	13571
902.379	13540
902.498	13609
902.617	13495
902.735	13578
902.854	13460
902.973	13411
903.091	13175
903.21	13304
903.328	13331
903.446	13251
903.565	13031
903.683	13171
903.801	13050
903.919	13053
904.038	13080
904.156	12875
904.274	13069
904.392	12939
904.51	12954
904.627	12909
904.745	12947
904.863	12939
904.981	12749
905.098	12631
905.216	12585
905.334	12669
905.451	12612
905.569	12627
905.686	12692
905.803	12654
905.921	12452
906.038	12486
906.155	12475
906.272	12399
906.389	12429
906.506	12167
906.623	12277
906.74	12182
906.857	12045
906.974	12136
907.091	12266
907.208	12327
907.324	12167
907.441	12114
907.557	12003
907.674	11942
907.79	11920
907.907	11946
908.023	12030
908.139	12011
908.256	11977
908.372	11870
908.488	11866
908.604	11764
908.72	11707
908.836	11767
908.952	11680
909.068	11699
909.184	11794
909.3	11665
909.415	11764
909.531	11771
909.647	11474
909.762	11478
909.878	11463
909.993	11512
910.108	11448
910.224	11478
910.339	11497
910.454	11410
910.57	11330
910.685	11261
910.8	11539
910.915	11402
911.03	11356
911.145	11197
911.259	11178
911.374	11197
911.489	11109
911.604	11067
911.718	10919
911.833	10911
911.947	10797
912.062	10725
912.176	10930
912.291	11064
912.405	10923
912.519	11140
912.633	11155
912.748	10961
912.862	10927
912.976	10786
913.09	10755
913.204	10782
913.318	10896
913.431	10889
913.545	10869
913.659	10900
913.772	10858
913.886	10702
914	10668
914.113	10820
914.226	10820
914.34	10782
914.453	10596
914.566	10771
914.68	10656
914.793	10641
914.906	10535
915.019	10413
915.132	10268
915.245	10360
915.358	10459
915.47	10455
915.583	10474
915.696	10519
915.809	10592
915.921	10603
916.034	10443
916.146	10459
916.259	10405
916.371	10409
916.483	10424
916.595	10348
916.708	10436
916.82	10356
916.932	10348
917.044	10405
917.156	10371
917.268	10253
917.38	10333
917.491	10261
917.603	10306
917.715	10421
917.826	10428
917.938	10291
918.049	10223
918.161	10306
918.272	10421
918.384	10394
918.495	10360
918.606	10204
918.717	10074
918.828	10162
918.939	10219
919.05	10071
919.161	10040
919.272	10002
919.383	10036
919.494	10234
919.604	10341
919.715	10143
919.826	10105
919.936	10162
920.047	10227
920.157	10158
920.267	10428
920.378	10227
920.488	10257
920.598	10417
920.708	10516
920.818	10405
920.928	10325
921.038	10554
921.148	10485
921.258	10196
921.368	10143
921.477	10055
921.587	9998
921.697	9911
921.806	10036
921.916	9876
922.025	9778
922.134	9675
922.244	9660
922.353	9770
922.462	9690
922.571	9595
922.68	9447
922.789	9351
922.898	9439
923.007	9386
923.116	9496
923.224	9370
923.333	9363
923.442	9313
923.55	9359
923.659	9378
923.767	9386
923.876	9268
923.984	9363
924.092	9279
924.201	9275
924.309	9359
924.417	9298
924.525	9237
924.633	9218
924.741	10169
924.849	8956
924.956	9203
925.064	9127
925.172	9001
925.279	9017
925.387	9100
925.494	9119
925.602	9287
925.709	9161
925.816	9051
925.924	9058
926.031	9173
926.138	9066
926.245	9085
926.352	8971
926.459	9214
926.566	9184
926.673	9051
926.779	8918
926.886	8925
926.993	8815
927.099	8792
927.206	8746
927.312	8826
927.419	8849
927.525	8899
927.631	8937
927.737	8785
927.843	8686
927.95	8629
928.056	8682
928.162	8731
928.267	8842
928.373	9332
928.479	8845
928.585	8568
928.69	8682
928.796	8777
928.901	8651
929.007	8507
929.112	8606
929.218	8610
929.323	8602
929.428	8507
929.533	8674
929.638	8522
929.743	8499
929.848	8640
929.953	8541
930.058	8511
930.163	8343
930.267	8339
930.372	8465
930.477	8336
930.581	8476
930.685	8366
930.79	8317
930.894	8290
930.998	8282
931.103	8419
931.207	8058
931.311	8020
931.415	7909
931.519	7795
931.623	7757
