Data from test_V78500241_3627.txt Node
Date: Fri Mar 25 14:58:58 CST 2022
User: usil
Spectrometer: V785-0024
Trigger mode: 0
Integration Time (sec): 4.000000E-1
Scans to average: 1
Nonlinearity correction enabled: false
Boxcar width: 0
Storing dark spectrum: false
XAxis mode: Wavelengths
Number of Pixels in Spectrum: 1024
>>>>>Begin Spectral Data<<<<<
801.071	21918
801.214	21739
801.356	21500
801.499	21443
801.641	21192
801.783	21332
801.926	21325
802.068	21233
802.211	21142
802.353	21108
802.496	20807
802.638	20830
802.78	20708
802.923	20655
803.065	20609
803.208	20609
803.35	20537
803.492	20724
803.635	20834
803.777	20484
803.919	20621
804.061	21043
804.204	20693
804.346	20678
804.488	20431
804.63	20530
804.773	20450
804.915	20450
805.057	20511
805.199	20473
805.341	20526
805.483	20697
805.626	20693
805.768	20469
805.91	20457
806.052	20526
806.194	20442
806.336	20495
806.478	20427
806.62	20473
806.762	20404
806.904	20743
807.046	20963
807.188	20826
807.33	20834
807.472	20963
807.614	20811
807.756	20663
807.898	20640
808.04	20705
808.182	20423
808.324	20629
808.465	20590
808.607	20720
808.749	20891
808.891	20902
809.033	21104
809.174	20929
809.316	20845
809.458	20918
809.6	20735
809.741	20853
809.883	20971
810.025	20952
810.166	21051
810.308	20941
810.45	20937
810.591	20883
810.733	20743
810.875	20701
811.016	20480
811.158	20438
811.299	20686
811.441	20636
811.582	20693
811.724	20568
811.865	20571
812.007	20579
812.148	20590
812.29	20667
812.431	20743
812.573	20944
812.714	21028
812.855	20986
812.997	21165
813.138	21268
813.279	21127
813.421	21096
813.562	21032
813.703	20883
813.845	20746
813.986	20438
814.127	20320
814.268	20168
814.41	20115
814.551	20111
814.692	20286
814.833	20020
814.974	19986
815.115	20210
815.256	20035
815.397	19967
815.539	20024
815.68	19898
815.821	19799
815.962	19883
816.103	19845
816.244	19791
816.385	19700
816.526	19708
816.666	19540
816.807	19228
816.948	19384
817.089	19403
817.23	19407
817.371	19194
817.512	19282
817.653	19225
817.793	19164
817.934	19148
818.075	19228
818.216	19282
818.356	19225
818.497	19038
818.638	18867
818.778	18962
818.919	19061
819.06	18966
819.2	19183
819.341	19061
819.481	19164
819.622	19285
819.762	19434
819.903	19419
820.043	19415
820.184	19301
820.324	19228
820.465	19396
820.605	19362
820.746	19259
820.886	19148
821.026	19179
821.167	19164
821.307	19350
821.447	19217
821.588	19183
821.728	18935
821.868	18837
822.008	18711
822.149	18692
822.289	18612
822.429	18414
822.569	18388
822.709	18357
822.849	18171
822.99	18235
823.13	18095
823.27	18026
823.41	18060
823.55	17851
823.69	17988
823.83	17977
823.97	17908
824.11	17699
824.25	17726
824.389	17699
824.529	17786
824.669	17733
824.809	17809
824.949	17824
825.089	17760
825.228	17726
825.368	17661
825.508	17562
825.648	17554
825.787	17672
825.927	17493
826.067	17463
826.206	17421
826.346	17467
826.485	17528
826.625	17535
826.765	17539
826.904	17611
827.044	17299
827.183	17200
827.323	17155
827.462	17258
827.601	17166
827.741	17162
827.88	17197
828.02	17079
828.159	17140
828.298	17235
828.437	17250
828.577	17193
828.716	17292
828.855	17208
828.994	17018
829.134	16965
829.273	17048
829.412	17003
829.551	16904
829.69	17014
829.829	16934
829.968	17056
830.107	17018
830.246	17010
830.385	16820
830.524	16858
830.663	16866
830.802	16546
830.941	16615
831.08	16607
831.219	16691
831.357	16691
831.496	16801
831.635	16440
831.774	16527
831.913	16455
832.051	16360
832.19	16447
832.329	16466
832.467	16280
832.606	16173
832.744	16272
832.883	16295
833.022	16219
833.16	16314
833.299	16276
833.437	16322
833.576	16333
833.714	16352
833.852	16382
833.991	16436
834.129	16379
834.267	16413
834.406	16325
834.544	16363
834.682	16287
834.821	16421
834.959	16508
835.097	16322
835.235	16466
835.373	16405
835.511	16405
835.65	16310
835.788	16306
835.926	16029
836.064	16044
836.202	16097
836.34	16390
836.478	16348
836.615	16158
836.753	16314
836.891	16386
837.029	16295
837.167	16246
837.305	16147
837.443	16150
837.58	16112
837.718	16230
837.856	16188
837.993	16154
838.131	16090
838.269	16010
838.406	16029
838.544	16055
838.681	15842
838.819	15819
838.956	15747
839.094	15698
839.231	15709
839.369	15774
839.506	16097
839.643	16074
839.781	15797
839.918	15762
840.055	15736
840.193	15713
840.33	15648
840.467	15568
840.604	15831
840.742	15975
840.879	15591
841.016	15599
841.153	15610
841.29	15876
841.427	15724
841.564	15785
841.701	15701
841.838	15576
841.975	15675
842.112	15519
842.249	15599
842.385	15450
842.522	15625
842.659	15580
842.796	15462
842.933	15462
843.069	15469
843.206	15466
843.343	15511
843.479	15386
843.616	15568
843.752	15370
843.889	15302
844.025	15370
844.162	15298
844.298	15443
844.435	15230
844.571	15154
844.708	15359
844.844	15561
844.98	15435
845.117	15359
845.253	15192
845.389	15180
845.525	15127
845.661	15272
845.798	15062
845.934	15131
846.07	14975
846.206	15173
846.342	15203
846.478	15077
846.614	14887
846.75	14868
846.886	14800
847.022	14967
847.158	14853
847.294	14853
847.429	14986
847.565	14845
847.701	15051
847.837	14545
847.972	14617
848.108	14655
848.244	14716
848.379	14530
848.515	14484
848.65	14434
848.786	14446
848.921	14541
849.057	14495
849.192	14533
849.328	14473
849.463	14465
849.598	14320
849.734	14351
849.869	14301
850.004	14290
850.14	14252
850.275	14191
850.41	14248
850.545	14168
850.68	14126
850.815	14286
850.95	14256
851.085	14256
851.22	14290
851.355	14157
851.49	14164
851.625	14168
851.76	14210
851.895	14126
852.03	14096
852.165	14183
852.299	14221
852.434	14271
852.569	14225
852.703	14244
852.838	14320
852.973	14366
853.107	14370
853.242	14218
853.376	14050
853.511	13932
853.645	13955
853.78	14180
853.914	14088
854.048	14103
854.183	14020
854.317	14168
854.451	14229
854.585	14024
854.72	14115
854.854	14142
854.988	14062
855.122	14103
855.256	14027
855.39	14096
855.524	14172
855.658	14157
855.792	14024
855.926	14123
856.06	14225
856.194	14149
856.327	14046
856.461	14020
856.595	14237
856.729	14126
856.862	14126
856.996	14199
857.13	14168
857.263	14229
857.397	14286
857.53	14157
857.664	14202
857.797	14020
857.931	14172
858.064	14065
858.197	14298
858.331	14065
858.464	14069
858.597	14001
858.731	14046
858.864	14115
858.997	14069
859.13	14229
859.263	14153
859.396	14145
859.529	14107
859.662	14107
859.795	14081
859.928	14187
860.061	14271
860.194	14256
860.327	14008
860.46	14134
860.592	14153
860.725	14259
860.858	14248
860.99	14073
861.123	14088
861.256	14016
861.388	14027
861.521	14872
861.653	13944
861.786	13989
861.918	13947
862.05	14126
862.183	14027
862.315	14065
862.447	14172
862.58	14054
862.712	13803
862.844	13750
862.976	13936
863.108	13967
863.24	14385
863.372	13837
863.504	13860
863.636	13879
863.768	13967
863.9	13898
864.032	13841
864.164	13913
864.296	13845
864.428	14012
864.559	13978
864.691	14031
864.823	13967
864.954	13967
865.086	13940
865.217	13921
865.349	13841
865.48	13883
865.612	13875
865.743	14065
865.875	13871
866.006	13875
866.137	13826
866.269	13921
866.4	13814
866.531	13689
866.662	13849
866.793	13883
866.924	13833
867.055	13841
867.186	13845
867.317	13761
867.448	13719
867.579	13822
867.71	13852
867.841	13753
867.972	13833
868.103	13871
868.233	13849
868.364	13875
868.495	13986
868.625	14130
868.756	14153
868.886	14100
869.017	14046
869.147	14328
869.278	14298
869.408	14206
869.539	14157
869.669	14282
869.799	14248
869.929	14225
870.06	14278
870.19	14446
870.32	14438
870.45	14370
870.58	14488
870.71	14545
870.84	14613
870.97	14587
871.1	14488
871.23	14686
871.36	14727
871.489	14560
871.619	14686
871.749	14773
871.879	14815
872.008	14819
872.138	14705
872.267	14754
872.397	14511
872.526	14598
872.656	14533
872.785	14617
872.915	14838
873.044	14815
873.173	14670
873.303	14857
873.432	14861
873.561	14765
873.69	14682
873.819	14712
873.948	14906
874.077	14746
874.206	14720
874.335	14838
874.464	15020
874.593	15119
874.722	14967
874.851	15097
874.979	15077
875.108	15138
875.237	15058
875.365	15043
875.494	15081
875.623	15089
875.751	15093
875.88	15146
876.008	15298
876.136	15344
876.265	15469
876.393	15690
876.521	15587
876.65	15561
876.778	15553
876.906	15557
877.034	15405
877.162	15534
877.29	15363
877.418	15515
877.546	15561
877.674	15492
877.802	15511
877.93	15435
878.058	15447
878.185	15416
878.313	15447
878.441	15469
878.568	15363
878.696	15458
878.824	15618
878.951	15572
879.079	15652
879.206	15842
879.333	15667
879.461	15564
879.588	15587
879.715	15739
879.842	15705
879.97	15545
880.097	15393
880.224	15325
880.351	15386
880.478	15443
880.605	15291
880.732	15249
880.859	15599
880.986	15367
881.112	15336
881.239	15302
881.366	15195
881.493	15047
881.619	15005
881.746	15020
881.872	15104
881.999	14963
882.125	15032
882.252	15058
882.378	15074
882.505	15150
882.631	14998
882.757	14948
882.883	14918
883.01	14842
883.136	14792
883.262	14792
883.388	14648
883.514	14773
883.64	14792
883.766	14739
883.892	14598
884.018	14678
884.143	14807
884.269	14933
884.395	14651
884.52	14492
884.646	14575
884.772	14530
884.897	14488
885.023	14465
885.148	14598
885.274	14674
885.399	14674
885.524	14606
885.65	14492
885.775	14629
885.9	14537
886.025	14629
886.15	14651
886.275	14465
886.4	14457
886.525	14511
886.65	14431
886.775	14518
886.9	14693
887.025	14811
887.149	14564
887.274	14400
887.399	14301
887.523	14530
887.648	14305
887.773	14286
887.897	14469
888.021	14404
888.146	14412
888.27	14465
888.395	14522
888.519	14492
888.643	14461
888.767	14511
888.891	14328
889.015	14248
889.139	14263
889.263	14233
889.387	14328
889.511	14415
889.635	14377
889.759	14252
889.883	14301
890.006	14301
890.13	14328
890.254	14138
890.377	14195
890.501	14050
890.624	14088
890.748	14065
890.871	13936
890.995	13887
891.118	13871
891.241	13997
891.364	13970
891.488	14043
891.611	13898
891.734	13997
891.857	13986
891.98	13974
892.103	13997
892.226	13986
892.349	13993
892.471	13830
892.594	13986
892.717	13921
892.839	13940
892.962	13852
893.085	13967
893.207	14016
893.33	13879
893.452	13909
893.575	13951
893.697	13970
893.819	14142
893.941	14195
894.064	14096
894.186	13944
894.308	13913
894.43	14161
894.552	14172
894.674	14142
894.796	13947
894.918	13917
895.04	13978
895.161	14050
895.283	14062
895.405	14001
895.526	14043
895.648	14058
895.769	14149
895.891	14107
896.012	14142
896.134	14168
896.255	14084
896.376	14054
896.498	14180
896.619	14134
896.74	14202
896.861	14149
896.982	14450
897.103	14533
897.224	14522
897.345	14415
897.466	14332
897.587	14294
897.708	14533
897.828	14389
897.949	14438
898.07	14138
898.19	14385
898.311	14450
898.431	14488
898.552	14518
898.672	14533
898.792	14655
898.913	14412
899.033	14503
899.153	14267
899.273	14252
899.393	14244
899.513	14309
899.633	14332
899.753	14343
899.873	14282
899.993	14381
900.113	14362
900.232	14393
900.352	14309
900.472	14233
900.591	14180
900.711	14275
900.83	14180
900.95	14282
901.069	14225
901.189	14187
901.308	13890
901.427	13940
901.546	13818
901.665	13845
901.784	13883
901.904	13731
902.023	13639
902.141	13426
902.26	13403
902.379	13480
902.498	13422
902.617	13285
902.735	13514
902.854	13502
902.973	13445
903.091	13190
903.21	13126
903.328	13187
903.446	13065
903.565	13015
903.683	12973
903.801	12928
903.919	13046
904.038	12977
904.156	12760
904.274	12935
904.392	12856
904.51	12779
904.627	12882
904.745	12852
904.863	12867
904.981	12662
905.098	12486
905.216	12536
905.334	12582
905.451	12566
905.569	12532
905.686	12551
905.803	12574
905.921	12334
906.038	12517
906.155	12357
906.272	12266
906.389	12201
906.506	12136
906.623	12186
906.74	12163
906.857	12053
906.974	12049
907.091	12205
907.208	12254
907.324	12114
907.441	11961
907.557	11893
907.674	11916
907.79	11824
907.907	11843
908.023	11923
908.139	11901
908.256	11745
908.372	11790
908.488	11779
908.604	11695
908.72	11630
908.836	11604
908.952	11570
909.068	11627
909.184	11828
909.3	11653
909.415	11699
909.531	11543
909.647	11433
909.762	11421
909.878	11467
909.993	11379
910.108	11360
910.224	11402
910.339	11368
910.454	11337
910.57	11193
910.685	11166
910.8	11455
910.915	11364
911.03	11239
911.145	11109
911.259	11075
911.374	11102
911.489	11029
911.604	10972
911.718	10812
911.833	10942
911.947	10717
912.062	10752
912.176	10946
912.291	10828
912.405	10812
912.519	11143
912.633	11052
912.748	10961
912.862	10847
912.976	10778
913.09	10607
913.204	10706
913.318	10759
913.431	10854
913.545	10831
913.659	10782
913.772	10778
913.886	10603
914	10592
914.113	10687
914.226	10660
914.34	10793
914.453	10558
914.566	10733
914.68	10535
914.793	10626
914.906	10451
915.019	10367
915.132	10287
915.245	10325
915.358	10371
915.47	10341
915.583	10432
915.696	10421
915.809	10443
915.921	10607
916.034	10318
916.146	10371
916.259	10394
916.371	10337
916.483	10512
916.595	10303
916.708	10318
916.82	10322
916.932	10303
917.044	10314
917.156	10261
917.268	10272
917.38	10242
917.491	10204
917.603	10318
917.715	10363
917.826	10352
917.938	10223
918.049	10101
918.161	10204
918.272	10386
918.384	10367
918.495	10242
918.606	10139
918.717	10013
918.828	10063
918.939	10128
919.05	10025
919.161	10158
919.272	9835
919.383	10051
919.494	10162
919.604	10348
919.715	10101
919.826	10013
919.936	10048
920.047	10162
920.157	10158
920.267	10295
920.378	10147
920.488	10101
920.598	10310
920.708	10451
920.818	10314
920.928	10280
921.038	10478
921.148	10447
921.258	10112
921.368	10112
921.477	9972
921.587	9884
921.697	9835
921.806	9953
921.916	9808
922.025	9736
922.134	9755
922.244	9644
922.353	9717
922.462	9553
922.571	9523
922.68	9336
922.789	9363
922.898	9439
923.007	9329
923.116	9408
923.224	9329
923.333	9435
923.442	9249
923.55	9195
923.659	9256
923.767	9382
923.876	9253
923.984	9367
924.092	9199
924.201	9241
924.309	9253
924.417	9199
924.525	9138
924.633	9226
924.741	10025
924.849	9070
924.956	9131
925.064	8876
925.172	8944
925.279	8982
925.387	9074
925.494	9009
925.602	9188
925.709	9055
925.816	8963
925.924	9051
926.031	9150
926.138	9112
926.245	9074
926.352	8914
926.459	9070
926.566	9146
926.673	8994
926.779	8906
926.886	8937
926.993	8727
927.099	8674
927.206	8686
927.312	8754
927.419	8861
927.525	8800
927.631	8792
927.737	8746
927.843	8682
927.95	8598
928.056	8610
928.162	8678
928.267	8670
928.373	9233
928.479	8769
928.585	8469
928.69	8610
928.796	8674
928.901	8526
929.007	8412
929.112	8644
929.218	8492
929.323	8484
929.428	8358
929.533	8636
929.638	8393
929.743	8442
929.848	8492
929.953	8415
930.058	8423
930.163	8221
930.267	8286
930.372	8404
930.477	8229
930.581	8461
930.685	8320
930.79	8092
930.894	8195
930.998	8134
931.103	8294
931.207	8001
931.311	7875
931.415	7883
931.519	7712
931.623	7693
