Data from test_V78500241_342.txt Node
Date: Fri Mar 25 14:36:06 CST 2022
User: usil
Spectrometer: V785-0024
Trigger mode: 0
Integration Time (sec): 4.000000E-1
Scans to average: 1
Nonlinearity correction enabled: false
Boxcar width: 0
Storing dark spectrum: false
XAxis mode: Wavelengths
Number of Pixels in Spectrum: 1024
>>>>>Begin Spectral Data<<<<<
801.071	26986
801.214	26807
801.356	26621
801.499	26541
801.641	26431
801.783	26362
801.926	26347
802.068	26328
802.211	26164
802.353	26100
802.496	25917
802.638	25856
802.78	25799
802.923	26031
803.065	25780
803.208	25887
803.35	25780
803.492	25921
803.635	26031
803.777	25913
803.919	25951
804.061	26233
804.204	26020
804.346	25818
804.488	25776
804.63	25921
804.773	25746
804.915	25788
805.057	26039
805.199	25837
805.341	25772
805.483	25944
805.626	25803
805.768	25883
805.91	25833
806.052	25849
806.194	26016
806.336	26050
806.478	25928
806.62	25799
806.762	26024
806.904	26043
807.046	26271
807.188	26267
807.33	26161
807.472	26305
807.614	26180
807.756	26168
807.898	26103
808.04	26008
808.182	26073
808.324	26149
808.465	26092
808.607	26229
808.749	26556
808.891	26526
809.033	26621
809.174	26389
809.316	26408
809.458	26393
809.6	26374
809.741	26450
809.883	26480
810.025	26450
810.166	26541
810.308	26629
810.45	26499
810.591	26526
810.733	26374
810.875	26328
811.016	26256
811.158	26233
811.299	26176
811.441	26332
811.582	26457
811.724	26389
811.865	26229
812.007	26164
812.148	26324
812.29	26275
812.431	26473
812.573	26366
812.714	26480
812.855	26674
812.997	26724
813.138	26853
813.279	26762
813.421	26724
813.562	26678
813.703	26484
813.845	26495
813.986	26225
814.127	26005
814.268	25963
814.41	25677
814.551	25909
814.692	25852
814.833	25795
814.974	25750
815.115	25704
815.256	25510
815.397	25597
815.539	25601
815.68	25476
815.821	25567
815.962	25544
816.103	25540
816.244	25415
816.385	25259
816.526	25160
816.666	25187
816.807	24947
816.948	25000
817.089	24989
817.23	25004
817.371	24844
817.512	24928
817.653	24848
817.793	24806
817.934	24871
818.075	25019
818.216	25023
818.356	24734
818.497	24722
818.638	24483
818.778	24582
818.919	24585
819.06	24585
819.2	24806
819.341	24749
819.481	24658
819.622	24992
819.762	25179
819.903	25061
820.043	25031
820.184	24837
820.324	24863
820.465	24878
820.605	25004
820.746	24981
820.886	24768
821.026	24817
821.167	24844
821.307	24977
821.447	24829
821.588	24711
821.728	24494
821.868	24357
822.008	24194
822.149	24273
822.289	24216
822.429	23958
822.569	23973
822.709	23965
822.849	23627
822.99	23668
823.13	23695
823.27	23638
823.41	23573
823.55	23303
823.69	23524
823.83	23539
823.97	23368
824.11	23261
824.25	23242
824.389	23277
824.529	23322
824.669	23296
824.809	23326
824.949	23406
825.089	23318
825.228	23269
825.368	23132
825.508	23044
825.648	23075
825.787	23033
825.927	23090
826.067	23044
826.206	22942
826.346	23060
826.485	23143
826.625	22999
826.765	23212
826.904	23117
827.044	22729
827.183	22812
827.323	22634
827.462	22820
827.601	22736
827.741	22733
827.88	22793
828.02	22554
828.159	22580
828.298	22649
828.437	22786
828.577	22634
828.716	22828
828.855	22645
828.994	22333
829.134	22493
829.273	22451
829.412	22493
829.551	22341
829.69	22306
829.829	22531
829.968	22523
830.107	22447
830.246	22474
830.385	22295
830.524	22299
830.663	22280
830.802	22067
830.941	21972
831.08	22044
831.219	22090
831.357	22025
831.496	22219
831.635	21915
831.774	21778
831.913	21854
832.051	21701
832.19	21713
832.329	21785
832.467	21656
832.606	21675
832.744	21671
832.883	21458
833.022	21504
833.16	21439
833.299	21595
833.437	21690
833.576	21713
833.714	21675
833.852	21564
833.991	21618
834.129	21644
834.267	21724
834.406	21610
834.544	21667
834.682	21625
834.821	21614
834.959	21720
835.097	21561
835.235	21720
835.373	21633
835.511	21637
835.65	21473
835.788	21473
835.926	21363
836.064	21298
836.202	21367
836.34	21477
836.478	21500
836.615	21591
836.753	21515
836.891	21580
837.029	21351
837.167	21374
837.305	21401
837.443	21294
837.58	21294
837.718	21424
837.856	21370
837.993	21294
838.131	21363
838.269	21226
838.406	21161
838.544	21169
838.681	21028
838.819	20929
838.956	20727
839.094	20800
839.231	20891
839.369	20826
839.506	21306
839.643	20982
839.781	20773
839.918	20705
840.055	20720
840.193	20617
840.33	20724
840.467	20655
840.604	20674
840.742	20921
840.879	20564
841.016	20632
841.153	20556
841.29	20800
841.427	20655
841.564	20655
841.701	20613
841.838	20590
841.975	20640
842.112	20461
842.249	20415
842.385	20377
842.522	20689
842.659	20377
842.796	20336
842.933	20404
843.069	20389
843.206	20278
843.343	20518
843.479	20358
843.616	20374
843.752	20233
843.889	20168
844.025	20278
844.162	20100
844.298	20191
844.435	20103
844.571	20142
844.708	20210
844.844	20233
844.98	20161
845.117	20256
845.253	20081
845.389	20039
845.525	20031
845.661	20020
845.798	19928
845.934	20024
846.07	19978
846.206	20081
846.342	20062
846.478	19967
846.614	19704
846.75	19738
846.886	19723
847.022	19674
847.158	19681
847.294	19601
847.429	19597
847.565	19601
847.701	19776
847.837	19392
847.972	19308
848.108	19438
848.244	19476
848.379	19308
848.515	19206
848.65	19179
848.786	19266
848.921	19129
849.057	19251
849.192	19354
849.328	19263
849.463	19171
849.598	19194
849.734	19088
849.869	18951
850.004	18924
850.14	18932
850.275	18916
850.41	18882
850.545	18928
850.68	18935
850.815	18939
850.95	18958
851.085	18924
851.22	18928
851.355	18928
851.49	18806
851.625	18867
851.76	18787
851.895	18734
852.03	18798
852.165	18901
852.299	18954
852.434	18947
852.569	18924
852.703	18913
852.838	18947
852.973	19122
853.107	18973
853.242	18700
853.376	18749
853.511	18726
853.645	18700
853.78	18837
853.914	18665
854.048	18555
854.183	18608
854.317	18688
854.451	18890
854.585	18684
854.72	18620
854.854	18734
854.988	18559
855.122	18684
855.256	18631
855.39	18715
855.524	18825
855.658	18768
855.792	18646
855.926	18684
856.06	18604
856.194	18875
856.327	18764
856.461	18757
856.595	18730
856.729	18616
856.862	18730
856.996	18764
857.13	18825
857.263	18867
857.397	18821
857.53	18760
857.664	18745
857.797	18715
857.931	18856
858.064	18734
858.197	18783
858.331	18802
858.464	18616
858.597	18658
858.731	18654
858.864	18734
858.997	18665
859.13	18661
859.263	18677
859.396	18719
859.529	18631
859.662	18703
859.795	18669
859.928	18631
860.061	18810
860.194	18882
860.327	18604
860.46	18646
860.592	18749
860.725	18848
860.858	18806
860.99	18730
861.123	18551
861.256	18650
861.388	18654
861.521	19392
861.653	18555
861.786	18483
861.918	18528
862.05	18661
862.183	18738
862.315	18734
862.447	18688
862.58	18734
862.712	18403
862.844	18395
862.976	18506
863.108	18456
863.24	18833
863.372	18330
863.504	18441
863.636	18414
863.768	18448
863.9	18429
864.032	18289
864.164	18365
864.296	18342
864.428	18513
864.559	18391
864.691	18494
864.823	18429
864.954	18410
865.086	18319
865.217	18433
865.349	18235
865.48	18327
865.612	18281
865.743	18490
865.875	18384
866.006	18410
866.137	18308
866.269	18300
866.4	18327
866.531	18327
866.662	18232
866.793	18251
866.924	18213
867.055	18243
867.186	18262
867.317	18323
867.448	18186
867.579	18327
867.71	18239
867.841	18224
867.972	18399
868.103	18308
868.233	18224
868.364	18224
868.495	18376
868.625	18418
868.756	18658
868.886	18475
869.017	18506
869.147	18532
869.278	18601
869.408	18540
869.539	18475
869.669	18483
869.799	18490
869.929	18597
870.06	18528
870.19	18844
870.32	18734
870.45	18825
870.58	18859
870.71	18977
870.84	18973
870.97	19008
871.1	18901
871.23	19080
871.36	19084
871.489	19000
871.619	19053
871.749	19088
871.879	19141
872.008	19164
872.138	19019
872.267	19114
872.397	18939
872.526	19046
872.656	18920
872.785	18935
872.915	19088
873.044	19107
873.173	19198
873.303	19187
873.432	19213
873.561	19213
873.69	19164
873.819	19072
873.948	19202
874.077	19038
874.206	19171
874.335	19198
874.464	19198
874.593	19377
874.722	19369
874.851	19407
874.979	19457
875.108	19434
875.237	19308
875.365	19289
875.494	19468
875.623	19529
875.751	19316
875.88	19396
876.008	19472
876.136	19635
876.265	19837
876.393	19967
876.521	19864
876.65	19959
876.778	19928
876.906	19651
877.034	19731
877.162	19868
877.29	19655
877.418	19788
877.546	19742
877.674	19681
877.802	19852
877.93	19719
878.058	19814
878.185	19632
878.313	19811
878.441	19936
878.568	19582
878.696	19674
878.824	19879
878.951	19818
879.079	19947
879.206	20157
879.333	20020
879.461	19917
879.588	19928
879.715	20008
879.842	20084
879.97	19928
880.097	19590
880.224	19525
880.351	19734
880.478	19605
880.605	19590
880.732	19670
880.859	19830
880.986	19662
881.112	19746
881.239	19487
881.366	19464
881.493	19308
881.619	19240
881.746	19297
881.872	19278
881.999	19301
882.125	19228
882.252	19221
882.378	19232
882.505	19388
882.631	19156
882.757	19076
882.883	19103
883.01	19023
883.136	18913
883.262	18920
883.388	18711
883.514	19091
883.64	18993
883.766	18913
883.892	18932
884.018	18890
884.143	18951
884.269	19050
884.395	18814
884.52	18612
884.646	18779
884.772	18540
884.897	18506
885.023	18646
885.148	18833
885.274	18909
885.399	18749
885.524	18642
885.65	18566
885.775	18681
885.9	18722
886.025	18783
886.15	18821
886.275	18677
886.4	18445
886.525	18627
886.65	18513
886.775	18525
886.9	18768
887.025	18745
887.149	18658
887.274	18502
887.399	18399
887.523	18395
887.648	18475
887.773	18258
887.897	18612
888.021	18441
888.146	18346
888.27	18604
888.395	18559
888.519	18426
888.643	18448
888.767	18506
888.891	18270
889.015	18327
889.139	18342
889.263	18239
889.387	18353
889.511	18426
889.635	18475
889.759	18205
889.883	18273
890.006	18304
890.13	18300
890.254	18049
890.377	18239
890.501	18079
890.624	17939
890.748	18011
890.871	18003
890.995	17786
891.118	17779
891.241	17840
891.364	17870
891.488	17866
891.611	17775
891.734	17695
891.857	17927
891.98	17882
892.103	17874
892.226	17882
892.349	17870
892.471	17661
892.594	17786
892.717	17824
892.839	17748
892.962	17863
893.085	17874
893.207	17882
893.33	17634
893.452	17745
893.575	17718
893.697	17859
893.819	17999
893.941	17969
894.064	17893
894.186	17680
894.308	17710
894.43	17851
894.552	18003
894.674	17843
894.796	17794
894.918	17847
895.04	17710
895.161	17874
895.283	17851
895.405	17687
895.526	17931
895.648	17870
895.769	17916
895.891	17843
896.012	17923
896.134	17935
896.255	17840
896.376	17828
896.498	17908
896.619	17935
896.74	17851
896.861	17912
896.982	18186
897.103	18498
897.224	18190
897.345	18064
897.466	17996
897.587	18182
897.708	18178
897.828	18159
897.949	18057
898.07	18045
898.19	17980
898.311	18148
898.431	18057
898.552	17969
898.672	18190
898.792	18136
898.913	18117
899.033	18049
899.153	17901
899.273	17767
899.393	17710
899.513	17973
899.633	17851
899.753	17901
899.873	17885
899.993	17836
900.113	17859
900.232	17901
900.352	17870
900.472	17646
900.591	17786
900.711	17718
900.83	17630
900.95	17821
901.069	17794
901.189	17627
901.308	17398
901.427	17360
901.546	17356
901.665	17296
901.784	17459
901.904	17090
902.023	17109
902.141	16915
902.26	16866
902.379	16999
902.498	16942
902.617	16805
902.735	16873
902.854	16809
902.973	16702
903.091	16561
903.21	16554
903.328	16573
903.446	16394
903.565	16367
903.683	16531
903.801	16234
903.919	16242
904.038	16310
904.156	16211
904.274	16249
904.392	16131
904.51	16055
904.627	16029
904.745	16071
904.863	16196
904.981	15907
905.098	15743
905.216	15823
905.334	15816
905.451	15804
905.569	15728
905.686	15793
905.803	15857
905.921	15576
906.038	15652
906.155	15557
906.272	15466
906.389	15466
906.506	15363
906.623	15321
906.74	15283
906.857	15214
906.974	15233
907.091	15336
907.208	15401
907.324	15382
907.441	15245
907.557	15074
907.674	15081
907.79	15066
907.907	14941
908.023	15070
908.139	15085
908.256	15005
908.372	14887
908.488	14921
908.604	14731
908.72	14765
908.836	14701
908.952	14743
909.068	14689
909.184	14823
909.3	14754
909.415	14712
909.531	14697
909.647	14545
909.762	14484
909.878	14450
909.993	14499
910.108	14454
910.224	14434
910.339	14427
910.454	14294
910.57	14278
910.685	14195
910.8	14461
910.915	14355
911.03	14233
911.145	14130
911.259	14138
911.374	14138
911.489	14088
911.604	14020
911.718	13845
911.833	13890
911.947	13693
912.062	13651
912.176	13811
912.291	13822
912.405	13845
912.519	14050
912.633	13936
912.748	13921
912.862	13879
912.976	13734
913.09	13533
913.204	13624
913.318	13662
913.431	13677
913.545	13727
913.659	13780
913.772	13567
913.886	13441
914	13468
914.113	13616
914.226	13567
914.34	13533
914.453	13476
914.566	13571
914.68	13457
914.793	13384
914.906	13206
915.019	13103
915.132	13091
915.245	13179
915.358	13179
915.47	13244
915.583	13217
915.696	13145
915.809	13335
915.921	13327
916.034	13160
916.146	13080
916.259	13053
916.371	13156
916.483	13198
916.595	13008
916.708	13038
916.82	13023
916.932	13069
917.044	12996
917.156	12890
917.268	12825
917.38	12852
917.491	12932
917.603	12951
917.715	12970
917.826	13012
917.938	12894
918.049	12745
918.161	12840
918.272	13008
918.384	13057
918.495	12867
918.606	12692
918.717	12642
918.828	12703
918.939	12734
919.05	12578
919.161	12639
919.272	12410
919.383	12521
919.494	12753
919.604	12932
919.715	12719
919.826	12555
919.936	12616
920.047	12658
920.157	12658
920.267	12928
920.378	12726
920.488	12627
920.598	12715
920.708	12913
920.818	12726
920.928	12779
921.038	12939
921.148	12875
921.258	12566
921.368	12532
921.477	12429
921.587	12403
921.697	12289
921.806	12372
921.916	12201
922.025	12167
922.134	12072
922.244	12076
922.353	12148
922.462	11939
922.571	11874
922.68	11714
922.789	11805
922.898	11722
923.007	11729
923.116	11821
923.224	11722
923.333	11672
923.442	11581
923.55	11524
923.659	11497
923.767	11672
923.876	11627
923.984	11592
924.092	11440
924.201	11414
924.309	11608
924.417	11524
924.525	11486
924.633	11444
924.741	12228
924.849	11246
924.956	11490
925.064	11296
925.172	11151
925.279	11273
925.387	11280
925.494	11185
925.602	11353
925.709	11372
925.816	11151
925.924	11288
926.031	11349
926.138	11189
926.245	11280
926.352	11155
926.459	11296
926.566	11296
926.673	11178
926.779	10987
926.886	11056
926.993	10911
927.099	10866
927.206	10919
927.312	10847
927.419	10938
927.525	10869
927.631	10987
927.737	10809
927.843	10759
927.95	10603
928.056	10694
928.162	10752
928.267	10877
928.373	11433
928.479	10805
928.585	10599
928.69	10771
928.796	10778
928.901	10660
929.007	10512
929.112	10630
929.218	10710
929.323	10577
929.428	10554
929.533	10721
929.638	10504
929.743	10573
929.848	10573
929.953	10497
930.058	10379
930.163	10242
930.267	10265
930.372	10421
930.477	10284
930.581	10428
930.685	10333
930.79	10128
930.894	10185
930.998	10036
931.103	10268
931.207	9956
931.311	9869
931.415	9774
931.519	9545
931.623	9553
