Data from test_V78500241_1911.txt Node
Date: Fri Mar 25 14:47:01 CST 2022
User: usil
Spectrometer: V785-0024
Trigger mode: 0
Integration Time (sec): 4.000000E-1
Scans to average: 1
Nonlinearity correction enabled: false
Boxcar width: 0
Storing dark spectrum: false
XAxis mode: Wavelengths
Number of Pixels in Spectrum: 1024
>>>>>Begin Spectral Data<<<<<
801.071	22067
801.214	21968
801.356	21652
801.499	21644
801.641	21435
801.783	21496
801.926	21431
802.068	21294
802.211	21260
802.353	21192
802.496	21047
802.638	20960
802.78	20891
802.923	20769
803.065	20765
803.208	20739
803.35	20800
803.492	20960
803.635	20956
803.777	20758
803.919	20910
804.061	21169
804.204	20823
804.346	20663
804.488	20606
804.63	20750
804.773	20762
804.915	20602
805.057	20845
805.199	20674
805.341	20765
805.483	20842
805.626	20750
805.768	20716
805.91	20773
806.052	20720
806.194	20670
806.336	20906
806.478	20678
806.62	20480
806.762	20834
806.904	20868
807.046	21051
807.188	21017
807.33	21077
807.472	21055
807.614	20868
807.756	20918
807.898	20914
808.04	20746
808.182	20712
808.324	20796
808.465	20781
808.607	20998
808.749	21135
808.891	21100
809.033	21264
809.174	21135
809.316	21005
809.458	21100
809.6	20906
809.741	21058
809.883	21150
810.025	21184
810.166	21207
810.308	21157
810.45	21245
810.591	21165
810.733	21005
810.875	21001
811.016	20792
811.158	20686
811.299	20918
811.441	20990
811.582	20986
811.724	20849
811.865	20918
812.007	20842
812.148	20762
812.29	20819
812.431	21013
812.573	21077
812.714	21233
812.855	21412
812.997	21435
813.138	21450
813.279	21439
813.421	21351
813.562	21313
813.703	21039
813.845	21013
813.986	20819
814.127	20590
814.268	20415
814.41	20355
814.551	20400
814.692	20362
814.833	20286
814.974	20275
815.115	20374
815.256	20259
815.397	20259
815.539	20233
815.68	20084
815.821	20058
815.962	20100
816.103	20008
816.244	19925
816.385	20008
816.526	19833
816.666	19578
816.807	19525
816.948	19643
817.089	19639
817.23	19639
817.371	19495
817.512	19548
817.653	19426
817.793	19502
817.934	19529
818.075	19476
818.216	19506
818.356	19510
818.497	19247
818.638	19251
818.778	19095
818.919	19240
819.06	19251
819.2	19343
819.341	19499
819.481	19388
819.622	19586
819.762	19738
819.903	19708
820.043	19647
820.184	19586
820.324	19571
820.465	19597
820.605	19506
820.746	19434
820.886	19373
821.026	19460
821.167	19514
821.307	19506
821.447	19419
821.588	19365
821.728	19206
821.868	19141
822.008	18844
822.149	18924
822.289	18852
822.429	18681
822.569	18597
822.709	18612
822.849	18433
822.99	18353
823.13	18372
823.27	18353
823.41	18186
823.55	18171
823.69	18285
823.83	18197
823.97	18079
824.11	17999
824.25	17931
824.389	18038
824.529	18072
824.669	17946
824.809	18167
824.949	18003
825.089	18140
825.228	18007
825.368	17813
825.508	17726
825.648	17798
825.787	17748
825.927	17764
826.067	17695
826.206	17710
826.346	17779
826.485	17809
826.625	17783
826.765	17851
826.904	17790
827.044	17528
827.183	17558
827.323	17436
827.462	17512
827.601	17452
827.741	17509
827.88	17474
828.02	17341
828.159	17395
828.298	17539
828.437	17539
828.577	17406
828.716	17486
828.855	17402
828.994	17307
829.134	17246
829.273	17204
829.412	17254
829.551	17189
829.69	17124
829.829	17216
829.968	17360
830.107	17220
830.246	17296
830.385	17212
830.524	17162
830.663	17041
830.802	16953
830.941	16767
831.08	16839
831.219	16869
831.357	16984
831.496	17003
831.635	16847
831.774	16809
831.913	16805
832.051	16645
832.19	16687
832.329	16752
832.467	16565
832.606	16519
832.744	16485
832.883	16421
833.022	16512
833.16	16630
833.299	16580
833.437	16542
833.576	16615
833.714	16637
833.852	16596
833.991	16622
834.129	16577
834.267	16698
834.406	16634
834.544	16596
834.682	16653
834.821	16656
834.959	16782
835.097	16538
835.235	16706
835.373	16577
835.511	16615
835.65	16455
835.788	16356
835.926	16417
836.064	16363
836.202	16310
836.34	16500
836.478	16664
836.615	16512
836.753	16554
836.891	16596
837.029	16554
837.167	16542
837.305	16485
837.443	16386
837.58	16356
837.718	16432
837.856	16318
837.993	16352
838.131	16356
838.269	16284
838.406	16329
838.544	16295
838.681	16143
838.819	16002
838.956	16032
839.094	15873
839.231	15922
839.369	16082
839.506	16360
839.643	16158
839.781	15975
839.918	15918
840.055	15964
840.193	15899
840.33	15979
840.467	15956
840.604	15907
840.742	16154
840.879	15743
841.016	15857
841.153	15850
841.29	16063
841.427	15994
841.564	15983
841.701	16032
841.838	15903
841.975	15846
842.112	15968
842.249	15766
842.385	15724
842.522	15918
842.659	15835
842.796	15701
842.933	15724
843.069	15732
843.206	15663
843.343	15869
843.479	15675
843.616	15892
843.752	15458
843.889	15488
844.025	15671
844.162	15473
844.298	15656
844.435	15469
844.571	15450
844.708	15606
844.844	15599
844.98	15667
845.117	15625
845.253	15545
845.389	15443
845.525	15447
845.661	15477
845.798	15344
845.934	15447
846.07	15279
846.206	15336
846.342	15454
846.478	15363
846.614	15032
846.75	15119
846.886	15104
847.022	15180
847.158	15085
847.294	15009
847.429	15108
847.565	15085
847.701	15207
847.837	14838
847.972	14788
848.108	14845
848.244	14918
848.379	14735
848.515	14724
848.65	14632
848.786	14613
848.921	14720
849.057	14777
849.192	14781
849.328	14686
849.463	14769
849.598	14727
849.734	14549
849.869	14571
850.004	14530
850.14	14514
850.275	14450
850.41	14339
850.545	14358
850.68	14488
850.815	14476
850.95	14415
851.085	14705
851.22	14541
851.355	14457
851.49	14476
851.625	14423
851.76	14377
851.895	14362
852.03	14324
852.165	14419
852.299	14488
852.434	14495
852.569	14533
852.703	14473
852.838	14552
852.973	14739
853.107	14575
853.242	14469
853.376	14389
853.511	14244
853.645	14248
853.78	14415
853.914	14271
854.048	14282
854.183	14362
854.317	14237
854.451	14473
854.585	14248
854.72	14256
854.854	14358
854.988	14206
855.122	14320
855.256	14092
855.39	14271
855.524	14431
855.658	14362
855.792	14385
855.926	14431
856.06	14431
856.194	14423
856.327	14206
856.461	14267
856.595	14233
856.729	14301
856.862	14404
856.996	14396
857.13	14328
857.263	14476
857.397	14404
857.53	14282
857.664	14396
857.797	14358
857.931	14374
858.064	14351
858.197	14457
858.331	14263
858.464	14278
858.597	14305
858.731	14313
858.864	14366
858.997	14298
859.13	14351
859.263	14381
859.396	14370
859.529	14275
859.662	14240
859.795	14275
859.928	14237
860.061	14488
860.194	14476
860.327	14278
860.46	14267
860.592	14473
860.725	14476
860.858	14503
860.99	14267
861.123	14252
861.256	14320
861.388	14393
861.521	15055
861.653	14244
861.786	14157
861.918	14187
862.05	14339
862.183	14244
862.315	14259
862.447	14358
862.58	14301
862.712	14123
862.844	14016
862.976	14176
863.108	14183
863.24	14476
863.372	14027
863.504	14153
863.636	13978
863.768	14111
863.9	14183
864.032	14126
864.164	14043
864.296	14161
864.428	14214
864.559	14161
864.691	14225
864.823	14164
864.954	14161
865.086	14202
865.217	14233
865.349	14035
865.48	14103
865.612	14077
865.743	14362
865.875	14031
866.006	14054
866.137	14149
866.269	14001
866.4	14153
866.531	14012
866.662	13967
866.793	14001
866.924	14035
867.055	14096
867.186	14084
867.317	14065
867.448	13913
867.579	13955
867.71	13970
867.841	14058
867.972	14054
868.103	14016
868.233	14016
868.364	14046
868.495	14153
868.625	14317
868.756	14434
868.886	14286
869.017	14332
869.147	14442
869.278	14381
869.408	14415
869.539	14408
869.669	14393
869.799	14518
869.929	14476
870.06	14408
870.19	14781
870.32	14590
870.45	14670
870.58	14830
870.71	14815
870.84	14845
870.97	14731
871.1	14731
871.23	14891
871.36	14868
871.489	14826
871.619	14956
871.749	14868
871.879	14883
872.008	15017
872.138	14986
872.267	14864
872.397	14941
872.526	14727
872.656	14765
872.785	14868
872.915	14982
873.044	15039
873.173	14914
873.303	15005
873.432	14986
873.561	15104
873.69	14967
873.819	15062
873.948	15047
874.077	15085
874.206	14872
874.335	15017
874.464	15123
874.593	15325
874.722	15279
874.851	15367
874.979	15249
875.108	15302
875.237	15279
875.365	15272
875.494	15237
875.623	15298
875.751	15188
875.88	15401
876.008	15443
876.136	15587
876.265	15629
876.393	15846
876.521	15831
876.65	15785
876.778	15736
876.906	15705
877.034	15637
877.162	15690
877.29	15698
877.418	15819
877.546	15698
877.674	15682
877.802	15720
877.93	15694
878.058	15751
878.185	15644
878.313	15644
878.441	15625
878.568	15606
878.696	15610
878.824	15629
878.951	15800
879.079	15778
879.206	15972
879.333	15873
879.461	15770
879.588	15808
879.715	15876
879.842	15979
879.97	15720
880.097	15614
880.224	15523
880.351	15587
880.478	15542
880.605	15473
880.732	15663
880.859	15835
880.986	15648
881.112	15591
881.239	15447
881.366	15496
881.493	15336
881.619	15241
881.746	15150
881.872	15226
881.999	15093
882.125	15237
882.252	15241
882.378	15317
882.505	15386
882.631	15112
882.757	15001
882.883	15055
883.01	14998
883.136	15039
883.262	14982
883.388	14929
883.514	15066
883.64	15028
883.766	15058
883.892	14910
884.018	14887
884.143	15047
884.269	15131
884.395	14872
884.52	14720
884.646	14819
884.772	14781
884.897	14629
885.023	14823
885.148	14834
885.274	14849
885.399	14838
885.524	14765
885.65	14819
885.775	14811
885.9	14765
886.025	14815
886.15	14800
886.275	14727
886.4	14731
886.525	14651
886.65	14640
886.775	14629
886.9	14891
887.025	14925
887.149	14765
887.274	14617
887.399	14492
887.523	14511
887.648	14499
887.773	14469
887.897	14678
888.021	14621
888.146	14518
888.27	14560
888.395	14705
888.519	14511
888.643	14579
888.767	14625
888.891	14423
889.015	14454
889.139	14427
889.263	14408
889.387	14663
889.511	14686
889.635	14518
889.759	14374
889.883	14366
890.006	14480
890.13	14552
890.254	14252
890.377	14339
890.501	14210
890.624	14191
890.748	14263
890.871	14206
890.995	14054
891.118	14058
891.241	14164
891.364	14092
891.488	14313
891.611	14149
891.734	14180
891.857	14183
891.98	14168
892.103	14119
892.226	14161
892.349	14069
892.471	13906
892.594	14084
892.717	14142
892.839	14081
892.962	14240
893.085	14210
893.207	14176
893.33	14054
893.452	14008
893.575	14221
893.697	14092
893.819	14339
893.941	14370
894.064	14286
894.186	14107
894.308	14161
894.43	14267
894.552	14298
894.674	14282
894.796	14183
894.918	14187
895.04	14149
895.161	14267
895.283	14248
895.405	14229
895.526	14271
895.648	14210
895.769	14225
895.891	14355
896.012	14389
896.134	14248
896.255	14374
896.376	14328
896.498	14347
896.619	14358
896.74	14282
896.861	14377
896.982	14659
897.103	14845
897.224	14640
897.345	14575
897.466	14571
897.587	14549
897.708	14640
897.828	14594
897.949	14552
898.07	14400
898.19	14492
898.311	14667
898.431	14564
898.552	14693
898.672	14762
898.792	14777
898.913	14701
899.033	14598
899.153	14396
899.273	14427
899.393	14476
899.513	14511
899.633	14507
899.753	14495
899.873	14503
899.993	14545
900.113	14507
900.232	14480
900.352	14488
900.472	14358
900.591	14271
900.711	14473
900.83	14317
900.95	14495
901.069	14476
901.189	14320
901.308	14187
901.427	13989
901.546	14016
901.665	13982
901.784	14065
901.904	13947
902.023	13883
902.141	13761
902.26	13620
902.379	13639
902.498	13582
902.617	13567
902.735	13670
902.854	13613
902.973	13559
903.091	13289
903.21	13259
903.328	13407
903.446	13278
903.565	13255
903.683	13187
903.801	13046
903.919	13198
904.038	13103
904.156	13038
904.274	13126
904.392	12958
904.51	12962
904.627	13046
904.745	13057
904.863	13061
904.981	12757
905.098	12711
905.216	12688
905.334	12730
905.451	12722
905.569	12665
905.686	12810
905.803	12677
905.921	12486
906.038	12639
906.155	12517
906.272	12380
906.389	12395
906.506	12315
906.623	12330
906.74	12201
906.857	12232
906.974	12129
907.091	12372
907.208	12422
907.324	12376
907.441	12285
907.557	12060
907.674	12102
907.79	12007
907.907	12060
908.023	11992
908.139	11977
908.256	11931
908.372	11946
908.488	11931
908.604	11916
908.72	11802
908.836	11752
908.952	11783
909.068	11798
909.184	11939
909.3	11832
909.415	11908
909.531	11813
909.647	11653
909.762	11573
909.878	11474
909.993	11581
910.108	11528
910.224	11493
910.339	11600
910.454	11463
910.57	11391
910.685	11417
910.8	11619
910.915	11501
911.03	11463
911.145	11197
911.259	11296
911.374	11292
911.489	11231
911.604	11124
911.718	11105
911.833	11029
911.947	10862
912.062	10805
912.176	11045
912.291	11083
912.405	11006
912.519	11204
912.633	11201
912.748	11124
912.862	11067
912.976	10900
913.09	10759
913.204	10942
913.318	10858
913.431	10908
913.545	10999
913.659	11105
913.772	10873
913.886	10767
914	10763
914.113	10858
914.226	10839
914.34	10885
914.453	10744
914.566	10881
914.68	10744
914.793	10637
914.906	10523
915.019	10432
915.132	10512
915.245	10470
915.358	10508
915.47	10615
915.583	10546
915.696	10516
915.809	10755
915.921	10706
916.034	10493
916.146	10497
916.259	10440
916.371	10538
916.483	10599
916.595	10462
916.708	10497
916.82	10523
916.932	10394
917.044	10417
917.156	10462
917.268	10215
917.38	10386
917.491	10325
917.603	10318
917.715	10352
917.826	10512
917.938	10382
918.049	10169
918.161	10322
918.272	10459
918.384	10569
918.495	10348
918.606	10238
918.717	10204
918.828	10299
918.939	10185
919.05	10169
919.161	10192
919.272	10010
919.383	10109
919.494	10306
919.604	10440
919.715	10192
919.826	10128
919.936	10200
920.047	10295
920.157	10276
920.267	10443
920.378	10219
920.488	10219
920.598	10360
920.708	10584
920.818	10489
920.928	10424
921.038	10588
921.148	10569
921.258	10280
921.368	10196
921.477	10147
921.587	10082
921.697	9960
921.806	10093
921.916	10010
922.025	9899
922.134	9842
922.244	9770
922.353	9857
922.462	9694
922.571	9614
922.68	9500
922.789	9431
922.898	9599
923.007	9401
923.116	9538
923.224	9477
923.333	9511
923.442	9408
923.55	9363
923.659	9431
923.767	9428
923.876	9382
923.984	9454
924.092	9260
924.201	9389
924.309	9298
924.417	9450
924.525	9363
924.633	9351
924.741	10177
924.849	9127
924.956	9306
925.064	9214
925.172	8998
925.279	9081
925.387	9138
925.494	9173
925.602	9310
925.709	9188
925.816	9017
925.924	9180
926.031	9203
926.138	9093
926.245	9165
926.352	9028
926.459	9230
926.566	9195
926.673	9081
926.779	9047
926.886	9005
926.993	8891
927.099	8861
927.206	8792
927.312	8800
927.419	8906
927.525	8880
927.631	8853
927.737	8811
927.843	8758
927.95	8629
928.056	8766
928.162	8769
928.267	8823
928.373	9450
928.479	8861
928.585	8583
928.69	8689
928.796	8781
928.901	8640
929.007	8503
929.112	8659
929.218	8655
929.323	8552
929.428	8587
929.533	8697
929.638	8503
929.743	8480
929.848	8712
929.953	8575
930.058	8488
930.163	8358
930.267	8347
930.372	8488
930.477	8339
930.581	8568
930.685	8419
930.79	8301
930.894	8336
930.998	8294
931.103	8419
931.207	8077
931.311	8069
931.415	7963
931.519	7811
931.623	7780
