Data from test_V78500241_423.txt Node
Date: Fri Mar 25 14:36:40 CST 2022
User: usil
Spectrometer: V785-0024
Trigger mode: 0
Integration Time (sec): 4.000000E-1
Scans to average: 1
Nonlinearity correction enabled: false
Boxcar width: 0
Storing dark spectrum: false
XAxis mode: Wavelengths
Number of Pixels in Spectrum: 1024
>>>>>Begin Spectral Data<<<<<
801.071	26606
801.214	26511
801.356	26259
801.499	26282
801.641	26157
801.783	26054
801.926	26084
802.068	25932
802.211	25932
802.353	25860
802.496	25677
802.638	25662
802.78	25567
802.923	25674
803.065	25510
803.208	25533
803.35	25472
803.492	25647
803.635	25734
803.777	25647
803.919	25704
804.061	26008
804.204	25624
804.346	25552
804.488	25487
804.63	25548
804.773	25537
804.915	25662
805.057	25605
805.199	25552
805.341	25704
805.483	25658
805.626	25563
805.768	25499
805.91	25639
806.052	25693
806.194	25441
806.336	25715
806.478	25510
806.62	25499
806.762	25780
806.904	25925
807.046	26092
807.188	25898
807.33	25913
807.472	25966
807.614	25837
807.756	25890
807.898	25791
808.04	25772
808.182	25632
808.324	25700
808.465	25757
808.607	25970
808.749	26088
808.891	26187
809.033	26237
809.174	26122
809.316	25936
809.458	26142
809.6	26145
809.741	26054
809.883	26142
810.025	26347
810.166	26271
810.308	26263
810.45	26282
810.591	26202
810.733	26088
810.875	26077
811.016	25959
811.158	25772
811.299	25913
811.441	26088
811.582	26126
811.724	25955
811.865	25921
812.007	25860
812.148	26008
812.29	25887
812.431	26005
812.573	26180
812.714	26317
812.855	26412
812.997	26556
813.138	26495
813.279	26476
813.421	26419
813.562	26507
813.703	26240
813.845	26263
813.986	25818
814.127	25647
814.268	25525
814.41	25620
814.551	25468
814.692	25491
814.833	25434
814.974	25343
815.115	25335
815.256	25285
815.397	25438
815.539	25377
815.68	25377
815.821	25308
815.962	25312
816.103	25202
816.244	25015
816.385	24962
816.526	24920
816.666	24829
816.807	24703
816.948	24684
817.089	24768
817.23	24707
817.371	24578
817.512	24604
817.653	24608
817.793	24616
817.934	24669
818.075	24544
818.216	24574
818.356	24429
818.497	24555
818.638	24285
818.778	24266
818.919	24300
819.06	24292
819.2	24456
819.341	24467
819.481	24528
819.622	24631
819.762	24837
819.903	24688
820.043	24745
820.184	24623
820.324	24688
820.465	24707
820.605	24639
820.746	24479
820.886	24448
821.026	24513
821.167	24570
821.307	24696
821.447	24380
821.588	24448
821.728	24254
821.868	24076
822.008	24015
822.149	23999
822.289	23847
822.429	23691
822.569	23630
822.709	23707
822.849	23376
822.99	23444
823.13	23349
823.27	23353
823.41	23307
823.55	23090
823.69	23197
823.83	23307
823.97	23155
824.11	22915
824.25	22866
824.389	22923
824.529	23010
824.669	22942
824.809	23052
824.949	22995
825.089	22968
825.228	22923
825.368	22755
825.508	22828
825.648	22763
825.787	22965
825.927	22721
826.067	22809
826.206	22713
826.346	22854
826.485	22752
826.625	22706
826.765	22805
826.904	22900
827.044	22554
827.183	22546
827.323	22535
827.462	22634
827.601	22466
827.741	22455
827.88	22405
828.02	22249
828.159	22356
828.298	22474
828.437	22485
828.577	22386
828.716	22596
828.855	22390
828.994	22261
829.134	22177
829.273	22181
829.412	22139
829.551	22086
829.69	22120
829.829	22025
829.968	22196
830.107	22131
830.246	22128
830.385	22143
830.524	22150
830.663	21895
830.802	21831
830.941	21686
831.08	21686
831.219	21819
831.357	21656
831.496	21956
831.635	21656
831.774	21557
831.913	21580
832.051	21351
832.19	21424
832.329	21576
832.467	21332
832.606	21264
832.744	21351
832.883	21351
833.022	21359
833.16	21348
833.299	21466
833.437	21416
833.576	21454
833.714	21325
833.852	21302
833.991	21443
834.129	21401
834.267	21477
834.406	21393
834.544	21386
834.682	21393
834.821	21367
834.959	21492
835.097	21313
835.235	21351
835.373	21370
835.511	21321
835.65	21192
835.788	21195
835.926	21066
836.064	21066
836.202	21077
836.34	21230
836.478	21192
836.615	21203
836.753	21241
836.891	21329
837.029	21188
837.167	21195
837.305	21043
837.443	21123
837.58	21074
837.718	21165
837.856	21077
837.993	21093
838.131	21017
838.269	20933
838.406	20982
838.544	20979
838.681	20640
838.819	20678
838.956	20587
839.094	20617
839.231	20667
839.369	20602
839.506	20872
839.643	20853
839.781	20522
839.918	20336
840.055	20522
840.193	20465
840.33	20408
840.467	20431
840.604	20545
840.742	20811
840.879	20389
841.016	20328
841.153	20385
841.29	20560
841.427	20473
841.564	20465
841.701	20400
841.838	20324
841.975	20301
842.112	20240
842.249	20282
842.385	20221
842.522	20225
842.659	20221
842.796	20180
842.933	20187
843.069	20107
843.206	20134
843.343	20225
843.479	20119
843.616	20145
843.752	19906
843.889	19913
844.025	20092
844.162	19894
844.298	20016
844.435	19887
844.571	19860
844.708	19913
844.844	19967
844.98	19997
845.117	19951
845.253	19788
845.389	19712
845.525	19837
845.661	19731
845.798	19814
845.934	19750
846.07	19765
846.206	19723
846.342	19712
846.478	19601
846.614	19483
846.75	19483
846.886	19419
847.022	19434
847.158	19331
847.294	19449
847.429	19434
847.565	19308
847.701	19571
847.837	19046
847.972	19057
848.108	19103
848.244	19099
848.379	18958
848.515	18913
848.65	18932
848.786	18886
848.921	18977
849.057	19122
849.192	18935
849.328	18996
849.463	19019
849.598	18848
849.734	18844
849.869	18814
850.004	18604
850.14	18837
850.275	18692
850.41	18623
850.545	18658
850.68	18654
850.815	18661
850.95	18677
851.085	18772
851.22	18943
851.355	18642
851.49	18665
851.625	18627
851.76	18544
851.895	18525
852.03	18517
852.165	18612
852.299	18635
852.434	18943
852.569	18749
852.703	18612
852.838	18715
852.973	18901
853.107	18745
853.242	18612
853.376	18502
853.511	18483
853.645	18532
853.78	18570
853.914	18471
854.048	18525
854.183	18483
854.317	18456
854.451	18654
854.585	18498
854.72	18361
854.854	18589
854.988	18452
855.122	18498
855.256	18353
855.39	18433
855.524	18483
855.658	18528
855.792	18418
855.926	18517
856.06	18506
856.194	18544
856.327	18467
856.461	18490
856.595	18422
856.729	18384
856.862	18517
856.996	18372
857.13	18536
857.263	18483
857.397	18566
857.53	18467
857.664	18547
857.797	18589
857.931	18532
858.064	18532
858.197	18566
858.331	18388
858.464	18384
858.597	18258
858.731	18506
858.864	18327
858.997	18399
859.13	18391
859.263	18441
859.396	18479
859.529	18376
859.662	18437
859.795	18365
859.928	18506
860.061	18490
860.194	18597
860.327	18490
860.46	18380
860.592	18388
860.725	18517
860.858	18471
860.99	18445
861.123	18346
861.256	18372
861.388	18395
861.521	19179
861.653	18277
861.786	18106
861.918	18323
862.05	18342
862.183	18418
862.315	18471
862.447	18502
862.58	18376
862.712	18346
862.844	18129
862.976	18273
863.108	18270
863.24	18490
863.372	18182
863.504	18224
863.636	18144
863.768	18133
863.9	18098
864.032	18079
864.164	18079
864.296	18182
864.428	18300
864.559	18159
864.691	18232
864.823	18152
864.954	18121
865.086	18155
865.217	18201
865.349	17977
865.48	18060
865.612	18129
865.743	18117
865.875	18087
866.006	18022
866.137	17984
866.269	18186
866.4	18079
866.531	17920
866.662	17988
866.793	17942
866.924	18019
867.055	18110
867.186	18064
867.317	17992
867.448	17950
867.579	18019
867.71	17939
867.841	18003
867.972	18110
868.103	17927
868.233	18057
868.364	17946
868.495	18121
868.625	18205
868.756	18376
868.886	18216
869.017	18197
869.147	18254
869.278	18422
869.408	18201
869.539	18228
869.669	18289
869.799	18258
869.929	18369
870.06	18327
870.19	18429
870.32	18414
870.45	18608
870.58	18738
870.71	18787
870.84	18700
870.97	18471
871.1	18513
871.23	18817
871.36	18837
871.489	18700
871.619	18768
871.749	18821
871.879	18875
872.008	18920
872.138	18768
872.267	18859
872.397	18722
872.526	18703
872.656	18620
872.785	18604
872.915	18688
873.044	18829
873.173	18966
873.303	18909
873.432	18878
873.561	18897
873.69	18821
873.819	18791
873.948	18954
874.077	18859
874.206	18859
874.335	18935
874.464	19088
874.593	19141
874.722	18989
874.851	19171
874.979	19110
875.108	19198
875.237	19019
875.365	18989
875.494	19076
875.623	19122
875.751	19160
875.88	19152
876.008	19362
876.136	19407
876.265	19483
876.393	19628
876.521	19590
876.65	19666
876.778	19441
876.906	19396
877.034	19582
877.162	19502
877.29	19430
877.418	19480
877.546	19609
877.674	19487
877.802	19476
877.93	19491
878.058	19445
878.185	19362
878.313	19514
878.441	19476
878.568	19388
878.696	19491
878.824	19586
878.951	19616
879.079	19559
879.206	19921
879.333	19662
879.461	19605
879.588	19586
879.715	19693
879.842	19791
879.97	19609
880.097	19331
880.224	19362
880.351	19320
880.478	19449
880.605	19335
880.732	19358
880.859	19597
880.986	19419
881.112	19373
881.239	19251
881.366	19084
881.493	19129
881.619	18909
881.746	18970
881.872	19038
881.999	18966
882.125	18939
882.252	18951
882.378	18966
882.505	19091
882.631	18962
882.757	18749
882.883	18802
883.01	18802
883.136	18711
883.262	18566
883.388	18582
883.514	18741
883.64	18757
883.766	18715
883.892	18582
884.018	18684
884.143	18642
884.269	18764
884.395	18623
884.52	18426
884.646	18369
884.772	18460
884.897	18319
885.023	18422
885.148	18589
885.274	18494
885.399	18544
885.524	18460
885.65	18418
885.775	18547
885.9	18357
886.025	18483
886.15	18376
886.275	18399
886.4	18334
886.525	18285
886.65	18361
886.775	18285
886.9	18521
887.025	18525
887.149	18532
887.274	18098
887.399	18106
887.523	18125
887.648	18106
887.773	18060
887.897	18254
888.021	18053
888.146	18117
888.27	18247
888.395	18289
888.519	18213
888.643	18171
888.767	18125
888.891	18011
889.015	18015
889.139	18072
889.263	17904
889.387	18228
889.511	18251
889.635	18083
889.759	17969
889.883	17855
890.006	17984
890.13	18053
890.254	17904
890.377	17954
890.501	17733
890.624	17783
890.748	17722
890.871	17714
890.995	17604
891.118	17497
891.241	17638
891.364	17695
891.488	17741
891.611	17604
891.734	17558
891.857	17638
891.98	17653
892.103	17821
892.226	17699
892.349	17433
892.471	17478
892.594	17501
892.717	17532
892.839	17505
892.962	17566
893.085	17581
893.207	17604
893.33	17505
893.452	17524
893.575	17577
893.697	17547
893.819	17718
893.941	17775
894.064	17665
894.186	17619
894.308	17535
894.43	17680
894.552	17756
894.674	17672
894.796	17429
894.918	17573
895.04	17592
895.161	17676
895.283	17634
895.405	17604
895.526	17585
895.648	17562
895.769	17714
895.891	17615
896.012	17668
896.134	17771
896.255	17543
896.376	17638
896.498	17707
896.619	17809
896.74	17672
896.861	17627
896.982	18026
897.103	18102
897.224	17973
897.345	17996
897.466	17889
897.587	17870
897.708	18022
897.828	17878
897.949	17847
898.07	17767
898.19	17904
898.311	17969
898.431	17794
898.552	17931
898.672	17977
898.792	17980
898.913	17824
899.033	17767
899.153	17722
899.273	17611
899.393	17695
899.513	17741
899.633	17676
899.753	17653
899.873	17486
899.993	17653
900.113	17596
900.232	17649
900.352	17638
900.472	17524
900.591	17478
900.711	17509
900.83	17497
900.95	17558
901.069	17596
901.189	17414
901.308	17250
901.427	17197
901.546	17151
901.665	17132
901.784	17090
901.904	16976
902.023	16949
902.141	16656
902.26	16634
902.379	16672
902.498	16630
902.617	16584
902.735	16569
902.854	16607
902.973	16577
903.091	16394
903.21	16356
903.328	16337
903.446	16238
903.565	16147
903.683	16128
903.801	16071
903.919	16067
904.038	16040
904.156	15926
904.274	15937
904.392	15895
904.51	15785
904.627	15854
904.745	16002
904.863	16010
904.981	15728
905.098	15538
905.216	15622
905.334	15576
905.451	15595
905.569	15633
905.686	15511
905.803	15599
905.921	15321
906.038	15469
906.155	15538
906.272	15321
906.389	15302
906.506	15123
906.623	15146
906.74	15051
906.857	14986
906.974	15058
907.091	15256
907.208	15306
907.324	15176
907.441	15043
907.557	14853
907.674	14845
907.79	14838
907.907	14792
908.023	14868
908.139	14811
908.256	14724
908.372	14705
908.488	14655
908.604	14602
908.72	14632
908.836	14571
908.952	14469
909.068	14587
909.184	14655
909.3	14575
909.415	14606
909.531	14579
909.647	14294
909.762	14240
909.878	14263
909.993	14187
910.108	14244
910.224	14187
910.339	14248
910.454	14126
910.57	14046
910.685	13986
910.8	14305
910.915	14263
911.03	14218
911.145	13868
911.259	13967
911.374	13845
911.489	13788
911.604	13769
911.718	13681
911.833	13636
911.947	13506
912.062	13548
912.176	13681
912.291	13609
912.405	13636
912.519	13738
912.633	13822
912.748	13696
912.862	13636
912.976	13525
913.09	13369
913.204	13468
913.318	13514
913.431	13529
913.545	13548
913.659	13540
913.772	13529
913.886	13358
914	13255
914.113	13422
914.226	13487
914.34	13441
914.453	13175
914.566	13324
914.68	13217
914.793	13168
914.906	12981
915.019	13019
915.132	12920
915.245	12977
915.358	13072
915.47	12981
915.583	13061
915.696	13034
915.809	13126
915.921	13160
916.034	12970
916.146	12935
916.259	12856
916.371	12947
916.483	13027
916.595	12856
916.708	12829
916.82	12840
916.932	12901
917.044	12779
917.156	12795
917.268	12646
917.38	12745
917.491	12711
917.603	12688
917.715	12738
917.826	12738
917.938	12700
918.049	12578
918.161	12707
918.272	12760
918.384	12795
918.495	12665
918.606	12513
918.717	12486
918.828	12601
918.939	12646
919.05	12441
919.161	12601
919.272	12315
919.383	12395
919.494	12498
919.604	12692
919.715	12467
919.826	12471
919.936	12395
920.047	12551
920.157	12479
920.267	12673
920.378	12517
920.488	12445
920.598	12669
920.708	12802
920.818	12631
920.928	12517
921.038	12825
921.148	12707
921.258	12509
921.368	12361
921.477	12296
921.587	12270
921.697	12148
921.806	12273
921.916	12194
922.025	11988
922.134	11965
922.244	11904
922.353	12083
922.462	11760
922.571	11729
922.68	11653
922.789	11585
922.898	11691
923.007	11543
923.116	11524
923.224	11581
923.333	11551
923.442	11398
923.55	11463
923.659	11429
923.767	11554
923.876	11444
923.984	11539
924.092	11337
924.201	11444
924.309	11372
924.417	11398
924.525	11341
924.633	11376
924.741	12311
924.849	11151
924.956	11265
925.064	11140
925.172	11090
925.279	11124
925.387	11083
925.494	11102
925.602	11258
925.709	11151
925.816	11041
925.924	11003
926.031	11086
926.138	11079
926.245	11124
926.352	11022
926.459	11178
926.566	11159
926.673	11079
926.779	10957
926.886	10949
926.993	10816
927.099	10714
927.206	10786
927.312	10744
927.419	10786
927.525	10752
927.631	10812
927.737	10603
927.843	10546
927.95	10516
928.056	10580
928.162	10637
928.267	10645
928.373	11201
928.479	10630
928.585	10493
928.69	10622
928.796	10527
928.901	10428
929.007	10306
929.112	10459
929.218	10421
929.323	10348
929.428	10356
929.533	10440
929.638	10249
929.743	10379
929.848	10386
929.953	10322
930.058	10192
930.163	10120
930.267	10067
930.372	10188
930.477	10158
930.581	10196
930.685	10112
930.79	9979
930.894	9956
930.998	9934
931.103	10109
931.207	9755
931.311	9671
931.415	9572
931.519	9477
931.623	9412
