Data from test_V78500241_1222.txt Node
Date: Fri Mar 25 14:42:13 CST 2022
User: usil
Spectrometer: V785-0024
Trigger mode: 0
Integration Time (sec): 4.000000E-1
Scans to average: 1
Nonlinearity correction enabled: false
Boxcar width: 0
Storing dark spectrum: false
XAxis mode: Wavelengths
Number of Pixels in Spectrum: 1024
>>>>>Begin Spectral Data<<<<<
801.071	22341
801.214	22238
801.356	21983
801.499	21956
801.641	21724
801.783	21778
801.926	21785
802.068	21709
802.211	21705
802.353	21511
802.496	21291
802.638	21252
802.78	21230
802.923	21241
803.065	21005
803.208	21108
803.35	21138
803.492	21291
803.635	21192
803.777	21169
803.919	21154
804.061	21481
804.204	21154
804.346	21058
804.488	21009
804.63	20956
804.773	20937
804.915	20963
805.057	21287
805.199	21032
805.341	21096
805.483	21058
805.626	21116
805.768	20960
805.91	21138
806.052	21096
806.194	21028
806.336	21188
806.478	21070
806.62	21036
806.762	21154
806.904	21245
807.046	21348
807.188	21317
807.33	21405
807.472	21424
807.614	21424
807.756	21496
807.898	21325
808.04	21020
808.182	21169
808.324	21176
808.465	21214
808.607	21264
808.749	21431
808.891	21515
809.033	21724
809.174	21572
809.316	21431
809.458	21408
809.6	21435
809.741	21530
809.883	21454
810.025	21736
810.166	21648
810.308	21614
810.45	21618
810.591	21496
810.733	21355
810.875	21310
811.016	21066
811.158	21051
811.299	21332
811.441	21370
811.582	21348
811.724	21249
811.865	21218
812.007	21192
812.148	21161
812.29	21256
812.431	21367
812.573	21462
812.714	21424
812.855	21587
812.997	21797
813.138	21899
813.279	21823
813.421	21644
813.562	21614
813.703	21507
813.845	21294
813.986	21005
814.127	20960
814.268	20845
814.41	20891
814.551	20762
814.692	20781
814.833	20606
814.974	20594
815.115	20754
815.256	20594
815.397	20583
815.539	20670
815.68	20530
815.821	20507
815.962	20587
816.103	20450
816.244	20347
816.385	20313
816.526	20244
816.666	20119
816.807	19917
816.948	20001
817.089	20012
817.23	19909
817.371	20012
817.512	19799
817.653	19879
817.793	19860
817.934	19894
818.075	19959
818.216	19928
818.356	19852
818.497	19719
818.638	19521
818.778	19472
818.919	19658
819.06	19609
819.2	19742
819.341	19742
819.481	19830
819.622	19928
819.762	20092
819.903	19963
820.043	20046
820.184	19826
820.324	19849
820.465	19936
820.605	19970
820.746	19803
820.886	19746
821.026	19849
821.167	19887
821.307	20016
821.447	19791
821.588	19685
821.728	19533
821.868	19533
822.008	19354
822.149	19236
822.289	19289
822.429	19004
822.569	18886
822.709	18970
822.849	18844
822.99	18829
823.13	18738
823.27	18734
823.41	18654
823.55	18574
823.69	18555
823.83	18574
823.97	18475
824.11	18433
824.25	18388
824.389	18346
824.529	18490
824.669	18311
824.809	18490
824.949	18361
825.089	18323
825.228	18426
825.368	18163
825.508	18148
825.648	18152
825.787	18163
825.927	18213
826.067	17931
826.206	18125
826.346	18273
826.485	18338
826.625	18102
826.765	18171
826.904	18178
827.044	17927
827.183	17882
827.323	17798
827.462	17961
827.601	17885
827.741	17775
827.88	17847
828.02	17798
828.159	17851
828.298	17942
828.437	17939
828.577	17805
828.716	17840
828.855	17851
828.994	17585
829.134	17585
829.273	17653
829.412	17543
829.551	17497
829.69	17619
829.829	17665
829.968	17733
830.107	17699
830.246	17539
830.385	17657
830.524	17581
830.663	17490
830.802	17341
830.941	17261
831.08	17128
831.219	17330
831.357	17353
831.496	17410
831.635	17162
831.774	17140
831.913	17216
832.051	16991
832.19	16949
832.329	17151
832.467	16911
832.606	16915
832.744	16949
832.883	16896
833.022	16847
833.16	17006
833.299	16987
833.437	16976
833.576	16995
833.714	16953
833.852	16984
833.991	16980
834.129	17155
834.267	17079
834.406	16987
834.544	16953
834.682	16976
834.821	17022
834.959	17143
835.097	16968
835.235	17090
835.373	16980
835.511	16957
835.65	16911
835.788	16930
835.926	16759
836.064	16729
836.202	16687
836.34	16987
836.478	16911
836.615	16976
836.753	16938
836.891	16892
837.029	16915
837.167	16904
837.305	16900
837.443	16809
837.58	16733
837.718	16858
837.856	16828
837.993	16729
838.131	16771
838.269	16698
838.406	16774
838.544	16668
838.681	16516
838.819	16474
838.956	16375
839.094	16226
839.231	16348
839.369	16516
839.506	16736
839.643	16516
839.781	16371
839.918	16272
840.055	16276
840.193	16310
840.33	16287
840.467	16344
840.604	16303
840.742	16653
840.879	16249
841.016	16246
841.153	16234
841.29	16367
841.427	16280
841.564	16226
841.701	16371
841.838	16261
841.975	16181
842.112	16166
842.249	16147
842.385	16090
842.522	16344
842.659	16074
842.796	16097
842.933	16158
843.069	15934
843.206	16032
843.343	16177
843.479	16097
843.616	16154
843.752	15911
843.889	15880
844.025	16116
844.162	15823
844.298	15899
844.435	15793
844.571	15934
844.708	15926
844.844	16051
844.98	16135
845.117	16048
845.253	15732
845.389	15736
845.525	15895
845.661	15819
845.798	15705
845.934	15857
846.07	15717
846.206	15895
846.342	15972
846.478	15701
846.614	15523
846.75	15458
846.886	15431
847.022	15526
847.158	15500
847.294	15504
847.429	15591
847.565	15397
847.701	15641
847.837	15222
847.972	15180
848.108	15351
848.244	15241
848.379	15116
848.515	15043
848.65	15001
848.786	15100
848.921	15055
849.057	15214
849.192	15142
849.328	15066
849.463	15001
849.598	15005
849.734	14986
849.869	15032
850.004	14739
850.14	14914
850.275	14823
850.41	14792
850.545	14807
850.68	14743
850.815	14785
850.95	14815
851.085	14921
851.22	14925
851.355	14864
851.49	14727
851.625	14819
851.76	14727
851.895	14769
852.03	14750
852.165	14705
852.299	14834
852.434	14853
852.569	14937
852.703	14857
852.838	14868
852.973	14967
853.107	14883
853.242	14842
853.376	14769
853.511	14579
853.645	14629
853.78	14819
853.914	14800
854.048	14667
854.183	14541
854.317	14598
854.451	14842
854.585	14632
854.72	14613
854.854	14689
854.988	14716
855.122	14587
855.256	14541
855.39	14648
855.524	14788
855.658	14762
855.792	14743
855.926	14743
856.06	14727
856.194	14792
856.327	14758
856.461	14648
856.595	14533
856.729	14636
856.862	14773
856.996	14735
857.13	14815
857.263	14750
857.397	14785
857.53	14617
857.664	14746
857.797	14777
857.931	14792
858.064	14621
858.197	14750
858.331	14731
858.464	14583
858.597	14682
858.731	14629
858.864	14670
858.997	14701
859.13	14781
859.263	14781
859.396	14743
859.529	14674
859.662	14629
859.795	14697
859.928	14708
860.061	14792
860.194	14819
860.327	14670
860.46	14648
860.592	14826
860.725	14842
860.858	14861
860.99	14701
861.123	14613
861.256	14579
861.388	14716
861.521	15412
861.653	14587
861.786	14473
861.918	14545
862.05	14644
862.183	14594
862.315	14659
862.447	14693
862.58	14663
862.712	14495
862.844	14434
862.976	14575
863.108	14575
863.24	14944
863.372	14374
863.504	14465
863.636	14415
863.768	14526
863.9	14389
864.032	14438
864.164	14511
864.296	14446
864.428	14526
864.559	14571
864.691	14549
864.823	14492
864.954	14431
865.086	14457
865.217	14530
865.349	14446
865.48	14541
865.612	14385
865.743	14518
865.875	14507
866.006	14438
866.137	14454
866.269	14415
866.4	14503
866.531	14347
866.662	14332
866.793	14400
866.924	14343
867.055	14476
867.186	14374
867.317	14408
867.448	14366
867.579	14385
867.71	14275
867.841	14366
867.972	14415
868.103	14396
868.233	14389
868.364	14400
868.495	14480
868.625	14697
868.756	14781
868.886	14564
869.017	14632
869.147	14815
869.278	14826
869.408	14693
869.539	14701
869.669	14720
869.799	14727
869.929	14781
870.06	14785
870.19	14887
870.32	14887
870.45	15043
870.58	15097
870.71	15184
870.84	15195
870.97	14979
871.1	15051
871.23	15313
871.36	15325
871.489	15081
871.619	15154
871.749	15287
871.879	15317
872.008	15420
872.138	15279
872.267	15260
872.397	15154
872.526	15192
872.656	15116
872.785	15051
872.915	15275
873.044	15332
873.173	15313
873.303	15332
873.432	15348
873.561	15500
873.69	15279
873.819	15363
873.948	15424
874.077	15336
874.206	15321
874.335	15386
874.464	15515
874.593	15561
874.722	15507
874.851	15679
874.979	15671
875.108	15709
875.237	15599
875.365	15473
875.494	15530
875.623	15755
875.751	15492
875.88	15774
876.008	15686
876.136	15850
876.265	16067
876.393	16192
876.521	16169
876.65	16025
876.778	16017
876.906	16036
877.034	15918
877.162	16017
877.29	16055
877.418	16029
877.546	16044
877.674	16025
877.802	16036
877.93	16055
878.058	16078
878.185	15991
878.313	15915
878.441	16112
878.568	15949
878.696	15934
878.824	16055
878.951	16181
879.079	16162
879.206	16356
879.333	16234
879.461	16109
879.588	16139
879.715	16318
879.842	16314
879.97	16188
880.097	15956
880.224	15915
880.351	15846
880.478	15991
880.605	15747
880.732	15895
880.859	16200
880.986	15949
881.112	15922
881.239	15876
881.366	15732
881.493	15603
881.619	15599
881.746	15542
881.872	15538
881.999	15511
882.125	15481
882.252	15629
882.378	15625
882.505	15595
882.631	15435
882.757	15310
882.883	15447
883.01	15393
883.136	15374
883.262	15329
883.388	15249
883.514	15412
883.64	15462
883.766	15408
883.892	15173
884.018	15142
884.143	15348
884.269	15473
884.395	15104
884.52	15051
884.646	15036
884.772	15009
884.897	14971
885.023	15032
885.148	15226
885.274	15256
885.399	15161
885.524	15154
885.65	15013
885.775	15157
885.9	15028
886.025	15131
886.15	15184
886.275	15074
886.4	14986
886.525	15108
886.65	15024
886.775	15104
886.9	15192
887.025	15283
887.149	15127
887.274	14914
887.399	14819
887.523	14864
887.648	14857
887.773	14887
887.897	14902
888.021	14933
888.146	14918
888.27	15039
888.395	15039
888.519	14948
888.643	14963
888.767	14975
888.891	14796
889.015	14712
889.139	14743
889.263	14705
889.387	14823
889.511	14982
889.635	14864
889.759	14804
889.883	14762
890.006	14800
890.13	14864
890.254	14625
890.377	14705
890.501	14511
890.624	14617
890.748	14412
890.871	14579
890.995	14328
891.118	14339
891.241	14431
891.364	14366
891.488	14514
891.611	14412
891.734	14434
891.857	14431
891.98	14393
892.103	14495
892.226	14568
892.349	14438
892.471	14355
892.594	14461
892.717	14366
892.839	14431
892.962	14370
893.085	14492
893.207	14450
893.33	14290
893.452	14393
893.575	14457
893.697	14457
893.819	14621
893.941	14693
894.064	14568
894.186	14446
894.308	14400
894.43	14488
894.552	14575
894.674	14549
894.796	14377
894.918	14446
895.04	14358
895.161	14571
895.283	14583
895.405	14461
895.526	14450
895.648	14404
895.769	14514
895.891	14514
896.012	14621
896.134	14720
896.255	14674
896.376	14590
896.498	14621
896.619	14533
896.74	14636
896.861	14625
896.982	14861
897.103	15017
897.224	14883
897.345	14785
897.466	14765
897.587	14868
897.708	14910
897.828	15001
897.949	14819
898.07	14777
898.19	14861
898.311	14891
898.431	14765
898.552	14948
898.672	15017
898.792	14956
898.913	14929
899.033	14925
899.153	14838
899.273	14697
899.393	14800
899.513	14815
899.633	14845
899.753	14777
899.873	14792
899.993	14815
900.113	14670
900.232	14697
900.352	14823
900.472	14678
900.591	14552
900.711	14651
900.83	14541
900.95	14686
901.069	14670
901.189	14507
901.308	14381
901.427	14252
901.546	14275
901.665	14393
901.784	14252
901.904	14183
902.023	14043
902.141	13925
902.26	13830
902.379	13989
902.498	13963
902.617	13814
902.735	13955
902.854	13803
902.973	13883
903.091	13605
903.21	13609
903.328	13506
903.446	13457
903.565	13533
903.683	13491
903.801	13327
903.919	13460
904.038	13362
904.156	13316
904.274	13362
904.392	13255
904.51	13225
904.627	13244
904.745	13331
904.863	13282
904.981	12981
905.098	12913
905.216	12939
905.334	13034
905.451	12935
905.569	12875
905.686	12962
905.803	12924
905.921	12814
906.038	12909
906.155	12741
906.272	12627
906.389	12654
906.506	12563
906.623	12585
906.74	12490
906.857	12407
906.974	12452
907.091	12585
907.208	12707
907.324	12616
907.441	12437
907.557	12262
907.674	12353
907.79	12251
907.907	12277
908.023	12270
908.139	12323
908.256	12175
908.372	12194
908.488	12224
908.604	12076
908.72	12038
908.836	12003
908.952	11996
909.068	12064
909.184	12163
909.3	12015
909.415	12167
909.531	11992
909.647	11809
909.762	11790
909.878	11847
909.993	11798
910.108	11745
910.224	11756
910.339	11843
910.454	11764
910.57	11668
910.685	11562
910.8	11897
910.915	11809
911.03	11680
911.145	11512
911.259	11505
911.374	11452
911.489	11341
911.604	11330
911.718	11273
911.833	11220
911.947	11121
912.062	11132
912.176	11258
912.291	11288
912.405	11303
912.519	11455
912.633	11395
912.748	11356
912.862	11376
912.976	11136
913.09	11060
913.204	11151
913.318	11166
913.431	11181
913.545	11254
913.659	11261
913.772	11140
913.886	11045
914	10938
914.113	11083
914.226	11117
914.34	11121
914.453	10934
914.566	11071
914.68	10965
914.793	11022
914.906	10691
915.019	10702
915.132	10706
915.245	10767
915.358	10714
915.47	10729
915.583	10767
915.696	10820
915.809	10892
915.921	10904
916.034	10691
916.146	10748
916.259	10683
916.371	10831
916.483	10740
916.595	10691
916.708	10618
916.82	10630
916.932	10759
917.044	10679
917.156	10626
917.268	10611
917.38	10523
917.491	10516
917.603	10542
917.715	10683
917.826	10717
917.938	10531
918.049	10421
918.161	10569
918.272	10725
918.384	10683
918.495	10573
918.606	10382
918.717	10367
918.828	10478
918.939	10474
919.05	10360
919.161	10417
919.272	10124
919.383	10249
919.494	10531
919.604	10599
919.715	10459
919.826	10402
919.936	10352
920.047	10500
920.157	10497
920.267	10607
920.378	10478
920.488	10519
920.598	10622
920.708	10809
920.818	10641
920.928	10634
921.038	10786
921.148	10771
921.258	10512
921.368	10371
921.477	10386
921.587	10249
921.697	10238
921.806	10405
921.916	10169
922.025	9979
922.134	10051
922.244	9945
922.353	10067
922.462	9846
922.571	9854
922.68	9690
922.789	9652
922.898	9667
923.007	9610
923.116	9625
923.224	9690
923.333	9663
923.442	9610
923.55	9542
923.659	9564
923.767	9618
923.876	9469
923.984	9591
924.092	9428
924.201	9587
924.309	9469
924.417	9534
924.525	9542
924.633	9454
924.741	10246
924.849	9302
924.956	9500
925.064	9313
925.172	9306
925.279	9256
925.387	9374
925.494	9279
925.602	9488
925.709	9454
925.816	9211
925.924	9351
926.031	9428
926.138	9325
926.245	9447
926.352	9317
926.459	9401
926.566	9325
926.673	9241
926.779	9241
926.886	9131
926.993	9043
927.099	8994
927.206	8948
927.312	9043
927.419	9108
927.525	9013
927.631	9135
927.737	9001
927.843	8956
927.95	8750
928.056	8975
928.162	9005
928.267	8990
928.373	9507
928.479	8986
928.585	8815
928.69	8906
928.796	8925
928.901	8853
929.007	8693
929.112	8880
929.218	8800
929.323	8754
929.428	8750
929.533	8872
929.638	8693
929.743	8750
929.848	8708
929.953	8670
930.058	8583
930.163	8488
930.267	8564
930.372	8640
930.477	8545
930.581	8731
930.685	8610
930.79	8488
930.894	8503
930.998	8427
931.103	8545
931.207	8214
931.311	8183
931.415	8145
931.519	7909
931.623	7951
