Data from test_V78500241_3136.txt Node
Date: Fri Mar 25 14:55:33 CST 2022
User: usil
Spectrometer: V785-0024
Trigger mode: 0
Integration Time (sec): 4.000000E-1
Scans to average: 1
Nonlinearity correction enabled: false
Boxcar width: 0
Storing dark spectrum: false
XAxis mode: Wavelengths
Number of Pixels in Spectrum: 1024
>>>>>Begin Spectral Data<<<<<
801.071	22048
801.214	21956
801.356	21694
801.499	21507
801.641	21420
801.783	21408
801.926	21557
802.068	21268
802.211	21340
802.353	21142
802.496	20998
802.638	20921
802.78	20895
802.923	20948
803.065	20819
803.208	20670
803.35	20693
803.492	20800
803.635	20857
803.777	20815
803.919	20811
804.061	21032
804.204	20830
804.346	20777
804.488	20689
804.63	20838
804.773	20465
804.915	20735
805.057	20655
805.199	20590
805.341	20743
805.483	20796
805.626	20575
805.768	20514
805.91	20674
806.052	20674
806.194	20632
806.336	20826
806.478	20590
806.62	20583
806.762	20777
806.904	20918
807.046	20994
807.188	21024
807.33	21062
807.472	21028
807.614	20910
807.756	20880
807.898	20819
808.04	20712
808.182	20678
808.324	20807
808.465	20800
808.607	21043
808.749	21024
808.891	21150
809.033	21249
809.174	21077
809.316	20998
809.458	21055
809.6	21020
809.741	21123
809.883	21112
810.025	21169
810.166	21317
810.308	21184
810.45	21081
810.591	21036
810.733	20990
810.875	20815
811.016	20667
811.158	20781
811.299	20823
811.441	20979
811.582	20891
811.724	20811
811.865	20750
812.007	20716
812.148	20632
812.29	20823
812.431	20880
812.573	21104
812.714	21230
812.855	21363
812.997	21302
813.138	21614
813.279	21477
813.421	21389
813.562	21096
813.703	20937
813.845	20914
813.986	20640
814.127	20454
814.268	20408
814.41	20366
814.551	20278
814.692	20423
814.833	20278
814.974	20298
815.115	20218
815.256	20221
815.397	20267
815.539	20290
815.68	20016
815.821	20115
815.962	20202
816.103	20058
816.244	20043
816.385	19814
816.526	19822
816.666	19658
816.807	19548
816.948	19582
817.089	19624
817.23	19464
817.371	19487
817.512	19563
817.653	19472
817.793	19460
817.934	19525
818.075	19567
818.216	19476
818.356	19449
818.497	19354
818.638	19164
818.778	19156
818.919	19190
819.06	19236
819.2	19270
819.341	19297
819.481	19403
819.622	19510
819.762	19746
819.903	19590
820.043	19499
820.184	19552
820.324	19388
820.465	19464
820.605	19365
820.746	19514
820.886	19403
821.026	19495
821.167	19377
821.307	19487
821.447	19316
821.588	19343
821.728	19217
821.868	19069
822.008	18859
822.149	18829
822.289	18795
822.429	18547
822.569	18525
822.709	18475
822.849	18346
822.99	18426
823.13	18247
823.27	18330
823.41	18235
823.55	18117
823.69	18186
823.83	18106
823.97	18125
824.11	17939
824.25	17783
824.389	17942
824.529	18079
824.669	17851
824.809	18060
824.949	17965
825.089	17851
825.228	17794
825.368	17783
825.508	17676
825.648	17699
825.787	17779
825.927	17745
826.067	17684
826.206	17638
826.346	17687
826.485	17600
826.625	17699
826.765	17752
826.904	17718
827.044	17532
827.183	17345
827.323	17421
827.462	17497
827.601	17368
827.741	17440
827.88	17288
828.02	17223
828.159	17379
828.298	17356
828.437	17425
828.577	17265
828.716	17474
828.855	17299
828.994	17143
829.134	17045
829.273	17128
829.412	17155
829.551	17067
829.69	17045
829.829	17128
829.968	17258
830.107	17242
830.246	17147
830.385	17048
830.524	17086
830.663	17022
830.802	16896
830.941	16782
831.08	16736
831.219	16919
831.357	16816
831.496	16850
831.635	16740
831.774	16778
831.913	16599
832.051	16523
832.19	16538
832.329	16459
832.467	16443
832.606	16375
832.744	16379
832.883	16519
833.022	16386
833.16	16478
833.299	16424
833.437	16497
833.576	16462
833.714	16455
833.852	16504
833.991	16443
834.129	16535
834.267	16527
834.406	16428
834.544	16443
834.682	16512
834.821	16440
834.959	16683
835.097	16424
835.235	16573
835.373	16489
835.511	16558
835.65	16409
835.788	16413
835.926	16238
836.064	16295
836.202	16215
836.34	16440
836.478	16466
836.615	16432
836.753	16440
836.891	16459
837.029	16417
837.167	16344
837.305	16356
837.443	16185
837.58	16154
837.718	16363
837.856	16238
837.993	16249
838.131	16242
838.269	16246
838.406	16204
838.544	16097
838.681	15975
838.819	15934
838.956	15705
839.094	15766
839.231	15835
839.369	15831
839.506	16181
839.643	16021
839.781	15793
839.918	15819
840.055	15797
840.193	15842
840.33	15618
840.467	15739
840.604	15816
840.742	16082
840.879	15667
841.016	15663
841.153	15671
841.29	15895
841.427	15793
841.564	15934
841.701	15755
841.838	15812
841.975	15739
842.112	15743
842.249	15652
842.385	15641
842.522	15743
842.659	15644
842.796	15534
842.933	15557
843.069	15526
843.206	15450
843.343	15606
843.479	15652
843.616	15675
843.752	15393
843.889	15412
844.025	15496
844.162	15374
844.298	15488
844.435	15439
844.571	15268
844.708	15420
844.844	15443
844.98	15504
845.117	15466
845.253	15279
845.389	15336
845.525	15397
845.661	15348
845.798	15150
845.934	15165
846.07	15256
846.206	15256
846.342	15340
846.478	15287
846.614	15104
846.75	14838
846.886	14975
847.022	14975
847.158	14960
847.294	15036
847.429	15032
847.565	14948
847.701	15306
847.837	14830
847.972	14651
848.108	14792
848.244	14800
848.379	14640
848.515	14629
848.65	14503
848.786	14545
848.921	14537
849.057	14682
849.192	14640
849.328	14632
849.463	14602
849.598	14541
849.734	14518
849.869	14484
850.004	14396
850.14	14419
850.275	14381
850.41	14309
850.545	14415
850.68	14290
850.815	14400
850.95	14343
851.085	14564
851.22	14355
851.355	14355
851.49	14324
851.625	14157
851.76	14298
851.895	14206
852.03	14195
852.165	14381
852.299	14355
852.434	14446
852.569	14347
852.703	14366
852.838	14381
852.973	14507
853.107	14473
853.242	14381
853.376	14256
853.511	14103
853.645	14214
853.78	14336
853.914	14214
854.048	14218
854.183	14138
854.317	14168
854.451	14385
854.585	14172
854.72	14229
854.854	14339
854.988	14134
855.122	14275
855.256	14172
855.39	14153
855.524	14351
855.658	14237
855.792	14176
855.926	14233
856.06	14370
856.194	14339
856.327	14054
856.461	14100
856.595	14130
856.729	14142
856.862	14221
856.996	14263
857.13	14301
857.263	14400
857.397	14362
857.53	14278
857.664	14218
857.797	14332
857.931	14278
858.064	14278
858.197	14313
858.331	14218
858.464	14176
858.597	14107
858.731	14210
858.864	14191
858.997	14172
859.13	14256
859.263	14157
859.396	14301
859.529	14191
859.662	14149
859.795	14107
859.928	14168
860.061	14396
860.194	14298
860.327	14282
860.46	14218
860.592	14328
860.725	14339
860.858	14317
860.99	14225
861.123	14191
861.256	14187
861.388	14355
861.521	14899
861.653	14115
861.786	14050
861.918	14031
862.05	14161
862.183	14138
862.315	14153
862.447	14301
862.58	14134
862.712	14035
862.844	13917
862.976	13997
863.108	14130
863.24	14381
863.372	13909
863.504	13936
863.636	13989
863.768	14081
863.9	13982
864.032	14016
864.164	13993
864.296	14027
864.428	14111
864.559	14077
864.691	14199
864.823	14073
864.954	13970
865.086	14027
865.217	13921
865.349	13921
865.48	14016
865.612	14005
865.743	14134
865.875	13967
866.006	13909
866.137	14005
866.269	13967
866.4	13993
866.531	13868
866.662	13879
866.793	13967
866.924	13909
867.055	13959
867.186	13963
867.317	13940
867.448	13852
867.579	13993
867.71	13917
867.841	13814
867.972	13978
868.103	13909
868.233	14031
868.364	14005
868.495	13955
868.625	14221
868.756	14214
868.886	14199
869.017	14210
869.147	14343
869.278	14290
869.408	14301
869.539	14282
869.669	14187
869.799	14290
869.929	14278
870.06	14355
870.19	14476
870.32	14552
870.45	14514
870.58	14644
870.71	14758
870.84	14632
870.97	14674
871.1	14632
871.23	14746
871.36	14872
871.489	14549
871.619	14815
871.749	14819
871.879	14906
872.008	14899
872.138	14857
872.267	14765
872.397	14697
872.526	14674
872.656	14579
872.785	14640
872.915	14887
873.044	14960
873.173	14849
873.303	14914
873.432	14857
873.561	14826
873.69	14807
873.819	14868
873.948	14941
874.077	14861
874.206	14807
874.335	14876
874.464	15062
874.593	15188
874.722	15112
874.851	15211
874.979	15203
875.108	15355
875.237	15142
875.365	15085
875.494	15100
875.623	15275
875.751	15180
875.88	15233
876.008	15378
876.136	15447
876.265	15614
876.393	15637
876.521	15698
876.65	15709
876.778	15610
876.906	15549
877.034	15641
877.162	15530
877.29	15519
877.418	15538
877.546	15709
877.674	15656
877.802	15671
877.93	15656
878.058	15523
878.185	15504
878.313	15557
878.441	15637
878.568	15416
878.696	15564
878.824	15603
878.951	15633
879.079	15785
879.206	15934
879.333	15842
879.461	15633
879.588	15808
879.715	15755
879.842	15869
879.97	15698
880.097	15488
880.224	15420
880.351	15572
880.478	15412
880.605	15321
880.732	15443
880.859	15694
880.986	15492
881.112	15485
881.239	15275
881.366	15165
881.493	15188
881.619	15127
881.746	15077
881.872	15058
881.999	15058
882.125	15097
882.252	15184
882.378	15123
882.505	15283
882.631	15108
882.757	14921
882.883	14982
883.01	14918
883.136	14891
883.262	14845
883.388	14765
883.514	14914
883.64	14899
883.766	14857
883.892	14621
884.018	14670
884.143	14944
884.269	14941
884.395	14716
884.52	14621
884.646	14617
884.772	14617
884.897	14545
885.023	14583
885.148	14743
885.274	14804
885.399	14720
885.524	14670
885.65	14693
885.775	14735
885.9	14686
886.025	14826
886.15	14651
886.275	14571
886.4	14526
886.525	14587
886.65	14480
886.775	14583
886.9	14716
887.025	14876
887.149	14560
887.274	14495
887.399	14415
887.523	14446
887.648	14374
887.773	14389
887.897	14552
888.021	14533
888.146	14343
888.27	14644
888.395	14579
888.519	14465
888.643	14583
888.767	14461
888.891	14393
889.015	14259
889.139	14514
889.263	14313
889.387	14374
889.511	14454
889.635	14381
889.759	14294
889.883	14328
890.006	14434
890.13	14381
890.254	14206
890.377	14305
890.501	14149
890.624	14081
890.748	14225
890.871	14084
890.995	13921
891.118	13898
891.241	14073
891.364	14058
891.488	14183
891.611	14065
891.734	14065
891.857	14069
891.98	14058
892.103	14134
892.226	14050
892.349	13970
892.471	13879
892.594	13989
892.717	13986
892.839	13997
892.962	14039
893.085	14107
893.207	14050
893.33	13894
893.452	13906
893.575	14149
893.697	14027
893.819	14202
893.941	14225
894.064	14138
894.186	14035
894.308	14084
894.43	14164
894.552	14275
894.674	14168
894.796	14024
894.918	14081
895.04	14084
895.161	14164
895.283	14149
895.405	14134
895.526	14103
895.648	14149
895.769	14077
895.891	14126
896.012	14267
896.134	14229
896.255	14263
896.376	14195
896.498	14149
896.619	14248
896.74	14237
896.861	14199
896.982	14579
897.103	14689
897.224	14632
897.345	14484
897.466	14442
897.587	14419
897.708	14629
897.828	14533
897.949	14415
898.07	14313
898.19	14492
898.311	14682
898.431	14526
898.552	14533
898.672	14705
898.792	14659
898.913	14617
899.033	14454
899.153	14484
899.273	14240
899.393	14431
899.513	14480
899.633	14370
899.753	14370
899.873	14423
899.993	14434
900.113	14457
900.232	14492
900.352	14339
900.472	14332
900.591	14263
900.711	14275
900.83	14218
900.95	14343
901.069	14339
901.189	14180
901.308	14027
901.427	13925
901.546	13940
901.665	14016
901.784	13967
901.904	13769
902.023	13769
902.141	13616
902.26	13567
902.379	13594
902.498	13400
902.617	13464
902.735	13552
902.854	13533
902.973	13434
903.091	13285
903.21	13255
903.328	13285
903.446	13156
903.565	13091
903.683	13187
903.801	12973
903.919	12985
904.038	13110
904.156	12920
904.274	12973
904.392	12985
904.51	12924
904.627	12932
904.745	12924
904.863	13038
904.981	12608
905.098	12623
905.216	12631
905.334	12604
905.451	12620
905.569	12544
905.686	12650
905.803	12593
905.921	12369
906.038	12578
906.155	12395
906.272	12338
906.389	12254
906.506	12159
906.623	12175
906.74	12178
906.857	12072
906.974	12110
907.091	12311
907.208	12357
907.324	12228
907.441	12117
907.557	11942
907.674	11954
907.79	11942
907.907	11855
908.023	11897
908.139	11866
908.256	11821
908.372	11882
908.488	11885
908.604	11691
908.72	11737
908.836	11783
908.952	11661
909.068	11699
909.184	11760
909.3	11695
909.415	11710
909.531	11729
909.647	11547
909.762	11554
909.878	11516
909.993	11444
910.108	11547
910.224	11444
910.339	11433
910.454	11414
910.57	11391
910.685	11212
910.8	11482
910.915	11528
911.03	11417
911.145	11170
911.259	11136
911.374	11174
911.489	11143
911.604	11025
911.718	10824
911.833	10812
911.947	10824
912.062	10790
912.176	10873
912.291	10881
912.405	10949
912.519	11086
912.633	11136
912.748	10957
912.862	10862
912.976	10839
913.09	10698
913.204	10729
913.318	10835
913.431	10942
913.545	10828
913.659	10915
913.772	10843
913.886	10660
914	10683
914.113	10828
914.226	10847
914.34	10812
914.453	10626
914.566	10767
914.68	10645
914.793	10618
914.906	10447
915.019	10409
915.132	10303
915.245	10382
915.358	10386
915.47	10421
915.583	10508
915.696	10478
915.809	10596
915.921	10615
916.034	10371
916.146	10360
916.259	10455
916.371	10470
916.483	10497
916.595	10382
916.708	10466
916.82	10363
916.932	10363
917.044	10459
917.156	10421
917.268	10257
917.38	10287
917.491	10314
917.603	10280
917.715	10318
917.826	10512
917.938	10227
918.049	10207
918.161	10238
918.272	10489
918.384	10375
918.495	10329
918.606	10192
918.717	10082
918.828	10238
918.939	10287
919.05	10131
919.161	10215
919.272	9949
919.383	10082
919.494	10246
919.604	10436
919.715	10223
919.826	10173
919.936	10158
920.047	10303
920.157	10128
920.267	10440
920.378	10177
920.488	10242
920.598	10382
920.708	10516
920.818	10527
920.928	10436
921.038	10512
921.148	10443
921.258	10200
921.368	10147
921.477	10044
921.587	10093
921.697	9975
921.806	10036
921.916	9930
922.025	9732
922.134	9766
922.244	9698
922.353	9835
922.462	9633
922.571	9656
922.68	9462
922.789	9496
922.898	9515
923.007	9374
923.116	9481
923.224	9439
923.333	9397
923.442	9317
923.55	9313
923.659	9431
923.767	9435
923.876	9233
923.984	9492
924.092	9298
924.201	9321
924.309	9302
924.417	9393
924.525	9233
924.633	9313
924.741	10268
924.849	9108
924.956	9268
925.064	9039
925.172	9001
925.279	9100
925.387	9108
925.494	9116
925.602	9260
925.709	9173
925.816	9131
925.924	9089
926.031	9233
926.138	9100
926.245	9146
926.352	9001
926.459	9127
926.566	9233
926.673	9131
926.779	8941
926.886	8994
926.993	8868
927.099	8857
927.206	8746
927.312	8735
927.419	8830
927.525	8845
927.631	8933
927.737	8724
927.843	8766
927.95	8632
928.056	8754
928.162	8716
928.267	8754
928.373	9226
928.479	8834
928.585	8560
928.69	8716
928.796	8746
928.901	8549
929.007	8503
929.112	8663
929.218	8632
929.323	8568
929.428	8575
929.533	8731
929.638	8473
929.743	8442
929.848	8587
929.953	8545
930.058	8503
930.163	8279
930.267	8351
930.372	8488
930.477	8309
930.581	8541
930.685	8370
930.79	8191
930.894	8309
930.998	8218
931.103	8396
931.207	8058
931.311	7974
931.415	7989
931.519	7738
931.623	7814
