Data from test_V78500241_3262.txt Node
Date: Fri Mar 25 14:56:25 CST 2022
User: usil
Spectrometer: V785-0024
Trigger mode: 0
Integration Time (sec): 4.000000E-1
Scans to average: 1
Nonlinearity correction enabled: false
Boxcar width: 0
Storing dark spectrum: false
XAxis mode: Wavelengths
Number of Pixels in Spectrum: 1024
>>>>>Begin Spectral Data<<<<<
801.071	21972
801.214	21873
801.356	21656
801.499	21587
801.641	21393
801.783	21279
801.926	21488
802.068	21237
802.211	21237
802.353	21077
802.496	20891
802.638	20918
802.78	20758
802.923	20773
803.065	20678
803.208	20697
803.35	20731
803.492	20887
803.635	20883
803.777	20708
803.919	20735
804.061	21074
804.204	20697
804.346	20629
804.488	20613
804.63	20724
804.773	20549
804.915	20629
805.057	20727
805.199	20625
805.341	20587
805.483	20632
805.626	20587
805.768	20476
805.91	20598
806.052	20590
806.194	20552
806.336	20739
806.478	20678
806.62	20644
806.762	20632
806.904	20796
807.046	20994
807.188	20857
807.33	20899
807.472	20887
807.614	20910
807.756	20819
807.898	20670
808.04	20629
808.182	20655
808.324	20731
808.465	20648
808.607	20857
808.749	20941
808.891	20994
809.033	21085
809.174	21001
809.316	20857
809.458	20807
809.6	20781
809.741	20994
809.883	21005
810.025	21077
810.166	20998
810.308	21150
810.45	21043
810.591	21062
810.733	20781
810.875	20659
811.016	20644
811.158	20594
811.299	20667
811.441	20823
811.582	20792
811.724	20606
811.865	20613
812.007	20686
812.148	20697
812.29	20667
812.431	20750
812.573	20998
812.714	21123
812.855	21161
812.997	21393
813.138	21504
813.279	21195
813.421	21104
813.562	21154
813.703	20960
813.845	20746
813.986	20655
814.127	20351
814.268	20313
814.41	20240
814.551	20161
814.692	20377
814.833	20164
814.974	20309
815.115	20374
815.256	20153
815.397	20138
815.539	20221
815.68	19978
815.821	19868
815.962	20100
816.103	19940
816.244	19719
816.385	19685
816.526	19780
816.666	19613
816.807	19282
816.948	19483
817.089	19430
817.23	19411
817.371	19422
817.512	19369
817.653	19339
817.793	19335
817.934	19434
818.075	19411
818.216	19335
818.356	19320
818.497	19282
818.638	19004
818.778	19008
818.919	19038
819.06	19164
819.2	19171
819.341	19320
819.481	19244
819.622	19430
819.762	19480
819.903	19491
820.043	19369
820.184	19438
820.324	19297
820.465	19392
820.605	19297
820.746	19285
820.886	19168
821.026	19282
821.167	19285
821.307	19422
821.447	19324
821.588	19175
821.728	19072
821.868	18867
822.008	18890
822.149	18837
822.289	18753
822.429	18422
822.569	18490
822.709	18437
822.849	18228
822.99	18334
823.13	18220
823.27	18216
823.41	18197
823.55	18011
823.69	18019
823.83	18133
823.97	17916
824.11	17851
824.25	17779
824.389	17874
824.529	17908
824.669	17809
824.809	17973
824.949	17908
825.089	18026
825.228	17897
825.368	17687
825.508	17623
825.648	17642
825.787	17695
825.927	17642
826.067	17623
826.206	17585
826.346	17608
826.485	17604
826.625	17627
826.765	17771
826.904	17581
827.044	17341
827.183	17334
827.323	17334
827.462	17349
827.601	17280
827.741	17242
827.88	17239
828.02	17299
828.159	17288
828.298	17318
828.437	17353
828.577	17208
828.716	17444
828.855	17159
828.994	17098
829.134	17109
829.273	17075
829.412	17037
829.551	16957
829.69	17045
829.829	17128
829.968	17128
830.107	17124
830.246	17079
830.385	17006
830.524	16968
830.663	16809
830.802	16767
830.941	16618
831.08	16736
831.219	16713
831.357	16736
831.496	16824
831.635	16698
831.774	16664
831.913	16542
832.051	16527
832.19	16413
832.329	16523
832.467	16341
832.606	16405
832.744	16462
832.883	16371
833.022	16478
833.16	16344
833.299	16489
833.437	16447
833.576	16398
833.714	16382
833.852	16421
833.991	16478
834.129	16508
834.267	16508
834.406	16542
834.544	16558
834.682	16443
834.821	16466
834.959	16596
835.097	16436
835.235	16550
835.373	16485
835.511	16508
835.65	16318
835.788	16265
835.926	16238
836.064	16234
836.202	16242
836.34	16314
836.478	16561
836.615	16337
836.753	16325
836.891	16333
837.029	16337
837.167	16329
837.305	16249
837.443	16185
837.58	16219
837.718	16371
837.856	16162
837.993	16139
838.131	16188
838.269	16105
838.406	16147
838.544	15964
838.681	15937
838.819	15846
838.956	15854
839.094	15823
839.231	15770
839.369	16032
839.506	16166
839.643	16010
839.781	15838
839.918	15808
840.055	15739
840.193	15789
840.33	15743
840.467	15762
840.604	15804
840.742	15926
840.879	15648
841.016	15720
841.153	15625
841.29	15793
841.427	15816
841.564	15739
841.701	15736
841.838	15728
841.975	15625
842.112	15743
842.249	15599
842.385	15584
842.522	15774
842.659	15507
842.796	15504
842.933	15561
843.069	15416
843.206	15450
843.343	15690
843.479	15633
843.616	15644
843.752	15367
843.889	15378
844.025	15557
844.162	15287
844.298	15458
844.435	15378
844.571	15325
844.708	15401
844.844	15507
844.98	15466
845.117	15412
845.253	15329
845.389	15214
845.525	15233
845.661	15123
845.798	15169
845.934	15154
846.07	15104
846.206	15165
846.342	15264
846.478	15066
846.614	14941
846.75	14762
846.886	14887
847.022	15123
847.158	14921
847.294	14944
847.429	14941
847.565	14944
847.701	15066
847.837	14640
847.972	14705
848.108	14800
848.244	14720
848.379	14568
848.515	14518
848.65	14427
848.786	14514
848.921	14492
849.057	14651
849.192	14659
849.328	14579
849.463	14552
849.598	14564
849.734	14454
849.869	14343
850.004	14320
850.14	14343
850.275	14225
850.41	14225
850.545	14202
850.68	14195
850.815	14263
850.95	14214
851.085	14389
851.22	14450
851.355	14313
851.49	14267
851.625	14271
851.76	14271
851.895	14183
852.03	14180
852.165	14301
852.299	14328
852.434	14313
852.569	14339
852.703	14233
852.838	14370
852.973	14309
853.107	14339
853.242	14202
853.376	14183
853.511	13970
853.645	14081
853.78	14225
853.914	14210
854.048	14100
854.183	14119
854.317	14138
854.451	14248
854.585	14126
854.72	14062
854.854	14218
854.988	14027
855.122	14199
855.256	13967
855.39	14157
855.524	14225
855.658	14180
855.792	14180
855.926	14271
856.06	14206
856.194	14248
856.327	14092
856.461	14088
856.595	14084
856.729	14176
856.862	14153
856.996	14244
857.13	14180
857.263	14256
857.397	14267
857.53	14218
857.664	14206
857.797	14172
857.931	14343
858.064	14210
858.197	14233
858.331	14077
858.464	14153
858.597	14119
858.731	14149
858.864	14107
858.997	14153
859.13	14168
859.263	14126
859.396	14259
859.529	14107
859.662	14142
859.795	14115
859.928	14096
860.061	14298
860.194	14393
860.327	14240
860.46	14073
860.592	14244
860.725	14332
860.858	14328
860.99	14134
861.123	14031
861.256	14164
861.388	14149
861.521	14842
861.653	14058
861.786	13947
861.918	14035
862.05	14096
862.183	14001
862.315	14259
862.447	14210
862.58	13989
862.712	13852
862.844	13875
862.976	13993
863.108	13921
863.24	14278
863.372	13841
863.504	13974
863.636	13849
863.768	14043
863.9	13932
864.032	13833
864.164	13833
864.296	14096
864.428	14092
864.559	13978
864.691	14069
864.823	13921
864.954	13955
865.086	13967
865.217	13883
865.349	13803
865.48	13959
865.612	13890
865.743	14069
865.875	13913
866.006	13864
866.137	13947
866.269	13925
866.4	13883
866.531	13791
866.662	13784
866.793	13887
866.924	13898
867.055	14069
867.186	13913
867.317	13940
867.448	13826
867.579	13894
867.71	13879
867.841	13883
867.972	13970
868.103	13974
868.233	13989
868.364	13879
868.495	14081
868.625	14187
868.756	14237
868.886	14096
869.017	14161
869.147	14339
869.278	14298
869.408	14244
869.539	14195
869.669	14275
869.799	14218
869.929	14286
870.06	14298
870.19	14442
870.32	14442
870.45	14537
870.58	14541
870.71	14629
870.84	14659
870.97	14575
871.1	14522
871.23	14705
871.36	14781
871.489	14674
871.619	14815
871.749	14788
871.879	14674
872.008	14960
872.138	14758
872.267	14746
872.397	14678
872.526	14579
872.656	14492
872.785	14659
872.915	14811
873.044	14929
873.173	14842
873.303	14864
873.432	14948
873.561	14895
873.69	14975
873.819	14849
873.948	15047
874.077	14796
874.206	14712
874.335	14899
874.464	15066
874.593	15123
874.722	15081
874.851	15131
874.979	15214
875.108	15184
875.237	14975
875.365	14906
875.494	15104
875.623	15218
875.751	15119
875.88	15135
876.008	15325
876.136	15351
876.265	15599
876.393	15709
876.521	15652
876.65	15724
876.778	15625
876.906	15462
877.034	15500
877.162	15599
877.29	15507
877.418	15595
877.546	15496
877.674	15584
877.802	15576
877.93	15644
878.058	15545
878.185	15454
878.313	15564
878.441	15534
878.568	15435
878.696	15416
878.824	15542
878.951	15629
879.079	15755
879.206	15892
879.333	15698
879.461	15625
879.588	15663
879.715	15675
879.842	15857
879.97	15660
880.097	15545
880.224	15355
880.351	15367
880.478	15416
880.605	15325
880.732	15367
880.859	15652
880.986	15420
881.112	15401
881.239	15405
881.366	15264
881.493	15127
881.619	15116
881.746	15135
881.872	15104
881.999	15043
882.125	15043
882.252	15062
882.378	15093
882.505	15222
882.631	15097
882.757	14952
882.883	14880
883.01	14834
883.136	14906
883.262	14762
883.388	14712
883.514	14849
883.64	14899
883.766	14815
883.892	14651
884.018	14705
884.143	14925
884.269	14960
884.395	14590
884.52	14613
884.646	14575
884.772	14495
884.897	14473
885.023	14629
885.148	14705
885.274	14777
885.399	14697
885.524	14590
885.65	14651
885.775	14610
885.9	14568
886.025	14670
886.15	14636
886.275	14514
886.4	14488
886.525	14503
886.65	14575
886.775	14530
886.9	14705
887.025	14777
887.149	14625
887.274	14400
887.399	14343
887.523	14400
887.648	14290
887.773	14309
887.897	14370
888.021	14465
888.146	14499
888.27	14492
888.395	14587
888.519	14419
888.643	14438
888.767	14564
888.891	14355
889.015	14298
889.139	14305
889.263	14298
889.387	14339
889.511	14537
889.635	14351
889.759	14267
889.883	14263
890.006	14362
890.13	14476
890.254	14157
890.377	14233
890.501	14119
890.624	14001
890.748	14077
890.871	14027
890.995	13955
891.118	13913
891.241	13970
891.364	13902
891.488	14119
891.611	13917
891.734	14005
891.857	14138
891.98	13940
892.103	14130
892.226	14020
892.349	13970
892.471	13887
892.594	14027
892.717	13959
892.839	13894
892.962	13936
893.085	14123
893.207	14024
893.33	13883
893.452	13830
893.575	14043
893.697	13955
893.819	14237
893.941	14282
894.064	14077
894.186	13993
894.308	13978
894.43	14039
894.552	14237
894.674	14202
894.796	13944
894.918	14012
895.04	13997
895.161	14164
895.283	14046
895.405	14088
895.526	14119
895.648	14134
895.769	14088
895.891	14168
896.012	14225
896.134	14176
896.255	14081
896.376	14058
896.498	14225
896.619	14187
896.74	14206
896.861	14259
896.982	14427
897.103	14579
897.224	14571
897.345	14434
897.466	14377
897.587	14446
897.708	14655
897.828	14495
897.949	14339
898.07	14324
898.19	14446
898.311	14613
898.431	14457
898.552	14621
898.672	14560
898.792	14610
898.913	14594
899.033	14442
899.153	14351
899.273	14248
899.393	14317
899.513	14355
899.633	14396
899.753	14370
899.873	14309
899.993	14412
900.113	14404
900.232	14370
900.352	14366
900.472	14244
900.591	14138
900.711	14187
900.83	14237
900.95	14358
901.069	14320
901.189	14164
901.308	13868
901.427	13906
901.546	13906
901.665	13959
901.784	13932
901.904	13818
902.023	13791
902.141	13559
902.26	13521
902.379	13552
902.498	13457
902.617	13434
902.735	13571
902.854	13422
902.973	13388
903.091	13187
903.21	13198
903.328	13198
903.446	13091
903.565	13019
903.683	13107
903.801	13008
903.919	13069
904.038	13046
904.156	12875
904.274	12943
904.392	12966
904.51	12878
904.627	12810
904.745	12776
904.863	12924
904.981	12684
905.098	12582
905.216	12509
905.334	12642
905.451	12612
905.569	12563
905.686	12627
905.803	12574
905.921	12380
906.038	12502
906.155	12327
906.272	12254
906.389	12273
906.506	12171
906.623	12216
906.74	12102
906.857	12049
906.974	12030
907.091	12228
907.208	12254
907.324	12163
907.441	12019
907.557	11916
907.674	11889
907.79	11855
907.907	11901
908.023	11897
908.139	11859
908.256	11855
908.372	11813
908.488	11874
908.604	11722
908.72	11718
908.836	11676
908.952	11627
909.068	11718
909.184	11802
909.3	11585
909.415	11714
909.531	11733
909.647	11406
909.762	11395
909.878	11425
909.993	11440
910.108	11311
910.224	11318
910.339	11509
910.454	11387
910.57	11277
910.685	11269
910.8	11509
910.915	11421
911.03	11288
911.145	11220
911.259	11132
911.374	11105
911.489	11079
911.604	11079
911.718	10889
911.833	10869
911.947	10752
912.062	10645
912.176	10873
912.291	10862
912.405	10805
912.519	11037
912.633	11067
912.748	10961
912.862	10923
912.976	10774
913.09	10653
913.204	10778
913.318	10839
913.431	10858
913.545	10816
913.659	10896
913.772	10752
913.886	10702
914	10622
914.113	10694
914.226	10782
914.34	10725
914.453	10645
914.566	10767
914.68	10603
914.793	10580
914.906	10398
915.019	10348
915.132	10276
915.245	10318
915.358	10481
915.47	10390
915.583	10440
915.696	10409
915.809	10497
915.921	10637
916.034	10424
916.146	10424
916.259	10417
916.371	10443
916.483	10478
916.595	10284
916.708	10394
916.82	10322
916.932	10272
917.044	10325
917.156	10306
917.268	10185
917.38	10272
917.491	10249
917.603	10234
917.715	10367
917.826	10344
917.938	10154
918.049	10097
918.161	10318
918.272	10379
918.384	10394
918.495	10257
918.606	10071
918.717	10032
918.828	10097
918.939	10177
919.05	10021
919.161	10109
919.272	9903
919.383	10040
919.494	10253
919.604	10329
919.715	10131
919.826	10040
919.936	10040
920.047	10200
920.157	10177
920.267	10322
920.378	10154
920.488	10143
920.598	10386
920.708	10481
920.818	10344
920.928	10341
921.038	10478
921.148	10504
921.258	10204
921.368	10055
921.477	10032
921.587	9991
921.697	9907
921.806	9994
921.916	9964
922.025	9736
922.134	9652
922.244	9660
922.353	9743
922.462	9561
922.571	9599
922.68	9473
922.789	9393
922.898	9412
923.007	9340
923.116	9408
923.224	9370
923.333	9397
923.442	9264
923.55	9279
923.659	9302
923.767	9370
923.876	9169
923.984	9351
924.092	9222
924.201	9283
924.309	9310
924.417	9310
924.525	9203
924.633	9241
924.741	10135
924.849	9081
924.956	9146
925.064	9043
925.172	8960
925.279	9024
925.387	9089
925.494	9116
925.602	9199
925.709	9062
925.816	8960
925.924	9100
926.031	9142
926.138	9062
926.245	9180
926.352	8933
926.459	9085
926.566	9207
926.673	9058
926.779	8921
926.886	8933
926.993	8811
927.099	8754
927.206	8819
927.312	8731
927.419	8830
927.525	8826
927.631	8811
927.737	8689
927.843	8686
927.95	8594
928.056	8667
928.162	8651
928.267	8735
928.373	9287
928.479	8769
928.585	8518
928.69	8625
928.796	8693
928.901	8575
929.007	8480
929.112	8678
929.218	8575
929.323	8526
929.428	8461
929.533	8598
929.638	8488
929.743	8415
929.848	8511
929.953	8465
930.058	8400
930.163	8206
930.267	8294
930.372	8438
930.477	8206
930.581	8476
930.685	8343
930.79	8233
930.894	8252
930.998	8229
931.103	8343
931.207	7997
931.311	8001
931.415	7902
931.519	7658
931.623	7742
