Data from test_V78500241_1675.txt Node
Date: Fri Mar 25 14:45:22 CST 2022
User: usil
Spectrometer: V785-0024
Trigger mode: 0
Integration Time (sec): 4.000000E-1
Scans to average: 1
Nonlinearity correction enabled: false
Boxcar width: 0
Storing dark spectrum: false
XAxis mode: Wavelengths
Number of Pixels in Spectrum: 1024
>>>>>Begin Spectral Data<<<<<
801.071	22440
801.214	22074
801.356	21968
801.499	21800
801.641	21713
801.783	21534
801.926	21610
802.068	21629
802.211	21530
802.353	21340
802.496	21329
802.638	21074
802.78	21142
802.923	20929
803.065	20921
803.208	20937
803.35	20975
803.492	20986
803.635	21074
803.777	21013
803.919	21096
804.061	21332
804.204	21058
804.346	20807
804.488	20982
804.63	20857
804.773	20899
804.915	20880
805.057	21047
805.199	20861
805.341	20956
805.483	21043
805.626	21009
805.768	20906
805.91	20891
806.052	20880
806.194	20872
806.336	21028
806.478	20891
806.62	20826
806.762	21036
806.904	21184
807.046	21268
807.188	21154
807.33	21203
807.472	21321
807.614	21119
807.756	21150
807.898	20963
808.04	20967
808.182	21055
808.324	21020
808.465	21096
808.607	21199
808.749	21211
808.891	21370
809.033	21507
809.174	21370
809.316	21397
809.458	21367
809.6	21332
809.741	21275
809.883	21397
810.025	21515
810.166	21443
810.308	21454
810.45	21420
810.591	21237
810.733	21169
810.875	21245
811.016	21074
811.158	21039
811.299	21036
811.441	21252
811.582	21077
811.724	21024
811.865	21062
812.007	21077
812.148	21154
812.29	21157
812.431	21317
812.573	21370
812.714	21329
812.855	21568
812.997	21641
813.138	21797
813.279	21641
813.421	21610
813.562	21500
813.703	21298
813.845	21214
813.986	20956
814.127	20788
814.268	20606
814.41	20606
814.551	20674
814.692	20686
814.833	20617
814.974	20533
815.115	20503
815.256	20598
815.397	20419
815.539	20514
815.68	20313
815.821	20355
815.962	20282
816.103	20362
816.244	20142
816.385	20122
816.526	20119
816.666	19989
816.807	19765
816.948	19837
817.089	19989
817.23	19856
817.371	19719
817.512	19822
817.653	19708
817.793	19807
817.934	19651
818.075	19772
818.216	19746
818.356	19757
818.497	19597
818.638	19453
818.778	19460
818.919	19449
819.06	19438
819.2	19624
819.341	19514
819.481	19666
819.622	19715
819.762	19906
819.903	19746
820.043	19841
820.184	19723
820.324	19772
820.465	19727
820.605	19765
820.746	19708
820.886	19590
821.026	19666
821.167	19814
821.307	19658
821.447	19674
821.588	19540
821.728	19476
821.868	19274
822.008	19129
822.149	19099
822.289	19031
822.429	18875
822.569	18848
822.709	18837
822.849	18608
822.99	18627
823.13	18681
823.27	18601
823.41	18517
823.55	18330
823.69	18422
823.83	18544
823.97	18422
824.11	18224
824.25	18186
824.389	18262
824.529	18357
824.669	18102
824.809	18407
824.949	18334
825.089	18258
825.228	18292
825.368	17984
825.508	17931
825.648	18030
825.787	17908
825.927	17984
826.067	17897
826.206	17984
826.346	18083
826.485	17954
826.625	17920
826.765	18087
826.904	18041
827.044	17855
827.183	17786
827.323	17562
827.462	17722
827.601	17653
827.741	17687
827.88	17581
828.02	17532
828.159	17726
828.298	17676
828.437	17714
828.577	17596
828.716	17756
828.855	17585
828.994	17387
829.134	17452
829.273	17524
829.412	17303
829.551	17414
829.69	17330
829.829	17478
829.968	17543
830.107	17425
830.246	17421
830.385	17311
830.524	17372
830.663	17235
830.802	17212
830.941	17052
831.08	17041
831.219	17105
831.357	17197
831.496	17220
831.635	17064
831.774	16980
831.913	16900
832.051	16923
832.19	16873
832.329	16961
832.467	16748
832.606	16774
832.744	16713
832.883	16763
833.022	16767
833.16	16691
833.299	16767
833.437	16679
833.576	16782
833.714	16744
833.852	16828
833.991	16835
834.129	16824
834.267	16889
834.406	16748
834.544	16820
834.682	16866
834.821	16713
834.959	16938
835.097	16706
835.235	16809
835.373	16698
835.511	16831
835.65	16573
835.788	16653
835.926	16485
836.064	16542
836.202	16440
836.34	16618
836.478	16763
836.615	16656
836.753	16668
836.891	16729
837.029	16672
837.167	16615
837.305	16462
837.443	16607
837.58	16580
837.718	16660
837.856	16546
837.993	16531
838.131	16519
838.269	16516
838.406	16443
838.544	16398
838.681	16196
838.819	16253
838.956	16086
839.094	16040
839.231	16150
839.369	16200
839.506	16440
839.643	16325
839.781	16090
839.918	16074
840.055	16101
840.193	15972
840.33	16055
840.467	16135
840.604	16124
840.742	16413
840.879	15945
841.016	15972
841.153	16029
841.29	16185
841.427	16124
841.564	16021
841.701	16074
841.838	16048
841.975	15964
842.112	15964
842.249	15880
842.385	15895
842.522	16093
842.659	15857
842.796	15850
842.933	15865
843.069	15789
843.206	15846
843.343	15934
843.479	15854
843.616	15903
843.752	15698
843.889	15644
844.025	15766
844.162	15686
844.298	15717
844.435	15656
844.571	15675
844.708	15701
844.844	15759
844.98	15800
845.117	15766
845.253	15568
845.389	15595
845.525	15576
845.661	15538
845.798	15466
845.934	15542
846.07	15462
846.206	15523
846.342	15595
846.478	15511
846.614	15226
846.75	15214
846.886	15245
847.022	15222
847.158	15169
847.294	15207
847.429	15294
847.565	15138
847.701	15507
847.837	15009
847.972	14960
848.108	14990
848.244	15036
848.379	14925
848.515	14769
848.65	14788
848.786	14807
848.921	14838
849.057	14921
849.192	15058
849.328	14823
849.463	14769
849.598	14785
849.734	14743
849.869	14621
850.004	14689
850.14	14724
850.275	14526
850.41	14499
850.545	14518
850.68	14606
850.815	14575
850.95	14526
851.085	14769
851.22	14659
851.355	14655
851.49	14541
851.625	14530
851.76	14450
851.895	14473
852.03	14518
852.165	14575
852.299	14568
852.434	14636
852.569	14583
852.703	14602
852.838	14640
852.973	14769
853.107	14689
853.242	14568
853.376	14446
853.511	14328
853.645	14404
853.78	14560
853.914	14377
854.048	14393
854.183	14400
854.317	14438
854.451	14632
854.585	14446
854.72	14469
854.854	14530
854.988	14282
855.122	14431
855.256	14157
855.39	14461
855.524	14583
855.658	14434
855.792	14412
855.926	14499
856.06	14518
856.194	14545
856.327	14454
856.461	14442
856.595	14339
856.729	14374
856.862	14518
856.996	14385
857.13	14560
857.263	14473
857.397	14587
857.53	14400
857.664	14476
857.797	14556
857.931	14537
858.064	14446
858.197	14689
858.331	14461
858.464	14415
858.597	14339
858.731	14465
858.864	14446
858.997	14484
859.13	14526
859.263	14450
859.396	14427
859.529	14328
859.662	14473
859.795	14389
859.928	14404
860.061	14556
860.194	14640
860.327	14537
860.46	14476
860.592	14617
860.725	14594
860.858	14606
860.99	14385
861.123	14381
861.256	14343
861.388	14362
861.521	14933
861.653	14389
861.786	14240
861.918	14313
862.05	14438
862.183	14419
862.315	14374
862.447	14347
862.58	14317
862.712	14214
862.844	14138
862.976	14290
863.108	14305
863.24	14621
863.372	14214
863.504	14218
863.636	14271
863.768	14187
863.9	14240
864.032	14111
864.164	14149
864.296	14202
864.428	14320
864.559	14263
864.691	14358
864.823	14271
864.954	14263
865.086	14229
865.217	14259
865.349	14062
865.48	14214
865.612	14195
865.743	14358
865.875	14282
866.006	14168
866.137	14305
866.269	14237
866.4	14134
866.531	14259
866.662	14138
866.793	14168
866.924	14134
867.055	14214
867.186	14278
867.317	14050
867.448	14058
867.579	14164
867.71	14221
867.841	14149
867.972	14123
868.103	14229
868.233	14145
868.364	14180
868.495	14328
868.625	14492
868.756	14587
868.886	14423
869.017	14454
869.147	14549
869.278	14621
869.408	14446
869.539	14442
869.669	14511
869.799	14484
869.929	14568
870.06	14499
870.19	14792
870.32	14720
870.45	14777
870.58	14788
870.71	14963
870.84	15055
870.97	14842
871.1	14754
871.23	15013
871.36	15066
871.489	14948
871.619	14956
871.749	15070
871.879	14979
872.008	15097
872.138	15043
872.267	14979
872.397	14868
872.526	14914
872.656	14838
872.785	14842
872.915	15058
873.044	15157
873.173	15028
873.303	15097
873.432	15116
873.561	15218
873.69	15085
873.819	15036
873.948	15173
874.077	15070
874.206	15108
874.335	15131
874.464	15310
874.593	15374
874.722	15252
874.851	15329
874.979	15355
875.108	15424
875.237	15428
875.365	15294
875.494	15351
875.623	15511
875.751	15370
875.88	15473
876.008	15519
876.136	15656
876.265	15812
876.393	15922
876.521	15850
876.65	15854
876.778	15717
876.906	15736
877.034	15812
877.162	15857
877.29	15778
877.418	15869
877.546	15720
877.674	15861
877.802	15797
877.93	15831
878.058	15713
878.185	15656
878.313	15930
878.441	15770
878.568	15690
878.696	15705
878.824	15819
878.951	15937
879.079	16048
879.206	16192
879.333	16032
879.461	15895
879.588	15968
879.715	16105
879.842	16071
879.97	15861
880.097	15720
880.224	15591
880.351	15736
880.478	15720
880.605	15606
880.732	15549
880.859	15926
880.986	15701
881.112	15675
881.239	15553
881.366	15458
881.493	15424
881.619	15287
881.746	15321
881.872	15386
881.999	15332
882.125	15275
882.252	15412
882.378	15408
882.505	15568
882.631	15165
882.757	15119
882.883	15241
883.01	15142
883.136	15089
883.262	15043
883.388	14929
883.514	15051
883.64	15241
883.766	15131
883.892	15005
884.018	14941
884.143	15169
884.269	15317
884.395	15001
884.52	14872
884.646	14937
884.772	14899
884.897	14724
885.023	14918
885.148	14933
885.274	15058
885.399	14883
885.524	14986
885.65	14899
885.775	14925
885.9	14891
886.025	15005
886.15	14986
886.275	14811
886.4	14754
886.525	14830
886.65	14883
886.775	14952
886.9	14921
887.025	15104
887.149	14906
887.274	14819
887.399	14610
887.523	14663
887.648	14712
887.773	14606
887.897	14895
888.021	14758
888.146	14640
888.27	14929
888.395	14891
888.519	14743
888.643	14769
888.767	14739
888.891	14636
889.015	14610
889.139	14644
889.263	14518
889.387	14659
889.511	14819
889.635	14705
889.759	14560
889.883	14571
890.006	14564
890.13	14629
890.254	14469
890.377	14564
890.501	14396
890.624	14259
890.748	14473
890.871	14358
890.995	14237
891.118	14168
891.241	14298
891.364	14313
891.488	14381
891.611	14256
891.734	14389
891.857	14320
891.98	14233
892.103	14366
892.226	14305
892.349	14248
892.471	14123
892.594	14252
892.717	14336
892.839	14240
892.962	14290
893.085	14294
893.207	14244
893.33	14187
893.452	14107
893.575	14362
893.697	14206
893.819	14423
893.941	14442
894.064	14450
894.186	14275
894.308	14218
894.43	14290
894.552	14522
894.674	14431
894.796	14229
894.918	14385
895.04	14233
895.161	14393
895.283	14347
895.405	14286
895.526	14381
895.648	14332
895.769	14408
895.891	14419
896.012	14484
896.134	14473
896.255	14473
896.376	14404
896.498	14488
896.619	14480
896.74	14427
896.861	14526
896.982	14743
897.103	14914
897.224	14796
897.345	14712
897.466	14583
897.587	14617
897.708	14864
897.828	14682
897.949	14594
898.07	14610
898.19	14663
898.311	14800
898.431	14655
898.552	14811
898.672	14876
898.792	14838
898.913	14807
899.033	14693
899.153	14598
899.273	14541
899.393	14552
899.513	14613
899.633	14640
899.753	14621
899.873	14575
899.993	14651
900.113	14575
900.232	14731
900.352	14636
900.472	14613
900.591	14415
900.711	14480
900.83	14362
900.95	14560
901.069	14621
901.189	14385
901.308	14298
901.427	14111
901.546	14153
901.665	14149
901.784	14225
901.904	14111
902.023	13921
902.141	13769
902.26	13746
902.379	13890
902.498	13738
902.617	13620
902.735	13765
902.854	13685
902.973	13651
903.091	13525
903.21	13476
903.328	13495
903.446	13392
903.565	13266
903.683	13403
903.801	13209
903.919	13331
904.038	13225
904.156	13118
904.274	13232
904.392	13168
904.51	13080
904.627	13171
904.745	13171
904.863	13168
904.981	12985
905.098	12825
905.216	12924
905.334	12924
905.451	12783
905.569	12844
905.686	12757
905.803	12753
905.921	12616
906.038	12692
906.155	12696
906.272	12410
906.389	12540
906.506	12384
906.623	12338
906.74	12433
906.857	12323
906.974	12270
907.091	12483
907.208	12464
907.324	12388
907.441	12391
907.557	12197
907.674	12064
907.79	12110
907.907	12110
908.023	12125
908.139	12175
908.256	12144
908.372	12072
908.488	12026
908.604	11908
908.72	11798
908.836	11847
908.952	11786
909.068	11942
909.184	11988
909.3	11878
909.415	11935
909.531	11882
909.647	11657
909.762	11726
909.878	11642
909.993	11691
910.108	11665
910.224	11608
910.339	11680
910.454	11528
910.57	11581
910.685	11402
910.8	11718
910.915	11737
911.03	11482
911.145	11364
911.259	11387
911.374	11254
911.489	11326
911.604	11235
911.718	11132
911.833	11216
911.947	11075
912.062	10938
912.176	11102
912.291	11147
912.405	11117
912.519	11315
912.633	11239
912.748	11155
912.862	11159
912.976	10991
913.09	10896
913.204	10934
913.318	10965
913.431	11140
913.545	11109
913.659	11052
913.772	10999
913.886	10908
914	10850
914.113	11018
914.226	11033
914.34	10889
914.453	10740
914.566	10987
914.68	10812
914.793	10866
914.906	10668
915.019	10569
915.132	10531
915.245	10615
915.358	10656
915.47	10607
915.583	10706
915.696	10660
915.809	10698
915.921	10710
916.034	10626
916.146	10603
916.259	10508
916.371	10668
916.483	10607
916.595	10588
916.708	10538
916.82	10592
916.932	10436
917.044	10607
917.156	10512
917.268	10394
917.38	10447
917.491	10455
917.603	10489
917.715	10493
917.826	10596
917.938	10402
918.049	10272
918.161	10474
918.272	10618
918.384	10542
918.495	10485
918.606	10386
918.717	10196
918.828	10303
918.939	10318
919.05	10246
919.161	10303
919.272	10112
919.383	10261
919.494	10402
919.604	10535
919.715	10341
919.826	10211
919.936	10303
920.047	10394
920.157	10386
920.267	10558
920.378	10432
920.488	10386
920.598	10603
920.708	10706
920.818	10546
920.928	10592
921.038	10668
921.148	10668
921.258	10413
921.368	10246
921.477	10272
921.587	10139
921.697	10025
921.806	10257
921.916	10128
922.025	9911
922.134	9888
922.244	9854
922.353	9842
922.462	9736
922.571	9660
922.68	9526
922.789	9568
922.898	9610
923.007	9587
923.116	9679
923.224	9587
923.333	9686
923.442	9526
923.55	9382
923.659	9462
923.767	9549
923.876	9454
923.984	9526
924.092	9370
924.201	9450
924.309	9466
924.417	9492
924.525	9405
924.633	9454
924.741	10249
924.849	9176
924.956	9359
925.064	9222
925.172	9138
925.279	9146
925.387	9199
925.494	9222
925.602	9287
925.709	9268
925.816	9142
925.924	9245
926.031	9294
926.138	9298
926.245	9253
926.352	9119
926.459	9336
926.566	9275
926.673	9154
926.779	9108
926.886	9058
926.993	9039
927.099	8982
927.206	8864
927.312	8872
927.419	8990
927.525	8887
927.631	8994
927.737	8868
927.843	8853
927.95	8697
928.056	8773
928.162	8857
928.267	8895
928.373	9405
928.479	8864
928.585	8682
928.69	8823
928.796	8883
928.901	8766
929.007	8617
929.112	8724
929.218	8762
929.323	8632
929.428	8617
929.533	8830
929.638	8651
929.743	8629
929.848	8651
929.953	8636
930.058	8583
930.163	8480
930.267	8415
930.372	8571
930.477	8309
930.581	8587
930.685	8518
930.79	8385
930.894	8404
930.998	8328
931.103	8457
931.207	8210
931.311	8100
931.415	8016
931.519	7879
931.623	7890
