Data from test_V78500241_2432.txt Node
Date: Fri Mar 25 14:50:38 CST 2022
User: usil
Spectrometer: V785-0024
Trigger mode: 0
Integration Time (sec): 4.000000E-1
Scans to average: 1
Nonlinearity correction enabled: false
Boxcar width: 0
Storing dark spectrum: false
XAxis mode: Wavelengths
Number of Pixels in Spectrum: 1024
>>>>>Begin Spectral Data<<<<<
801.071	22147
801.214	22017
801.356	21682
801.499	21660
801.641	21564
801.783	21321
801.926	21591
802.068	21321
802.211	21496
802.353	21351
802.496	21096
802.638	20971
802.78	20986
802.923	20811
803.065	20807
803.208	20708
803.35	20826
803.492	20815
803.635	20963
803.777	20765
803.919	20754
804.061	21173
804.204	20842
804.346	20739
804.488	20632
804.63	20758
804.773	20743
804.915	20670
805.057	20849
805.199	20568
805.341	20720
805.483	20944
805.626	20902
805.768	20724
805.91	20769
806.052	20682
806.194	20655
806.336	20838
806.478	20701
806.62	20549
806.762	20777
806.904	20857
807.046	21077
807.188	20975
807.33	20967
807.472	21100
807.614	21043
807.756	20952
807.898	20830
808.04	20773
808.182	20826
808.324	20800
808.465	20899
808.607	20937
808.749	21123
808.891	21146
809.033	21351
809.174	21146
809.316	21032
809.458	21093
809.6	20902
809.741	21161
809.883	21180
810.025	21287
810.166	21241
810.308	21211
810.45	21321
810.591	21161
810.733	20963
810.875	20948
811.016	20689
811.158	20788
811.299	20967
811.441	21032
811.582	21066
811.724	20929
811.865	20880
812.007	20845
812.148	20883
812.29	20914
812.431	21077
812.573	21089
812.714	21283
812.855	21359
812.997	21298
813.138	21679
813.279	21416
813.421	21256
813.562	21211
813.703	21272
813.845	21070
813.986	20826
814.127	20488
814.268	20473
814.41	20488
814.551	20457
814.692	20374
814.833	20355
814.974	20412
815.115	20400
815.256	20126
815.397	20218
815.539	20233
815.68	20115
815.821	20183
815.962	20263
816.103	20157
816.244	20103
816.385	19955
816.526	19875
816.666	19647
816.807	19559
816.948	19506
817.089	19662
817.23	19529
817.371	19449
817.512	19548
817.653	19460
817.793	19457
817.934	19563
818.075	19540
818.216	19495
818.356	19487
818.497	19396
818.638	19274
818.778	19217
818.919	19202
819.06	19198
819.2	19331
819.341	19392
819.481	19495
819.622	19575
819.762	19635
819.903	19696
820.043	19597
820.184	19499
820.324	19533
820.465	19609
820.605	19449
820.746	19449
820.886	19335
821.026	19472
821.167	19453
821.307	19594
821.447	19476
821.588	19324
821.728	19270
821.868	19050
822.008	18909
822.149	18901
822.289	18878
822.429	18757
822.569	18532
822.709	18642
822.849	18418
822.99	18395
823.13	18346
823.27	18346
823.41	18239
823.55	18186
823.69	18251
823.83	18262
823.97	18182
824.11	18083
824.25	17901
824.389	17999
824.529	18087
824.669	18019
824.809	18110
824.949	18163
825.089	17980
825.228	18034
825.368	17733
825.508	17809
825.648	17878
825.787	17882
825.927	17901
826.067	17733
826.206	17733
826.346	17703
826.485	17840
826.625	17843
826.765	17802
826.904	17760
827.044	17440
827.183	17577
827.323	17368
827.462	17493
827.601	17440
827.741	17436
827.88	17429
828.02	17265
828.159	17482
828.298	17444
828.437	17577
828.577	17391
828.716	17478
828.855	17379
828.994	17151
829.134	17273
829.273	17231
829.412	17200
829.551	17121
829.69	17159
829.829	17121
829.968	17349
830.107	17223
830.246	17235
830.385	17113
830.524	17067
830.663	17045
830.802	16854
830.941	16778
831.08	16873
831.219	16866
831.357	16896
831.496	17128
831.635	16763
831.774	16748
831.913	16721
832.051	16615
832.19	16584
832.329	16630
832.467	16489
832.606	16462
832.744	16432
832.883	16478
833.022	16497
833.16	16584
833.299	16626
833.437	16611
833.576	16580
833.714	16516
833.852	16546
833.991	16603
834.129	16535
834.267	16615
834.406	16573
834.544	16596
834.682	16493
834.821	16531
834.959	16702
835.097	16462
835.235	16641
835.373	16615
835.511	16523
835.65	16405
835.788	16580
835.926	16295
836.064	16249
836.202	16291
836.34	16519
836.478	16603
836.615	16402
836.753	16538
836.891	16653
837.029	16527
837.167	16512
837.305	16527
837.443	16436
837.58	16299
837.718	16314
837.856	16371
837.993	16215
838.131	16367
838.269	16371
838.406	16249
838.544	16322
838.681	16059
838.819	16044
838.956	15797
839.094	15789
839.231	15865
839.369	16090
839.506	16234
839.643	16101
839.781	15895
839.918	15831
840.055	15945
840.193	15884
840.33	15888
840.467	15930
840.604	15956
840.742	16013
840.879	15736
841.016	15774
841.153	15713
841.29	15975
841.427	15911
841.564	15903
841.701	15865
841.838	15884
841.975	15831
842.112	15869
842.249	15675
842.385	15663
842.522	15789
842.659	15717
842.796	15629
842.933	15595
843.069	15656
843.206	15610
843.343	15728
843.479	15652
843.616	15591
843.752	15500
843.889	15447
844.025	15523
844.162	15374
844.298	15553
844.435	15466
844.571	15348
844.708	15526
844.844	15679
844.98	15568
845.117	15466
845.253	15332
845.389	15386
845.525	15340
845.661	15279
845.798	15359
845.934	15211
846.07	15195
846.206	15291
846.342	15397
846.478	15287
846.614	15093
846.75	14929
846.886	15085
847.022	15032
847.158	15066
847.294	15055
847.429	15074
847.565	14960
847.701	15226
847.837	14773
847.972	14796
848.108	14868
848.244	14773
848.379	14705
848.515	14530
848.65	14632
848.786	14476
848.921	14674
849.057	14769
849.192	14720
849.328	14663
849.463	14522
849.598	14537
849.734	14556
849.869	14503
850.004	14355
850.14	14419
850.275	14419
850.41	14309
850.545	14362
850.68	14298
850.815	14343
850.95	14427
851.085	14522
851.22	14568
851.355	14412
851.49	14488
851.625	14366
851.76	14320
851.895	14313
852.03	14218
852.165	14259
852.299	14389
852.434	14492
852.569	14362
852.703	14396
852.838	14473
852.973	14385
853.107	14541
853.242	14317
853.376	14347
853.511	14130
853.645	14195
853.78	14442
853.914	14263
854.048	14240
854.183	14176
854.317	14275
854.451	14317
854.585	14256
854.72	14290
854.854	14286
854.988	14259
855.122	14298
855.256	14100
855.39	14244
855.524	14263
855.658	14301
855.792	14248
855.926	14301
856.06	14328
856.194	14320
856.327	14229
856.461	14176
856.595	14214
856.729	14084
856.862	14381
856.996	14339
857.13	14301
857.263	14370
857.397	14317
857.53	14282
857.664	14240
857.797	14309
857.931	14324
858.064	14282
858.197	14336
858.331	14301
858.464	14259
858.597	14225
858.731	14298
858.864	14218
858.997	14233
859.13	14309
859.263	14286
859.396	14385
859.529	14313
859.662	14161
859.795	14157
859.928	14275
860.061	14495
860.194	14408
860.327	14301
860.46	14221
860.592	14366
860.725	14313
860.858	14347
860.99	14278
861.123	14278
861.256	14123
861.388	14259
861.521	14982
861.653	14229
861.786	14077
861.918	14069
862.05	14119
862.183	14233
862.315	14290
862.447	14290
862.58	14214
862.712	13989
862.844	13928
862.976	14172
863.108	14123
863.24	14423
863.372	13928
863.504	13982
863.636	13944
863.768	14123
863.9	14043
864.032	13967
864.164	13963
864.296	14035
864.428	14225
864.559	14100
864.691	14126
864.823	14138
864.954	14145
865.086	14100
865.217	13986
865.349	13928
865.48	14050
865.612	14100
865.743	14191
865.875	14043
866.006	14005
866.137	13951
866.269	14100
866.4	14065
866.531	13997
866.662	13986
866.793	13989
866.924	13925
867.055	14050
867.186	13974
867.317	14050
867.448	13913
867.579	13940
867.71	13947
867.841	13887
867.972	14016
868.103	13936
868.233	14027
868.364	14046
868.495	14119
868.625	14259
868.756	14370
868.886	14214
869.017	14275
869.147	14427
869.278	14332
869.408	14252
869.539	14301
869.669	14328
869.799	14362
869.929	14370
870.06	14385
870.19	14602
870.32	14511
870.45	14598
870.58	14651
870.71	14739
870.84	14769
870.97	14678
871.1	14674
871.23	14842
871.36	14864
871.489	14800
871.619	14758
871.749	14849
871.879	14910
872.008	14891
872.138	14830
872.267	14876
872.397	14670
872.526	14708
872.656	14754
872.785	14724
872.915	14872
873.044	14887
873.173	14842
873.303	14925
873.432	14998
873.561	15013
873.69	14956
873.819	14941
873.948	14998
874.077	14941
874.206	14804
874.335	14933
874.464	15214
874.593	15127
874.722	15207
874.851	15279
874.979	15287
875.108	15192
875.237	15104
875.365	15112
875.494	15146
875.623	15233
875.751	15214
875.88	15260
876.008	15351
876.136	15488
876.265	15686
876.393	15709
876.521	15732
876.65	15713
876.778	15679
876.906	15618
877.034	15625
877.162	15686
877.29	15572
877.418	15538
877.546	15618
877.674	15606
877.802	15778
877.93	15625
878.058	15652
878.185	15606
878.313	15576
878.441	15580
878.568	15397
878.696	15610
878.824	15724
878.951	15694
879.079	15861
879.206	15903
879.333	15778
879.461	15701
879.588	15793
879.715	15831
879.842	15854
879.97	15736
880.097	15523
880.224	15439
880.351	15553
880.478	15557
880.605	15526
880.732	15473
880.859	15736
880.986	15572
881.112	15519
881.239	15412
881.366	15241
881.493	15241
881.619	15131
881.746	15150
881.872	15097
881.999	15142
882.125	15173
882.252	15226
882.378	15100
882.505	15321
882.631	15104
882.757	14921
882.883	14979
883.01	14979
883.136	14971
883.262	14880
883.388	14823
883.514	14979
883.64	15119
883.766	14876
883.892	14750
884.018	14739
884.143	14960
884.269	15020
884.395	14693
884.52	14663
884.646	14727
884.772	14526
884.897	14579
885.023	14621
885.148	14788
885.274	14750
885.399	14777
885.524	14682
885.65	14670
885.775	14621
885.9	14750
886.025	14781
886.15	14735
886.275	14640
886.4	14613
886.525	14629
886.65	14587
886.775	14674
886.9	14857
887.025	14914
887.149	14708
887.274	14511
887.399	14488
887.523	14514
887.648	14454
887.773	14457
887.897	14499
888.021	14522
888.146	14488
888.27	14518
888.395	14670
888.519	14541
888.643	14499
888.767	14602
888.891	14427
889.015	14324
889.139	14393
889.263	14298
889.387	14507
889.511	14507
889.635	14518
889.759	14408
889.883	14313
890.006	14351
890.13	14533
890.254	14393
890.377	14259
890.501	14218
890.624	14214
890.748	14214
890.871	14077
890.995	14065
891.118	13906
891.241	13978
891.364	14046
891.488	14157
891.611	14119
891.734	14130
891.857	14073
891.98	14035
892.103	14092
892.226	14092
892.349	13986
892.471	13917
892.594	13989
892.717	14054
892.839	14130
892.962	14046
893.085	14103
893.207	14111
893.33	13906
893.452	13940
893.575	14138
893.697	14050
893.819	14240
893.941	14275
894.064	14256
894.186	14069
894.308	14035
894.43	14187
894.552	14237
894.674	14172
894.796	14035
894.918	14119
895.04	14115
895.161	14183
895.283	14164
895.405	14119
895.526	14069
895.648	14252
895.769	14119
895.891	14202
896.012	14377
896.134	14282
896.255	14229
896.376	14183
896.498	14244
896.619	14263
896.74	14259
896.861	14320
896.982	14613
897.103	14625
897.224	14564
897.345	14530
897.466	14408
897.587	14492
897.708	14583
897.828	14594
897.949	14450
898.07	14473
898.19	14484
898.311	14735
898.431	14484
898.552	14655
898.672	14678
898.792	14720
898.913	14602
899.033	14438
899.153	14446
899.273	14385
899.393	14469
899.513	14488
899.633	14469
899.753	14457
899.873	14446
899.993	14438
900.113	14473
900.232	14526
900.352	14434
900.472	14271
900.591	14275
900.711	14419
900.83	14218
900.95	14480
901.069	14484
901.189	14313
901.308	14069
901.427	13944
901.546	13970
901.665	14123
901.784	13993
901.904	13940
902.023	13742
902.141	13632
902.26	13529
902.379	13624
902.498	13632
902.617	13556
902.735	13575
902.854	13537
902.973	13495
903.091	13285
903.21	13259
903.328	13343
903.446	13350
903.565	13156
903.683	13179
903.801	13061
903.919	13179
904.038	13129
904.156	12951
904.274	12935
904.392	12943
904.51	12882
904.627	12973
904.745	13023
904.863	12954
904.981	12783
905.098	12635
905.216	12677
905.334	12639
905.451	12684
905.569	12544
905.686	12623
905.803	12711
905.921	12422
906.038	12525
906.155	12464
906.272	12391
906.389	12346
906.506	12209
906.623	12133
906.74	12224
906.857	12117
906.974	12133
907.091	12281
907.208	12414
907.324	12308
907.441	12148
907.557	11912
907.674	12022
907.79	11977
907.907	12015
908.023	12011
908.139	12060
908.256	11927
908.372	11897
908.488	11859
908.604	11764
908.72	11672
908.836	11695
908.952	11775
909.068	11657
909.184	11931
909.3	11783
909.415	11771
909.531	11843
909.647	11573
909.762	11535
909.878	11372
909.993	11543
910.108	11417
910.224	11547
910.339	11459
910.454	11372
910.57	11376
910.685	11284
910.8	11608
910.915	11543
911.03	11311
911.145	11235
911.259	11246
911.374	11239
911.489	11185
911.604	11060
911.718	10961
911.833	10927
911.947	10831
912.062	10774
912.176	10995
912.291	11048
912.405	10976
912.519	11159
912.633	11170
912.748	11071
912.862	10991
912.976	10816
913.09	10653
913.204	10809
913.318	10968
913.431	10953
913.545	11003
913.659	10946
913.772	10892
913.886	10767
914	10733
914.113	10850
914.226	10839
914.34	10797
914.453	10603
914.566	10744
914.68	10691
914.793	10626
914.906	10500
915.019	10402
915.132	10371
915.245	10485
915.358	10478
915.47	10386
915.583	10577
915.696	10478
915.809	10626
915.921	10668
916.034	10447
916.146	10474
916.259	10386
916.371	10508
916.483	10474
916.595	10386
916.708	10398
916.82	10352
916.932	10436
917.044	10371
917.156	10356
917.268	10257
917.38	10265
917.491	10325
917.603	10352
917.715	10310
917.826	10360
917.938	10337
918.049	10185
918.161	10363
918.272	10436
918.384	10481
918.495	10344
918.606	10188
918.717	10169
918.828	10169
918.939	10238
919.05	10036
919.161	10112
919.272	9941
919.383	9994
919.494	10204
919.604	10459
919.715	10265
919.826	10082
919.936	10177
920.047	10287
920.157	10177
920.267	10436
920.378	10227
920.488	10211
920.598	10379
920.708	10558
920.818	10405
920.928	10455
921.038	10577
921.148	10459
921.258	10150
921.368	10116
921.477	10086
921.587	10040
921.697	9979
921.806	10044
921.916	9941
922.025	9793
922.134	9774
922.244	9652
922.353	9781
922.462	9587
922.571	9618
922.68	9492
922.789	9382
922.898	9405
923.007	9431
923.116	9481
923.224	9454
923.333	9405
923.442	9317
923.55	9310
923.659	9363
923.767	9405
923.876	9291
923.984	9351
924.092	9260
924.201	9329
924.309	9317
924.417	9287
924.525	9291
924.633	9241
924.741	10071
924.849	9058
924.956	9214
925.064	9146
925.172	8994
925.279	9070
925.387	9138
925.494	9077
925.602	9165
925.709	9169
925.816	9077
925.924	9138
926.031	9211
926.138	9161
926.245	9165
926.352	9024
926.459	9150
926.566	9226
926.673	9108
926.779	8998
926.886	8914
926.993	8834
927.099	8842
927.206	8769
927.312	8781
927.419	8845
927.525	8895
927.631	8899
927.737	8750
927.843	8762
927.95	8590
928.056	8724
928.162	8720
928.267	8792
928.373	9363
928.479	8876
928.585	8575
928.69	8644
928.796	8701
928.901	8613
929.007	8450
929.112	8644
929.218	8590
929.323	8602
929.428	8541
929.533	8735
929.638	8488
929.743	8533
929.848	8598
929.953	8526
930.058	8415
930.163	8339
930.267	8320
930.372	8518
930.477	8259
930.581	8450
930.685	8362
930.79	8202
930.894	8301
930.998	8218
931.103	8393
931.207	8069
931.311	8043
931.415	7951
931.519	7731
931.623	7792
