Data from test_V78500241_2902.txt Node
Date: Fri Mar 25 14:53:55 CST 2022
User: usil
Spectrometer: V785-0024
Trigger mode: 0
Integration Time (sec): 4.000000E-1
Scans to average: 1
Nonlinearity correction enabled: false
Boxcar width: 0
Storing dark spectrum: false
XAxis mode: Wavelengths
Number of Pixels in Spectrum: 1024
>>>>>Begin Spectral Data<<<<<
801.071	22109
801.214	21922
801.356	21652
801.499	21717
801.641	21469
801.783	21378
801.926	21462
802.068	21500
802.211	21428
802.353	21245
802.496	21039
802.638	20960
802.78	20933
802.923	20921
803.065	20731
803.208	20689
803.35	20720
803.492	20788
803.635	20902
803.777	20792
803.919	20929
804.061	21207
804.204	20944
804.346	20758
804.488	20724
804.63	20933
804.773	20712
804.915	20781
805.057	20750
805.199	20636
805.341	20758
805.483	20781
805.626	20819
805.768	20568
805.91	20781
806.052	20750
806.194	20632
806.336	20880
806.478	20716
806.62	20606
806.762	20868
806.904	20902
807.046	21123
807.188	21085
807.33	21028
807.472	21096
807.614	20956
807.756	20982
807.898	20762
808.04	20811
808.182	20826
808.324	20777
808.465	20830
808.607	21074
808.749	21142
808.891	21180
809.033	21199
809.174	21089
809.316	21028
809.458	20948
809.6	21051
809.741	21108
809.883	21207
810.025	21252
810.166	21218
810.308	21195
810.45	21214
810.591	21009
810.733	20902
810.875	20807
811.016	20777
811.158	20773
811.299	20895
811.441	20906
811.582	20948
811.724	20815
811.865	20823
812.007	20842
812.148	20773
812.29	20971
812.431	20941
812.573	21173
812.714	21321
812.855	21260
812.997	21447
813.138	21443
813.279	21389
813.421	21302
813.562	21260
813.703	21165
813.845	21036
813.986	20670
814.127	20518
814.268	20503
814.41	20499
814.551	20336
814.692	20412
814.833	20267
814.974	20339
815.115	20282
815.256	20278
815.397	20259
815.539	20153
815.68	20100
815.821	20077
815.962	20157
816.103	20145
816.244	20005
816.385	19955
816.526	19753
816.666	19685
816.807	19578
816.948	19613
817.089	19715
817.23	19571
817.371	19544
817.512	19544
817.653	19445
817.793	19499
817.934	19594
818.075	19601
818.216	19540
818.356	19563
818.497	19381
818.638	19206
818.778	19206
818.919	19266
819.06	19247
819.2	19384
819.341	19350
819.481	19392
819.622	19578
819.762	19677
819.903	19696
820.043	19571
820.184	19605
820.324	19506
820.465	19597
820.605	19544
820.746	19582
820.886	19304
821.026	19571
821.167	19335
821.307	19502
821.447	19411
821.588	19278
821.728	19179
821.868	19088
822.008	18996
822.149	18821
822.289	18947
822.429	18661
822.569	18612
822.709	18650
822.849	18399
822.99	18296
823.13	18467
823.27	18254
823.41	18121
823.55	18174
823.69	18205
823.83	18213
823.97	18121
824.11	17889
824.25	17916
824.389	17939
824.529	18095
824.669	18011
824.809	18045
824.949	17965
825.089	18114
825.228	17942
825.368	17859
825.508	17672
825.648	17832
825.787	17824
825.927	17790
826.067	17665
826.206	17779
826.346	17798
826.485	17699
826.625	17771
826.765	17817
826.904	17786
827.044	17474
827.183	17391
827.323	17440
827.462	17486
827.601	17455
827.741	17429
827.88	17395
828.02	17299
828.159	17383
828.298	17395
828.437	17532
828.577	17478
828.716	17585
828.855	17402
828.994	17090
829.134	17292
829.273	17128
829.412	17140
829.551	17124
829.69	17189
829.829	17113
829.968	17353
830.107	17212
830.246	17193
830.385	17159
830.524	17025
830.663	16987
830.802	16885
830.941	16862
831.08	16767
831.219	16873
831.357	16854
831.496	16885
831.635	16805
831.774	16630
831.913	16710
832.051	16577
832.19	16592
832.329	16599
832.467	16531
832.606	16280
832.744	16421
832.883	16360
833.022	16508
833.16	16478
833.299	16451
833.437	16417
833.576	16607
833.714	16455
833.852	16592
833.991	16584
834.129	16744
834.267	16516
834.406	16527
834.544	16580
834.682	16500
834.821	16550
834.959	16645
835.097	16493
835.235	16504
835.373	16558
835.511	16432
835.65	16440
835.788	16474
835.926	16337
836.064	16295
836.202	16238
836.34	16402
836.478	16447
836.615	16504
836.753	16409
836.891	16519
837.029	16523
837.167	16398
837.305	16337
837.443	16299
837.58	16329
837.718	16379
837.856	16234
837.993	16371
838.131	16291
838.269	16310
838.406	16188
838.544	16067
838.681	16040
838.819	15972
838.956	15922
839.094	15717
839.231	15838
839.369	15972
839.506	16284
839.643	16017
839.781	15808
839.918	15770
840.055	15949
840.193	15804
840.33	15846
840.467	15743
840.604	15915
840.742	16162
840.879	15736
841.016	15694
841.153	15705
841.29	15922
841.427	15865
841.564	15876
841.701	15808
841.838	15663
841.975	15789
842.112	15774
842.249	15580
842.385	15587
842.522	15850
842.659	15660
842.796	15698
842.933	15641
843.069	15549
843.206	15545
843.343	15595
843.479	15622
843.616	15561
843.752	15386
843.889	15408
844.025	15591
844.162	15397
844.298	15450
844.435	15382
844.571	15321
844.708	15477
844.844	15538
844.98	15599
845.117	15477
845.253	15382
845.389	15294
845.525	15492
845.661	15325
845.798	15184
845.934	15287
846.07	15184
846.206	15283
846.342	15450
846.478	15138
846.614	15009
846.75	14937
846.886	14914
847.022	15116
847.158	15005
847.294	14937
847.429	14982
847.565	14895
847.701	15165
847.837	14708
847.972	14686
848.108	14781
848.244	14815
848.379	14522
848.515	14594
848.65	14564
848.786	14610
848.921	14610
849.057	14743
849.192	14750
849.328	14587
849.463	14579
849.598	14465
849.734	14625
849.869	14484
850.004	14415
850.14	14355
850.275	14336
850.41	14309
850.545	14259
850.68	14328
850.815	14336
850.95	14454
851.085	14495
851.22	14465
851.355	14355
851.49	14317
851.625	14309
851.76	14377
851.895	14309
852.03	14263
852.165	14358
852.299	14415
852.434	14400
852.569	14351
852.703	14370
852.838	14343
852.973	14530
853.107	14446
853.242	14309
853.376	14183
853.511	14092
853.645	14115
853.78	14309
853.914	14332
854.048	14149
854.183	14187
854.317	14199
854.451	14461
854.585	14229
854.72	14088
854.854	14214
854.988	14054
855.122	14195
855.256	14096
855.39	14210
855.524	14191
855.658	14305
855.792	14252
855.926	14252
856.06	14267
856.194	14301
856.327	14233
856.461	14157
856.595	14195
856.729	14123
856.862	14343
856.996	14244
857.13	14278
857.263	14336
857.397	14332
857.53	14278
857.664	14298
857.797	14252
857.931	14358
858.064	14195
858.197	14328
858.331	14191
858.464	14218
858.597	14111
858.731	14187
858.864	14244
858.997	14157
859.13	14259
859.263	14214
859.396	14313
859.529	14161
859.662	14221
859.795	14202
859.928	14290
860.061	14362
860.194	14347
860.327	14229
860.46	14225
860.592	14298
860.725	14332
860.858	14332
860.99	14252
861.123	14191
861.256	14202
861.388	14172
861.521	14830
861.653	14103
861.786	14054
861.918	14054
862.05	14142
862.183	14214
862.315	14206
862.447	14221
862.58	14134
862.712	13906
862.844	13974
862.976	14069
863.108	14024
863.24	14351
863.372	13940
863.504	14016
863.636	14054
863.768	14058
863.9	13974
864.032	13909
864.164	13917
864.296	13993
864.428	14134
864.559	14161
864.691	14005
864.823	14031
864.954	14043
865.086	13944
865.217	13940
865.349	13906
865.48	14088
865.612	14024
865.743	14130
865.875	13986
866.006	14012
866.137	13974
866.269	13944
866.4	13947
866.531	13913
866.662	13902
866.793	13887
866.924	13879
867.055	13993
867.186	14035
867.317	13944
867.448	13845
867.579	13940
867.71	13879
867.841	13890
867.972	13982
868.103	14016
868.233	13974
868.364	13951
868.495	14046
868.625	14202
868.756	14244
868.886	14183
869.017	14168
869.147	14419
869.278	14355
869.408	14183
869.539	14221
869.669	14244
869.799	14256
869.929	14313
870.06	14336
870.19	14632
870.32	14530
870.45	14522
870.58	14613
870.71	14663
870.84	14716
870.97	14594
871.1	14511
871.23	14743
871.36	14823
871.489	14758
871.619	14826
871.749	14750
871.879	14724
872.008	14883
872.138	14864
872.267	14720
872.397	14758
872.526	14754
872.656	14777
872.785	14651
872.915	14963
873.044	14861
873.173	14845
873.303	14956
873.432	14895
873.561	14921
873.69	14887
873.819	14868
873.948	14982
874.077	14826
874.206	14815
874.335	14838
874.464	15001
874.593	15169
874.722	15104
874.851	15199
874.979	15165
875.108	15279
875.237	15188
875.365	15127
875.494	15214
875.623	15363
875.751	15192
875.88	15241
876.008	15329
876.136	15530
876.265	15564
876.393	15789
876.521	15762
876.65	15747
876.778	15641
876.906	15576
877.034	15496
877.162	15587
877.29	15488
877.418	15603
877.546	15557
877.674	15580
877.802	15572
877.93	15447
878.058	15469
878.185	15515
878.313	15545
878.441	15671
878.568	15466
878.696	15523
878.824	15584
878.951	15625
879.079	15728
879.206	15922
879.333	15671
879.461	15610
879.588	15717
879.715	15812
879.842	15918
879.97	15671
880.097	15526
880.224	15450
880.351	15447
880.478	15523
880.605	15367
880.732	15466
880.859	15705
880.986	15447
881.112	15507
881.239	15374
881.366	15211
881.493	15233
881.619	15055
881.746	15123
881.872	15138
881.999	15074
882.125	15036
882.252	15226
882.378	15116
882.505	15256
882.631	15028
882.757	14937
882.883	14998
883.01	14914
883.136	14899
883.262	14807
883.388	14849
883.514	14921
883.64	14994
883.766	14948
883.892	14826
884.018	14804
884.143	14887
884.269	14994
884.395	14693
884.52	14682
884.646	14613
884.772	14514
884.897	14545
885.023	14663
885.148	14724
885.274	14701
885.399	14807
885.524	14655
885.65	14762
885.775	14663
885.9	14610
886.025	14796
886.15	14697
886.275	14568
886.4	14526
886.525	14533
886.65	14560
886.775	14632
886.9	14769
887.025	14849
887.149	14503
887.274	14495
887.399	14370
887.523	14495
887.648	14404
887.773	14366
887.897	14579
888.021	14602
888.146	14495
888.27	14575
888.395	14537
888.519	14476
888.643	14484
888.767	14514
888.891	14377
889.015	14218
889.139	14370
889.263	14259
889.387	14351
889.511	14530
889.635	14533
889.759	14282
889.883	14313
890.006	14374
890.13	14381
890.254	14271
890.377	14271
890.501	14221
890.624	14126
890.748	14286
890.871	14058
890.995	13982
891.118	13978
891.241	14058
891.364	13967
891.488	14073
891.611	14020
891.734	14100
891.857	14069
891.98	14077
892.103	14039
892.226	14142
892.349	13970
892.471	13917
892.594	14062
892.717	14065
892.839	13928
892.962	14065
893.085	14073
893.207	14043
893.33	13887
893.452	13959
893.575	14043
893.697	13963
893.819	14240
893.941	14221
894.064	14229
894.186	13928
894.308	14020
894.43	14168
894.552	14240
894.674	14138
894.796	13993
894.918	14191
895.04	14107
895.161	14221
895.283	14168
895.405	14084
895.526	14092
895.648	14172
895.769	14176
895.891	14233
896.012	14199
896.134	14183
896.255	14206
896.376	14195
896.498	14233
896.619	14263
896.74	14267
896.861	14221
896.982	14575
897.103	14701
897.224	14522
897.345	14412
897.466	14408
897.587	14454
897.708	14602
897.828	14431
897.949	14412
898.07	14339
898.19	14389
898.311	14590
898.431	14465
898.552	14549
898.672	14674
898.792	14621
898.913	14670
899.033	14518
899.153	14393
899.273	14351
899.393	14377
899.513	14446
899.633	14393
899.753	14328
899.873	14339
899.993	14473
900.113	14332
900.232	14366
900.352	14431
900.472	14355
900.591	14298
900.711	14351
900.83	14225
900.95	14438
901.069	14442
901.189	14180
901.308	14077
901.427	13978
901.546	13868
901.665	14008
901.784	14020
901.904	13871
902.023	13818
902.141	13537
902.26	13582
902.379	13708
902.498	13400
902.617	13487
902.735	13620
902.854	13590
902.973	13521
903.091	13301
903.21	13270
903.328	13285
903.446	13301
903.565	13175
903.683	13057
903.801	13145
903.919	13129
904.038	13008
904.156	12875
904.274	13034
904.392	12859
904.51	12916
904.627	12871
904.745	12939
904.863	12958
904.981	12726
905.098	12528
905.216	12616
905.334	12677
905.451	12650
905.569	12593
905.686	12665
905.803	12563
905.921	12452
906.038	12521
906.155	12486
906.272	12285
906.389	12308
906.506	12247
906.623	12235
906.74	12148
906.857	12087
906.974	12057
907.091	12213
907.208	12361
907.324	12285
907.441	12098
907.557	11874
907.674	11843
907.79	11961
907.907	11984
908.023	11950
908.139	11897
908.256	11824
908.372	11824
908.488	11870
908.604	11821
908.72	11767
908.836	11718
908.952	11726
909.068	11710
909.184	11817
909.3	11710
909.415	11836
909.531	11737
909.647	11474
909.762	11493
909.878	11444
909.993	11577
910.108	11501
910.224	11490
910.339	11455
910.454	11402
910.57	11318
910.685	11242
910.8	11467
910.915	11471
911.03	11349
911.145	11250
911.259	11090
911.374	11239
911.489	11121
911.604	11003
911.718	10953
911.833	10957
911.947	10839
912.062	10736
912.176	10900
912.291	10934
912.405	10942
912.519	11159
912.633	11124
912.748	11086
912.862	10972
912.976	10801
913.09	10744
913.204	10835
913.318	10923
913.431	10892
913.545	10911
913.659	10915
913.772	10755
913.886	10664
914	10729
914.113	10767
914.226	10805
914.34	10809
914.453	10656
914.566	10675
914.68	10569
914.793	10634
914.906	10516
915.019	10356
915.132	10371
915.245	10417
915.358	10436
915.47	10440
915.583	10497
915.696	10504
915.809	10546
915.921	10538
916.034	10516
916.146	10371
916.259	10379
916.371	10527
916.483	10440
916.595	10367
916.708	10386
916.82	10344
916.932	10356
917.044	10344
917.156	10333
917.268	10188
917.38	10299
917.491	10265
917.603	10276
917.715	10398
917.826	10371
917.938	10173
918.049	10200
918.161	10348
918.272	10447
918.384	10356
918.495	10344
918.606	10131
918.717	10017
918.828	10181
918.939	10207
919.05	10128
919.161	10143
919.272	9956
919.383	10013
919.494	10143
919.604	10337
919.715	10303
919.826	10124
919.936	10188
920.047	10261
920.157	10120
920.267	10382
920.378	10154
920.488	10169
920.598	10310
920.708	10493
920.818	10322
920.928	10322
921.038	10508
921.148	10535
921.258	10238
921.368	10109
921.477	10074
921.587	10048
921.697	9918
921.806	10029
921.916	9953
922.025	9759
922.134	9724
922.244	9629
922.353	9812
922.462	9618
922.571	9595
922.68	9447
922.789	9374
922.898	9408
923.007	9378
923.116	9443
923.224	9386
923.333	9401
923.442	9329
923.55	9222
923.659	9386
923.767	9389
923.876	9367
923.984	9458
924.092	9241
924.201	9317
924.309	9344
924.417	9367
924.525	9256
924.633	9298
924.741	10207
924.849	9085
924.956	9287
925.064	9123
925.172	9024
925.279	9032
925.387	9135
925.494	9150
925.602	9161
925.709	9157
925.816	8979
925.924	9131
926.031	9108
926.138	9085
926.245	9199
926.352	8956
926.459	9135
926.566	9176
926.673	8982
926.779	8891
926.886	8944
926.993	8830
927.099	8792
927.206	8773
927.312	8758
927.419	8861
927.525	8773
927.631	8830
927.737	8663
927.843	8659
927.95	8610
928.056	8629
928.162	8659
928.267	8750
928.373	9336
928.479	8804
928.585	8541
928.69	8663
928.796	8689
928.901	8632
929.007	8492
929.112	8636
929.218	8473
929.323	8530
929.428	8473
929.533	8670
929.638	8461
929.743	8484
929.848	8564
929.953	8473
930.058	8431
930.163	8225
930.267	8301
930.372	8366
930.477	8256
930.581	8518
930.685	8400
930.79	8153
930.894	8206
930.998	8252
931.103	8393
931.207	8077
931.311	7970
931.415	7913
931.519	7757
931.623	7753
