Data from test_V78500241_840.txt Node
Date: Fri Mar 25 14:39:34 CST 2022
User: usil
Spectrometer: V785-0024
Trigger mode: 0
Integration Time (sec): 4.000000E-1
Scans to average: 1
Nonlinearity correction enabled: false
Boxcar width: 0
Storing dark spectrum: false
XAxis mode: Wavelengths
Number of Pixels in Spectrum: 1024
>>>>>Begin Spectral Data<<<<<
801.071	26103
801.214	25887
801.356	25677
801.499	25575
801.641	25479
801.783	25400
801.926	25362
802.068	25297
802.211	25114
802.353	25091
802.496	24920
802.638	24871
802.78	24886
802.923	24795
803.065	24867
803.208	24783
803.35	24814
803.492	24996
803.635	25012
803.777	24795
803.919	24992
804.061	25171
804.204	25080
804.346	25072
804.488	24852
804.63	24897
804.773	24916
804.915	24920
805.057	25225
805.199	25053
805.341	25190
805.483	25228
805.626	25312
805.768	25244
805.91	25388
806.052	25285
806.194	25324
806.336	25658
806.478	25681
806.62	25913
806.762	25986
806.904	26370
807.046	26712
807.188	26705
807.33	27165
807.472	27500
807.614	27762
807.756	28531
807.898	29003
808.04	29916
808.182	31091
808.324	32712
808.465	34371
808.607	36399
808.749	38031
808.891	39135
809.033	39138
809.174	38301
809.316	36627
809.458	34565
809.6	32351
809.741	30669
809.883	29611
810.025	28752
810.166	28272
810.308	27641
810.45	27241
810.591	26982
810.733	26518
810.875	26240
811.016	25898
811.158	25940
811.299	26012
811.441	25970
811.582	25746
811.724	25635
811.865	25502
812.007	25548
812.148	25510
812.29	25540
812.431	25601
812.573	25803
812.714	25723
812.855	25830
812.997	25845
813.138	25963
813.279	25925
813.421	25666
813.562	25525
813.703	25373
813.845	25266
813.986	24970
814.127	24848
814.268	24745
814.41	24722
814.551	24776
814.692	24601
814.833	24448
814.974	24551
815.115	24532
815.256	24190
815.397	24422
815.539	24399
815.68	24178
815.821	24106
815.962	24235
816.103	24163
816.244	23984
816.385	23950
816.526	23923
816.666	23657
816.807	23493
816.948	23680
817.089	23710
817.23	23554
817.371	23608
817.512	23505
817.653	23604
817.793	23433
817.934	23448
818.075	23421
818.216	23398
818.356	23379
818.497	23326
818.638	23140
818.778	23204
818.919	23067
819.06	23185
819.2	23239
819.341	23395
819.481	23299
819.622	23581
819.762	23767
819.903	23562
820.043	23440
820.184	23455
820.324	23383
820.465	23520
820.605	23368
820.746	23296
820.886	23162
821.026	23200
821.167	23273
821.307	23303
821.447	23254
821.588	23022
821.728	22984
821.868	22816
822.008	22759
822.149	22561
822.289	22611
822.429	22451
822.569	22360
822.709	22287
822.849	22101
822.99	22223
823.13	22055
823.27	21994
823.41	21964
823.55	21838
823.69	21949
823.83	22002
823.97	21838
824.11	21618
824.25	21644
824.389	21701
824.529	21724
824.669	21679
824.809	21770
824.949	21770
825.089	21816
825.228	21812
825.368	21458
825.508	21496
825.648	21515
825.787	21458
825.927	21580
826.067	21500
826.206	21359
826.346	21428
826.485	21355
826.625	21481
826.765	21526
826.904	21443
827.044	21214
827.183	21165
827.323	20994
827.462	21214
827.601	21062
827.741	21028
827.88	21036
828.02	20979
828.159	21085
828.298	21127
828.437	21096
828.577	21127
828.716	21294
828.855	21051
828.994	20811
829.134	20754
829.273	20960
829.412	20727
829.551	20792
829.69	20663
829.829	20796
829.968	21081
830.107	20929
830.246	20830
830.385	20651
830.524	20712
830.663	20556
830.802	20533
830.941	20408
831.08	20393
831.219	20503
831.357	20461
831.496	20617
831.635	20381
831.774	20358
831.913	20328
832.051	20278
832.19	20172
832.329	20301
832.467	20210
832.606	20100
832.744	20195
832.883	20320
833.022	20199
833.16	20374
833.299	20438
833.437	20374
833.576	20560
833.714	20632
833.852	20735
833.991	20830
834.129	20910
834.267	20807
834.406	20731
834.544	20746
834.682	20754
834.821	20568
834.959	20716
835.097	20488
835.235	20503
835.373	20320
835.511	20309
835.65	20092
835.788	20100
835.926	19909
836.064	19769
836.202	19974
836.34	20077
836.478	20024
836.615	19936
836.753	20001
836.891	20039
837.029	19921
837.167	19917
837.305	19803
837.443	19742
837.58	19822
837.718	19841
837.856	19731
837.993	19712
838.131	19685
838.269	19693
838.406	19696
838.544	19476
838.681	19282
838.819	19388
838.956	19225
839.094	19152
839.231	19289
839.369	19362
839.506	19445
839.643	19453
839.781	19251
839.918	19053
840.055	19171
840.193	19168
840.33	19145
840.467	19118
840.604	19247
840.742	19567
840.879	18970
841.016	19050
841.153	19061
841.29	19320
841.427	19225
841.564	19194
841.701	19206
841.838	19088
841.975	19091
842.112	18993
842.249	18977
842.385	18890
842.522	19099
842.659	18928
842.796	18905
842.933	18924
843.069	18920
843.206	18977
843.343	19004
843.479	19012
843.616	18996
843.752	18920
843.889	18882
844.025	19061
844.162	18901
844.298	19057
844.435	19095
844.571	19274
844.708	19457
844.844	19708
844.98	20035
845.117	20324
845.253	20712
845.389	21682
845.525	23722
845.661	27070
845.798	30867
845.934	34181
846.07	35391
846.206	34965
846.342	32256
846.478	28166
846.614	24654
846.75	22223
846.886	20804
847.022	20138
847.158	19426
847.294	19168
847.429	18924
847.565	18764
847.701	18867
847.837	18342
847.972	18285
848.108	18357
848.244	18292
848.379	18117
848.515	18053
848.65	17885
848.786	17916
848.921	17942
849.057	17996
849.192	18019
849.328	17927
849.463	17996
849.598	17897
849.734	17646
849.869	17680
850.004	17611
850.14	17634
850.275	17687
850.41	17558
850.545	17543
850.68	17482
850.815	17585
850.95	17429
851.085	17691
851.22	17714
851.355	17547
851.49	17520
851.625	17463
851.76	17425
851.895	17520
852.03	17433
852.165	17707
852.299	17539
852.434	17608
852.569	17638
852.703	17699
852.838	17703
852.973	17821
853.107	17870
853.242	17547
853.376	17573
853.511	17474
853.645	17551
853.78	17691
853.914	17554
854.048	17493
854.183	17623
854.317	17638
854.451	17821
854.585	17718
854.72	17638
854.854	17737
854.988	17539
855.122	17524
855.256	17364
855.39	17509
855.524	17653
855.658	17532
855.792	17505
855.926	17535
856.06	17653
856.194	17604
856.327	17391
856.461	17330
856.595	17368
856.729	17421
856.862	17482
856.996	17425
857.13	17535
857.263	17512
857.397	17520
857.53	17421
857.664	17520
857.797	17463
857.931	17455
858.064	17395
858.197	17493
858.331	17341
858.464	17315
858.597	17193
858.731	17254
858.864	17334
858.997	17250
859.13	17292
859.263	17345
859.396	17417
859.529	17311
859.662	17223
859.795	17197
859.928	17277
860.061	17524
860.194	17516
860.327	17383
860.46	17246
860.592	17459
860.725	17360
860.858	17337
860.99	17341
861.123	17170
861.256	17162
861.388	17208
861.521	17817
861.653	17102
861.786	17128
861.918	17109
862.05	17086
862.183	17216
862.315	17299
862.447	17334
862.58	17261
862.712	17052
862.844	16984
862.976	17117
863.108	16938
863.24	17410
863.372	16968
863.504	16927
863.636	16915
863.768	17109
863.9	17041
864.032	16892
864.164	16927
864.296	17025
864.428	17045
864.559	17018
864.691	17056
864.823	16965
864.954	16915
865.086	17075
865.217	16896
865.349	16824
865.48	16900
865.612	17048
865.743	17083
865.875	16965
866.006	16995
866.137	16957
866.269	17018
866.4	16965
866.531	16965
866.662	16862
866.793	16892
866.924	16934
867.055	16908
867.186	16942
867.317	16904
867.448	16866
867.579	16866
867.71	16824
867.841	16729
867.972	16839
868.103	16820
868.233	17014
868.364	16869
868.495	16995
868.625	17170
868.756	17235
868.886	17056
869.017	17162
869.147	17364
869.278	17353
869.408	17349
869.539	17239
869.669	17242
869.799	17166
869.929	17269
870.06	17265
870.19	17505
870.32	17501
870.45	17486
870.58	17596
870.71	17764
870.84	17779
870.97	17554
871.1	17661
871.23	17665
871.36	17863
871.489	17722
871.619	17729
871.749	17828
871.879	17874
872.008	17927
872.138	17851
872.267	17942
872.397	17695
872.526	17737
872.656	17653
872.785	17718
872.915	17904
873.044	17988
873.173	17969
873.303	18114
873.432	18045
873.561	18041
873.69	17988
873.819	17992
873.948	18125
874.077	18102
874.206	18072
874.335	18083
874.464	18266
874.593	18262
874.722	18330
874.851	18395
874.979	18486
875.108	18464
875.237	18460
875.365	18399
875.494	18429
875.623	18646
875.751	18517
875.88	18604
876.008	18719
876.136	18802
876.265	19198
876.393	19266
876.521	19148
876.65	19179
876.778	19206
876.906	19228
877.034	19202
877.162	19206
877.29	19202
877.418	19316
877.546	19434
877.674	19441
877.802	19696
877.93	19651
878.058	19799
878.185	19738
878.313	19989
878.441	20218
878.568	20320
878.696	20762
878.824	21252
878.951	21941
879.079	22866
879.206	24296
879.333	25388
879.461	26404
879.588	26872
879.715	27146
879.842	26579
879.97	25411
880.097	24003
880.224	22923
880.351	22344
880.478	21751
880.605	21325
880.732	21161
880.859	21313
880.986	20948
881.112	20830
881.239	20720
881.366	20560
881.493	20530
881.619	20473
881.746	20587
881.872	20507
881.999	20541
882.125	20522
882.252	20670
882.378	20686
882.505	20834
882.631	20518
882.757	20332
882.883	20579
883.01	20476
883.136	20492
883.262	20336
883.388	20278
883.514	20579
883.64	20442
883.766	20301
883.892	20134
884.018	20153
884.143	20381
884.269	20564
884.395	20069
884.52	20157
884.646	20005
884.772	20005
884.897	19970
885.023	20096
885.148	20115
885.274	20164
885.399	20126
885.524	19940
885.65	19807
885.775	19753
885.9	19723
886.025	19841
886.15	19712
886.275	19441
886.4	19331
886.525	19255
886.65	19202
886.775	19034
886.9	19293
887.025	19312
887.149	19008
887.274	18806
887.399	18730
887.523	18757
887.648	18623
887.773	18448
887.897	18661
888.021	18604
888.146	18414
888.27	18509
888.395	18551
888.519	18551
888.643	18369
888.767	18384
888.891	18251
889.015	18148
889.139	18129
889.263	18133
889.387	18174
889.511	18277
889.635	18178
889.759	18079
889.883	17923
890.006	17843
890.13	18034
890.254	17767
890.377	17893
890.501	17589
890.624	17551
890.748	17737
890.871	17532
890.995	17379
891.118	17398
891.241	17501
891.364	17406
891.488	17547
891.611	17459
891.734	17421
891.857	17425
891.98	17376
892.103	17368
892.226	17239
892.349	17250
892.471	16972
892.594	17235
892.717	17174
892.839	17227
892.962	17136
893.085	17181
893.207	17037
893.33	16980
893.452	16900
893.575	17121
893.697	17029
893.819	17166
893.941	17193
894.064	17136
894.186	16915
894.308	16892
894.43	17121
894.552	17178
894.674	17060
894.796	16961
894.918	17045
895.04	16946
895.161	16930
895.283	16980
895.405	16862
895.526	16972
895.648	16938
895.769	16934
895.891	16965
896.012	17003
896.134	16999
896.255	16919
896.376	16968
896.498	16980
896.619	16965
896.74	16949
896.861	16968
896.982	17204
897.103	17414
897.224	17288
897.345	17136
897.466	17056
897.587	17261
897.708	17208
897.828	17170
897.949	17128
898.07	16957
898.19	17067
898.311	17216
898.431	17208
898.552	17170
898.672	17292
898.792	17307
898.913	17132
899.033	17083
899.153	16961
899.273	16877
899.393	16896
899.513	17048
899.633	17022
899.753	16999
899.873	16938
899.993	17048
900.113	16957
900.232	16938
900.352	16949
900.472	16881
900.591	16877
900.711	16786
900.83	16786
900.95	16942
901.069	16991
901.189	16675
901.308	16523
901.427	16455
901.546	16493
901.665	16462
901.784	16417
901.904	16344
902.023	16287
902.141	16013
902.26	16029
902.379	16090
902.498	15991
902.617	15895
902.735	15884
902.854	15983
902.973	15816
903.091	15637
903.21	15641
903.328	15587
903.446	15477
903.565	15473
903.683	15367
903.801	15260
903.919	15287
904.038	15393
904.156	15093
904.274	15302
904.392	15188
904.51	15047
904.627	15100
904.745	15207
904.863	15184
904.981	14941
905.098	14788
905.216	14845
905.334	14804
905.451	14823
905.569	14842
905.686	14864
905.803	14819
905.921	14670
906.038	14693
906.155	14568
906.272	14454
906.389	14541
906.506	14377
906.623	14358
906.74	14370
906.857	14229
906.974	14248
907.091	14332
907.208	14438
907.324	14317
907.441	14183
907.557	13982
907.674	13982
907.79	13974
907.907	13974
908.023	14100
908.139	13970
908.256	13967
908.372	13860
908.488	13982
908.604	13738
908.72	13776
908.836	13837
908.952	13738
909.068	13894
909.184	13807
909.3	13685
909.415	13734
909.531	13731
909.647	13578
909.762	13567
909.878	13407
909.993	13639
910.108	13609
910.224	13445
910.339	13540
910.454	13460
910.57	13263
910.685	13221
910.8	13529
910.915	13495
911.03	13354
911.145	13339
911.259	13126
911.374	13160
911.489	13072
911.604	12943
911.718	12867
911.833	12894
911.947	12791
912.062	12730
912.176	12848
912.291	12894
912.405	12913
912.519	13019
912.633	13171
912.748	12932
912.862	12844
912.976	12734
913.09	12681
913.204	12650
913.318	12730
913.431	12795
913.545	12798
913.659	12894
913.772	12730
913.886	12654
914	12532
914.113	12677
914.226	12711
914.34	12719
914.453	12585
914.566	12688
914.68	12559
914.793	12563
914.906	12384
915.019	12353
915.132	12289
915.245	12384
915.358	12365
915.47	12429
915.583	12372
915.696	12464
915.809	12452
915.921	12490
916.034	12289
916.146	12308
916.259	12357
916.371	12292
916.483	12224
916.595	12350
916.708	12254
916.82	12262
916.932	12239
917.044	12190
917.156	12254
917.268	12159
917.38	12216
917.491	12133
917.603	12133
917.715	12224
917.826	12266
917.938	12125
918.049	11946
918.161	12034
918.272	12262
918.384	12235
918.495	12114
918.606	11973
918.717	11897
918.828	11980
918.939	11946
919.05	11843
919.161	11927
919.272	11779
919.383	11885
919.494	12011
919.604	12175
919.715	11961
919.826	11809
919.936	11882
920.047	12034
920.157	11965
920.267	12201
920.378	11904
920.488	11969
920.598	12129
920.708	12273
920.818	12129
920.928	12117
921.038	12266
921.148	12228
921.258	11863
921.368	11794
921.477	11745
921.587	11707
921.697	11543
921.806	11767
921.916	11623
922.025	11482
922.134	11395
922.244	11292
922.353	11528
922.462	11246
922.571	11250
922.68	11121
922.789	11056
922.898	10987
923.007	10957
923.116	11052
923.224	11037
923.333	10984
923.442	10923
923.55	10869
923.659	10972
923.767	10980
923.876	10812
923.984	10980
924.092	10835
924.201	10919
924.309	10942
924.417	10919
924.525	10774
924.633	10797
924.741	11798
924.849	10611
924.956	10763
925.064	10710
925.172	10542
925.279	10550
925.387	10675
925.494	10603
925.602	10714
925.709	10660
925.816	10523
925.924	10672
926.031	10607
926.138	10588
926.245	10660
926.352	10512
926.459	10664
926.566	10744
926.673	10481
926.779	10379
926.886	10379
926.993	10356
927.099	10325
927.206	10196
927.312	10162
927.419	10204
927.525	10276
927.631	10295
927.737	10188
927.843	10246
927.95	10006
928.056	10101
928.162	10173
928.267	10143
928.373	10805
928.479	10204
928.585	9968
928.69	10116
928.796	10169
928.901	10040
929.007	9892
929.112	10059
929.218	10063
929.323	9892
929.428	9922
929.533	10036
929.638	9895
929.743	9937
929.848	9956
929.953	9785
930.058	9804
930.163	9679
930.267	9633
930.372	9785
930.477	9682
930.581	9812
930.685	9781
930.79	9545
930.894	9542
930.998	9606
931.103	9770
931.207	9370
931.311	9272
931.415	9214
931.519	9032
931.623	9058
