Data from test_V78500241_2286.txt Node
Date: Fri Mar 25 14:49:37 CST 2022
User: usil
Spectrometer: V785-0024
Trigger mode: 0
Integration Time (sec): 4.000000E-1
Scans to average: 1
Nonlinearity correction enabled: false
Boxcar width: 0
Storing dark spectrum: false
XAxis mode: Wavelengths
Number of Pixels in Spectrum: 1024
>>>>>Begin Spectral Data<<<<<
801.071	22192
801.214	22036
801.356	22010
801.499	21873
801.641	21523
801.783	21606
801.926	21606
802.068	21610
802.211	21393
802.353	21275
802.496	21081
802.638	21009
802.78	20990
802.923	20910
803.065	20944
803.208	20826
803.35	20815
803.492	20971
803.635	20967
803.777	20830
803.919	21047
804.061	21165
804.204	21093
804.346	20883
804.488	20769
804.63	20838
804.773	20781
804.915	20830
805.057	20902
805.199	20765
805.341	20853
805.483	20994
805.626	20918
805.768	20727
805.91	20788
806.052	20815
806.194	20796
806.336	20891
806.478	20819
806.62	20800
806.762	20823
806.904	21123
807.046	21237
807.188	21150
807.33	21104
807.472	21142
807.614	21001
807.756	21176
807.898	21017
808.04	20819
808.182	20910
808.324	20910
808.465	20948
808.607	21077
808.749	21268
808.891	21260
809.033	21272
809.174	21359
809.316	21176
809.458	21222
809.6	21074
809.741	21241
809.883	21169
810.025	21469
810.166	21363
810.308	21344
810.45	21359
810.591	21291
810.733	21043
810.875	21039
811.016	20796
811.158	20823
811.299	21036
811.441	21055
811.582	20982
811.724	21017
811.865	20872
812.007	20952
812.148	21005
812.29	20891
812.431	21169
812.573	21249
812.714	21332
812.855	21523
812.997	21481
813.138	21622
813.279	21553
813.421	21408
813.562	21405
813.703	21199
813.845	21142
813.986	20815
814.127	20693
814.268	20571
814.41	20602
814.551	20404
814.692	20560
814.833	20431
814.974	20446
815.115	20381
815.256	20374
815.397	20317
815.539	20427
815.68	20252
815.821	20122
815.962	20100
816.103	20248
816.244	20115
816.385	20046
816.526	19970
816.666	19833
816.807	19677
816.948	19693
817.089	19742
817.23	19803
817.371	19613
817.512	19715
817.653	19586
817.793	19480
817.934	19533
818.075	19563
818.216	19578
818.356	19575
818.497	19411
818.638	19266
818.778	19369
818.919	19426
819.06	19324
819.2	19343
819.341	19521
819.481	19552
819.622	19628
819.762	19902
819.903	19765
820.043	19742
820.184	19609
820.324	19666
820.465	19753
820.605	19537
820.746	19525
820.886	19495
821.026	19460
821.167	19689
821.307	19715
821.447	19518
821.588	19476
821.728	19346
821.868	19187
822.008	19095
822.149	18947
822.289	18935
822.429	18654
822.569	18719
822.709	18757
822.849	18506
822.99	18502
823.13	18582
823.27	18433
823.41	18334
823.55	18262
823.69	18376
823.83	18205
823.97	18304
824.11	18228
824.25	17920
824.389	18060
824.529	18117
824.669	18087
824.809	18167
824.949	18174
825.089	18209
825.228	18178
825.368	17878
825.508	17843
825.648	17840
825.787	17999
825.927	17843
826.067	17718
826.206	17817
826.346	17863
826.485	17882
826.625	17874
826.765	17939
826.904	17939
827.044	17680
827.183	17596
827.323	17554
827.462	17585
827.601	17592
827.741	17490
827.88	17630
828.02	17497
828.159	17535
828.298	17474
828.437	17699
828.577	17543
828.716	17714
828.855	17577
828.994	17330
829.134	17334
829.273	17353
829.412	17277
829.551	17227
829.69	17189
829.829	17356
829.968	17368
830.107	17360
830.246	17265
830.385	17345
830.524	17326
830.663	17067
830.802	16995
830.941	16984
831.08	16953
831.219	17037
831.357	17006
831.496	17105
831.635	16919
831.774	16911
831.913	16831
832.051	16634
832.19	16717
832.329	16710
832.467	16554
832.606	16630
832.744	16615
832.883	16653
833.022	16432
833.16	16596
833.299	16744
833.437	16668
833.576	16653
833.714	16675
833.852	16801
833.991	16752
834.129	16569
834.267	16793
834.406	16622
834.544	16752
834.682	16710
834.821	16725
834.959	16828
835.097	16683
835.235	16664
835.373	16626
835.511	16630
835.65	16565
835.788	16588
835.926	16470
836.064	16352
836.202	16341
836.34	16641
836.478	16740
836.615	16470
836.753	16683
836.891	16634
837.029	16588
837.167	16489
837.305	16500
837.443	16466
837.58	16485
837.718	16516
837.856	16489
837.993	16344
838.131	16451
838.269	16348
838.406	16371
838.544	16314
838.681	16192
838.819	16040
838.956	15922
839.094	15915
839.231	16036
839.369	16078
839.506	16333
839.643	16207
839.781	16074
839.918	15934
840.055	15941
840.193	15975
840.33	16044
840.467	15930
840.604	16021
840.742	16261
840.879	15888
841.016	15911
841.153	15968
841.29	16090
841.427	15934
841.564	15876
841.701	15949
841.838	15934
841.975	15911
842.112	15899
842.249	15804
842.385	15778
842.522	15888
842.659	15713
842.796	15720
842.933	15709
843.069	15675
843.206	15641
843.343	15785
843.479	15720
843.616	15739
843.752	15481
843.889	15504
844.025	15694
844.162	15622
844.298	15591
844.435	15549
844.571	15416
844.708	15557
844.844	15682
844.98	15728
845.117	15633
845.253	15534
845.389	15473
845.525	15382
845.661	15447
845.798	15359
845.934	15283
846.07	15283
846.206	15272
846.342	15450
846.478	15268
846.614	15169
846.75	15036
846.886	15055
847.022	15176
847.158	15188
847.294	15138
847.429	15165
847.565	15089
847.701	15306
847.837	14918
847.972	14788
848.108	14876
848.244	14792
848.379	14735
848.515	14739
848.65	14720
848.786	14651
848.921	14762
849.057	14754
849.192	14777
849.328	14739
849.463	14674
849.598	14514
849.734	14587
849.869	14492
850.004	14480
850.14	14598
850.275	14469
850.41	14370
850.545	14537
850.68	14427
850.815	14476
850.95	14457
851.085	14720
851.22	14480
851.355	14434
851.49	14393
851.625	14434
851.76	14396
851.895	14317
852.03	14267
852.165	14381
852.299	14530
852.434	14537
852.569	14598
852.703	14442
852.838	14579
852.973	14678
853.107	14602
853.242	14514
853.376	14286
853.511	14290
853.645	14229
853.78	14427
853.914	14278
854.048	14358
854.183	14206
854.317	14431
854.451	14499
854.585	14267
854.72	14301
854.854	14385
854.988	14172
855.122	14339
855.256	14180
855.39	14237
855.524	14366
855.658	14389
855.792	14328
855.926	14290
856.06	14385
856.194	14343
856.327	14419
856.461	14275
856.595	14286
856.729	14355
856.862	14404
856.996	14404
857.13	14400
857.263	14419
857.397	14507
857.53	14309
857.664	14385
857.797	14358
857.931	14389
858.064	14358
858.197	14366
858.331	14229
858.464	14328
858.597	14252
858.731	14267
858.864	14221
858.997	14431
859.13	14298
859.263	14374
859.396	14423
859.529	14271
859.662	14320
859.795	14332
859.928	14362
860.061	14377
860.194	14541
860.327	14317
860.46	14347
860.592	14438
860.725	14465
860.858	14446
860.99	14259
861.123	14244
861.256	14282
861.388	14286
861.521	14883
861.653	14218
861.786	14077
861.918	14206
862.05	14233
862.183	14267
862.315	14267
862.447	14355
862.58	14183
862.712	14054
862.844	14043
862.976	14168
863.108	14218
863.24	14412
863.372	14123
863.504	14119
863.636	14115
863.768	14221
863.9	14065
864.032	13967
864.164	14054
864.296	14214
864.428	14252
864.559	14218
864.691	14202
864.823	14195
864.954	14278
865.086	14233
865.217	14206
865.349	13955
865.48	14062
865.612	14081
865.743	14275
865.875	14149
866.006	14069
866.137	14027
866.269	14039
866.4	14130
866.531	14016
866.662	14012
866.793	14088
866.924	14027
867.055	14172
867.186	14001
867.317	13982
867.448	13947
867.579	13997
867.71	14012
867.841	14005
867.972	14088
868.103	14096
868.233	14081
868.364	14077
868.495	14111
868.625	14332
868.756	14522
868.886	14259
869.017	14351
869.147	14495
869.278	14393
869.408	14328
869.539	14381
869.669	14446
869.799	14351
869.929	14434
870.06	14351
870.19	14701
870.32	14667
870.45	14625
870.58	14724
870.71	14861
870.84	14887
870.97	14659
871.1	14796
871.23	14914
871.36	14864
871.489	14800
871.619	14967
871.749	14925
871.879	14941
872.008	15001
872.138	14918
872.267	15017
872.397	14777
872.526	14667
872.656	14735
872.785	14861
872.915	14952
873.044	15005
873.173	14998
873.303	14933
873.432	14963
873.561	15055
873.69	14906
873.819	15013
873.948	15039
874.077	15024
874.206	14868
874.335	15051
874.464	15222
874.593	15291
874.722	15222
874.851	15382
874.979	15313
875.108	15344
875.237	15192
875.365	15310
875.494	15230
875.623	15389
875.751	15279
875.88	15310
876.008	15504
876.136	15496
876.265	15717
876.393	15835
876.521	15838
876.65	15789
876.778	15785
876.906	15584
877.034	15637
877.162	15614
877.29	15584
877.418	15705
877.546	15656
877.674	15690
877.802	15660
877.93	15812
878.058	15622
878.185	15641
878.313	15690
878.441	15717
878.568	15530
878.696	15610
878.824	15686
878.951	15743
879.079	15869
879.206	16074
879.333	15869
879.461	15736
879.588	15812
879.715	15907
879.842	15964
879.97	15705
880.097	15511
880.224	15389
880.351	15549
880.478	15633
880.605	15424
880.732	15496
880.859	15812
880.986	15572
881.112	15656
881.239	15412
881.366	15291
881.493	15211
881.619	15214
881.746	15218
881.872	15241
881.999	15161
882.125	15161
882.252	15233
882.378	15214
882.505	15336
882.631	15135
882.757	14941
882.883	15020
883.01	15058
883.136	14982
883.262	14857
883.388	15009
883.514	15058
883.64	15074
883.766	15066
883.892	14800
884.018	14853
884.143	14960
884.269	15135
884.395	14765
884.52	14724
884.646	14705
884.772	14712
884.897	14625
885.023	14670
885.148	14834
885.274	14823
885.399	14861
885.524	14689
885.65	14697
885.775	14769
885.9	14724
886.025	14823
886.15	14826
886.275	14678
886.4	14602
886.525	14606
886.65	14568
886.775	14655
886.9	14826
887.025	14948
887.149	14682
887.274	14473
887.399	14518
887.523	14590
887.648	14385
887.773	14503
887.897	14667
888.021	14621
888.146	14465
888.27	14598
888.395	14705
888.519	14571
888.643	14640
888.767	14636
888.891	14530
889.015	14366
889.139	14450
889.263	14351
889.387	14492
889.511	14610
889.635	14594
889.759	14404
889.883	14427
890.006	14465
890.13	14473
890.254	14370
890.377	14408
890.501	14210
890.624	14145
890.748	14256
890.871	14069
890.995	14077
891.118	13974
891.241	14092
891.364	14043
891.488	14275
891.611	14180
891.734	14092
891.857	14191
891.98	14214
892.103	14233
892.226	14100
892.349	14058
892.471	13951
892.594	14046
892.717	14111
892.839	14100
892.962	14123
893.085	14115
893.207	14164
893.33	14046
893.452	14081
893.575	14138
893.697	14096
893.819	14377
893.941	14317
894.064	14252
894.186	14073
894.308	14096
894.43	14183
894.552	14294
894.674	14206
894.796	14084
894.918	14111
895.04	14084
895.161	14237
895.283	14153
895.405	14096
895.526	14252
895.648	14252
895.769	14233
895.891	14210
896.012	14362
896.134	14278
896.255	14324
896.376	14237
896.498	14252
896.619	14271
896.74	14267
896.861	14381
896.982	14621
897.103	14807
897.224	14568
897.345	14568
897.466	14480
897.587	14511
897.708	14651
897.828	14575
897.949	14541
898.07	14476
898.19	14552
898.311	14670
898.431	14583
898.552	14636
898.672	14655
898.792	14674
898.913	14724
899.033	14655
899.153	14533
899.273	14507
899.393	14488
899.513	14499
899.633	14473
899.753	14514
899.873	14488
899.993	14526
900.113	14495
900.232	14602
900.352	14415
900.472	14522
900.591	14298
900.711	14400
900.83	14381
900.95	14396
901.069	14545
901.189	14267
901.308	14069
901.427	13993
901.546	13989
901.665	14081
901.784	14088
901.904	13993
902.023	13871
902.141	13666
902.26	13689
902.379	13742
902.498	13567
902.617	13537
902.735	13571
902.854	13552
902.973	13578
903.091	13331
903.21	13365
903.328	13270
903.446	13346
903.565	13206
903.683	13228
903.801	13046
903.919	13137
904.038	13149
904.156	13019
904.274	13015
904.392	13050
904.51	12897
904.627	12951
904.745	13038
904.863	13103
904.981	12821
905.098	12764
905.216	12639
905.334	12715
905.451	12791
905.569	12730
905.686	12673
905.803	12578
905.921	12551
906.038	12582
906.155	12547
906.272	12388
906.389	12456
906.506	12353
906.623	12209
906.74	12296
906.857	12163
906.974	12209
907.091	12330
907.208	12357
907.324	12239
907.441	12197
907.557	12011
907.674	11958
907.79	11904
907.907	11961
908.023	12076
908.139	11984
908.256	11980
908.372	11855
908.488	11897
908.604	11783
908.72	11722
908.836	11760
908.952	11672
909.068	11726
909.184	11828
909.3	11824
909.415	11771
909.531	11817
909.647	11535
909.762	11554
909.878	11539
909.993	11516
910.108	11532
910.224	11535
910.339	11592
910.454	11433
910.57	11341
910.685	11284
910.8	11585
910.915	11554
911.03	11383
911.145	11311
911.259	11197
911.374	11265
911.489	11124
911.604	11094
911.718	11071
911.833	10991
911.947	10881
912.062	10858
912.176	10987
912.291	10953
912.405	11010
912.519	11166
912.633	11155
912.748	11090
912.862	11010
912.976	10828
913.09	10793
913.204	10820
913.318	10847
913.431	10930
913.545	11037
913.659	10938
913.772	10889
913.886	10858
914	10763
914.113	10793
914.226	10843
914.34	10923
914.453	10641
914.566	10816
914.68	10702
914.793	10649
914.906	10592
915.019	10542
915.132	10390
915.245	10531
915.358	10527
915.47	10428
915.583	10523
915.696	10569
915.809	10607
915.921	10672
916.034	10481
916.146	10481
916.259	10504
916.371	10573
916.483	10508
916.595	10390
916.708	10436
916.82	10402
916.932	10443
917.044	10508
917.156	10432
917.268	10318
917.38	10402
917.491	10280
917.603	10367
917.715	10424
917.826	10352
917.938	10322
918.049	10211
918.161	10329
918.272	10470
918.384	10538
918.495	10306
918.606	10211
918.717	10253
918.828	10238
918.939	10238
919.05	10135
919.161	10207
919.272	10002
919.383	10093
919.494	10344
919.604	10500
919.715	10249
919.826	10105
919.936	10067
920.047	10333
920.157	10173
920.267	10375
920.378	10291
920.488	10196
920.598	10360
920.708	10558
920.818	10432
920.928	10363
921.038	10615
921.148	10535
921.258	10310
921.368	10147
921.477	10109
921.587	10097
921.697	9854
921.806	10105
921.916	9994
922.025	9819
922.134	9835
922.244	9675
922.353	9816
922.462	9671
922.571	9625
922.68	9496
922.789	9469
922.898	9542
923.007	9367
923.116	9561
923.224	9511
923.333	9504
923.442	9424
923.55	9340
923.659	9332
923.767	9378
923.876	9241
923.984	9408
924.092	9249
924.201	9336
924.309	9351
924.417	9386
924.525	9279
924.633	9214
924.741	10280
924.849	9108
924.956	9253
925.064	9180
925.172	9093
925.279	9104
925.387	9135
925.494	9085
925.602	9321
925.709	9192
925.816	9093
925.924	9195
926.031	9180
926.138	9184
926.245	9195
926.352	9062
926.459	9192
926.566	9233
926.673	9150
926.779	9058
926.886	9024
926.993	8845
927.099	8800
927.206	8845
927.312	8788
927.419	8880
927.525	8914
927.631	8857
927.737	8769
927.843	8743
927.95	8644
928.056	8667
928.162	8735
928.267	8819
928.373	9393
928.479	8819
928.585	8606
928.69	8712
928.796	8826
928.901	8651
929.007	8488
929.112	8712
929.218	8644
929.323	8594
929.428	8560
929.533	8720
929.638	8476
929.743	8579
929.848	8549
929.953	8488
930.058	8412
930.163	8355
930.267	8419
930.372	8457
930.477	8286
930.581	8541
930.685	8385
930.79	8290
930.894	8309
930.998	8301
931.103	8434
931.207	8043
931.311	8012
931.415	7928
931.519	7734
931.623	7799
