Data from test_V78500241_485.txt Node
Date: Fri Mar 25 14:37:05 CST 2022
User: usil
Spectrometer: V785-0024
Trigger mode: 0
Integration Time (sec): 4.000000E-1
Scans to average: 1
Nonlinearity correction enabled: false
Boxcar width: 0
Storing dark spectrum: false
XAxis mode: Wavelengths
Number of Pixels in Spectrum: 1024
>>>>>Begin Spectral Data<<<<<
801.071	26609
801.214	26351
801.356	26142
801.499	26168
801.641	26008
801.783	25890
801.926	26024
802.068	25898
802.211	25696
802.353	25662
802.496	25594
802.638	25651
802.78	25403
802.923	25392
803.065	25415
803.208	25392
803.35	25506
803.492	25559
803.635	25609
803.777	25502
803.919	25605
804.061	25856
804.204	25578
804.346	25400
804.488	25206
804.63	25476
804.773	25324
804.915	25510
805.057	25655
805.199	25464
805.341	25411
805.483	25696
805.626	25521
805.768	25358
805.91	25502
806.052	25369
806.194	25400
806.336	25681
806.478	25449
806.62	25365
806.762	25616
806.904	25670
807.046	26039
807.188	25875
807.33	25852
807.472	25978
807.614	25856
807.756	25784
807.898	25635
808.04	25658
808.182	25655
808.324	25715
808.465	25784
808.607	25982
808.749	26058
808.891	26313
809.033	26393
809.174	26214
809.316	26054
809.458	26157
809.6	26005
809.741	26088
809.883	26199
810.025	26157
810.166	26237
810.308	26256
810.45	26073
810.591	26024
810.733	26005
810.875	25830
811.016	25811
811.158	25727
811.299	25837
811.441	25925
811.582	25864
811.724	25750
811.865	25791
812.007	25807
812.148	25913
812.29	25902
812.431	25921
812.573	26050
812.714	26077
812.855	26237
812.997	26438
813.138	26537
813.279	26404
813.421	26218
813.562	26343
813.703	26073
813.845	25982
813.986	25605
814.127	25441
814.268	25384
814.41	25438
814.551	25521
814.692	25479
814.833	25339
814.974	25221
815.115	25221
815.256	25198
815.397	25164
815.539	25164
815.68	25110
815.821	25023
815.962	25137
816.103	24924
816.244	24943
816.385	24764
816.526	24700
816.666	24585
816.807	24437
816.948	24525
817.089	24585
817.23	24604
817.371	24292
817.512	24471
817.653	24403
817.793	24376
817.934	24479
818.075	24445
818.216	24441
818.356	24384
818.497	24365
818.638	24106
818.778	24110
818.919	24209
819.06	24144
819.2	24133
819.341	24346
819.481	24247
819.622	24467
819.762	24677
819.903	24528
820.043	24582
820.184	24456
820.324	24456
820.465	24593
820.605	24532
820.746	24540
820.886	24361
821.026	24502
821.167	24441
821.307	24502
821.447	24330
821.588	24190
821.728	24155
821.868	23935
822.008	23798
822.149	23798
822.289	23764
822.429	23634
822.569	23467
822.709	23463
822.849	23345
822.99	23326
823.13	23136
823.27	23269
823.41	22991
823.55	22930
823.69	23151
823.83	22984
823.97	22919
824.11	22911
824.25	22805
824.389	22706
824.529	22999
824.669	22767
824.809	22908
824.949	22877
825.089	22942
825.228	22866
825.368	22683
825.508	22584
825.648	22611
825.787	22679
825.927	22649
826.067	22668
826.206	22478
826.346	22615
826.485	22618
826.625	22607
826.765	22710
826.904	22588
827.044	22405
827.183	22409
827.323	22173
827.462	22306
827.601	22314
827.741	22257
827.88	22367
828.02	22105
828.159	22143
828.298	22341
828.437	22257
828.577	22204
828.716	22310
828.855	22169
828.994	21918
829.134	21979
829.273	21922
829.412	21873
829.551	21838
829.69	21991
829.829	22048
829.968	21991
830.107	21937
830.246	21850
830.385	21823
830.524	21915
830.663	21724
830.802	21663
830.941	21542
831.08	21504
831.219	21519
831.357	21568
831.496	21648
831.635	21431
831.774	21507
831.913	21317
832.051	21279
832.19	21218
832.329	21321
832.467	21169
832.606	21176
832.744	21203
832.883	21222
833.022	21195
833.16	21241
833.299	21173
833.437	21230
833.576	21138
833.714	21245
833.852	21268
833.991	21195
834.129	21348
834.267	21245
834.406	21157
834.544	21241
834.682	21146
834.821	21165
834.959	21378
835.097	21146
835.235	21180
835.373	21188
835.511	21192
835.65	21051
835.788	20990
835.926	20845
836.064	20845
836.202	20967
836.34	21062
836.478	21119
836.615	20967
836.753	21058
836.891	21108
837.029	21070
837.167	20861
837.305	20994
837.443	20933
837.58	20807
837.718	21001
837.856	20921
837.993	20849
838.131	20998
838.269	20895
838.406	20838
838.544	20663
838.681	20499
838.819	20484
838.956	20320
839.094	20324
839.231	20415
839.369	20545
839.506	20613
839.643	20644
839.781	20290
839.918	20320
840.055	20275
840.193	20313
840.33	20145
840.467	20248
840.604	20202
840.742	20381
840.879	20031
841.016	20130
841.153	20092
841.29	20412
841.427	20286
841.564	20248
841.701	20229
841.838	20172
841.975	20122
842.112	20187
842.249	20058
842.385	19955
842.522	20187
842.659	20001
842.796	20012
842.933	20031
843.069	19967
843.206	19989
843.343	20027
843.479	20077
843.616	20046
843.752	19788
843.889	19784
844.025	19970
844.162	19624
844.298	19875
844.435	19803
844.571	19715
844.708	19757
844.844	19761
844.98	19967
845.117	19772
845.253	19651
845.389	19594
845.525	19723
845.661	19757
845.798	19685
845.934	19822
846.07	19700
846.206	19681
846.342	19818
846.478	19677
846.614	19396
846.75	19244
846.886	19209
847.022	19331
847.158	19343
847.294	19259
847.429	19297
847.565	19099
847.701	19434
847.837	18913
847.972	18985
848.108	19057
848.244	19027
848.379	18875
848.515	18711
848.65	18837
848.786	18848
848.921	18814
849.057	18890
849.192	18878
849.328	18798
849.463	18757
849.598	18658
849.734	18593
849.869	18585
850.004	18555
850.14	18616
850.275	18498
850.41	18555
850.545	18391
850.68	18429
850.815	18483
850.95	18422
851.085	18665
851.22	18582
851.355	18448
851.49	18502
851.625	18327
851.76	18494
851.895	18353
852.03	18270
852.165	18528
852.299	18517
852.434	18627
852.569	18403
852.703	18448
852.838	18483
852.973	18623
853.107	18597
853.242	18410
853.376	18254
853.511	18296
853.645	18353
853.78	18403
853.914	18296
854.048	18338
854.183	18372
854.317	18289
854.451	18498
854.585	18315
854.72	18262
854.854	18327
854.988	18304
855.122	18391
855.256	18038
855.39	18311
855.524	18433
855.658	18338
855.792	18330
855.926	18342
856.06	18456
856.194	18429
856.327	18262
856.461	18224
856.595	18171
856.729	18247
856.862	18330
856.996	18266
857.13	18228
857.263	18414
857.397	18403
857.53	18262
857.664	18266
857.797	18319
857.931	18445
858.064	18342
858.197	18395
858.331	18350
858.464	18228
858.597	18083
858.731	18178
858.864	18140
858.997	18346
859.13	18327
859.263	18258
859.396	18327
859.529	18140
859.662	18258
859.795	18270
859.928	18239
860.061	18464
860.194	18399
860.327	18182
860.46	18330
860.592	18292
860.725	18395
860.858	18350
860.99	18197
861.123	18213
861.256	18251
861.388	18338
861.521	18954
861.653	18205
861.786	18026
861.918	18079
862.05	18213
862.183	18285
862.315	18224
862.447	18357
862.58	18338
862.712	18034
862.844	18095
862.976	17988
863.108	18079
863.24	18342
863.372	17946
863.504	17988
863.636	18057
863.768	17977
863.9	18038
864.032	17908
864.164	17878
864.296	18041
864.428	18057
864.559	18015
864.691	18197
864.823	17992
864.954	17969
865.086	17996
865.217	17893
865.349	17840
865.48	17935
865.612	17961
865.743	18098
865.875	17897
866.006	17863
866.137	17916
866.269	17859
866.4	17920
866.531	17824
866.662	17809
866.793	17912
866.924	17836
867.055	17794
867.186	17836
867.317	17748
867.448	17851
867.579	17809
867.71	17821
867.841	17771
867.972	17863
868.103	17824
868.233	17859
868.364	17904
868.495	17958
868.625	18095
868.756	18129
868.886	17977
869.017	18159
869.147	18270
869.278	18243
869.408	18216
869.539	18053
869.669	18076
869.799	18140
869.929	18209
870.06	18148
870.19	18281
870.32	18254
870.45	18380
870.58	18578
870.71	18601
870.84	18551
870.97	18426
871.1	18456
871.23	18597
871.36	18627
871.489	18483
871.619	18597
871.749	18601
871.879	18703
872.008	18707
872.138	18612
872.267	18631
872.397	18570
872.526	18585
872.656	18483
872.785	18589
872.915	18669
873.044	18722
873.173	18696
873.303	18798
873.432	18802
873.561	18928
873.69	18749
873.819	18688
873.948	18783
874.077	18722
874.206	18593
874.335	18772
874.464	18825
874.593	18993
874.722	18977
874.851	19110
874.979	19027
875.108	18909
875.237	18920
875.365	18890
875.494	18977
875.623	19091
875.751	18985
875.88	18901
876.008	19228
876.136	19103
876.265	19438
876.393	19575
876.521	19464
876.65	19480
876.778	19346
876.906	19331
877.034	19327
877.162	19499
877.29	19266
877.418	19247
877.546	19392
877.674	19457
877.802	19430
877.93	19369
878.058	19449
878.185	19358
878.313	19259
878.441	19320
878.568	19232
878.696	19369
878.824	19457
878.951	19426
879.079	19582
879.206	19731
879.333	19658
879.461	19506
879.588	19651
879.715	19685
879.842	19791
879.97	19491
880.097	19483
880.224	19244
880.351	19270
880.478	19312
880.605	19183
880.732	19213
880.859	19502
880.986	19339
881.112	19285
881.239	19053
881.366	19019
881.493	18958
881.619	18875
881.746	18924
881.872	18795
881.999	18947
882.125	18848
882.252	18913
882.378	18837
882.505	18958
882.631	18684
882.757	18684
882.883	18684
883.01	18688
883.136	18654
883.262	18540
883.388	18494
883.514	18574
883.64	18757
883.766	18513
883.892	18502
884.018	18604
884.143	18631
884.269	18684
884.395	18517
884.52	18323
884.646	18357
884.772	18319
884.897	18289
885.023	18304
885.148	18456
885.274	18498
885.399	18448
885.524	18334
885.65	18213
885.775	18224
885.9	18315
886.025	18361
886.15	18327
886.275	18266
886.4	18102
886.525	18194
886.65	18194
886.775	18224
886.9	18338
887.025	18471
887.149	18098
887.274	18224
887.399	18019
887.523	18133
887.648	18041
887.773	17920
887.897	18083
888.021	18068
888.146	18034
888.27	18140
888.395	18178
888.519	18117
888.643	18121
888.767	18129
888.891	17904
889.015	17809
889.139	17855
889.263	17988
889.387	17961
889.511	18060
889.635	17946
889.759	17897
889.883	17836
890.006	17931
890.13	17916
890.254	17737
890.377	17764
890.501	17672
890.624	17600
890.748	17733
890.871	17592
890.995	17543
891.118	17376
891.241	17486
891.364	17482
891.488	17608
891.611	17402
891.734	17558
891.857	17387
891.98	17425
892.103	17562
892.226	17562
892.349	17429
892.471	17261
892.594	17562
892.717	17528
892.839	17379
892.962	17429
893.085	17630
893.207	17334
893.33	17364
893.452	17296
893.575	17482
893.697	17444
893.819	17535
893.941	17619
894.064	17539
894.186	17459
894.308	17360
894.43	17592
894.552	17684
894.674	17448
894.796	17448
894.918	17387
895.04	17398
895.161	17471
895.283	17524
895.405	17455
895.526	17493
895.648	17547
895.769	17478
895.891	17551
896.012	17581
896.134	17490
896.255	17566
896.376	17505
896.498	17539
896.619	17604
896.74	17611
896.861	17573
896.982	17832
897.103	18026
897.224	17691
897.345	17726
897.466	17748
897.587	17726
897.708	17882
897.828	17741
897.949	17703
898.07	17668
898.19	17600
898.311	17885
898.431	17653
898.552	17805
898.672	17874
898.792	17798
898.913	17733
899.033	17737
899.153	17547
899.273	17524
899.393	17440
899.513	17532
899.633	17649
899.753	17581
899.873	17547
899.993	17532
900.113	17547
900.232	17596
900.352	17455
900.472	17356
900.591	17372
900.711	17417
900.83	17258
900.95	17433
901.069	17566
901.189	17235
901.308	17018
901.427	17052
901.546	17037
901.665	17090
901.784	16999
901.904	16873
902.023	16866
902.141	16550
902.26	16527
902.379	16630
902.498	16607
902.617	16432
902.735	16577
902.854	16527
902.973	16394
903.091	16276
903.21	16147
903.328	16158
903.446	16139
903.565	16090
903.683	16063
903.801	16013
903.919	15941
904.038	16002
904.156	15857
904.274	15842
904.392	15686
904.51	15694
904.627	15751
904.745	15903
904.863	15873
904.981	15629
905.098	15542
905.216	15519
905.334	15534
905.451	15439
905.569	15412
905.686	15553
905.803	15431
905.921	15332
906.038	15367
906.155	15249
906.272	15142
906.389	15127
906.506	15154
906.623	15157
906.74	15093
906.857	14941
906.974	14857
907.091	15066
907.208	15081
907.324	15135
907.441	14853
907.557	14804
907.674	14731
907.79	14651
907.907	14720
908.023	14686
908.139	14640
908.256	14697
908.372	14625
908.488	14610
908.604	14423
908.72	14526
908.836	14438
908.952	14415
909.068	14358
909.184	14629
909.3	14370
909.415	14556
909.531	14431
909.647	14161
909.762	14157
909.878	14225
909.993	14271
910.108	14096
910.224	14115
910.339	14077
910.454	14027
910.57	14001
910.685	13947
910.8	14191
910.915	14164
911.03	14073
911.145	13811
911.259	13750
911.374	13841
911.489	13712
911.604	13636
911.718	13533
911.833	13567
911.947	13441
912.062	13415
912.176	13578
912.291	13582
912.405	13624
912.519	13742
912.633	13632
912.748	13510
912.862	13483
912.976	13343
913.09	13324
913.204	13354
913.318	13327
913.431	13506
913.545	13453
913.659	13453
913.772	13339
913.886	13289
914	13190
914.113	13278
914.226	13198
914.34	13289
914.453	13129
914.566	13270
914.68	13095
914.793	13171
914.906	13015
915.019	12867
915.132	12821
915.245	12814
915.358	12848
915.47	12996
915.583	12901
915.696	12920
915.809	13038
915.921	13080
916.034	12817
916.146	12798
916.259	12837
916.371	12833
916.483	12894
916.595	12772
916.708	12844
916.82	12848
916.932	12753
917.044	12719
917.156	12741
917.268	12570
917.38	12696
917.491	12570
917.603	12585
917.715	12741
917.826	12719
917.938	12608
918.049	12426
918.161	12639
918.272	12787
918.384	12688
918.495	12646
918.606	12532
918.717	12395
918.828	12483
918.939	12426
919.05	12330
919.161	12410
919.272	12220
919.383	12327
919.494	12521
919.604	12528
919.715	12479
919.826	12315
919.936	12315
920.047	12506
920.157	12433
920.267	12646
920.378	12353
920.488	12384
920.598	12681
920.708	12669
920.818	12559
920.928	12547
921.038	12726
921.148	12642
921.258	12372
921.368	12338
921.477	12148
921.587	12182
921.697	12041
921.806	12190
921.916	12041
922.025	11958
922.134	11859
922.244	11817
922.353	11840
922.462	11745
922.571	11668
922.68	11596
922.789	11577
922.898	11482
923.007	11429
923.116	11505
923.224	11444
923.333	11455
923.442	11303
923.55	11448
923.659	11360
923.767	11311
923.876	11216
923.984	11372
924.092	11288
924.201	11318
924.309	11277
924.417	11261
924.525	11212
924.633	11280
924.741	12167
924.849	11124
924.956	11235
925.064	11022
925.172	11075
925.279	11041
925.387	11075
925.494	10984
925.602	11174
925.709	11094
925.816	11010
925.924	11071
926.031	11140
926.138	10995
926.245	11029
926.352	10885
926.459	11003
926.566	11124
926.673	10938
926.779	10839
926.886	10782
926.993	10736
927.099	10744
927.206	10698
927.312	10668
927.419	10748
927.525	10641
927.631	10691
927.737	10580
927.843	10432
927.95	10405
928.056	10538
928.162	10504
928.267	10542
928.373	11060
928.479	10675
928.585	10306
928.69	10500
928.796	10561
928.901	10367
929.007	10363
929.112	10485
929.218	10310
929.323	10363
929.428	10318
929.533	10466
929.638	10253
929.743	10253
929.848	10295
929.953	10227
930.058	10101
930.163	9998
930.267	10063
930.372	10143
930.477	9953
930.581	10242
930.685	10086
930.79	9945
930.894	9945
930.998	9907
931.103	9934
931.207	9629
931.311	9572
931.415	9515
931.519	9378
931.623	9332
