Data from test_V78500241_176.txt Node
Date: Fri Mar 25 14:34:57 CST 2022
User: usil
Spectrometer: V785-0024
Trigger mode: 0
Integration Time (sec): 4.000000E-1
Scans to average: 1
Nonlinearity correction enabled: false
Boxcar width: 0
Storing dark spectrum: false
XAxis mode: Wavelengths
Number of Pixels in Spectrum: 1024
>>>>>Begin Spectral Data<<<<<
801.071	28588
801.214	28371
801.356	28322
801.499	28150
801.641	28006
801.783	28032
801.926	28067
802.068	27899
802.211	27835
802.353	27694
802.496	27728
802.638	27561
802.78	27633
802.923	27587
803.065	27405
803.208	27473
803.35	27553
803.492	27618
803.635	27759
803.777	27667
803.919	27679
804.061	27983
804.204	27606
804.346	27633
804.488	27671
804.63	27618
804.773	27496
804.915	27652
805.057	27667
805.199	27690
805.341	27759
805.483	27671
805.626	27652
805.768	27618
805.91	27724
806.052	27781
806.194	27660
806.336	27953
806.478	27835
806.62	27701
806.762	27964
806.904	28105
807.046	28405
807.188	28204
807.33	28249
807.472	28599
807.614	28481
807.756	28474
807.898	28584
808.04	28459
808.182	28942
808.324	29143
808.465	29360
808.607	29786
808.749	30201
808.891	30407
809.033	30566
809.174	30209
809.316	29901
809.458	29608
809.6	29189
809.741	28980
809.883	28790
810.025	28953
810.166	28748
810.308	28744
810.45	28561
810.591	28588
810.733	28337
810.875	28337
811.016	28135
811.158	28036
811.299	28185
811.441	28318
811.582	28223
811.724	28128
811.865	28105
812.007	28017
812.148	28177
812.29	28150
812.431	28295
812.573	28409
812.714	28417
812.855	28519
812.997	28611
813.138	28713
813.279	28744
813.421	28523
813.562	28470
813.703	28109
813.845	28215
813.986	28059
814.127	27656
814.268	27724
814.41	27713
814.551	27694
814.692	27717
814.833	27599
814.974	27606
815.115	27720
815.256	27344
815.397	27477
815.539	27416
815.68	27233
815.821	27298
815.962	27325
816.103	27405
816.244	27142
816.385	27036
816.526	27043
816.666	26872
816.807	26682
816.948	26800
817.089	26811
817.23	26712
817.371	26655
817.512	26708
817.653	26708
817.793	26473
817.934	26705
818.075	26655
818.216	26648
818.356	26621
818.497	26503
818.638	26355
818.778	26358
818.919	26343
819.06	26484
819.2	26583
819.341	26568
819.481	26541
819.622	26621
819.762	26864
819.903	26769
820.043	26667
820.184	26746
820.324	26697
820.465	26708
820.605	26621
820.746	26575
820.886	26473
821.026	26602
821.167	26556
821.307	26667
821.447	26492
821.588	26339
821.728	26256
821.868	26206
822.008	26069
822.149	25978
822.289	25951
822.429	25761
822.569	25666
822.709	25658
822.849	25483
822.99	25438
823.13	25320
823.27	25422
823.41	25327
823.55	25145
823.69	25232
823.83	25247
823.97	25179
824.11	25069
824.25	25023
824.389	24932
824.529	25065
824.669	25126
824.809	25015
824.949	24924
825.089	25061
825.228	25015
825.368	24859
825.508	24894
825.648	24871
825.787	24802
825.927	24734
826.067	24677
826.206	24798
826.346	24722
826.485	24760
826.625	24817
826.765	24913
826.904	24924
827.044	24635
827.183	24513
827.323	24422
827.462	24490
827.601	24483
827.741	24486
827.88	24388
828.02	24380
828.159	24433
828.298	24426
828.437	24384
828.577	24395
828.716	24399
828.855	24380
828.994	24292
829.134	24045
829.273	24201
829.412	24144
829.551	24133
829.69	24140
829.829	24083
829.968	24258
830.107	24110
830.246	24140
830.385	24011
830.524	23927
830.663	24064
830.802	23870
830.941	23695
831.08	23551
831.219	23809
831.357	23745
831.496	23942
831.635	23687
831.774	23608
831.913	23505
832.051	23463
832.19	23433
832.329	23429
832.467	23360
832.606	23178
832.744	23269
832.883	23261
833.022	23246
833.16	23353
833.299	23478
833.437	23299
833.576	23440
833.714	23277
833.852	23417
833.991	23448
834.129	23547
834.267	23402
834.406	23455
834.544	23482
834.682	23429
834.821	23421
834.959	23486
835.097	23322
835.235	23398
835.373	23284
835.511	23376
835.65	23197
835.788	23117
835.926	23003
836.064	22980
836.202	23010
836.34	23121
836.478	23185
836.615	23060
836.753	23048
836.891	23284
837.029	23117
837.167	23113
837.305	23044
837.443	23071
837.58	22965
837.718	22953
837.856	22942
837.993	22873
838.131	22949
838.269	22919
838.406	22866
838.544	22767
838.681	22573
838.819	22603
838.956	22386
839.094	22371
839.231	22428
839.369	22440
839.506	22653
839.643	22698
839.781	22421
839.918	22310
840.055	22367
840.193	22249
840.33	22344
840.467	22147
840.604	22329
840.742	22580
840.879	22158
841.016	22158
841.153	22223
841.29	22325
841.427	22223
841.564	22253
841.701	22207
841.838	22196
841.975	22211
842.112	22166
842.249	21903
842.385	21983
842.522	22204
842.659	22025
842.796	21949
842.933	22002
843.069	21968
843.206	21888
843.343	22051
843.479	21926
843.616	21991
843.752	21739
843.889	21759
844.025	21873
844.162	21835
844.298	21831
844.435	21701
844.571	21797
844.708	21842
844.844	21884
844.98	22048
845.117	22101
845.253	21945
845.389	22025
845.525	22379
845.661	22862
845.798	23433
845.934	24102
846.07	24163
846.206	24064
846.342	23775
846.478	23037
846.614	22322
846.75	21728
846.886	21679
847.022	21454
847.158	21393
847.294	21260
847.429	21431
847.565	21222
847.701	21412
847.837	20883
847.972	20956
848.108	21005
848.244	20918
848.379	20697
848.515	20724
848.65	20762
848.786	20663
848.921	20670
849.057	20872
849.192	20762
849.328	20720
849.463	20739
849.598	20697
849.734	20594
849.869	20545
850.004	20438
850.14	20560
850.275	20549
850.41	20415
850.545	20408
850.68	20343
850.815	20522
850.95	20488
851.085	20606
851.22	20511
851.355	20484
851.49	20408
851.625	20377
851.76	20434
851.895	20183
852.03	20412
852.165	20495
852.299	20434
852.434	20450
852.569	20469
852.703	20514
852.838	20434
852.973	20541
853.107	20507
853.242	20404
853.376	20362
853.511	20115
853.645	20240
853.78	20465
853.914	20282
854.048	20199
854.183	20161
854.317	20267
854.451	20400
854.585	20195
854.72	20134
854.854	20252
854.988	20305
855.122	20328
855.256	20142
855.39	20248
855.524	20225
855.658	20256
855.792	20298
855.926	20229
856.06	20206
856.194	20313
856.327	20248
856.461	20073
856.595	20164
856.729	20122
856.862	20343
856.996	20183
857.13	20294
857.263	20396
857.397	20290
857.53	20134
857.664	20282
857.797	20301
857.931	20328
858.064	20309
858.197	20298
858.331	20187
858.464	20077
858.597	20062
858.731	20088
858.864	19989
858.997	19974
859.13	20126
859.263	20149
859.396	20244
859.529	20119
859.662	20176
859.795	20020
859.928	20138
860.061	20339
860.194	20313
860.327	20111
860.46	20092
860.592	20233
860.725	20130
860.858	20195
860.99	20214
861.123	20100
861.256	20012
861.388	20100
861.521	20746
861.653	19989
861.786	19997
861.918	20046
862.05	20050
862.183	20221
862.315	20161
862.447	20278
862.58	20164
862.712	19921
862.844	19944
862.976	20069
863.108	19967
863.24	20149
863.372	19856
863.504	19917
863.636	19849
863.768	19921
863.9	19883
864.032	19868
864.164	19776
864.296	19925
864.428	19852
864.559	19860
864.691	19928
864.823	19921
864.954	19757
865.086	19902
865.217	19712
865.349	19689
865.48	19780
865.612	19868
865.743	19921
865.875	19750
866.006	19700
866.137	19856
866.269	19807
866.4	19772
866.531	19700
866.662	19647
866.793	19685
866.924	19769
867.055	19674
867.186	19696
867.317	19696
867.448	19586
867.579	19769
867.71	19643
867.841	19632
867.972	19723
868.103	19674
868.233	19666
868.364	19719
868.495	19856
868.625	19951
868.756	20073
868.886	19921
869.017	19974
869.147	20039
869.278	20008
869.408	19921
869.539	19967
869.669	20039
869.799	19913
869.929	20058
870.06	20077
870.19	20210
870.32	20145
870.45	20290
870.58	20465
870.71	20518
870.84	20450
870.97	20332
871.1	20271
871.23	20499
871.36	20495
871.489	20434
871.619	20492
871.749	20560
871.879	20499
872.008	20682
872.138	20480
872.267	20579
872.397	20503
872.526	20484
872.656	20317
872.785	20320
872.915	20617
873.044	20514
873.173	20484
873.303	20765
873.432	20644
873.561	20537
873.69	20670
873.819	20606
873.948	20564
874.077	20632
874.206	20530
874.335	20655
874.464	20819
874.593	20853
874.722	20644
874.851	20994
874.979	20963
875.108	20967
875.237	20826
875.365	20838
875.494	20944
875.623	21032
875.751	20834
875.88	20941
876.008	21195
876.136	21195
876.265	21336
876.393	21321
876.521	21370
876.65	21370
876.778	21367
876.906	21256
877.034	21245
877.162	21481
877.29	21264
877.418	21363
877.546	21332
877.674	21374
877.802	21329
877.93	21466
878.058	21310
878.185	21306
878.313	21469
878.441	21435
878.568	21321
878.696	21443
878.824	21675
878.951	21903
879.079	21975
879.206	22398
879.333	22447
879.461	22531
879.588	22630
879.715	22721
879.842	22725
879.97	22386
880.097	21926
880.224	21698
880.351	21530
880.478	21595
880.605	21428
880.732	21507
880.859	21720
880.986	21458
881.112	21496
881.239	21275
881.366	21066
881.493	21173
881.619	20979
881.746	20986
881.872	21005
881.999	20975
882.125	20921
882.252	21062
882.378	21089
882.505	21070
882.631	20853
882.757	20891
882.883	20815
883.01	20754
883.136	20663
883.262	20613
883.388	20609
883.514	20826
883.64	20815
883.766	20708
883.892	20617
884.018	20606
884.143	20823
884.269	20788
884.395	20545
884.52	20370
884.646	20393
884.772	20362
884.897	20347
885.023	20454
885.148	20488
885.274	20636
885.399	20480
885.524	20358
885.65	20358
885.775	20381
885.9	20180
886.025	20374
886.15	20362
886.275	20278
886.4	20142
886.525	20100
886.65	20157
886.775	20267
886.9	20282
887.025	20514
887.149	20119
887.274	19913
887.399	20024
887.523	19852
887.648	19940
887.773	19871
887.897	20012
888.021	19986
888.146	19833
888.27	20069
888.395	20012
888.519	19986
888.643	19986
888.767	19944
888.891	19788
889.015	19674
889.139	19693
889.263	19723
889.387	19704
889.511	20016
889.635	19750
889.759	19647
889.883	19681
890.006	19666
890.13	19746
890.254	19514
890.377	19571
890.501	19377
890.624	19388
890.748	19464
890.871	19339
890.995	19255
891.118	19190
891.241	19236
891.364	19259
891.488	19358
891.611	19236
891.734	19232
891.857	19198
891.98	19225
892.103	19285
892.226	19251
892.349	19160
892.471	19031
892.594	19122
892.717	19114
892.839	19057
892.962	19217
893.085	19202
893.207	19145
893.33	19069
893.452	19034
893.575	19190
893.697	19088
893.819	19297
893.941	19331
894.064	19202
894.186	19031
894.308	19008
894.43	19179
894.552	19232
894.674	19289
894.796	18954
894.918	19095
895.04	18932
895.161	19118
895.283	19179
895.405	19038
895.526	19114
895.648	19046
895.769	19168
895.891	19133
896.012	19217
896.134	19141
896.255	19099
896.376	19217
896.498	19126
896.619	19065
896.74	19110
896.861	19217
896.982	19400
897.103	19666
897.224	19419
897.345	19339
897.466	19331
897.587	19400
897.708	19422
897.828	19441
897.949	19259
898.07	19160
898.19	19278
898.311	19510
898.431	19320
898.552	19327
898.672	19324
898.792	19354
898.913	19301
899.033	19232
899.153	19206
899.273	19038
899.393	19129
899.513	19034
899.633	19069
899.753	19080
899.873	19046
899.993	19103
900.113	19019
900.232	19118
900.352	18962
900.472	18848
900.591	18852
900.711	18833
900.83	18878
900.95	19015
901.069	18981
901.189	18707
901.308	18525
901.427	18532
901.546	18585
901.665	18578
901.784	18490
901.904	18361
902.023	18273
902.141	18072
902.26	18087
902.379	18140
902.498	18053
902.617	17840
902.735	18034
902.854	17923
902.973	17836
903.091	17775
903.21	17554
903.328	17623
903.446	17680
903.565	17436
903.683	17455
903.801	17406
903.919	17345
904.038	17402
904.156	17239
904.274	17258
904.392	17140
904.51	17246
904.627	17261
904.745	17258
904.863	17303
904.981	16980
905.098	16915
905.216	16968
905.334	16911
905.451	16972
905.569	16752
905.686	16911
905.803	16934
905.921	16679
906.038	16748
906.155	16679
906.272	16500
906.389	16485
906.506	16447
906.623	16485
906.74	16382
906.857	16337
906.974	16325
907.091	16443
907.208	16527
907.324	16447
907.441	16325
907.557	16147
907.674	16143
907.79	16032
907.907	16128
908.023	15994
908.139	16177
908.256	16002
908.372	15930
908.488	15865
908.604	15869
908.72	15797
908.836	15736
908.952	15888
909.068	15766
909.184	15842
909.3	15690
909.415	15850
909.531	15705
909.647	15545
909.762	15523
909.878	15545
909.993	15412
910.108	15485
910.224	15370
910.339	15462
910.454	15370
910.57	15279
910.685	15351
910.8	15523
910.915	15428
911.03	15310
911.145	15100
911.259	15100
911.374	15085
911.489	14937
911.604	15013
911.718	14876
911.833	14868
911.947	14746
912.062	14670
912.176	14781
912.291	14861
912.405	14750
912.519	14944
912.633	15013
912.748	14876
912.862	14826
912.976	14636
913.09	14556
913.204	14568
913.318	14583
913.431	14667
913.545	14754
913.659	14788
913.772	14636
913.886	14514
914	14377
914.113	14522
914.226	14590
914.34	14537
914.453	14377
914.566	14442
914.68	14415
914.793	14320
914.906	14161
915.019	14100
915.132	14005
915.245	14191
915.358	14206
915.47	14065
915.583	14119
915.696	14202
915.809	14199
915.921	14252
916.034	14058
916.146	13978
916.259	14039
916.371	14035
916.483	14100
916.595	13917
916.708	13890
916.82	13944
916.932	13986
917.044	13830
917.156	13913
917.268	13811
917.38	13849
917.491	13750
917.603	13811
917.715	13864
917.826	13906
917.938	13746
918.049	13666
918.161	13704
918.272	13723
918.384	13845
918.495	13742
918.606	13613
918.717	13597
918.828	13575
918.939	13518
919.05	13411
919.161	13468
919.272	13411
919.383	13312
919.494	13491
919.604	13712
919.715	13533
919.826	13476
919.936	13449
920.047	13571
920.157	13510
920.267	13662
920.378	13548
920.488	13506
920.598	13518
920.708	13784
920.818	13632
920.928	13575
921.038	13765
921.148	13788
921.258	13441
921.368	13301
921.477	13236
921.587	13320
921.697	13080
921.806	13209
921.916	13145
922.025	12954
922.134	12840
922.244	12848
922.353	12928
922.462	12825
922.571	12745
922.68	12540
922.789	12525
922.898	12532
923.007	12479
923.116	12540
923.224	12479
923.333	12559
923.442	12426
923.55	12296
923.659	12365
923.767	12391
923.876	12285
923.984	12330
924.092	12350
924.201	12346
924.309	12277
924.417	12418
924.525	12235
924.633	12247
924.741	13149
924.849	12015
924.956	12266
925.064	12003
925.172	12041
925.279	12053
925.387	11977
925.494	12057
925.602	12216
925.709	12087
925.816	11855
925.924	11988
926.031	12125
926.138	11935
926.245	11942
926.352	11855
926.459	12072
926.566	12003
926.673	11927
926.779	11824
926.886	11722
926.993	11615
927.099	11634
927.206	11649
927.312	11543
927.419	11604
927.525	11581
927.631	11611
927.737	11471
927.843	11425
927.95	11330
928.056	11410
928.162	11478
928.267	11570
928.373	12076
928.479	11558
928.585	11296
928.69	11387
928.796	11433
928.901	11227
929.007	11124
929.112	11334
929.218	11334
929.323	11239
929.428	11204
929.533	11341
929.638	11147
929.743	11128
929.848	11250
929.953	11162
930.058	11037
930.163	10850
930.267	10919
930.372	10995
930.477	10801
930.581	11064
930.685	10904
930.79	10847
930.894	10835
930.998	10714
931.103	10885
931.207	10500
931.311	10474
931.415	10348
931.519	10169
931.623	10181
