Data from test_V78500241_2499.txt Node
Date: Fri Mar 25 14:51:06 CST 2022
User: usil
Spectrometer: V785-0024
Trigger mode: 0
Integration Time (sec): 4.000000E-1
Scans to average: 1
Nonlinearity correction enabled: false
Boxcar width: 0
Storing dark spectrum: false
XAxis mode: Wavelengths
Number of Pixels in Spectrum: 1024
>>>>>Begin Spectral Data<<<<<
801.071	21979
801.214	21846
801.356	21698
801.499	21641
801.641	21401
801.783	21477
801.926	21454
802.068	21344
802.211	21412
802.353	21256
802.496	20979
802.638	20948
802.78	20899
802.923	20785
803.065	20667
803.208	20689
803.35	20815
803.492	20902
803.635	20811
803.777	20678
803.919	20853
804.061	21009
804.204	20857
804.346	20785
804.488	20667
804.63	20811
804.773	20743
804.915	20777
805.057	20830
805.199	20568
805.341	20826
805.483	20800
805.626	20758
805.768	20746
805.91	20849
806.052	20682
806.194	20670
806.336	20861
806.478	20632
806.62	20686
806.762	20765
806.904	20872
807.046	21199
807.188	21146
807.33	21017
807.472	21154
807.614	20918
807.756	20998
807.898	20739
808.04	20906
808.182	20552
808.324	20792
808.465	20845
808.607	21051
808.749	21001
808.891	21199
809.033	21272
809.174	21203
809.316	20994
809.458	20986
809.6	20880
809.741	21096
809.883	21085
810.025	21325
810.166	21226
810.308	21199
810.45	21093
810.591	21020
810.733	20838
810.875	20872
811.016	20796
811.158	20712
811.299	20941
811.441	21093
811.582	20944
811.724	20769
811.865	20883
812.007	20705
812.148	20769
812.29	20914
812.431	21077
812.573	21074
812.714	21226
812.855	21272
812.997	21401
813.138	21488
813.279	21367
813.421	21405
813.562	21207
813.703	21150
813.845	20967
813.986	20731
814.127	20594
814.268	20450
814.41	20511
814.551	20389
814.692	20442
814.833	20286
814.974	20229
815.115	20396
815.256	20214
815.397	20240
815.539	20180
815.68	20073
815.821	20073
815.962	20081
816.103	20119
816.244	19871
816.385	19864
816.526	19871
816.666	19677
816.807	19495
816.948	19529
817.089	19616
817.23	19681
817.371	19495
817.512	19548
817.653	19476
817.793	19434
817.934	19460
818.075	19502
818.216	19502
818.356	19274
818.497	19362
818.638	19156
818.778	19164
818.919	19198
819.06	19244
819.2	19327
819.341	19362
819.481	19400
819.622	19480
819.762	19689
819.903	19601
820.043	19594
820.184	19510
820.324	19502
820.465	19556
820.605	19464
820.746	19476
820.886	19346
821.026	19506
821.167	19449
821.307	19506
821.447	19510
821.588	19335
821.728	19103
821.868	19137
822.008	18810
822.149	18958
822.289	18894
822.429	18631
822.569	18551
822.709	18642
822.849	18270
822.99	18502
823.13	18388
823.27	18334
823.41	18205
823.55	18019
823.69	18262
823.83	18258
823.97	18167
824.11	17954
824.25	17946
824.389	17912
824.529	18083
824.669	17885
824.809	18030
824.949	18026
825.089	17992
825.228	17996
825.368	17824
825.508	17714
825.648	17809
825.787	17794
825.927	17923
826.067	17707
826.206	17703
826.346	17771
826.485	17733
826.625	17695
826.765	17821
826.904	17691
827.044	17615
827.183	17467
827.323	17425
827.462	17474
827.601	17444
827.741	17322
827.88	17410
828.02	17277
828.159	17337
828.298	17448
828.437	17482
828.577	17356
828.716	17516
828.855	17402
828.994	17254
829.134	17083
829.273	17178
829.412	17193
829.551	17109
829.69	17094
829.829	17242
829.968	17326
830.107	17284
830.246	17128
830.385	16972
830.524	17060
830.663	17086
830.802	16881
830.941	16782
831.08	16862
831.219	16968
831.357	16774
831.496	17086
831.635	16706
831.774	16759
831.913	16664
832.051	16588
832.19	16630
832.329	16622
832.467	16508
832.606	16497
832.744	16436
832.883	16481
833.022	16470
833.16	16554
833.299	16561
833.437	16561
833.576	16584
833.714	16554
833.852	16607
833.991	16512
834.129	16523
834.267	16645
834.406	16550
834.544	16485
834.682	16565
834.821	16535
834.959	16771
835.097	16535
835.235	16607
835.373	16615
835.511	16573
835.65	16523
835.788	16485
835.926	16375
836.064	16246
836.202	16291
836.34	16542
836.478	16611
836.615	16379
836.753	16466
836.891	16497
837.029	16558
837.167	16440
837.305	16413
837.443	16367
837.58	16344
837.718	16360
837.856	16314
837.993	16299
838.131	16341
838.269	16188
838.406	16360
838.544	16253
838.681	15987
838.819	15964
838.956	15934
839.094	15899
839.231	15949
839.369	15994
839.506	16226
839.643	16154
839.781	15945
839.918	15888
840.055	15789
840.193	15766
840.33	15968
840.467	15945
840.604	15922
840.742	16109
840.879	15728
841.016	15812
841.153	15880
841.29	16017
841.427	15956
841.564	15937
841.701	15968
841.838	15793
841.975	15732
842.112	15766
842.249	15637
842.385	15606
842.522	15850
842.659	15652
842.796	15637
842.933	15663
843.069	15591
843.206	15618
843.343	15717
843.479	15595
843.616	15698
843.752	15488
843.889	15454
844.025	15591
844.162	15504
844.298	15595
844.435	15492
844.571	15424
844.708	15504
844.844	15633
844.98	15595
845.117	15633
845.253	15424
845.389	15370
845.525	15405
845.661	15443
845.798	15256
845.934	15302
846.07	15272
846.206	15321
846.342	15374
846.478	15291
846.614	15146
846.75	15009
846.886	14998
847.022	15150
847.158	15081
847.294	14933
847.429	14998
847.565	14998
847.701	15169
847.837	14792
847.972	14682
848.108	14838
848.244	14883
848.379	14651
848.515	14617
848.65	14575
848.786	14659
848.921	14701
849.057	14762
849.192	14735
849.328	14758
849.463	14568
849.598	14537
849.734	14514
849.869	14522
850.004	14317
850.14	14385
850.275	14396
850.41	14324
850.545	14290
850.68	14366
850.815	14396
850.95	14366
851.085	14518
851.22	14476
851.355	14408
851.49	14347
851.625	14347
851.76	14347
851.895	14206
852.03	14202
852.165	14282
852.299	14415
852.434	14454
852.569	14385
852.703	14450
852.838	14476
852.973	14514
853.107	14461
853.242	14351
853.376	14259
853.511	14149
853.645	14157
853.78	14408
853.914	14191
854.048	14187
854.183	14252
854.317	14168
854.451	14450
854.585	14214
854.72	14195
854.854	14366
854.988	14088
855.122	14199
855.256	14008
855.39	14161
855.524	14336
855.658	14237
855.792	14263
855.926	14305
856.06	14172
856.194	14393
856.327	14267
856.461	14180
856.595	14218
856.729	14343
856.862	14358
856.996	14278
857.13	14389
857.263	14370
857.397	14404
857.53	14271
857.664	14309
857.797	14377
857.931	14415
858.064	14229
858.197	14396
858.331	14225
858.464	14176
858.597	14073
858.731	14282
858.864	14259
858.997	14164
859.13	14286
859.263	14256
859.396	14381
859.529	14233
859.662	14271
859.795	14161
859.928	14229
860.061	14469
860.194	14427
860.327	14381
860.46	14324
860.592	14347
860.725	14355
860.858	14431
860.99	14347
861.123	14164
861.256	14145
861.388	14332
861.521	14910
861.653	14145
861.786	14001
861.918	14046
862.05	14084
862.183	14199
862.315	14259
862.447	14263
862.58	14278
862.712	14096
862.844	13921
862.976	14130
863.108	14092
863.24	14473
863.372	14005
863.504	14024
863.636	14012
863.768	14130
863.9	14027
864.032	14027
864.164	14001
864.296	14050
864.428	14058
864.559	14145
864.691	14119
864.823	13989
864.954	14092
865.086	14039
865.217	14050
865.349	13974
865.48	14001
865.612	14027
865.743	14210
865.875	14103
866.006	13993
866.137	14020
866.269	14035
866.4	14062
866.531	13974
866.662	13944
866.793	14008
866.924	13978
867.055	14012
867.186	13936
867.317	13940
867.448	13890
867.579	13959
867.71	14012
867.841	13947
867.972	14092
868.103	14024
868.233	13978
868.364	13982
868.495	14050
868.625	14225
868.756	14351
868.886	14172
869.017	14259
869.147	14355
869.278	14343
869.408	14370
869.539	14278
869.669	14374
869.799	14244
869.929	14374
870.06	14434
870.19	14625
870.32	14617
870.45	14621
870.58	14629
870.71	14739
870.84	14781
870.97	14693
871.1	14708
871.23	14777
871.36	14853
871.489	14804
871.619	14842
871.749	14910
871.879	14948
872.008	14906
872.138	14876
872.267	14845
872.397	14769
872.526	14629
872.656	14613
872.785	14686
872.915	14921
873.044	15028
873.173	14842
873.303	14963
873.432	14921
873.561	14967
873.69	14880
873.819	14918
873.948	15039
874.077	14906
874.206	14861
874.335	14883
874.464	15028
874.593	15222
874.722	15116
874.851	15173
874.979	15306
875.108	15317
875.237	15230
875.365	15119
875.494	15268
875.623	15317
875.751	15306
875.88	15249
876.008	15355
876.136	15439
876.265	15625
876.393	15876
876.521	15739
876.65	15717
876.778	15682
876.906	15641
877.034	15545
877.162	15599
877.29	15523
877.418	15652
877.546	15663
877.674	15728
877.802	15576
877.93	15637
878.058	15614
878.185	15523
878.313	15656
878.441	15690
878.568	15504
878.696	15568
878.824	15603
878.951	15682
879.079	15762
879.206	15869
879.333	15842
879.461	15667
879.588	15766
879.715	15865
879.842	16032
879.97	15663
880.097	15462
880.224	15477
880.351	15515
880.478	15523
880.605	15439
880.732	15496
880.859	15736
880.986	15431
881.112	15507
881.239	15389
881.366	15222
881.493	15176
881.619	15180
881.746	15097
881.872	15176
881.999	15127
882.125	15077
882.252	15104
882.378	15169
882.505	15424
882.631	15142
882.757	15032
882.883	15051
883.01	15017
883.136	14918
883.262	14845
883.388	14792
883.514	14899
883.64	14937
883.766	14902
883.892	14724
884.018	14834
884.143	14986
884.269	15020
884.395	14712
884.52	14648
884.646	14731
884.772	14670
884.897	14526
885.023	14754
885.148	14811
885.274	14819
885.399	14838
885.524	14735
885.65	14754
885.775	14670
885.9	14659
886.025	14739
886.15	14655
886.275	14640
886.4	14590
886.525	14613
886.65	14670
886.775	14598
886.9	14765
887.025	14895
887.149	14697
887.274	14503
887.399	14541
887.523	14442
887.648	14431
887.773	14427
887.897	14560
888.021	14648
888.146	14400
888.27	14606
888.395	14541
888.519	14469
888.643	14610
888.767	14674
888.891	14434
889.015	14317
889.139	14434
889.263	14374
889.387	14507
889.511	14552
889.635	14530
889.759	14343
889.883	14339
890.006	14343
890.13	14419
890.254	14202
890.377	14347
890.501	14115
890.624	14229
890.748	14298
890.871	14069
890.995	14001
891.118	14058
891.241	14058
891.364	14187
891.488	14130
891.611	14103
891.734	14138
891.857	14058
891.98	14111
892.103	14157
892.226	14183
892.349	14024
892.471	13814
892.594	14100
892.717	14069
892.839	14062
892.962	14012
893.085	14020
893.207	14081
893.33	13959
893.452	13963
893.575	14237
893.697	14016
893.819	14183
893.941	14218
894.064	14180
894.186	14092
894.308	14027
894.43	14149
894.552	14244
894.674	14248
894.796	14046
894.918	14107
895.04	14084
895.161	14172
895.283	14164
895.405	14157
895.526	14176
895.648	14199
895.769	14164
895.891	14267
896.012	14275
896.134	14221
896.255	14233
896.376	14195
896.498	14229
896.619	14259
896.74	14206
896.861	14290
896.982	14632
897.103	14678
897.224	14499
897.345	14568
897.466	14423
897.587	14473
897.708	14686
897.828	14511
897.949	14499
898.07	14427
898.19	14446
898.311	14594
898.431	14549
898.552	14587
898.672	14644
898.792	14667
898.913	14648
899.033	14568
899.153	14446
899.273	14343
899.393	14450
899.513	14461
899.633	14465
899.753	14450
899.873	14438
899.993	14495
900.113	14530
900.232	14514
900.352	14366
900.472	14362
900.591	14294
900.711	14339
900.83	14282
900.95	14431
901.069	14400
901.189	14214
901.308	14039
901.427	13974
901.546	13986
901.665	14073
901.784	14115
901.904	13849
902.023	13822
902.141	13605
902.26	13548
902.379	13696
902.498	13552
902.617	13487
902.735	13578
902.854	13616
902.973	13449
903.091	13339
903.21	13247
903.328	13278
903.446	13194
903.565	13118
903.683	13160
903.801	13088
903.919	13171
904.038	13156
904.156	13031
904.274	13046
904.392	12954
904.51	12886
904.627	13019
904.745	12905
904.863	13061
904.981	12760
905.098	12669
905.216	12707
905.334	12677
905.451	12635
905.569	12544
905.686	12639
905.803	12719
905.921	12460
906.038	12517
906.155	12437
906.272	12350
906.389	12403
906.506	12190
906.623	12243
906.74	12167
906.857	12121
906.974	12117
907.091	12292
907.208	12426
907.324	12300
907.441	12224
907.557	12015
907.674	12019
907.79	11931
907.907	11977
908.023	12068
908.139	11870
908.256	11988
908.372	11954
908.488	11885
908.604	11695
908.72	11691
908.836	11794
908.952	11710
909.068	11783
909.184	11897
909.3	11710
909.415	11866
909.531	11623
909.647	11535
909.762	11497
909.878	11368
909.993	11543
910.108	11532
910.224	11452
910.339	11486
910.454	11398
910.57	11360
910.685	11337
910.8	11566
910.915	11478
911.03	11299
911.145	11223
911.259	11193
911.374	11235
911.489	11181
911.604	11193
911.718	10946
911.833	10976
911.947	10824
912.062	10763
912.176	10965
912.291	10908
912.405	10873
912.519	11094
912.633	11147
912.748	11071
912.862	10934
912.976	10869
913.09	10740
913.204	10801
913.318	10911
913.431	10904
913.545	10930
913.659	10949
913.772	10843
913.886	10653
914	10714
914.113	10881
914.226	10847
914.34	10748
914.453	10645
914.566	10812
914.68	10664
914.793	10664
914.906	10500
915.019	10424
915.132	10409
915.245	10424
915.358	10478
915.47	10546
915.583	10459
915.696	10519
915.809	10626
915.921	10512
916.034	10462
916.146	10413
916.259	10367
916.371	10531
916.483	10535
916.595	10531
916.708	10402
916.82	10443
916.932	10371
917.044	10363
917.156	10367
917.268	10287
917.38	10363
917.491	10268
917.603	10333
917.715	10367
917.826	10417
917.938	10299
918.049	10188
918.161	10257
918.272	10428
918.384	10398
918.495	10382
918.606	10196
918.717	10109
918.828	10158
918.939	10162
919.05	10090
919.161	10101
919.272	10017
919.383	10006
919.494	10238
919.604	10428
919.715	10192
919.826	10013
919.936	10162
920.047	10219
920.157	10223
920.267	10455
920.378	10234
920.488	10219
920.598	10367
920.708	10508
920.818	10367
920.928	10375
921.038	10607
921.148	10516
921.258	10268
921.368	10128
921.477	10063
921.587	10006
921.697	10071
921.806	10071
921.916	10002
922.025	9789
922.134	9774
922.244	9770
922.353	9781
922.462	9675
922.571	9591
922.68	9466
922.789	9454
922.898	9492
923.007	9428
923.116	9469
923.224	9428
923.333	9462
923.442	9382
923.55	9332
923.659	9408
923.767	9348
923.876	9298
923.984	9401
924.092	9272
924.201	9329
924.309	9348
924.417	9321
924.525	9192
924.633	9317
924.741	10188
924.849	9085
924.956	9268
925.064	9074
925.172	9001
925.279	9074
925.387	9123
925.494	9138
925.602	9291
925.709	9165
925.816	9123
925.924	9119
926.031	9211
926.138	9150
926.245	9222
926.352	9119
926.459	9097
926.566	9260
926.673	9013
926.779	8956
926.886	8895
926.993	8868
927.099	8845
927.206	8766
927.312	8804
927.419	8845
927.525	8815
927.631	8842
927.737	8746
927.843	8678
927.95	8568
928.056	8701
928.162	8758
928.267	8758
928.373	9454
928.479	8792
928.585	8545
928.69	8720
928.796	8815
928.901	8621
929.007	8541
929.112	8663
929.218	8564
929.323	8583
929.428	8590
929.533	8648
929.638	8427
929.743	8480
929.848	8568
929.953	8511
930.058	8438
930.163	8301
930.267	8343
930.372	8484
930.477	8248
930.581	8434
930.685	8393
930.79	8259
930.894	8240
930.998	8267
931.103	8301
931.207	8058
931.311	8020
931.415	8008
931.519	7772
931.623	7780
