Data from test_V78500241_781.txt Node
Date: Fri Mar 25 14:39:09 CST 2022
User: usil
Spectrometer: V785-0024
Trigger mode: 0
Integration Time (sec): 4.000000E-1
Scans to average: 1
Nonlinearity correction enabled: false
Boxcar width: 0
Storing dark spectrum: false
XAxis mode: Wavelengths
Number of Pixels in Spectrum: 1024
>>>>>Begin Spectral Data<<<<<
801.071	26857
801.214	26503
801.356	26473
801.499	26351
801.641	26130
801.783	26195
801.926	26157
802.068	25974
802.211	25837
802.353	25845
802.496	25715
802.638	25594
802.78	25510
802.923	25578
803.065	25662
803.208	25567
803.35	25616
803.492	25620
803.635	25780
803.777	25601
803.919	25670
804.061	26020
804.204	25791
804.346	25753
804.488	25609
804.63	25837
804.773	25780
804.915	25860
805.057	26046
805.199	25928
805.341	26183
805.483	26256
805.626	26336
805.768	26267
805.91	26431
806.052	26393
806.194	26568
806.336	26937
806.478	26952
806.62	27032
806.762	27363
806.904	27797
807.046	28185
807.188	28440
807.33	28866
807.472	29337
807.614	29904
807.756	30779
807.898	31780
808.04	33138
808.182	34877
808.324	37308
808.465	40120
808.607	43061
808.749	45922
808.891	47398
809.033	47543
809.174	45911
809.316	43377
809.458	40169
809.6	37084
809.741	34580
809.883	32705
810.025	31419
810.166	30190
810.308	29535
810.45	29086
810.591	28557
810.733	28093
810.875	27656
811.016	27298
811.158	27123
811.299	27192
811.441	27081
811.582	26807
811.724	26773
811.865	26583
812.007	26476
812.148	26278
812.29	26427
812.431	26419
812.573	26602
812.714	26492
812.855	26705
812.997	26792
813.138	26705
813.279	26651
813.421	26499
813.562	26427
813.703	26183
813.845	26069
813.986	25776
814.127	25476
814.268	25396
814.41	25438
814.551	25202
814.692	25441
814.833	25198
814.974	25145
815.115	25065
815.256	24977
815.397	24977
815.539	24985
815.68	24848
815.821	24772
815.962	24798
816.103	24749
816.244	24532
816.385	24532
816.526	24521
816.666	24350
816.807	24117
816.948	24266
817.089	24235
817.23	24239
817.371	24247
817.512	24140
817.653	24076
817.793	23980
817.934	24079
818.075	24171
818.216	24098
818.356	23863
818.497	23874
818.638	23714
818.778	23710
818.919	23851
819.06	23821
819.2	23920
819.341	24095
819.481	23935
819.622	24117
819.762	24232
819.903	24239
820.043	24125
820.184	24011
820.324	23950
820.465	23992
820.605	23931
820.746	23775
820.886	23786
821.026	23958
821.167	23916
821.307	23824
821.447	23817
821.588	23684
821.728	23512
821.868	23292
822.008	23197
822.149	23220
822.289	23075
822.429	22824
822.569	22786
822.709	22755
822.849	22641
822.99	22531
823.13	22599
823.27	22580
823.41	22440
823.55	22382
823.69	22382
823.83	22386
823.97	22360
824.11	22223
824.25	22139
824.389	22166
824.529	22143
824.669	22215
824.809	22329
824.949	22257
825.089	22162
825.228	22192
825.368	22059
825.508	21972
825.648	21960
825.787	21991
825.927	21983
826.067	21953
826.206	21846
826.346	21994
826.485	22021
826.625	21964
826.765	22021
826.904	21964
827.044	21629
827.183	21694
827.323	21648
827.462	21686
827.601	21660
827.741	21599
827.88	21595
828.02	21500
828.159	21492
828.298	21728
828.437	21606
828.577	21500
828.716	21705
828.855	21393
828.994	21310
829.134	21313
829.273	21382
829.412	21306
829.551	21306
829.69	21230
829.829	21165
829.968	21348
830.107	21408
830.246	21294
830.385	21116
830.524	21272
830.663	21055
830.802	20811
830.941	20880
831.08	20838
831.219	20887
831.357	20895
831.496	21207
831.635	20864
831.774	20853
831.913	20815
832.051	20769
832.19	20670
832.329	20777
832.467	20765
832.606	20655
832.744	20731
832.883	20750
833.022	20826
833.16	20952
833.299	21116
833.437	21176
833.576	21268
833.714	21367
833.852	21542
833.991	21644
834.129	21812
834.267	21690
834.406	21751
834.544	21599
834.682	21458
834.821	21367
834.959	21367
835.097	21100
835.235	21161
835.373	20944
835.511	20982
835.65	20739
835.788	20636
835.926	20541
836.064	20381
836.202	20374
836.34	20526
836.478	20537
836.615	20457
836.753	20362
836.891	20377
837.029	20412
837.167	20298
837.305	20237
837.443	20252
837.58	20153
837.718	20339
837.856	20244
837.993	20199
838.131	20237
838.269	20092
838.406	20100
838.544	20081
838.681	19955
838.819	19932
838.956	19731
839.094	19662
839.231	19776
839.369	19826
839.506	19967
839.643	19902
839.781	19685
839.918	19658
840.055	19571
840.193	19635
840.33	19548
840.467	19643
840.604	19746
840.742	19947
840.879	19438
841.016	19540
841.153	19537
841.29	19685
841.427	19658
841.564	19693
841.701	19803
841.838	19419
841.975	19529
842.112	19537
842.249	19392
842.385	19343
842.522	19639
842.659	19491
842.796	19438
842.933	19441
843.069	19388
843.206	19358
843.343	19590
843.479	19594
843.616	19628
843.752	19358
843.889	19403
844.025	19651
844.162	19457
844.298	19811
844.435	19784
844.571	20058
844.708	20282
844.844	20769
844.98	20994
845.117	21576
845.253	22398
845.389	24114
845.525	27424
845.661	32564
845.798	38743
845.934	43468
846.07	45214
846.206	43970
846.342	39850
846.478	33523
846.614	28265
846.75	24711
846.886	22649
847.022	21447
847.158	20564
847.294	20069
847.429	19860
847.565	19381
847.701	19495
847.837	18958
847.972	18844
848.108	18935
848.244	18814
848.379	18559
848.515	18418
848.65	18437
848.786	18479
848.921	18498
849.057	18513
849.192	18517
849.328	18464
849.463	18319
849.598	18327
849.734	18289
849.869	18239
850.004	18114
850.14	18205
850.275	18174
850.41	17946
850.545	17999
850.68	18079
850.815	18110
850.95	17996
851.085	18273
851.22	18201
851.355	18038
851.49	18079
851.625	18117
851.76	18144
851.895	18068
852.03	17950
852.165	18091
852.299	18155
852.434	18239
852.569	18064
852.703	18174
852.838	18243
852.973	18247
853.107	18330
853.242	18247
853.376	18140
853.511	18110
853.645	18281
853.78	18395
853.914	18224
854.048	18247
854.183	18277
854.317	18334
854.451	18437
854.585	18136
854.72	18258
854.854	18342
854.988	18171
855.122	18034
855.256	17980
855.39	18057
855.524	18072
855.658	18102
855.792	18053
855.926	18038
856.06	18064
856.194	18133
856.327	17984
856.461	17897
856.595	17889
856.729	17863
856.862	17923
856.996	17942
857.13	18007
857.263	18038
857.397	17992
857.53	17866
857.664	17863
857.797	17908
857.931	17904
858.064	17901
858.197	18007
858.331	17847
858.464	17733
858.597	17672
858.731	17802
858.864	17741
858.997	17771
859.13	17783
859.263	17805
859.396	17889
859.529	17657
859.662	17703
859.795	17684
859.928	17737
860.061	17980
860.194	17984
860.327	17817
860.46	17707
860.592	17813
860.725	17805
860.858	17870
860.99	17767
861.123	17642
861.256	17687
861.388	17775
861.521	18247
861.653	17630
861.786	17532
861.918	17585
862.05	17619
862.183	17684
862.315	17676
862.447	17802
862.58	17733
862.712	17471
862.844	17337
862.976	17585
863.108	17627
863.24	17893
863.372	17345
863.504	17524
863.636	17372
863.768	17551
863.9	17493
864.032	17440
864.164	17398
864.296	17486
864.428	17581
864.559	17478
864.691	17512
864.823	17425
864.954	17471
865.086	17410
865.217	17261
865.349	17383
865.48	17372
865.612	17261
865.743	17520
865.875	17376
866.006	17311
866.137	17429
866.269	17326
866.4	17364
866.531	17307
866.662	17288
866.793	17280
866.924	17337
867.055	17353
867.186	17334
867.317	17250
867.448	17288
867.579	17273
867.71	17288
867.841	17368
867.972	17345
868.103	17239
868.233	17284
868.364	17379
868.495	17448
868.625	17539
868.756	17611
868.886	17516
869.017	17589
869.147	17733
869.278	17653
869.408	17657
869.539	17581
869.669	17649
869.799	17676
869.929	17737
870.06	17615
870.19	17977
870.32	17855
870.45	17958
870.58	18015
870.71	18152
870.84	18117
870.97	18060
871.1	18121
871.23	18201
871.36	18239
871.489	18144
871.619	18182
871.749	18247
871.879	18289
872.008	18445
872.138	18296
872.267	18327
872.397	18254
872.526	18220
872.656	18148
872.785	18201
872.915	18384
873.044	18452
873.173	18296
873.303	18566
873.432	18521
873.561	18525
873.69	18506
873.819	18631
873.948	18616
874.077	18616
874.206	18673
874.335	18692
874.464	18852
874.593	18890
874.722	18852
874.851	19034
874.979	18977
875.108	19137
875.237	19118
875.365	18962
875.494	19175
875.623	19217
875.751	19206
875.88	19266
876.008	19419
876.136	19495
876.265	19818
876.393	19822
876.521	19890
876.65	20122
876.778	20088
876.906	20115
877.034	19955
877.162	20100
877.29	20100
877.418	20366
877.546	20492
877.674	20415
877.802	20575
877.93	20769
878.058	20769
878.185	20891
878.313	21138
878.441	21705
878.568	21880
878.696	22379
878.824	23147
878.951	24205
879.079	25662
879.206	27622
879.333	29364
879.461	30985
879.588	32016
879.715	31951
879.842	31164
879.97	29433
880.097	27545
880.224	25807
880.351	24932
880.478	24049
880.605	23539
880.732	23200
880.859	23155
880.986	22759
881.112	22672
881.239	22565
881.366	22352
881.493	22276
881.619	22322
881.746	22303
881.872	22462
881.999	22386
882.125	22310
882.252	22405
882.378	22394
882.505	22508
882.631	22603
882.757	22291
882.883	22493
883.01	22341
883.136	22265
883.262	22128
883.388	22131
883.514	22318
883.64	22329
883.766	22379
883.892	22063
884.018	22036
884.143	22257
884.269	22303
884.395	22078
884.52	22082
884.646	21983
884.772	22002
884.897	21915
885.023	22044
885.148	22090
885.274	22105
885.399	22032
885.524	21770
885.65	21774
885.775	21648
885.9	21412
886.025	21583
886.15	21245
886.275	21058
886.4	20750
886.525	20689
886.65	20636
886.775	20602
886.9	20644
887.025	20590
887.149	20263
887.274	19989
887.399	19898
887.523	19833
887.648	19658
887.773	19594
887.897	19750
888.021	19723
888.146	19491
888.27	19605
888.395	19540
888.519	19556
888.643	19278
888.767	19514
888.891	19232
889.015	19148
889.139	19057
889.263	18973
889.387	19202
889.511	19274
889.635	18954
889.759	18878
889.883	18947
890.006	18878
890.13	18817
890.254	18719
890.377	18730
890.501	18471
890.624	18456
890.748	18486
890.871	18266
890.995	18273
891.118	18213
891.241	18292
891.364	18152
891.488	18296
891.611	18186
891.734	18064
891.857	18300
891.98	18110
892.103	18201
892.226	17958
892.349	17988
892.471	17752
892.594	17939
892.717	17961
892.839	17817
892.962	17897
893.085	17912
893.207	17752
893.33	17630
893.452	17623
893.575	17771
893.697	17619
893.819	17832
893.941	17851
894.064	17760
894.186	17573
894.308	17547
894.43	17642
894.552	17733
894.674	17623
894.796	17448
894.918	17387
895.04	17406
895.161	17535
895.283	17520
895.405	17452
895.526	17486
895.648	17463
895.769	17493
895.891	17554
896.012	17497
896.134	17512
896.255	17440
896.376	17379
896.498	17372
896.619	17410
896.74	17368
896.861	17448
896.982	17695
897.103	17908
897.224	17661
897.345	17653
897.466	17539
897.587	17512
897.708	17634
897.828	17653
897.949	17505
898.07	17379
898.19	17478
898.311	17703
898.431	17528
898.552	17604
898.672	17695
898.792	17691
898.913	17505
899.033	17356
899.153	17406
899.273	17296
899.393	17448
899.513	17372
899.633	17364
899.753	17433
899.873	17307
899.993	17440
900.113	17284
900.232	17414
900.352	17315
900.472	17337
900.591	17155
900.711	17223
900.83	17246
900.95	17299
901.069	17250
901.189	17151
901.308	16953
901.427	16854
901.546	16873
901.665	16790
901.784	16774
901.904	16672
902.023	16538
902.141	16363
902.26	16344
902.379	16284
902.498	16196
902.617	16139
902.735	16242
902.854	16135
902.973	16071
903.091	15915
903.21	15968
903.328	15857
903.446	15823
903.565	15762
903.683	15720
903.801	15572
903.919	15652
904.038	15591
904.156	15481
904.274	15576
904.392	15420
904.51	15435
904.627	15424
904.745	15412
904.863	15545
904.981	15241
905.098	15070
905.216	15142
905.334	15150
905.451	15001
905.569	15032
905.686	15074
905.803	15009
905.921	14899
906.038	15001
906.155	14944
906.272	14746
906.389	14762
906.506	14556
906.623	14636
906.74	14606
906.857	14613
906.974	14492
907.091	14705
907.208	14644
907.324	14670
907.441	14621
907.557	14301
907.674	14336
907.79	14294
907.907	14393
908.023	14298
908.139	14324
908.256	14237
908.372	14233
908.488	14149
908.604	14096
908.72	13978
908.836	14005
908.952	13940
909.068	14043
909.184	14176
909.3	14012
909.415	14161
909.531	14031
909.647	13860
909.762	13845
909.878	13830
909.993	13830
910.108	13818
910.224	13666
910.339	13719
910.454	13696
910.57	13674
910.685	13548
910.8	13913
910.915	13811
911.03	13666
911.145	13514
911.259	13472
911.374	13343
911.489	13365
911.604	13289
911.718	13168
911.833	13213
911.947	13114
912.062	13080
912.176	13152
912.291	13175
912.405	13114
912.519	13327
912.633	13343
912.748	13285
912.862	13183
912.976	12951
913.09	12977
913.204	12935
913.318	12977
913.431	13114
913.545	13069
913.659	13118
913.772	12935
913.886	12928
914	12795
914.113	13031
914.226	13031
914.34	12920
914.453	12757
914.566	12989
914.68	12863
914.793	12783
914.906	12658
915.019	12528
915.132	12525
915.245	12623
915.358	12566
915.47	12627
915.583	12620
915.696	12597
915.809	12707
915.921	12730
916.034	12513
916.146	12574
916.259	12536
916.371	12631
916.483	12677
916.595	12494
916.708	12547
916.82	12475
916.932	12525
917.044	12578
917.156	12407
917.268	12429
917.38	12422
917.491	12399
917.603	12346
917.715	12544
917.826	12429
917.938	12315
918.049	12155
918.161	12304
918.272	12422
918.384	12403
918.495	12323
918.606	12190
918.717	12049
918.828	12163
918.939	12133
919.05	12121
919.161	12186
919.272	11920
919.383	11946
919.494	12235
919.604	12376
919.715	12114
919.826	12019
919.936	12098
920.047	12121
920.157	12140
920.267	12308
920.378	12136
920.488	12102
920.598	12216
920.708	12422
920.818	12338
920.928	12251
921.038	12388
921.148	12353
921.258	12030
921.368	11969
921.477	11950
921.587	11908
921.697	11851
921.806	11847
921.916	11878
922.025	11707
922.134	11649
922.244	11505
922.353	11638
922.462	11459
922.571	11376
922.68	11265
922.789	11185
922.898	11174
923.007	11162
923.116	11254
923.224	11235
923.333	11178
923.442	11143
923.55	11090
923.659	11071
923.767	11060
923.876	11086
923.984	11178
924.092	10984
924.201	11178
924.309	11029
924.417	11128
924.525	10946
924.633	10984
924.741	11699
924.849	10774
924.956	10972
925.064	10759
925.172	10691
925.279	10752
925.387	10759
925.494	10759
925.602	10968
925.709	10797
925.816	10714
925.924	10744
926.031	10881
926.138	10710
926.245	10755
926.352	10694
926.459	10805
926.566	10820
926.673	10744
926.779	10611
926.886	10622
926.993	10428
927.099	10493
927.206	10375
927.312	10280
927.419	10516
927.525	10462
927.631	10478
927.737	10341
927.843	10207
927.95	10173
928.056	10227
928.162	10390
928.267	10284
928.373	10957
928.479	10447
928.585	10112
928.69	10192
928.796	10318
928.901	10090
929.007	10059
929.112	10162
929.218	10154
929.323	10055
929.428	10002
929.533	10249
929.638	10055
929.743	10097
929.848	10044
929.953	10101
930.058	9945
930.163	9736
930.267	9785
930.372	9991
930.477	9808
930.581	9953
930.685	9876
930.79	9713
930.894	9838
930.998	9709
931.103	9850
931.207	9557
931.311	9416
931.415	9386
931.519	9154
931.623	9157
