Data from test_V78500241_752.txt Node
Date: Fri Mar 25 14:38:57 CST 2022
User: usil
Spectrometer: V785-0024
Trigger mode: 0
Integration Time (sec): 4.000000E-1
Scans to average: 1
Nonlinearity correction enabled: false
Boxcar width: 0
Storing dark spectrum: false
XAxis mode: Wavelengths
Number of Pixels in Spectrum: 1024
>>>>>Begin Spectral Data<<<<<
801.071	26960
801.214	26849
801.356	26644
801.499	26617
801.641	26590
801.783	26415
801.926	26488
802.068	26366
802.211	26290
802.353	26149
802.496	25982
802.638	26020
802.78	25898
802.923	25917
803.065	25875
803.208	25674
803.35	25788
803.492	26043
803.635	25997
803.777	25997
803.919	26065
804.061	26347
804.204	26210
804.346	25989
804.488	26111
804.63	26119
804.773	26138
804.915	26164
805.057	26484
805.199	26195
805.341	26469
805.483	26765
805.626	26514
805.768	26575
805.91	26667
806.052	26979
806.194	26910
806.336	27310
806.478	27351
806.62	27393
806.762	27960
806.904	28303
807.046	28729
807.188	29086
807.33	29414
807.472	30136
807.614	30760
807.756	31639
807.898	32838
808.04	34238
808.182	36429
808.324	39001
808.465	42015
808.607	45306
808.749	48464
808.891	50263
809.033	50328
809.174	48749
809.316	45949
809.458	42388
809.6	38842
809.741	35965
809.883	33964
810.025	32256
810.166	31114
810.308	30323
810.45	29604
810.591	29071
810.733	28497
810.875	28086
811.016	27724
811.158	27526
811.299	27637
811.441	27492
811.582	27378
811.724	27070
811.865	26960
812.007	26880
812.148	26883
812.29	26693
812.431	26765
812.573	26967
812.714	26868
812.855	27100
812.997	27017
813.138	27043
813.279	26948
813.421	26956
813.562	26762
813.703	26541
813.845	26412
813.986	26020
814.127	25814
814.268	25662
814.41	25590
814.551	25430
814.692	25761
814.833	25457
814.974	25537
815.115	25476
815.256	25190
815.397	25304
815.539	25396
815.68	25080
815.821	24992
815.962	25266
816.103	25019
816.244	25061
816.385	24848
816.526	24726
816.666	24574
816.807	24433
816.948	24437
817.089	24426
817.23	24380
817.371	24490
817.512	24407
817.653	24273
817.793	24289
817.934	24384
818.075	24342
818.216	24232
818.356	24197
818.497	24098
818.638	23874
818.778	24083
818.919	24060
819.06	24148
819.2	24159
819.341	24213
819.481	24171
819.622	24125
819.762	24445
819.903	24467
820.043	24315
820.184	24273
820.324	24026
820.465	24273
820.605	24205
820.746	24091
820.886	23923
821.026	24114
821.167	23935
821.307	24110
821.447	24011
821.588	23771
821.728	23805
821.868	23566
822.008	23444
822.149	23425
822.289	23242
822.429	23037
822.569	23071
822.709	23010
822.849	22881
822.99	22843
823.13	22755
823.27	22725
823.41	22577
823.55	22485
823.69	22561
823.83	22679
823.97	22596
824.11	22440
824.25	22299
824.389	22417
824.529	22466
824.669	22367
824.809	22493
824.949	22398
825.089	22329
825.228	22394
825.368	22116
825.508	22261
825.648	22284
825.787	22150
825.927	22287
826.067	22105
826.206	22169
826.346	22166
826.485	22249
826.625	22261
826.765	22295
826.904	22109
827.044	21934
827.183	21831
827.323	21766
827.462	21835
827.601	21842
827.741	21972
827.88	21736
828.02	21606
828.159	21755
828.298	21675
828.437	21854
828.577	21751
828.716	21709
828.855	21781
828.994	21603
829.134	21462
829.273	21660
829.412	21466
829.551	21507
829.69	21435
829.829	21557
829.968	21557
830.107	21618
830.246	21511
830.385	21488
830.524	21500
830.663	21317
830.802	21096
830.941	21195
831.08	21176
831.219	21096
831.357	21184
831.496	21275
831.635	21081
831.774	21142
831.913	20952
832.051	20876
832.19	20956
832.329	21081
832.467	20842
832.606	20811
832.744	20921
832.883	21017
833.022	21058
833.16	21199
833.299	21256
833.437	21428
833.576	21614
833.714	21709
833.852	21911
833.991	22032
834.129	22074
834.267	22086
834.406	22067
834.544	21994
834.682	21975
834.821	21789
834.959	21793
835.097	21351
835.235	21481
835.373	21252
835.511	21157
835.65	21070
835.788	20887
835.926	20830
836.064	20583
836.202	20560
836.34	20830
836.478	20689
836.615	20663
836.753	20667
836.891	20769
837.029	20708
837.167	20693
837.305	20499
837.443	20412
837.58	20446
837.718	20530
837.856	20476
837.993	20400
838.131	20355
838.269	20358
838.406	20298
838.544	20298
838.681	20039
838.819	20039
838.956	19974
839.094	19890
839.231	20039
839.369	20027
839.506	20195
839.643	20058
839.781	19909
839.918	19807
840.055	19871
840.193	19826
840.33	19811
840.467	19925
840.604	19902
840.742	20039
840.879	19738
841.016	19826
841.153	19875
841.29	19993
841.427	19803
841.564	19902
841.701	19822
841.838	19902
841.975	19746
842.112	19723
842.249	19715
842.385	19635
842.522	19830
842.659	19750
842.796	19700
842.933	19712
843.069	19761
843.206	19693
843.343	19894
843.479	19849
843.616	19830
843.752	19651
843.889	19822
844.025	19898
844.162	19765
844.298	20081
844.435	20199
844.571	20259
844.708	20705
844.844	21089
844.98	21401
845.117	22036
845.253	23003
845.389	25084
845.525	28752
845.661	34710
845.798	41862
845.934	46984
846.07	48795
846.206	47322
846.342	42315
846.478	35429
846.614	29387
846.75	25529
846.886	23315
847.022	21949
847.158	20925
847.294	20347
847.429	20088
847.565	19837
847.701	20031
847.837	19164
847.972	19095
848.108	19069
848.244	19057
848.379	18924
848.515	18772
848.65	18593
848.786	18753
848.921	18677
849.057	18757
849.192	18726
849.328	18681
849.463	18509
849.598	18661
849.734	18433
849.869	18486
850.004	18388
850.14	18506
850.275	18391
850.41	18197
850.545	18213
850.68	18372
850.815	18319
850.95	18323
851.085	18517
851.22	18380
851.355	18350
851.49	18285
851.625	18391
851.76	18327
851.895	18144
852.03	18220
852.165	18235
852.299	18254
852.434	18498
852.569	18441
852.703	18418
852.838	18525
852.973	18566
853.107	18589
853.242	18384
853.376	18292
853.511	18460
853.645	18441
853.78	18620
853.914	18517
854.048	18452
854.183	18532
854.317	18604
854.451	18840
854.585	18521
854.72	18479
854.854	18692
854.988	18475
855.122	18502
855.256	18376
855.39	18365
855.524	18319
855.658	18319
855.792	18186
855.926	18281
856.06	18262
856.194	18281
856.327	18209
856.461	18079
856.595	18064
856.729	18171
856.862	18171
856.996	18197
857.13	18148
857.263	18224
857.397	18182
857.53	18125
857.664	18209
857.797	18220
857.931	18247
858.064	18095
858.197	18144
858.331	18034
858.464	18015
858.597	17897
858.731	18095
858.864	17923
858.997	18068
859.13	17961
859.263	18079
859.396	18076
859.529	17824
859.662	17798
859.795	17935
859.928	17977
860.061	17992
860.194	18163
860.327	17965
860.46	17965
860.592	18064
860.725	18133
860.858	18091
860.99	18022
861.123	17942
861.256	17908
861.388	17992
861.521	18669
861.653	17729
861.786	17703
861.918	17805
862.05	17790
862.183	17973
862.315	17935
862.447	17988
862.58	17999
862.712	17745
862.844	17687
862.976	17703
863.108	17710
863.24	18114
863.372	17577
863.504	17608
863.636	17558
863.768	17760
863.9	17604
864.032	17570
864.164	17566
864.296	17592
864.428	17653
864.559	17627
864.691	17687
864.823	17676
864.954	17600
865.086	17630
865.217	17512
865.349	17528
865.48	17547
865.612	17558
865.743	17695
865.875	17543
866.006	17509
866.137	17543
866.269	17482
866.4	17532
866.531	17471
866.662	17551
866.793	17398
866.924	17600
867.055	17608
867.186	17482
867.317	17501
867.448	17429
867.579	17619
867.71	17505
867.841	17383
867.972	17471
868.103	17509
868.233	17551
868.364	17524
868.495	17554
868.625	17752
868.756	17821
868.886	17661
869.017	17767
869.147	17901
869.278	17885
869.408	17866
869.539	17779
869.669	17794
869.799	17897
869.929	17980
870.06	17885
870.19	18159
870.32	18102
870.45	18152
870.58	18285
870.71	18300
870.84	18330
870.97	18247
871.1	18304
871.23	18551
871.36	18422
871.489	18422
871.619	18483
871.749	18509
871.879	18521
872.008	18639
872.138	18601
872.267	18479
872.397	18418
872.526	18365
872.656	18506
872.785	18433
872.915	18513
873.044	18722
873.173	18764
873.303	18730
873.432	18821
873.561	18859
873.69	18768
873.819	18848
873.948	18810
874.077	18825
874.206	18890
874.335	18867
874.464	19019
874.593	19171
874.722	19118
874.851	19350
874.979	19327
875.108	19339
875.237	19373
875.365	19293
875.494	19346
875.623	19719
875.751	19521
875.88	19613
876.008	19746
876.136	19974
876.265	20138
876.393	20252
876.521	20271
876.65	20461
876.778	20282
876.906	20355
877.034	20469
877.162	20396
877.29	20526
877.418	20629
877.546	20754
877.674	20857
877.802	21039
877.93	21051
878.058	21359
878.185	21412
878.313	21850
878.441	22139
878.568	22386
878.696	23056
878.824	23939
878.951	25080
879.079	26640
879.206	28683
879.333	30848
879.461	32545
879.588	33717
879.715	33816
879.842	32720
879.97	30821
880.097	28675
880.224	26990
880.351	25719
880.478	24977
880.605	24178
880.732	23939
880.859	23885
880.986	23528
881.112	23379
881.239	23242
881.366	23197
881.493	23022
881.619	22957
881.746	23010
881.872	23094
881.999	22930
882.125	23029
882.252	23258
882.378	23246
882.505	23269
882.631	23250
882.757	23086
882.883	23143
883.01	23010
883.136	23048
883.262	22938
883.388	22839
883.514	23044
883.64	23029
883.766	22923
883.892	22812
884.018	22801
884.143	22930
884.269	23109
884.395	22866
884.52	22672
884.646	22702
884.772	22721
884.897	22710
885.023	22862
885.148	22797
885.274	22786
885.399	22672
885.524	22344
885.65	22443
885.775	22405
885.9	22112
886.025	22147
886.15	21888
886.275	21625
886.4	21431
886.525	21492
886.65	21161
886.775	21184
886.9	21020
887.025	20990
887.149	20693
887.274	20625
887.399	20499
887.523	20343
887.648	20168
887.773	20126
887.897	20138
888.021	20062
888.146	19917
888.27	20050
888.395	19909
888.519	19925
888.643	19852
888.767	19833
888.891	19662
889.015	19544
889.139	19643
889.263	19434
889.387	19438
889.511	19518
889.635	19396
889.759	19316
889.883	19168
890.006	19369
890.13	19225
890.254	18981
890.377	18985
890.501	18894
890.624	18817
890.748	18700
890.871	18696
890.995	18563
891.118	18642
891.241	18578
891.364	18620
891.488	18593
891.611	18448
891.734	18578
891.857	18528
891.98	18418
892.103	18513
892.226	18273
892.349	18330
892.471	18102
892.594	18114
892.717	18186
892.839	18136
892.962	18171
893.085	18098
893.207	18057
893.33	17942
893.452	17878
893.575	18022
893.697	18007
893.819	18060
893.941	18068
894.064	17958
894.186	17805
894.308	17665
894.43	17923
894.552	18015
894.674	17863
894.796	17821
894.918	17634
895.04	17748
895.161	17771
895.283	17665
895.405	17539
895.526	17600
895.648	17764
895.769	17627
895.891	17729
896.012	17699
896.134	17649
896.255	17703
896.376	17585
896.498	17634
896.619	17634
896.74	17604
896.861	17638
896.982	17954
897.103	18079
897.224	17893
897.345	17783
897.466	17783
897.587	17752
897.708	17843
897.828	17840
897.949	17703
898.07	17581
898.19	17676
898.311	17779
898.431	17623
898.552	17748
898.672	17722
898.792	17927
898.913	17783
899.033	17649
899.153	17604
899.273	17467
899.393	17547
899.513	17608
899.633	17596
899.753	17714
899.873	17467
899.993	17642
900.113	17474
900.232	17505
900.352	17570
900.472	17455
900.591	17337
900.711	17349
900.83	17223
900.95	17459
901.069	17421
901.189	17189
901.308	17071
901.427	16866
901.546	16831
901.665	16915
901.784	16961
901.904	16710
902.023	16698
902.141	16459
902.26	16493
902.379	16516
902.498	16333
902.617	16440
902.735	16409
902.854	16333
902.973	16329
903.091	16090
903.21	15991
903.328	15998
903.446	15934
903.565	15869
903.683	15823
903.801	15720
903.919	15770
904.038	15774
904.156	15549
904.274	15698
904.392	15587
904.51	15511
904.627	15591
904.745	15606
904.863	15591
904.981	15325
905.098	15165
905.216	15348
905.334	15325
905.451	15291
905.569	15203
905.686	15291
905.803	15211
905.921	15013
906.038	15154
906.155	15055
906.272	14921
906.389	14880
906.506	14724
906.623	14762
906.74	14750
906.857	14686
906.974	14613
907.091	14785
907.208	14826
907.324	14804
907.441	14648
907.557	14575
907.674	14507
907.79	14370
907.907	14499
908.023	14434
908.139	14446
908.256	14469
908.372	14389
908.488	14370
908.604	14221
908.72	14111
908.836	14202
908.952	14138
909.068	14202
909.184	14259
909.3	14142
909.415	14221
909.531	14248
909.647	13993
909.762	13982
909.878	13967
909.993	13986
910.108	13879
910.224	13841
910.339	14069
910.454	13967
910.57	13734
910.685	13708
910.8	14005
910.915	13902
911.03	13738
911.145	13571
911.259	13700
911.374	13597
911.489	13548
911.604	13457
911.718	13297
911.833	13358
911.947	13122
912.062	13202
912.176	13335
912.291	13225
912.405	13293
912.519	13510
912.633	13544
912.748	13358
912.862	13293
912.976	13206
913.09	13057
913.204	13141
913.318	13099
913.431	13164
913.545	13232
913.659	13289
913.772	13221
913.886	13069
914	13023
914.113	13141
914.226	13149
914.34	13069
914.453	12890
914.566	13038
914.68	12939
914.793	12947
914.906	12734
915.019	12730
915.132	12646
915.245	12734
915.358	12791
915.47	12749
915.583	12722
915.696	12722
915.809	12863
915.921	12867
916.034	12700
916.146	12722
916.259	12745
916.371	12772
916.483	12703
916.595	12642
916.708	12726
916.82	12753
916.932	12730
917.044	12623
917.156	12696
917.268	12570
917.38	12471
917.491	12464
917.603	12521
917.715	12566
917.826	12597
917.938	12441
918.049	12315
918.161	12502
918.272	12589
918.384	12517
918.495	12452
918.606	12311
918.717	12258
918.828	12342
918.939	12224
919.05	12159
919.161	12235
919.272	12110
919.383	12136
919.494	12391
919.604	12460
919.715	12194
919.826	12152
919.936	12232
920.047	12311
920.157	12239
920.267	12380
920.378	12254
920.488	12254
920.598	12327
920.708	12456
920.818	12422
920.928	12426
921.038	12604
921.148	12498
921.258	12190
921.368	12087
921.477	12064
921.587	12041
921.697	11813
921.806	12079
921.916	11912
922.025	11745
922.134	11665
922.244	11653
922.353	11718
922.462	11512
922.571	11532
922.68	11334
922.789	11322
922.898	11288
923.007	11341
923.116	11337
923.224	11277
923.333	11360
923.442	11166
923.55	11151
923.659	11208
923.767	11315
923.876	11208
923.984	11185
924.092	11090
924.201	11201
924.309	11064
924.417	11159
924.525	11098
924.633	11128
924.741	11802
924.849	10896
924.956	11029
925.064	10850
925.172	10797
925.279	10812
925.387	10900
925.494	10900
925.602	10999
925.709	10904
925.816	10881
925.924	10820
926.031	10949
926.138	10809
926.245	10919
926.352	10774
926.459	10873
926.566	10927
926.673	10759
926.779	10694
926.886	10615
926.993	10615
927.099	10550
927.206	10516
927.312	10497
927.419	10596
927.525	10538
927.631	10504
927.737	10375
927.843	10413
927.95	10322
928.056	10386
928.162	10348
928.267	10493
928.373	11045
928.479	10417
928.585	10310
928.69	10367
928.796	10280
928.901	10223
929.007	10158
929.112	10207
929.218	10265
929.323	10158
929.428	10207
929.533	10287
929.638	10192
929.743	10143
929.848	10128
929.953	10105
930.058	10032
930.163	9880
930.267	9918
930.372	10002
930.477	9899
930.581	10124
930.685	9964
930.79	9854
930.894	9846
930.998	9819
931.103	9960
931.207	9568
931.311	9515
931.415	9393
931.519	9226
931.623	9256
