Data from test_V78500241_3053.txt Node
Date: Fri Mar 25 14:54:58 CST 2022
User: usil
Spectrometer: V785-0024
Trigger mode: 0
Integration Time (sec): 4.000000E-1
Scans to average: 1
Nonlinearity correction enabled: false
Boxcar width: 0
Storing dark spectrum: false
XAxis mode: Wavelengths
Number of Pixels in Spectrum: 1024
>>>>>Begin Spectral Data<<<<<
801.071	22013
801.214	21975
801.356	21778
801.499	21652
801.641	21542
801.783	21454
801.926	21412
802.068	21283
802.211	21382
802.353	21256
802.496	21112
802.638	20864
802.78	20944
802.923	20834
803.065	20785
803.208	20712
803.35	20758
803.492	20925
803.635	20925
803.777	20765
803.919	20864
804.061	21195
804.204	20686
804.346	20804
804.488	20769
804.63	20819
804.773	20640
804.915	20689
805.057	20750
805.199	20746
805.341	20769
805.483	20765
805.626	20697
805.768	20689
805.91	20708
806.052	20689
806.194	20598
806.336	20807
806.478	20838
806.62	20629
806.762	20815
806.904	21077
807.046	21043
807.188	21123
807.33	21005
807.472	21055
807.614	20952
807.756	20979
807.898	20765
808.04	20682
808.182	20758
808.324	20750
808.465	20952
808.607	20967
808.749	21218
808.891	21192
809.033	21370
809.174	21100
809.316	21119
809.458	21127
809.6	21085
809.741	21077
809.883	21226
810.025	21199
810.166	21359
810.308	21279
810.45	21146
810.591	21077
810.733	20979
810.875	20895
811.016	20864
811.158	20921
811.299	20876
811.441	20925
811.582	20956
811.724	20758
811.865	20834
812.007	20743
812.148	20902
812.29	20876
812.431	20986
812.573	21154
812.714	21192
812.855	21355
812.997	21374
813.138	21553
813.279	21507
813.421	21317
813.562	21363
813.703	21089
813.845	21036
813.986	20861
814.127	20640
814.268	20560
814.41	20423
814.551	20446
814.692	20377
814.833	20267
814.974	20324
815.115	20450
815.256	20187
815.397	20309
815.539	20317
815.68	20153
815.821	20122
815.962	20130
816.103	20039
816.244	19967
816.385	20012
816.526	19913
816.666	19750
816.807	19655
816.948	19594
817.089	19753
817.23	19681
817.371	19552
817.512	19510
817.653	19506
817.793	19521
817.934	19506
818.075	19502
818.216	19525
818.356	19426
818.497	19285
818.638	19156
818.778	19236
818.919	19270
819.06	19255
819.2	19308
819.341	19422
819.481	19480
819.622	19597
819.762	19715
819.903	19696
820.043	19552
820.184	19495
820.324	19457
820.465	19521
820.605	19495
820.746	19563
820.886	19388
821.026	19460
821.167	19381
821.307	19594
821.447	19350
821.588	19312
821.728	19240
821.868	19099
822.008	18966
822.149	19012
822.289	18829
822.429	18749
822.569	18650
822.709	18665
822.849	18475
822.99	18426
823.13	18346
823.27	18361
823.41	18205
823.55	18182
823.69	18258
823.83	18334
823.97	18125
824.11	17980
824.25	17920
824.389	17912
824.529	18015
824.669	17977
824.809	18038
824.949	17996
825.089	18060
825.228	18030
825.368	17756
825.508	17836
825.648	17824
825.787	17855
825.927	17851
826.067	17638
826.206	17695
826.346	17684
826.485	17729
826.625	17748
826.765	17866
826.904	17874
827.044	17547
827.183	17493
827.323	17425
827.462	17497
827.601	17376
827.741	17493
827.88	17402
828.02	17398
828.159	17356
828.298	17455
828.437	17436
828.577	17474
828.716	17551
828.855	17322
828.994	17128
829.134	17174
829.273	17124
829.412	17136
829.551	17140
829.69	17178
829.829	17162
829.968	17227
830.107	17204
830.246	17181
830.385	17098
830.524	17064
830.663	17025
830.802	16980
830.941	16835
831.08	16668
831.219	16801
831.357	16847
831.496	16862
831.635	16771
831.774	16656
831.913	16630
832.051	16580
832.19	16626
832.329	16634
832.467	16459
832.606	16527
832.744	16390
832.883	16493
833.022	16478
833.16	16478
833.299	16508
833.437	16512
833.576	16527
833.714	16580
833.852	16542
833.991	16550
834.129	16462
834.267	16554
834.406	16535
834.544	16577
834.682	16493
834.821	16554
834.959	16656
835.097	16432
835.235	16630
835.373	16485
835.511	16527
835.65	16538
835.788	16485
835.926	16284
836.064	16268
836.202	16261
836.34	16436
836.478	16615
836.615	16371
836.753	16474
836.891	16527
837.029	16360
837.167	16421
837.305	16299
837.443	16348
837.58	16139
837.718	16306
837.856	16299
837.993	16303
838.131	16116
838.269	16048
838.406	16192
838.544	16135
838.681	15953
838.819	15911
838.956	15831
839.094	15816
839.231	15861
839.369	15953
839.506	16314
839.643	15953
839.781	15770
839.918	15770
840.055	15861
840.193	15774
840.33	15751
840.467	15838
840.604	15899
840.742	15953
840.879	15720
841.016	15819
841.153	15804
841.29	15956
841.427	15869
841.564	15873
841.701	15739
841.838	15793
841.975	15705
842.112	15679
842.249	15618
842.385	15545
842.522	15793
842.659	15610
842.796	15595
842.933	15606
843.069	15618
843.206	15557
843.343	15633
843.479	15694
843.616	15584
843.752	15401
843.889	15382
844.025	15523
844.162	15256
844.298	15481
844.435	15424
844.571	15317
844.708	15500
844.844	15519
844.98	15580
845.117	15530
845.253	15283
845.389	15279
845.525	15249
845.661	15268
845.798	15131
845.934	15154
846.07	15150
846.206	15119
846.342	15344
846.478	15074
846.614	14986
846.75	15005
846.886	14960
847.022	15028
847.158	14971
847.294	15024
847.429	14963
847.565	14963
847.701	15154
847.837	14739
847.972	14670
848.108	14842
848.244	14746
848.379	14598
848.515	14492
848.65	14526
848.786	14571
848.921	14560
849.057	14678
849.192	14583
849.328	14667
849.463	14632
849.598	14533
849.734	14522
849.869	14404
850.004	14298
850.14	14301
850.275	14309
850.41	14271
850.545	14419
850.68	14317
850.815	14358
850.95	14347
851.085	14492
851.22	14343
851.355	14317
851.49	14195
851.625	14240
851.76	14309
851.895	14218
852.03	14229
852.165	14309
852.299	14396
852.434	14366
852.569	14362
852.703	14248
852.838	14492
852.973	14400
853.107	14400
853.242	14221
853.376	14191
853.511	14096
853.645	14168
853.78	14221
853.914	14168
854.048	14145
854.183	14119
854.317	14164
854.451	14355
854.585	14100
854.72	14157
854.854	14187
854.988	14180
855.122	14210
855.256	14039
855.39	14183
855.524	14275
855.658	14282
855.792	14252
855.926	14237
856.06	14252
856.194	14271
856.327	14244
856.461	14107
856.595	14130
856.729	14103
856.862	14324
856.996	14282
857.13	14218
857.263	14294
857.397	14301
857.53	14206
857.664	14290
857.797	14271
857.931	14286
858.064	14282
858.197	14278
858.331	14134
858.464	14172
858.597	14130
858.731	14126
858.864	14115
858.997	14142
859.13	14282
859.263	14088
859.396	14332
859.529	14202
859.662	14172
859.795	14164
859.928	14324
860.061	14332
860.194	14328
860.327	14172
860.46	14149
860.592	14286
860.725	14362
860.858	14347
860.99	14138
861.123	14062
861.256	14119
861.388	14237
861.521	14868
861.653	14058
861.786	13993
861.918	14073
862.05	14043
862.183	14096
862.315	14195
862.447	14202
862.58	14172
862.712	13940
862.844	13951
862.976	14020
863.108	14039
863.24	14431
863.372	13868
863.504	13955
863.636	13909
863.768	14016
863.9	13947
864.032	13860
864.164	13898
864.296	13887
864.428	14020
864.559	14073
864.691	14088
864.823	14062
864.954	13993
865.086	14005
865.217	13993
865.349	13841
865.48	13997
865.612	13959
865.743	14199
865.875	13936
866.006	13879
866.137	13868
866.269	13868
866.4	13944
866.531	13978
866.662	13959
866.793	13852
866.924	13868
867.055	13883
867.186	13982
867.317	13913
867.448	13807
867.579	13898
867.71	13913
867.841	13890
867.972	13959
868.103	13898
868.233	13883
868.364	13959
868.495	14069
868.625	14187
868.756	14237
868.886	14195
869.017	14073
869.147	14400
869.278	14389
869.408	14275
869.539	14225
869.669	14199
869.799	14195
869.929	14347
870.06	14286
870.19	14476
870.32	14495
870.45	14549
870.58	14499
870.71	14613
870.84	14735
870.97	14629
871.1	14587
871.23	14788
871.36	14861
871.489	14682
871.619	14739
871.749	14819
871.879	14838
872.008	14998
872.138	14834
872.267	14731
872.397	14655
872.526	14651
872.656	14541
872.785	14636
872.915	14842
873.044	14956
873.173	14807
873.303	14861
873.432	14952
873.561	14899
873.69	14887
873.819	14910
873.948	14941
874.077	14876
874.206	14838
874.335	14876
874.464	14838
874.593	15230
874.722	15013
874.851	15131
874.979	15260
875.108	15089
875.237	15112
875.365	15127
875.494	15119
875.623	15272
875.751	15127
875.88	15195
876.008	15287
876.136	15450
876.265	15530
876.393	15717
876.521	15614
876.65	15701
876.778	15663
876.906	15477
877.034	15431
877.162	15523
877.29	15504
877.418	15564
877.546	15580
877.674	15591
877.802	15526
877.93	15629
878.058	15538
878.185	15477
878.313	15564
878.441	15637
878.568	15462
878.696	15481
878.824	15587
878.951	15618
879.079	15816
879.206	15941
879.333	15717
879.461	15648
879.588	15633
879.715	15660
879.842	15892
879.97	15618
880.097	15386
880.224	15359
880.351	15401
880.478	15397
880.605	15332
880.732	15405
880.859	15644
880.986	15389
881.112	15424
881.239	15351
881.366	15195
881.493	15135
881.619	15123
881.746	15093
881.872	15100
881.999	15066
882.125	14994
882.252	15108
882.378	15070
882.505	15226
882.631	14883
882.757	14952
882.883	14952
883.01	14914
883.136	14899
883.262	14876
883.388	14621
883.514	14883
883.64	14914
883.766	14815
883.892	14724
884.018	14689
884.143	14902
884.269	15051
884.395	14674
884.52	14655
884.646	14552
884.772	14560
884.897	14571
885.023	14625
885.148	14758
885.274	14815
885.399	14674
885.524	14640
885.65	14712
885.775	14636
885.9	14560
886.025	14804
886.15	14765
886.275	14476
886.4	14556
886.525	14522
886.65	14404
886.775	14499
886.9	14720
887.025	14887
887.149	14469
887.274	14454
887.399	14408
887.523	14393
887.648	14423
887.773	14309
887.897	14499
888.021	14492
888.146	14396
888.27	14549
888.395	14552
888.519	14514
888.643	14499
888.767	14526
888.891	14454
889.015	14461
889.139	14377
889.263	14320
889.387	14389
889.511	14473
889.635	14355
889.759	14377
889.883	14275
890.006	14419
890.13	14301
890.254	14332
890.377	14214
890.501	14145
890.624	14149
890.748	14145
890.871	14103
890.995	13955
891.118	13932
891.241	14035
891.364	13947
891.488	14115
891.611	14005
891.734	13978
891.857	14096
891.98	13959
892.103	14077
892.226	13986
892.349	13906
892.471	13799
892.594	13974
892.717	14005
892.839	13989
892.962	14027
893.085	14065
893.207	13993
893.33	13845
893.452	13898
893.575	14130
893.697	14031
893.819	14103
893.941	14225
894.064	14130
894.186	13986
894.308	14012
894.43	14115
894.552	14263
894.674	14103
894.796	14058
894.918	14081
895.04	14005
895.161	14202
895.283	14153
895.405	14073
895.526	14123
895.648	14065
895.769	14115
895.891	14202
896.012	14313
896.134	14157
896.255	14172
896.376	14084
896.498	14111
896.619	14237
896.74	14206
896.861	14320
896.982	14507
897.103	14670
897.224	14564
897.345	14374
897.466	14362
897.587	14492
897.708	14564
897.828	14518
897.949	14503
898.07	14396
898.19	14419
898.311	14640
898.431	14469
898.552	14511
898.672	14602
898.792	14610
898.913	14564
899.033	14488
899.153	14317
899.273	14343
899.393	14457
899.513	14396
899.633	14393
899.753	14446
899.873	14328
899.993	14469
900.113	14377
900.232	14358
900.352	14343
900.472	14332
900.591	14210
900.711	14347
900.83	14210
900.95	14317
901.069	14412
901.189	14172
901.308	14035
901.427	13936
901.546	13913
901.665	13909
901.784	13989
901.904	13822
902.023	13765
902.141	13529
902.26	13559
902.379	13624
902.498	13502
902.617	13487
902.735	13499
902.854	13472
902.973	13514
903.091	13236
903.21	13228
903.328	13240
903.446	13084
903.565	13069
903.683	13141
903.801	12989
903.919	13065
904.038	13088
904.156	12943
904.274	13061
904.392	12844
904.51	12901
904.627	12859
904.745	13042
904.863	12890
904.981	12734
905.098	12745
905.216	12563
905.334	12684
905.451	12665
905.569	12555
905.686	12650
905.803	12650
905.921	12437
906.038	12544
906.155	12433
906.272	12258
906.389	12380
906.506	12220
906.623	12277
906.74	12186
906.857	12068
906.974	12106
907.091	12357
907.208	12292
907.324	12220
907.441	12083
907.557	11999
907.674	12053
907.79	11908
907.907	11912
908.023	11965
908.139	11916
908.256	11889
908.372	11885
908.488	11824
908.604	11748
908.72	11722
908.836	11741
908.952	11672
909.068	11680
909.184	11847
909.3	11676
909.415	11779
909.531	11722
909.647	11611
909.762	11471
909.878	11433
909.993	11547
910.108	11459
910.224	11482
910.339	11474
910.454	11353
910.57	11425
910.685	11231
910.8	11509
910.915	11486
911.03	11467
911.145	11277
911.259	11121
911.374	11162
911.489	11128
911.604	11128
911.718	11048
911.833	11006
911.947	10843
912.062	10748
912.176	10915
912.291	10953
912.405	10896
912.519	11178
912.633	11162
912.748	11056
912.862	10976
912.976	10942
913.09	10725
913.204	10744
913.318	10752
913.431	10881
913.545	10927
913.659	10968
913.772	10835
913.886	10763
914	10664
914.113	10767
914.226	10839
914.34	10809
914.453	10622
914.566	10801
914.68	10702
914.793	10615
914.906	10508
915.019	10455
915.132	10363
915.245	10417
915.358	10512
915.47	10424
915.583	10478
915.696	10447
915.809	10546
915.921	10637
916.034	10398
916.146	10474
916.259	10402
916.371	10504
916.483	10531
916.595	10322
916.708	10379
916.82	10428
916.932	10405
917.044	10436
917.156	10428
917.268	10246
917.38	10325
917.491	10249
917.603	10234
917.715	10322
917.826	10409
917.938	10348
918.049	10234
918.161	10257
918.272	10432
918.384	10421
918.495	10329
918.606	10219
918.717	10040
918.828	10196
918.939	10204
919.05	10055
919.161	10196
919.272	9934
919.383	10071
919.494	10276
919.604	10417
919.715	10215
919.826	10128
919.936	10173
920.047	10234
920.157	10257
920.267	10382
920.378	10261
920.488	10284
920.598	10329
920.708	10481
920.818	10348
920.928	10390
921.038	10626
921.148	10561
921.258	10143
921.368	10200
921.477	9991
921.587	10048
921.697	9979
921.806	10063
921.916	9926
922.025	9770
922.134	9740
922.244	9717
922.353	9781
922.462	9652
922.571	9637
922.68	9511
922.789	9332
922.898	9496
923.007	9386
923.116	9466
923.224	9454
923.333	9447
923.442	9329
923.55	9340
923.659	9332
923.767	9370
923.876	9245
923.984	9397
924.092	9260
924.201	9348
924.309	9275
924.417	9321
924.525	9237
924.633	9272
924.741	10181
924.849	9104
924.956	9222
925.064	9142
925.172	9001
925.279	9024
925.387	9043
925.494	9085
925.602	9203
925.709	9218
925.816	9032
925.924	9161
926.031	9237
926.138	9150
926.245	9195
926.352	9036
926.459	9264
926.566	9199
926.673	9039
926.779	8975
926.886	8956
926.993	8815
927.099	8868
927.206	8785
927.312	8766
927.419	8819
927.525	8880
927.631	8899
927.737	8777
927.843	8693
927.95	8640
928.056	8720
928.162	8693
928.267	8769
928.373	9291
928.479	8788
928.585	8545
928.69	8716
928.796	8746
928.901	8610
929.007	8575
929.112	8648
929.218	8533
929.323	8602
929.428	8537
929.533	8705
929.638	8537
929.743	8590
929.848	8545
929.953	8533
930.058	8541
930.163	8358
930.267	8256
930.372	8438
930.477	8256
930.581	8583
930.685	8339
930.79	8271
930.894	8320
930.998	8202
931.103	8393
931.207	8115
931.311	7986
931.415	7902
931.519	7723
931.623	7788
