Data from test_V78500241_800.txt Node
Date: Fri Mar 25 14:39:17 CST 2022
User: usil
Spectrometer: V785-0024
Trigger mode: 0
Integration Time (sec): 4.000000E-1
Scans to average: 1
Nonlinearity correction enabled: false
Boxcar width: 0
Storing dark spectrum: false
XAxis mode: Wavelengths
Number of Pixels in Spectrum: 1024
>>>>>Begin Spectral Data<<<<<
801.071	26442
801.214	26499
801.356	26221
801.499	25909
801.641	25883
801.783	25822
801.926	25772
802.068	25689
802.211	25586
802.353	25582
802.496	25438
802.638	25445
802.78	25312
802.923	25407
803.065	25129
803.208	25194
803.35	25297
803.492	25419
803.635	25426
803.777	25327
803.919	25491
804.061	25769
804.204	25571
804.346	25316
804.488	25499
804.63	25582
804.773	25373
804.915	25499
805.057	25753
805.199	25586
805.341	25799
805.483	25814
805.626	25769
805.768	25830
805.91	25993
806.052	26088
806.194	26164
806.336	26522
806.478	26480
806.62	26625
806.762	26952
806.904	27180
807.046	27633
807.188	27869
807.33	28276
807.472	28733
807.614	29128
807.756	29961
807.898	30836
808.04	32092
808.182	33667
808.324	35813
808.465	38183
808.607	40782
808.749	43244
808.891	44636
809.033	44788
809.174	43434
809.316	41181
809.458	38199
809.6	35714
809.741	33427
809.883	31681
810.025	30578
810.166	29668
810.308	28961
810.45	28417
810.591	27994
810.733	27507
810.875	27279
811.016	26914
811.158	26735
811.299	26686
811.441	26537
811.582	26473
811.724	26294
811.865	26168
812.007	26065
812.148	25974
812.29	25921
812.431	26176
812.573	26119
812.714	26259
812.855	26305
812.997	26431
813.138	26423
813.279	26366
813.421	26343
813.562	26130
813.703	25925
813.845	25765
813.986	25495
814.127	25274
814.268	25179
814.41	25095
814.551	25103
814.692	25091
814.833	24962
814.974	24947
815.115	24985
815.256	24791
815.397	24665
815.539	24764
815.68	24631
815.821	24509
815.962	24551
816.103	24498
816.244	24502
816.385	24216
816.526	24327
816.666	24171
816.807	24022
816.948	23965
817.089	24015
817.23	24015
817.371	23942
817.512	23969
817.653	23874
817.793	23798
817.934	23999
818.075	23859
818.216	23840
818.356	23764
818.497	23649
818.638	23436
818.778	23596
818.919	23562
819.06	23509
819.2	23726
819.341	23802
819.481	23676
819.622	23859
819.762	24079
819.903	23931
820.043	23843
820.184	23680
820.324	23718
820.465	23718
820.605	23794
820.746	23676
820.886	23509
821.026	23703
821.167	23630
821.307	23684
821.447	23566
821.588	23436
821.728	23356
821.868	23071
822.008	22828
822.149	22946
822.289	23010
822.429	22778
822.569	22645
822.709	22634
822.849	22398
822.99	22367
823.13	22238
823.27	22299
823.41	22246
823.55	22139
823.69	22238
823.83	22249
823.97	22204
824.11	21983
824.25	22025
824.389	21994
824.529	22059
824.669	22002
824.809	22048
824.949	22166
825.089	21987
825.228	22051
825.368	21816
825.508	21747
825.648	21774
825.787	21759
825.927	21876
826.067	21827
826.206	21804
826.346	21789
826.485	21831
826.625	21743
826.765	21873
826.904	21739
827.044	21469
827.183	21511
827.323	21473
827.462	21370
827.601	21511
827.741	21359
827.88	21382
828.02	21264
828.159	21538
828.298	21492
828.437	21382
828.577	21329
828.716	21485
828.855	21298
828.994	21241
829.134	21173
829.273	21131
829.412	20975
829.551	20986
829.69	21081
829.829	21070
829.968	21085
830.107	21039
830.246	21089
830.385	21036
830.524	20921
830.663	21009
830.802	20727
830.941	20693
831.08	20682
831.219	20857
831.357	20777
831.496	20944
831.635	20682
831.774	20701
831.913	20625
832.051	20579
832.19	20583
832.329	20583
832.467	20583
832.606	20499
832.744	20636
832.883	20560
833.022	20708
833.16	20746
833.299	20773
833.437	20887
833.576	20948
833.714	21161
833.852	21188
833.991	21302
834.129	21431
834.267	21370
834.406	21340
834.544	21291
834.682	21173
834.821	21165
834.959	21203
835.097	20960
835.235	20887
835.373	20735
835.511	20568
835.65	20541
835.788	20457
835.926	20225
836.064	20100
836.202	20142
836.34	20336
836.478	20381
836.615	20138
836.753	20210
836.891	20278
837.029	20210
837.167	20180
837.305	20142
837.443	20096
837.58	20050
837.718	20153
837.856	20115
837.993	19917
838.131	20016
838.269	19936
838.406	19947
838.544	19845
838.681	19689
838.819	19655
838.956	19514
839.094	19548
839.231	19582
839.369	19677
839.506	19906
839.643	19715
839.781	19597
839.918	19373
840.055	19597
840.193	19343
840.33	19559
840.467	19518
840.604	19510
840.742	19639
840.879	19320
841.016	19476
841.153	19422
841.29	19567
841.427	19556
841.564	19514
841.701	19491
841.838	19350
841.975	19441
842.112	19362
842.249	19274
842.385	19236
842.522	19434
842.659	19320
842.796	19335
842.933	19384
843.069	19285
843.206	19430
843.343	19441
843.479	19445
843.616	19312
843.752	19259
843.889	19225
844.025	19388
844.162	19487
844.298	19628
844.435	19582
844.571	19696
844.708	20050
844.844	20358
844.98	20689
845.117	21169
845.253	21873
845.389	23220
845.525	26202
845.661	30791
845.798	36106
845.934	40580
846.07	42125
846.206	41041
846.342	37327
846.478	32062
846.614	26925
846.75	23828
846.886	22017
847.022	20933
847.158	20164
847.294	19795
847.429	19559
847.565	19282
847.701	19343
847.837	18814
847.972	18681
848.108	18692
848.244	18768
848.379	18460
848.515	18315
848.65	18357
848.786	18296
848.921	18273
849.057	18346
849.192	18304
849.328	18254
849.463	18194
849.598	18285
849.734	18110
849.869	18098
850.004	17988
850.14	17950
850.275	17992
850.41	17840
850.545	17916
850.68	17813
850.815	17912
850.95	17870
851.085	18117
851.22	17923
851.355	17874
851.49	17901
851.625	17805
851.76	17813
851.895	17836
852.03	17726
852.165	17992
852.299	17904
852.434	18015
852.569	18003
852.703	17920
852.838	18114
852.973	18057
853.107	18186
853.242	18015
853.376	17961
853.511	17786
853.645	17923
853.78	18129
853.914	18045
854.048	17999
854.183	18076
854.317	18136
854.451	18220
854.585	18057
854.72	18015
854.854	18155
854.988	18026
855.122	18079
855.256	17840
855.39	17954
855.524	17893
855.658	17836
855.792	17775
855.926	17889
856.06	17851
856.194	17821
856.327	17786
856.461	17726
856.595	17638
856.729	17604
856.862	17863
856.996	17878
857.13	17897
857.263	17855
857.397	17786
857.53	17729
857.664	17775
857.797	17760
857.931	17786
858.064	17710
858.197	17790
858.331	17703
858.464	17615
858.597	17452
858.731	17672
858.864	17581
858.997	17543
859.13	17543
859.263	17680
859.396	17722
859.529	17608
859.662	17577
859.795	17634
859.928	17657
860.061	17653
860.194	17878
860.327	17668
860.46	17707
860.592	17653
860.725	17786
860.858	17615
860.99	17577
861.123	17471
861.256	17501
861.388	17532
861.521	18330
861.653	17570
861.786	17486
861.918	17463
862.05	17539
862.183	17566
862.315	17665
862.447	17642
862.58	17604
862.712	17391
862.844	17284
862.976	17391
863.108	17421
863.24	17836
863.372	17273
863.504	17353
863.636	17303
863.768	17379
863.9	17258
864.032	17250
864.164	17315
864.296	17315
864.428	17478
864.559	17364
864.691	17383
864.823	17414
864.954	17273
865.086	17246
865.217	17258
865.349	17250
865.48	17280
865.612	17181
865.743	17364
865.875	17208
866.006	17200
866.137	17235
866.269	17315
866.4	17334
866.531	17254
866.662	17113
866.793	17185
866.924	17227
867.055	17136
867.186	17223
867.317	17200
867.448	17098
867.579	17181
867.71	17113
867.841	17102
867.972	17303
868.103	17258
868.233	17216
868.364	17239
868.495	17322
868.625	17490
868.756	17543
868.886	17376
869.017	17455
869.147	17570
869.278	17516
869.408	17551
869.539	17558
869.669	17589
869.799	17463
869.929	17809
870.06	17627
870.19	17714
870.32	17783
870.45	17863
870.58	17870
870.71	18057
870.84	18038
870.97	17901
871.1	17935
871.23	18022
871.36	18235
871.489	18049
871.619	18167
871.749	18190
871.879	18251
872.008	18251
872.138	18239
872.267	18167
872.397	18049
872.526	17984
872.656	18083
872.785	18083
872.915	18376
873.044	18403
873.173	18232
873.303	18422
873.432	18380
873.561	18490
873.69	18384
873.819	18460
873.948	18467
874.077	18528
874.206	18460
874.335	18544
874.464	18623
874.593	18753
874.722	18791
874.851	18821
874.979	18833
875.108	19015
875.237	18894
875.365	18916
875.494	19046
875.623	19183
875.751	19046
875.88	19148
876.008	19244
876.136	19388
876.265	19624
876.393	19738
876.521	19784
876.65	19788
876.778	19791
876.906	19689
877.034	19864
877.162	19989
877.29	19944
877.418	20035
877.546	20153
877.674	20164
877.802	20298
877.93	20328
878.058	20419
878.185	20507
878.313	20906
878.441	21119
878.568	21359
878.696	21960
878.824	22630
878.951	23406
879.079	24802
879.206	26484
879.333	28124
879.461	29292
879.588	30342
879.715	30273
879.842	29813
879.97	28112
880.097	26427
880.224	24951
880.351	24064
880.478	23330
880.605	22854
880.732	22630
880.859	22615
880.986	22219
881.112	22238
881.239	22032
881.366	21846
881.493	21766
881.619	21557
881.746	21736
881.872	21743
881.999	21774
882.125	21759
882.252	21892
882.378	21953
882.505	22036
882.631	21865
882.757	21686
882.883	21816
883.01	21739
883.136	21701
883.262	21580
883.388	21610
883.514	21686
883.64	21846
883.766	21614
883.892	21564
884.018	21580
884.143	21663
884.269	21789
884.395	21644
884.52	21306
884.646	21393
884.772	21416
884.897	21458
885.023	21549
885.148	21644
885.274	21538
885.399	21359
885.524	21310
885.65	21157
885.775	21096
885.9	20963
886.025	20948
886.15	20823
886.275	20537
886.4	20332
886.525	20320
886.65	20168
886.775	20180
886.9	20202
887.025	20176
887.149	19989
887.274	19814
887.399	19685
887.523	19480
887.648	19468
887.773	19282
887.897	19441
888.021	19217
888.146	19190
888.27	19327
888.395	19209
888.519	19183
888.643	19069
888.767	19160
888.891	18829
889.015	18795
889.139	18894
889.263	18776
889.387	18886
889.511	18890
889.635	18745
889.759	18494
889.883	18604
890.006	18646
890.13	18616
890.254	18414
890.377	18479
890.501	18300
890.624	18171
890.748	18258
890.871	18201
890.995	18068
891.118	17874
891.241	17992
891.364	18049
891.488	18140
891.611	17984
891.734	17992
891.857	17942
891.98	17843
892.103	17923
892.226	17878
892.349	17824
892.471	17627
892.594	17733
892.717	17691
892.839	17665
892.962	17608
893.085	17676
893.207	17604
893.33	17486
893.452	17448
893.575	17634
893.697	17562
893.819	17535
893.941	17733
894.064	17596
894.186	17349
894.308	17318
894.43	17425
894.552	17661
894.674	17474
894.796	17341
894.918	17330
895.04	17349
895.161	17395
895.283	17383
895.405	17223
895.526	17322
895.648	17265
895.769	17326
895.891	17227
896.012	17360
896.134	17364
896.255	17326
896.376	17261
896.498	17334
896.619	17360
896.74	17334
896.861	17349
896.982	17665
897.103	17657
897.224	17532
897.345	17478
897.466	17452
897.587	17505
897.708	17653
897.828	17535
897.949	17383
898.07	17307
898.19	17478
898.311	17467
898.431	17474
898.552	17482
898.672	17615
898.792	17592
898.913	17512
899.033	17440
899.153	17242
899.273	17162
899.393	17292
899.513	17383
899.633	17303
899.753	17315
899.873	17200
899.993	17337
900.113	17166
900.232	17223
900.352	17174
900.472	17174
900.591	17090
900.711	17185
900.83	17159
900.95	17181
901.069	17200
901.189	17025
901.308	16782
901.427	16679
901.546	16622
901.665	16649
901.784	16641
901.904	16474
902.023	16402
902.141	16295
902.26	16207
902.379	16261
902.498	16139
902.617	16090
902.735	16147
902.854	16181
902.973	16097
903.091	15835
903.21	15800
903.328	15846
903.446	15694
903.565	15584
903.683	15633
903.801	15435
903.919	15622
904.038	15595
904.156	15359
904.274	15454
904.392	15374
904.51	15469
904.627	15313
904.745	15382
904.863	15405
904.981	15146
905.098	15093
905.216	15142
905.334	15043
905.451	15013
905.569	14952
905.686	15055
905.803	15028
905.921	14769
906.038	14971
906.155	14800
906.272	14785
906.389	14743
906.506	14583
906.623	14568
906.74	14457
906.857	14488
906.974	14457
907.091	14549
907.208	14667
907.324	14507
907.441	14473
907.557	14328
907.674	14229
907.79	14225
907.907	14244
908.023	14282
908.139	14301
908.256	14138
908.372	14237
908.488	14142
908.604	14016
908.72	13890
908.836	14069
908.952	14024
909.068	13932
909.184	13970
909.3	14020
909.415	14046
909.531	13978
909.647	13757
909.762	13761
909.878	13647
909.993	13685
910.108	13704
910.224	13693
910.339	13704
910.454	13628
910.57	13636
910.685	13480
910.8	13723
910.915	13708
911.03	13563
911.145	13381
911.259	13381
911.374	13343
911.489	13331
911.604	13232
911.718	13206
911.833	13110
911.947	13012
912.062	13000
912.176	13027
912.291	13046
912.405	13080
912.519	13339
912.633	13320
912.748	13187
912.862	13164
912.976	13038
913.09	12878
913.204	12924
913.318	13008
913.431	13000
913.545	13103
913.659	13088
913.772	12905
913.886	12802
914	12897
914.113	12894
914.226	12920
914.34	12985
914.453	12688
914.566	12890
914.68	12768
914.793	12749
914.906	12635
915.019	12490
915.132	12483
915.245	12460
915.358	12593
915.47	12578
915.583	12536
915.696	12582
915.809	12646
915.921	12707
916.034	12544
916.146	12441
916.259	12490
916.371	12570
916.483	12525
916.595	12452
916.708	12475
916.82	12506
916.932	12410
917.044	12460
917.156	12475
917.268	12292
917.38	12330
917.491	12243
917.603	12239
917.715	12467
917.826	12418
917.938	12247
918.049	12209
918.161	12300
918.272	12395
918.384	12391
918.495	12209
918.606	12110
918.717	11973
918.828	12098
918.939	12117
919.05	12072
919.161	12144
919.272	11824
919.383	11832
919.494	12102
919.604	12258
919.715	12034
919.826	11999
919.936	11950
920.047	12194
920.157	12045
920.267	12262
920.378	12026
920.488	12011
920.598	12239
920.708	12380
920.818	12251
920.928	12296
921.038	12277
921.148	12350
921.258	11988
921.368	11950
921.477	11901
921.587	11851
921.697	11821
921.806	11874
921.916	11619
922.025	11653
922.134	11585
922.244	11459
922.353	11532
922.462	11376
922.571	11349
922.68	11140
922.789	11208
922.898	11235
923.007	11128
923.116	11162
923.224	11216
923.333	11189
923.442	11056
923.55	11056
923.659	11086
923.767	11041
923.876	11014
923.984	11090
924.092	11025
924.201	11006
924.309	11018
924.417	10957
924.525	10995
924.633	10877
924.741	11859
924.849	10828
924.956	10908
925.064	10672
925.172	10622
925.279	10736
925.387	10759
925.494	10790
925.602	10809
925.709	10911
925.816	10641
925.924	10649
926.031	10812
926.138	10683
926.245	10748
926.352	10622
926.459	10710
926.566	10767
926.673	10687
926.779	10580
926.886	10535
926.993	10470
927.099	10390
927.206	10413
927.312	10356
927.419	10470
927.525	10379
927.631	10424
927.737	10299
927.843	10234
927.95	10181
928.056	10265
928.162	10261
928.267	10363
928.373	10877
928.479	10249
928.585	10147
928.69	10249
928.796	10242
928.901	10268
929.007	10029
929.112	10128
929.218	10120
929.323	10101
929.428	10086
929.533	10227
929.638	9922
929.743	10013
929.848	10177
929.953	10040
930.058	9979
930.163	9831
930.267	9892
930.372	10063
930.477	9724
930.581	10002
930.685	9937
930.79	9762
930.894	9778
930.998	9740
931.103	9823
931.207	9488
931.311	9439
931.415	9374
931.519	9173
931.623	9123
