Data from test_V78500241_1882.txt Node
Date: Fri Mar 25 14:46:49 CST 2022
User: usil
Spectrometer: V785-0024
Trigger mode: 0
Integration Time (sec): 4.000000E-1
Scans to average: 1
Nonlinearity correction enabled: false
Boxcar width: 0
Storing dark spectrum: false
XAxis mode: Wavelengths
Number of Pixels in Spectrum: 1024
>>>>>Begin Spectral Data<<<<<
801.071	22086
801.214	21991
801.356	21717
801.499	21679
801.641	21481
801.783	21412
801.926	21431
802.068	21431
802.211	21226
802.353	21306
802.496	21093
802.638	21051
802.78	20902
802.923	20887
803.065	20762
803.208	20861
803.35	20925
803.492	20979
803.635	20914
803.777	20834
803.919	20849
804.061	21154
804.204	20773
804.346	20777
804.488	20682
804.63	20880
804.773	20705
804.915	20823
805.057	20746
805.199	20842
805.341	20868
805.483	20826
805.626	20861
805.768	20830
805.91	20769
806.052	20735
806.194	20838
806.336	20944
806.478	20750
806.62	20701
806.762	20804
806.904	20929
807.046	21085
807.188	21020
807.33	21043
807.472	21089
807.614	20982
807.756	20975
807.898	20918
808.04	20762
808.182	20811
808.324	20918
808.465	20815
808.607	20864
808.749	21138
808.891	21241
809.033	21241
809.174	21199
809.316	21108
809.458	21077
809.6	21070
809.741	21173
809.883	21157
810.025	21272
810.166	21283
810.308	21195
810.45	21252
810.591	21195
810.733	21039
810.875	20868
811.016	20724
811.158	20811
811.299	20804
811.441	21005
811.582	20986
811.724	20876
811.865	20731
812.007	20807
812.148	20918
812.29	21104
812.431	21036
812.573	21165
812.714	21245
812.855	21416
812.997	21492
813.138	21648
813.279	21359
813.421	21386
813.562	21313
813.703	21135
813.845	20998
813.986	20872
814.127	20693
814.268	20408
814.41	20480
814.551	20446
814.692	20522
814.833	20396
814.974	20374
815.115	20423
815.256	20176
815.397	20233
815.539	20244
815.68	20206
815.821	20088
815.962	20183
816.103	20145
816.244	19974
816.385	19871
816.526	19909
816.666	19761
816.807	19613
816.948	19795
817.089	19635
817.23	19658
817.371	19533
817.512	19537
817.653	19529
817.793	19556
817.934	19586
818.075	19499
818.216	19495
818.356	19491
818.497	19464
818.638	19228
818.778	19304
818.919	19251
819.06	19343
819.2	19350
819.341	19377
819.481	19453
819.622	19559
819.762	19860
819.903	19597
820.043	19662
820.184	19518
820.324	19521
820.465	19537
820.605	19559
820.746	19556
820.886	19407
821.026	19521
821.167	19594
821.307	19620
821.447	19468
821.588	19324
821.728	19278
821.868	19171
822.008	18996
822.149	18924
822.289	18825
822.429	18760
822.569	18559
822.709	18665
822.849	18536
822.99	18517
823.13	18376
823.27	18486
823.41	18232
823.55	18235
823.69	18239
823.83	18327
823.97	18178
824.11	18079
824.25	17977
824.389	18068
824.529	18228
824.669	17965
824.809	18270
824.949	18182
825.089	18079
825.228	17992
825.368	17794
825.508	17767
825.648	17908
825.787	17942
825.927	17870
826.067	17764
826.206	17809
826.346	17836
826.485	17855
826.625	17726
826.765	17931
826.904	17745
827.044	17657
827.183	17547
827.323	17490
827.462	17623
827.601	17486
827.741	17528
827.88	17573
828.02	17395
828.159	17505
828.298	17558
828.437	17577
828.577	17497
828.716	17577
828.855	17516
828.994	17231
829.134	17280
829.273	17296
829.412	17185
829.551	17250
829.69	17250
829.829	17200
829.968	17360
830.107	17307
830.246	17204
830.385	17181
830.524	17086
830.663	17037
830.802	17060
830.941	16896
831.08	16850
831.219	16938
831.357	17037
831.496	17117
831.635	16862
831.774	16740
831.913	16847
832.051	16656
832.19	16565
832.329	16637
832.467	16588
832.606	16535
832.744	16664
832.883	16531
833.022	16546
833.16	16618
833.299	16702
833.437	16634
833.576	16588
833.714	16531
833.852	16664
833.991	16698
834.129	16672
834.267	16611
834.406	16607
834.544	16618
834.682	16717
834.821	16645
834.959	16824
835.097	16558
835.235	16706
835.373	16675
835.511	16607
835.65	16596
835.788	16565
835.926	16459
836.064	16394
836.202	16341
836.34	16615
836.478	16649
836.615	16519
836.753	16538
836.891	16679
837.029	16588
837.167	16485
837.305	16455
837.443	16443
837.58	16329
837.718	16546
837.856	16554
837.993	16459
838.131	16417
838.269	16371
838.406	16322
838.544	16291
838.681	16067
838.819	16067
838.956	15854
839.094	15987
839.231	16090
839.369	16090
839.506	16386
839.643	16238
839.781	15926
839.918	15922
840.055	16025
840.193	16021
840.33	15994
840.467	16048
840.604	16021
840.742	16246
840.879	15873
841.016	15960
841.153	15861
841.29	16051
841.427	15895
841.564	16158
841.701	15968
841.838	15842
841.975	15930
842.112	15934
842.249	15720
842.385	15781
842.522	15884
842.659	15846
842.796	15679
842.933	15770
843.069	15755
843.206	15633
843.343	15854
843.479	15800
843.616	15743
843.752	15443
843.889	15462
844.025	15743
844.162	15523
844.298	15660
844.435	15485
844.571	15511
844.708	15675
844.844	15671
844.98	15728
845.117	15675
845.253	15538
845.389	15439
845.525	15545
845.661	15496
845.798	15351
845.934	15466
846.07	15294
846.206	15355
846.342	15389
846.478	15359
846.614	15150
846.75	15051
846.886	15077
847.022	15154
847.158	15062
847.294	15146
847.429	15180
847.565	15104
847.701	15355
847.837	14948
847.972	14807
848.108	14899
848.244	15013
848.379	14731
848.515	14678
848.65	14693
848.786	14720
848.921	14682
849.057	14842
849.192	14838
849.328	14834
849.463	14712
849.598	14678
849.734	14651
849.869	14613
850.004	14537
850.14	14503
850.275	14461
850.41	14423
850.545	14396
850.68	14412
850.815	14514
850.95	14457
851.085	14663
851.22	14564
851.355	14514
851.49	14355
851.625	14419
851.76	14339
851.895	14320
852.03	14351
852.165	14473
852.299	14495
852.434	14560
852.569	14480
852.703	14476
852.838	14446
852.973	14590
853.107	14579
853.242	14492
853.376	14465
853.511	14278
853.645	14343
853.78	14556
853.914	14313
854.048	14442
854.183	14256
854.317	14396
854.451	14476
854.585	14309
854.72	14366
854.854	14347
854.988	14324
855.122	14396
855.256	14183
855.39	14343
855.524	14370
855.658	14427
855.792	14381
855.926	14442
856.06	14412
856.194	14377
856.327	14370
856.461	14240
856.595	14248
856.729	14309
856.862	14370
856.996	14412
857.13	14343
857.263	14450
857.397	14598
857.53	14461
857.664	14454
857.797	14419
857.931	14450
858.064	14324
858.197	14526
858.331	14427
858.464	14351
858.597	14172
858.731	14199
858.864	14358
858.997	14438
859.13	14358
859.263	14396
859.396	14476
859.529	14309
859.662	14332
859.795	14298
859.928	14385
860.061	14473
860.194	14530
860.327	14355
860.46	14370
860.592	14438
860.725	14564
860.858	14442
860.99	14259
861.123	14332
861.256	14343
861.388	14377
861.521	14864
861.653	14195
861.786	14256
861.918	14065
862.05	14374
862.183	14385
862.315	14347
862.447	14317
862.58	14294
862.712	14111
862.844	14027
862.976	14164
863.108	14153
863.24	14514
863.372	14073
863.504	14073
863.636	14111
863.768	14225
863.9	14084
864.032	14058
864.164	14149
864.296	14145
864.428	14317
864.559	14221
864.691	14275
864.823	14149
864.954	14180
865.086	14172
865.217	14111
865.349	14008
865.48	14103
865.612	14313
865.743	14256
865.875	14161
866.006	14164
866.137	14119
866.269	14077
866.4	14138
866.531	14035
866.662	13986
866.793	14046
866.924	14123
867.055	14176
867.186	14073
867.317	13944
867.448	14092
867.579	14054
867.71	14027
867.841	13982
867.972	14103
868.103	14145
868.233	14111
868.364	14077
868.495	14221
868.625	14259
868.756	14313
868.886	14320
869.017	14374
869.147	14492
869.278	14533
869.408	14362
869.539	14370
869.669	14415
869.799	14305
869.929	14556
870.06	14454
870.19	14788
870.32	14636
870.45	14686
870.58	14796
870.71	14891
870.84	14853
870.97	14739
871.1	14754
871.23	14990
871.36	15013
871.489	14956
871.619	15013
871.749	15043
871.879	15070
872.008	15093
872.138	14910
872.267	14899
872.397	14834
872.526	14769
872.656	14785
872.785	14807
872.915	14982
873.044	15036
873.173	14918
873.303	15039
873.432	14990
873.561	15001
873.69	14918
873.819	14963
873.948	15047
874.077	14990
874.206	15085
874.335	15028
874.464	15070
874.593	15321
874.722	15325
874.851	15367
874.979	15359
875.108	15287
875.237	15279
875.365	15207
875.494	15310
875.623	15469
875.751	15340
875.88	15329
876.008	15378
876.136	15576
876.265	15682
876.393	15899
876.521	15861
876.65	15854
876.778	15762
876.906	15625
877.034	15622
877.162	15739
877.29	15724
877.418	15675
877.546	15713
877.674	15724
877.802	15736
877.93	15736
878.058	15724
878.185	15576
878.313	15766
878.441	15739
878.568	15606
878.696	15656
878.824	15705
878.951	15915
879.079	15873
879.206	15911
879.333	15880
879.461	15774
879.588	15880
879.715	16010
879.842	16063
879.97	15816
880.097	15614
880.224	15561
880.351	15595
880.478	15625
880.605	15428
880.732	15572
880.859	15751
880.986	15572
881.112	15599
881.239	15454
881.366	15408
881.493	15233
881.619	15199
881.746	15260
881.872	15252
881.999	15241
882.125	15203
882.252	15275
882.378	15283
882.505	15477
882.631	15211
882.757	15127
882.883	15119
883.01	14941
883.136	15062
883.262	14975
883.388	14826
883.514	15028
883.64	15097
883.766	15093
883.892	14914
884.018	14887
884.143	15108
884.269	15066
884.395	14815
884.52	14659
884.646	14804
884.772	14663
884.897	14689
885.023	14880
885.148	14891
885.274	14887
885.399	14857
885.524	14746
885.65	14807
885.775	14815
885.9	14693
886.025	14887
886.15	14853
886.275	14617
886.4	14606
886.525	14712
886.65	14663
886.775	14689
886.9	14876
887.025	14929
887.149	14686
887.274	14632
887.399	14575
887.523	14621
887.648	14556
887.773	14454
887.897	14610
888.021	14697
888.146	14549
888.27	14754
888.395	14743
888.519	14667
888.643	14606
888.767	14708
888.891	14457
889.015	14374
889.139	14450
889.263	14503
889.387	14579
889.511	14686
889.635	14583
889.759	14465
889.883	14457
890.006	14488
890.13	14556
890.254	14385
890.377	14476
890.501	14271
890.624	14237
890.748	14362
890.871	14214
890.995	14126
891.118	14058
891.241	14180
891.364	14161
891.488	14259
891.611	14073
891.734	14153
891.857	14206
891.98	14271
892.103	14229
892.226	14187
892.349	14065
892.471	13974
892.594	14172
892.717	14103
892.839	14008
892.962	14107
893.085	14187
893.207	14103
893.33	14088
893.452	14024
893.575	14229
893.697	14084
893.819	14294
893.941	14332
894.064	14225
894.186	14130
894.308	14100
894.43	14309
894.552	14298
894.674	14298
894.796	14058
894.918	14218
895.04	14240
895.161	14252
895.283	14317
895.405	14199
895.526	14282
895.648	14210
895.769	14332
895.891	14301
896.012	14362
896.134	14298
896.255	14328
896.376	14210
896.498	14267
896.619	14294
896.74	14358
896.861	14461
896.982	14594
897.103	14880
897.224	14590
897.345	14533
897.466	14450
897.587	14514
897.708	14697
897.828	14682
897.949	14541
898.07	14431
898.19	14575
898.311	14758
898.431	14579
898.552	14686
898.672	14670
898.792	14735
898.913	14746
899.033	14651
899.153	14511
899.273	14423
899.393	14465
899.513	14511
899.633	14530
899.753	14518
899.873	14518
899.993	14480
900.113	14549
900.232	14617
900.352	14457
900.472	14457
900.591	14396
900.711	14419
900.83	14355
900.95	14423
901.069	14461
901.189	14434
901.308	14050
901.427	13921
901.546	13963
901.665	14123
901.784	14062
901.904	13974
902.023	13871
902.141	13719
902.26	13704
902.379	13727
902.498	13601
902.617	13506
902.735	13632
902.854	13590
902.973	13499
903.091	13304
903.21	13331
903.328	13350
903.446	13270
903.565	13183
903.683	13099
903.801	13122
903.919	13156
904.038	13228
904.156	13015
904.274	12989
904.392	12924
904.51	13008
904.627	12977
904.745	13099
904.863	12973
904.981	12814
905.098	12623
905.216	12719
905.334	12734
905.451	12711
905.569	12692
905.686	12825
905.803	12715
905.921	12540
906.038	12639
906.155	12486
906.272	12422
906.389	12395
906.506	12330
906.623	12262
906.74	12281
906.857	12201
906.974	12213
907.091	12353
907.208	12445
907.324	12357
907.441	12350
907.557	12060
907.674	12060
907.79	12007
907.907	12019
908.023	11961
908.139	12098
908.256	11958
908.372	11980
908.488	11923
908.604	11790
908.72	11786
908.836	11756
908.952	11703
909.068	11912
909.184	11935
909.3	11760
909.415	11923
909.531	11824
909.647	11558
909.762	11653
909.878	11577
909.993	11570
910.108	11474
910.224	11497
910.339	11608
910.454	11452
910.57	11391
910.685	11277
910.8	11619
910.915	11577
911.03	11448
911.145	11284
911.259	11178
911.374	11227
911.489	11204
911.604	11117
911.718	10995
911.833	11025
911.947	10881
912.062	10828
912.176	11025
912.291	11014
912.405	11037
912.519	11162
912.633	11128
912.748	11121
912.862	10968
912.976	10911
913.09	10790
913.204	10866
913.318	10854
913.431	11006
913.545	11003
913.659	10995
913.772	10968
913.886	10892
914	10736
914.113	10881
914.226	10919
914.34	10896
914.453	10653
914.566	10847
914.68	10774
914.793	10744
914.906	10493
915.019	10519
915.132	10489
915.245	10504
915.358	10478
915.47	10569
915.583	10527
915.696	10573
915.809	10672
915.921	10687
916.034	10561
916.146	10455
916.259	10512
916.371	10622
916.483	10573
916.595	10390
916.708	10561
916.82	10527
916.932	10382
917.044	10451
917.156	10500
917.268	10390
917.38	10390
917.491	10337
917.603	10455
917.715	10504
917.826	10489
917.938	10360
918.049	10257
918.161	10451
918.272	10512
918.384	10459
918.495	10428
918.606	10322
918.717	10177
918.828	10306
918.939	10276
919.05	10158
919.161	10219
919.272	10063
919.383	10196
919.494	10322
919.604	10531
919.715	10306
919.826	10207
919.936	10272
920.047	10367
920.157	10238
920.267	10508
920.378	10375
920.488	10268
920.598	10508
920.708	10622
920.818	10443
920.928	10462
921.038	10660
921.148	10588
921.258	10322
921.368	10211
921.477	10173
921.587	10196
921.697	10074
921.806	10173
921.916	10051
922.025	9854
922.134	9774
922.244	9861
922.353	9880
922.462	9701
922.571	9736
922.68	9637
922.789	9504
922.898	9545
923.007	9420
923.116	9561
923.224	9530
923.333	9481
923.442	9416
923.55	9397
923.659	9523
923.767	9545
923.876	9450
923.984	9515
924.092	9382
924.201	9408
924.309	9428
924.417	9450
924.525	9416
924.633	9428
924.741	10284
924.849	9142
924.956	9359
925.064	9218
925.172	9146
925.279	9184
925.387	9169
925.494	9226
925.602	9351
925.709	9249
925.816	9116
925.924	9230
926.031	9287
926.138	9249
926.245	9245
926.352	9146
926.459	9150
926.566	9332
926.673	9161
926.779	9093
926.886	9058
926.993	8937
927.099	8933
927.206	8895
927.312	8800
927.419	8975
927.525	8887
927.631	8956
927.737	8819
927.843	8823
927.95	8686
928.056	8785
928.162	8838
928.267	8842
928.373	9397
928.479	8880
928.585	8716
928.69	8716
928.796	8746
928.901	8659
929.007	8552
929.112	8769
929.218	8750
929.323	8644
929.428	8575
929.533	8754
929.638	8503
929.743	8575
929.848	8659
929.953	8640
930.058	8640
930.163	8244
930.267	8454
930.372	8564
930.477	8396
930.581	8587
930.685	8419
930.79	8320
930.894	8389
930.998	8355
931.103	8442
931.207	8111
931.311	8077
931.415	7936
931.519	7830
931.623	7788
