Data from test_V78500241_2302.txt Node
Date: Fri Mar 25 14:49:44 CST 2022
User: usil
Spectrometer: V785-0024
Trigger mode: 0
Integration Time (sec): 4.000000E-1
Scans to average: 1
Nonlinearity correction enabled: false
Boxcar width: 0
Storing dark spectrum: false
XAxis mode: Wavelengths
Number of Pixels in Spectrum: 1024
>>>>>Begin Spectral Data<<<<<
801.071	22226
801.214	22158
801.356	21823
801.499	21861
801.641	21648
801.783	21610
801.926	21519
802.068	21542
802.211	21424
802.353	21272
802.496	21066
802.638	21058
802.78	21001
802.923	20975
803.065	20891
803.208	20800
803.35	20857
803.492	21005
803.635	21108
803.777	20853
803.919	20944
804.061	21287
804.204	20982
804.346	20929
804.488	20826
804.63	20857
804.773	20788
804.915	20815
805.057	20872
805.199	20785
805.341	20819
805.483	21017
805.626	20815
805.768	20785
805.91	20785
806.052	20777
806.194	20800
806.336	20937
806.478	20724
806.62	20796
806.762	20883
806.904	20975
807.046	21207
807.188	21150
807.33	21154
807.472	21317
807.614	20960
807.756	21131
807.898	21062
808.04	20910
808.182	20739
808.324	21058
808.465	20910
808.607	21123
808.749	21252
808.891	21317
809.033	21348
809.174	21199
809.316	21188
809.458	21207
809.6	21131
809.741	21146
809.883	21245
810.025	21355
810.166	21325
810.308	21230
810.45	21272
810.591	21310
810.733	21093
810.875	21020
811.016	20758
811.158	20918
811.299	21138
811.441	21192
811.582	21024
811.724	20971
811.865	20891
812.007	20891
812.148	21093
812.29	21013
812.431	21192
812.573	21252
812.714	21382
812.855	21454
812.997	21606
813.138	21812
813.279	21633
813.421	21507
813.562	21408
813.703	21275
813.845	21085
813.986	20883
814.127	20644
814.268	20503
814.41	20594
814.551	20537
814.692	20556
814.833	20446
814.974	20446
815.115	20526
815.256	20267
815.397	20294
815.539	20415
815.68	20256
815.821	20187
815.962	20271
816.103	20305
816.244	20172
816.385	20008
816.526	19902
816.666	19746
816.807	19727
816.948	19780
817.089	19750
817.23	19715
817.371	19651
817.512	19704
817.653	19575
817.793	19529
817.934	19518
818.075	19700
818.216	19620
818.356	19635
818.497	19510
818.638	19297
818.778	19327
818.919	19411
819.06	19365
819.2	19396
819.341	19529
819.481	19563
819.622	19556
819.762	19864
819.903	19803
820.043	19582
820.184	19666
820.324	19586
820.465	19723
820.605	19613
820.746	19597
820.886	19407
821.026	19620
821.167	19601
821.307	19696
821.447	19601
821.588	19327
821.728	19320
821.868	19129
822.008	19057
822.149	19053
822.289	18993
822.429	18810
822.569	18658
822.709	18597
822.849	18547
822.99	18528
823.13	18559
823.27	18448
823.41	18395
823.55	18350
823.69	18205
823.83	18300
823.97	18281
824.11	18140
824.25	18091
824.389	18167
824.529	18152
824.669	18182
824.809	18155
824.949	18095
825.089	18114
825.228	18079
825.368	17870
825.508	18011
825.648	17870
825.787	17946
825.927	17824
826.067	17790
826.206	17813
826.346	17870
826.485	17931
826.625	17851
826.765	18022
826.904	17817
827.044	17649
827.183	17634
827.323	17615
827.462	17638
827.601	17410
827.741	17520
827.88	17611
828.02	17471
828.159	17524
828.298	17581
828.437	17524
828.577	17444
828.716	17699
828.855	17604
828.994	17341
829.134	17216
829.273	17303
829.412	17220
829.551	17189
829.69	17223
829.829	17318
829.968	17372
830.107	17391
830.246	17315
830.385	17212
830.524	17075
830.663	17128
830.802	17060
830.941	16980
831.08	16820
831.219	17006
831.357	16927
831.496	17143
831.635	16927
831.774	16759
831.913	16767
832.051	16641
832.19	16653
832.329	16713
832.467	16611
832.606	16519
832.744	16588
832.883	16550
833.022	16466
833.16	16558
833.299	16672
833.437	16607
833.576	16645
833.714	16611
833.852	16740
833.991	16656
834.129	16580
834.267	16672
834.406	16668
834.544	16649
834.682	16645
834.821	16653
834.959	16759
835.097	16580
835.235	16706
835.373	16637
835.511	16675
835.65	16573
835.788	16466
835.926	16337
836.064	16291
836.202	16459
836.34	16599
836.478	16626
836.615	16599
836.753	16379
836.891	16508
837.029	16527
837.167	16504
837.305	16470
837.443	16413
837.58	16398
837.718	16466
837.856	16481
837.993	16303
838.131	16417
838.269	16215
838.406	16333
838.544	16253
838.681	16185
838.819	15880
838.956	15956
839.094	16074
839.231	15987
839.369	16158
839.506	16379
839.643	16314
839.781	15964
839.918	15888
840.055	15892
840.193	15945
840.33	15861
840.467	15915
840.604	15972
840.742	16188
840.879	15865
841.016	15838
841.153	15850
841.29	16032
841.427	15892
841.564	15994
841.701	15964
841.838	15861
841.975	15800
842.112	15869
842.249	15675
842.385	15663
842.522	15907
842.659	15789
842.796	15682
842.933	15717
843.069	15629
843.206	15682
843.343	15717
843.479	15770
843.616	15709
843.752	15553
843.889	15496
844.025	15637
844.162	15454
844.298	15690
844.435	15439
844.571	15359
844.708	15587
844.844	15713
844.98	15637
845.117	15542
845.253	15412
845.389	15420
845.525	15405
845.661	15382
845.798	15252
845.934	15291
846.07	15310
846.206	15389
846.342	15408
846.478	15214
846.614	15017
846.75	14956
846.886	15005
847.022	15207
847.158	15127
847.294	15127
847.429	15077
847.565	15013
847.701	15355
847.837	14819
847.972	14708
848.108	14941
848.244	14921
848.379	14720
848.515	14701
848.65	14720
848.786	14629
848.921	14674
849.057	14830
849.192	14739
849.328	14754
849.463	14659
849.598	14678
849.734	14556
849.869	14446
850.004	14450
850.14	14549
850.275	14412
850.41	14358
850.545	14301
850.68	14434
850.815	14385
850.95	14389
851.085	14549
851.22	14503
851.355	14526
851.49	14446
851.625	14389
851.76	14381
851.895	14328
852.03	14271
852.165	14370
852.299	14396
852.434	14396
852.569	14514
852.703	14461
852.838	14526
852.973	14549
853.107	14499
853.242	14389
853.376	14218
853.511	14237
853.645	14263
853.78	14358
853.914	14199
854.048	14233
854.183	14278
854.317	14332
854.451	14309
854.585	14271
854.72	14221
854.854	14301
854.988	14187
855.122	14278
855.256	14145
855.39	14313
855.524	14286
855.658	14282
855.792	14275
855.926	14225
856.06	14377
856.194	14317
856.327	14267
856.461	14305
856.595	14229
856.729	14229
856.862	14404
856.996	14351
857.13	14336
857.263	14381
857.397	14427
857.53	14237
857.664	14271
857.797	14381
857.931	14442
858.064	14366
858.197	14434
858.331	14199
858.464	14244
858.597	14145
858.731	14332
858.864	14309
858.997	14282
859.13	14389
859.263	14374
859.396	14362
859.529	14248
859.662	14305
859.795	14202
859.928	14256
860.061	14374
860.194	14404
860.327	14298
860.46	14259
860.592	14473
860.725	14488
860.858	14305
860.99	14313
861.123	14248
861.256	14206
861.388	14252
861.521	14849
861.653	14195
861.786	14100
861.918	14115
862.05	14145
862.183	14172
862.315	14294
862.447	14374
862.58	14237
862.712	14073
862.844	14027
862.976	14134
863.108	14229
863.24	14450
863.372	14001
863.504	13978
863.636	14130
863.768	14172
863.9	14027
864.032	13978
864.164	14058
864.296	14073
864.428	14199
864.559	14210
864.691	14168
864.823	14180
864.954	14058
865.086	14142
865.217	13967
865.349	13925
865.48	14012
865.612	13947
865.743	14164
865.875	14084
866.006	14001
866.137	13986
866.269	14046
866.4	14050
866.531	13967
866.662	14001
866.793	14001
866.924	13967
867.055	13963
867.186	13963
867.317	14050
867.448	13951
867.579	13921
867.71	13959
867.841	13993
867.972	14039
868.103	14016
868.233	13993
868.364	14046
868.495	14206
868.625	14248
868.756	14290
868.886	14218
869.017	14259
869.147	14374
869.278	14381
869.408	14313
869.539	14214
869.669	14393
869.799	14267
869.929	14320
870.06	14442
870.19	14503
870.32	14625
870.45	14564
870.58	14663
870.71	14834
870.84	14727
870.97	14750
871.1	14716
871.23	14861
871.36	14910
871.489	14686
871.619	14826
871.749	14861
871.879	14948
872.008	14975
872.138	14933
872.267	14975
872.397	14739
872.526	14792
872.656	14754
872.785	14785
872.915	14906
873.044	14986
873.173	14990
873.303	14899
873.432	14914
873.561	15123
873.69	14994
873.819	14819
873.948	15028
874.077	14982
874.206	14838
874.335	14933
874.464	15028
874.593	15241
874.722	15123
874.851	15275
874.979	15283
875.108	15306
875.237	15310
875.365	15207
875.494	15195
875.623	15348
875.751	15222
875.88	15279
876.008	15473
876.136	15492
876.265	15671
876.393	15854
876.521	15774
876.65	15793
876.778	15701
876.906	15477
877.034	15720
877.162	15641
877.29	15595
877.418	15625
877.546	15705
877.674	15717
877.802	15728
877.93	15679
878.058	15618
878.185	15507
878.313	15564
878.441	15701
878.568	15492
878.696	15720
878.824	15682
878.951	15770
879.079	15797
879.206	16017
879.333	15922
879.461	15720
879.588	15819
879.715	15892
879.842	15911
879.97	15736
880.097	15587
880.224	15382
880.351	15428
880.478	15545
880.605	15507
880.732	15530
880.859	15819
880.986	15496
881.112	15553
881.239	15435
881.366	15287
881.493	15233
881.619	15180
881.746	15192
881.872	15214
881.999	15245
882.125	15184
882.252	15188
882.378	15070
882.505	15310
882.631	15188
882.757	14925
882.883	15100
883.01	15024
883.136	14941
883.262	14819
883.388	14929
883.514	14990
883.64	15047
883.766	15036
883.892	14819
884.018	14861
884.143	14994
884.269	14990
884.395	14731
884.52	14651
884.646	14769
884.772	14621
884.897	14651
885.023	14629
885.148	14705
885.274	14826
885.399	14800
885.524	14746
885.65	14804
885.775	14727
885.9	14762
886.025	14849
886.15	14712
886.275	14659
886.4	14625
886.525	14682
886.65	14598
886.775	14564
886.9	14849
887.025	14883
887.149	14644
887.274	14610
887.399	14427
887.523	14431
887.648	14484
887.773	14400
887.897	14590
888.021	14564
888.146	14575
888.27	14636
888.395	14629
888.519	14587
888.643	14682
888.767	14629
888.891	14423
889.015	14290
889.139	14320
889.263	14282
889.387	14503
889.511	14560
889.635	14518
889.759	14412
889.883	14362
890.006	14404
890.13	14442
890.254	14248
890.377	14419
890.501	14221
890.624	14206
890.748	14210
890.871	14123
890.995	14024
891.118	13906
891.241	14138
891.364	14119
891.488	14126
891.611	14054
891.734	14187
891.857	14142
891.98	14096
892.103	14199
892.226	14084
892.349	14145
892.471	14054
892.594	14012
892.717	14096
892.839	14062
892.962	14111
893.085	14183
893.207	14134
893.33	13947
893.452	13970
893.575	14107
893.697	14088
893.819	14256
893.941	14229
894.064	14240
894.186	14046
894.308	13955
894.43	14126
894.552	14282
894.674	14187
894.796	14077
894.918	14130
895.04	14138
895.161	14259
895.283	14199
895.405	14020
895.526	14237
895.648	14187
895.769	14343
895.891	14396
896.012	14301
896.134	14225
896.255	14282
896.376	14210
896.498	14240
896.619	14385
896.74	14278
896.861	14324
896.982	14686
897.103	14758
897.224	14640
897.345	14454
897.466	14431
897.587	14499
897.708	14651
897.828	14640
897.949	14533
898.07	14385
898.19	14537
898.311	14739
898.431	14579
898.552	14583
898.672	14762
898.792	14667
898.913	14689
899.033	14492
899.153	14412
899.273	14419
899.393	14351
899.513	14552
899.633	14454
899.753	14469
899.873	14385
899.993	14423
900.113	14537
900.232	14476
900.352	14446
900.472	14514
900.591	14294
900.711	14434
900.83	14301
900.95	14465
901.069	14488
901.189	14286
901.308	14126
901.427	13989
901.546	14065
901.665	14073
901.784	14012
901.904	13970
902.023	13822
902.141	13643
902.26	13563
902.379	13723
902.498	13559
902.617	13575
902.735	13681
902.854	13666
902.973	13670
903.091	13320
903.21	13251
903.328	13278
903.446	13225
903.565	13129
903.683	13149
903.801	13031
903.919	13187
904.038	13080
904.156	12985
904.274	13110
904.392	12966
904.51	12989
904.627	12981
904.745	13065
904.863	13015
904.981	12753
905.098	12635
905.216	12589
905.334	12677
905.451	12639
905.569	12582
905.686	12730
905.803	12696
905.921	12475
906.038	12612
906.155	12551
906.272	12391
906.389	12429
906.506	12296
906.623	12296
906.74	12224
906.857	12098
906.974	12163
907.091	12334
907.208	12369
907.324	12311
907.441	12235
907.557	11973
907.674	11999
907.79	11908
907.907	11992
908.023	12034
908.139	12045
908.256	11939
908.372	11908
908.488	11935
908.604	11756
908.72	11767
908.836	11722
908.952	11729
909.068	11821
909.184	11878
909.3	11821
909.415	11840
909.531	11748
909.647	11520
909.762	11543
909.878	11459
909.993	11539
910.108	11532
910.224	11524
910.339	11505
910.454	11448
910.57	11296
910.685	11303
910.8	11512
910.915	11467
911.03	11410
911.145	11231
911.259	11193
911.374	11189
911.489	11189
911.604	11178
911.718	10987
911.833	11067
911.947	10885
912.062	10790
912.176	10919
912.291	10930
912.405	11025
912.519	11254
912.633	11140
912.748	11060
912.862	11067
912.976	10828
913.09	10755
913.204	10824
913.318	10831
913.431	10938
913.545	10900
913.659	10980
913.772	10778
913.886	10744
914	10733
914.113	10812
914.226	10923
914.34	10854
914.453	10637
914.566	10816
914.68	10607
914.793	10748
914.906	10500
915.019	10413
915.132	10379
915.245	10531
915.358	10508
915.47	10474
915.583	10538
915.696	10538
915.809	10618
915.921	10698
916.034	10466
916.146	10421
916.259	10481
916.371	10504
916.483	10481
916.595	10440
916.708	10451
916.82	10405
916.932	10455
917.044	10409
917.156	10474
917.268	10276
917.38	10325
917.491	10348
917.603	10402
917.715	10394
917.826	10325
917.938	10295
918.049	10211
918.161	10382
918.272	10432
918.384	10424
918.495	10352
918.606	10238
918.717	10158
918.828	10219
918.939	10223
919.05	10097
919.161	10185
919.272	10010
919.383	10116
919.494	10246
919.604	10367
919.715	10200
919.826	10135
919.936	10139
920.047	10341
920.157	10177
920.267	10481
920.378	10318
920.488	10223
920.598	10436
920.708	10611
920.818	10367
920.928	10417
921.038	10573
921.148	10531
921.258	10181
921.368	10219
921.477	10185
921.587	10036
921.697	9873
921.806	10131
921.916	9991
922.025	9785
922.134	9819
922.244	9705
922.353	9835
922.462	9656
922.571	9679
922.68	9458
922.789	9359
922.898	9481
923.007	9386
923.116	9500
923.224	9443
923.333	9485
923.442	9469
923.55	9374
923.659	9340
923.767	9363
923.876	9294
923.984	9382
924.092	9245
924.201	9260
924.309	9363
924.417	9325
924.525	9275
924.633	9302
924.741	10192
924.849	9154
924.956	9329
925.064	9104
925.172	9058
925.279	8982
925.387	9135
925.494	9123
925.602	9230
925.709	9195
925.816	9066
925.924	9058
926.031	9199
926.138	9150
926.245	9165
926.352	8986
926.459	9161
926.566	9245
926.673	9081
926.779	8937
926.886	8944
926.993	8853
927.099	8826
927.206	8857
927.312	8746
927.419	8868
927.525	8853
927.631	8918
927.737	8792
927.843	8785
927.95	8670
928.056	8663
928.162	8693
928.267	8743
928.373	9416
928.479	8811
928.585	8583
928.69	8823
928.796	8746
928.901	8568
929.007	8526
929.112	8682
929.218	8678
929.323	8541
929.428	8556
929.533	8606
929.638	8560
929.743	8556
929.848	8682
929.953	8587
930.058	8446
930.163	8282
930.267	8282
930.372	8442
930.477	8301
930.581	8484
930.685	8419
930.79	8313
930.894	8290
930.998	8317
931.103	8389
931.207	8077
931.311	7989
931.415	7913
931.519	7852
931.623	7803
