Data from test_V78500241_3449.txt Node
Date: Fri Mar 25 14:57:43 CST 2022
User: usil
Spectrometer: V785-0024
Trigger mode: 0
Integration Time (sec): 4.000000E-1
Scans to average: 1
Nonlinearity correction enabled: false
Boxcar width: 0
Storing dark spectrum: false
XAxis mode: Wavelengths
Number of Pixels in Spectrum: 1024
>>>>>Begin Spectral Data<<<<<
801.071	21918
801.214	21956
801.356	21481
801.499	21405
801.641	21321
801.783	21245
801.926	21351
802.068	21222
802.211	21161
802.353	21089
802.496	20982
802.638	20792
802.78	20765
802.923	20602
803.065	20583
803.208	20499
803.35	20648
803.492	20739
803.635	20815
803.777	20594
803.919	20689
804.061	20902
804.204	20686
804.346	20530
804.488	20465
804.63	20579
804.773	20488
804.915	20503
805.057	20697
805.199	20511
805.341	20533
805.483	20594
805.626	20594
805.768	20507
805.91	20575
806.052	20556
806.194	20549
806.336	20674
806.478	20415
806.62	20423
806.762	20640
806.904	20762
807.046	20982
807.188	20849
807.33	20883
807.472	20834
807.614	20800
807.756	20686
807.898	20720
808.04	20617
808.182	20495
808.324	20556
808.465	20716
808.607	20720
808.749	20887
808.891	21081
809.033	20994
809.174	20769
809.316	20727
809.458	20899
809.6	20697
809.741	20773
809.883	20925
810.025	21116
810.166	21089
810.308	20918
810.45	20963
810.591	20864
810.733	20750
810.875	20629
811.016	20629
811.158	20590
811.299	20689
811.441	20758
811.582	20765
811.724	20762
811.865	20594
812.007	20651
812.148	20583
812.29	20678
812.431	20895
812.573	20921
812.714	21081
812.855	21165
812.997	21195
813.138	21382
813.279	21241
813.421	21047
813.562	21070
813.703	20876
813.845	20785
813.986	20533
814.127	20336
814.268	20103
814.41	20290
814.551	20130
814.692	20164
814.833	20145
814.974	20126
815.115	20256
815.256	20054
815.397	19993
815.539	20027
815.68	19936
815.821	19849
815.962	20001
816.103	19852
816.244	19833
816.385	19662
816.526	19635
816.666	19506
816.807	19221
816.948	19373
817.089	19373
817.23	19339
817.371	19350
817.512	19240
817.653	19384
817.793	19240
817.934	19263
818.075	19240
818.216	19263
818.356	19282
818.497	19175
818.638	19000
818.778	19004
818.919	18996
819.06	19168
819.2	19023
819.341	19160
819.481	19168
819.622	19381
819.762	19544
819.903	19434
820.043	19293
820.184	19320
820.324	19308
820.465	19407
820.605	19259
820.746	19301
820.886	19072
821.026	19259
821.167	19251
821.307	19278
821.447	19168
821.588	19012
821.728	19084
821.868	19004
822.008	18722
822.149	18665
822.289	18623
822.429	18532
822.569	18369
822.709	18391
822.849	18213
822.99	18178
823.13	18136
823.27	18034
823.41	18026
823.55	17866
823.69	17874
823.83	18091
823.97	17980
824.11	17916
824.25	17771
824.389	17783
824.529	17920
824.669	17680
824.809	17821
824.949	17965
825.089	17916
825.228	17855
825.368	17573
825.508	17573
825.648	17554
825.787	17596
825.927	17535
826.067	17554
826.206	17490
826.346	17615
826.485	17600
826.625	17653
826.765	17691
826.904	17581
827.044	17364
827.183	17360
827.323	17197
827.462	17303
827.601	17265
827.741	17140
827.88	17166
828.02	17048
828.159	17212
828.298	17242
828.437	17292
828.577	17166
828.716	17326
828.855	17189
828.994	17018
829.134	16965
829.273	16957
829.412	16904
829.551	16991
829.69	17048
829.829	16984
829.968	17079
830.107	17086
830.246	17079
830.385	16934
830.524	16934
830.663	16748
830.802	16778
830.941	16580
831.08	16660
831.219	16683
831.357	16668
831.496	16809
831.635	16672
831.774	16645
831.913	16466
832.051	16478
832.19	16459
832.329	16360
832.467	16299
832.606	16386
832.744	16177
832.883	16268
833.022	16287
833.16	16341
833.299	16390
833.437	16314
833.576	16398
833.714	16417
833.852	16318
833.991	16504
834.129	16363
834.267	16428
834.406	16348
834.544	16386
834.682	16310
834.821	16284
834.959	16542
835.097	16325
835.235	16409
835.373	16474
835.511	16363
835.65	16299
835.788	16291
835.926	16265
836.064	16082
836.202	16147
836.34	16257
836.478	16455
836.615	16291
836.753	16337
836.891	16322
837.029	16268
837.167	16348
837.305	16310
837.443	16169
837.58	16143
837.718	16329
837.856	16143
837.993	16116
838.131	16226
838.269	16097
838.406	16074
838.544	16021
838.681	15960
838.819	15861
838.956	15751
839.094	15785
839.231	15793
839.369	15869
839.506	16238
839.643	16021
839.781	15705
839.918	15595
840.055	15785
840.193	15762
840.33	15717
840.467	15709
840.604	15743
840.742	15983
840.879	15614
841.016	15591
841.153	15660
841.29	15823
841.427	15747
841.564	15774
841.701	15743
841.838	15603
841.975	15671
842.112	15675
842.249	15610
842.385	15500
842.522	15717
842.659	15599
842.796	15447
842.933	15534
843.069	15473
843.206	15526
843.343	15576
843.479	15568
843.616	15595
843.752	15332
843.889	15313
844.025	15564
844.162	15306
844.298	15401
844.435	15382
844.571	15203
844.708	15351
844.844	15526
844.98	15435
845.117	15439
845.253	15348
845.389	15173
845.525	15268
845.661	15203
845.798	15138
845.934	15184
846.07	15062
846.206	15203
846.342	15192
846.478	15135
846.614	14887
846.75	14994
846.886	14705
847.022	14982
847.158	14857
847.294	14883
847.429	14845
847.565	14849
847.701	15123
847.837	14613
847.972	14537
848.108	14655
848.244	14697
848.379	14530
848.515	14434
848.65	14469
848.786	14492
848.921	14484
849.057	14556
849.192	14579
849.328	14495
849.463	14537
849.598	14484
849.734	14328
849.869	14358
850.004	14278
850.14	14290
850.275	14301
850.41	14286
850.545	14237
850.68	14214
850.815	14172
850.95	14221
851.085	14415
851.22	14431
851.355	14183
851.49	14267
851.625	14225
851.76	14267
851.895	14126
852.03	14111
852.165	14286
852.299	14275
852.434	14294
852.569	14218
852.703	14233
852.838	14237
852.973	14404
853.107	14400
853.242	14248
853.376	14229
853.511	13909
853.645	14027
853.78	14164
853.914	14157
854.048	14062
854.183	14084
854.317	14107
854.451	14267
854.585	14062
854.72	14138
854.854	14248
854.988	14077
855.122	14176
855.256	13993
855.39	14062
855.524	14164
855.658	14096
855.792	14119
855.926	14157
856.06	14081
856.194	14271
856.327	14107
856.461	14043
856.595	14168
856.729	14077
856.862	14240
856.996	14176
857.13	14103
857.263	14301
857.397	14206
857.53	14119
857.664	14202
857.797	14195
857.931	14248
858.064	14111
858.197	14214
858.331	14111
858.464	14119
858.597	14016
858.731	14161
858.864	14020
858.997	14100
859.13	14187
859.263	14069
859.396	14221
859.529	14153
859.662	14103
859.795	14039
859.928	14153
860.061	14233
860.194	14298
860.327	14221
860.46	14119
860.592	14298
860.725	14256
860.858	14248
860.99	14138
861.123	14096
861.256	14035
861.388	14134
861.521	14819
861.653	13963
861.786	13940
861.918	13982
862.05	13982
862.183	13982
862.315	14103
862.447	14157
862.58	14088
862.712	13898
862.844	13841
862.976	14005
863.108	14054
863.24	14385
863.372	13845
863.504	13830
863.636	13822
863.768	13959
863.9	13959
864.032	13913
864.164	13849
864.296	13978
864.428	14008
864.559	13986
864.691	13989
864.823	14008
864.954	13993
865.086	14001
865.217	13944
865.349	13795
865.48	13902
865.612	13944
865.743	14031
865.875	13944
866.006	13890
866.137	13921
866.269	13879
866.4	13856
866.531	13879
866.662	13780
866.793	13868
866.924	13932
867.055	13921
867.186	13890
867.317	13788
867.448	13708
867.579	13856
867.71	13849
867.841	13814
867.972	14020
868.103	13845
868.233	13917
868.364	13898
868.495	14035
868.625	14202
868.756	14199
868.886	14088
869.017	14065
869.147	14214
869.278	14278
869.408	14123
869.539	14134
869.669	14176
869.799	14214
869.929	14263
870.06	14263
870.19	14522
870.32	14358
870.45	14476
870.58	14579
870.71	14625
870.84	14712
870.97	14545
871.1	14492
871.23	14788
871.36	14800
871.489	14571
871.619	14754
871.749	14693
871.879	14781
872.008	14876
872.138	14830
872.267	14712
872.397	14697
872.526	14552
872.656	14530
872.785	14617
872.915	14712
873.044	14906
873.173	14845
873.303	14735
873.432	14800
873.561	14868
873.69	14788
873.819	14796
873.948	14838
874.077	14823
874.206	14765
874.335	14906
874.464	14872
874.593	14986
874.722	15028
874.851	15188
874.979	15199
875.108	15074
875.237	15062
875.365	14963
875.494	15119
875.623	15138
875.751	14990
875.88	15108
876.008	15374
876.136	15428
876.265	15523
876.393	15625
876.521	15629
876.65	15515
876.778	15526
876.906	15462
877.034	15443
877.162	15431
877.29	15557
877.418	15572
877.546	15523
877.674	15496
877.802	15458
877.93	15515
878.058	15378
878.185	15492
878.313	15545
878.441	15568
878.568	15389
878.696	15428
878.824	15610
878.951	15591
879.079	15686
879.206	15797
879.333	15720
879.461	15538
879.588	15622
879.715	15759
879.842	15838
879.97	15564
880.097	15386
880.224	15321
880.351	15336
880.478	15466
880.605	15332
880.732	15382
880.859	15606
880.986	15439
881.112	15466
881.239	15294
881.366	15131
881.493	15108
881.619	15020
881.746	15077
881.872	15043
881.999	15024
882.125	14990
882.252	15017
882.378	15051
882.505	15188
882.631	15005
882.757	14792
882.883	14994
883.01	14880
883.136	14781
883.262	14735
883.388	14724
883.514	14921
883.64	14872
883.766	14765
883.892	14697
884.018	14625
884.143	14876
884.269	14982
884.395	14625
884.52	14518
884.646	14602
884.772	14480
884.897	14457
885.023	14613
885.148	14629
885.274	14705
885.399	14663
885.524	14583
885.65	14476
885.775	14651
885.9	14545
886.025	14743
886.15	14564
886.275	14530
886.4	14492
886.525	14610
886.65	14556
886.775	14518
886.9	14655
887.025	14826
887.149	14636
887.274	14431
887.399	14298
887.523	14442
887.648	14362
887.773	14385
887.897	14530
888.021	14473
888.146	14393
888.27	14522
888.395	14533
888.519	14438
888.643	14438
888.767	14549
888.891	14282
889.015	14290
889.139	14256
889.263	14298
889.387	14381
889.511	14438
889.635	14298
889.759	14206
889.883	14256
890.006	14320
890.13	14343
890.254	14157
890.377	14248
890.501	14123
890.624	14073
890.748	14111
890.871	14096
890.995	13887
891.118	13925
891.241	14008
891.364	13951
891.488	14138
891.611	13997
891.734	13993
891.857	14062
891.98	13959
892.103	14058
892.226	14130
892.349	14050
892.471	13769
892.594	13951
892.717	13898
892.839	13974
892.962	13982
893.085	14024
893.207	14054
893.33	13849
893.452	13864
893.575	14008
893.697	13917
893.819	14119
893.941	14130
894.064	14134
894.186	13978
894.308	13955
894.43	14035
894.552	14157
894.674	14054
894.796	13963
894.918	14008
895.04	14008
895.161	14172
895.283	14138
895.405	14058
895.526	14058
895.648	14020
895.769	14084
895.891	14164
896.012	14195
896.134	14149
896.255	14195
896.376	14081
896.498	14134
896.619	14092
896.74	14218
896.861	14252
896.982	14571
897.103	14667
897.224	14431
897.345	14431
897.466	14309
897.587	14366
897.708	14476
897.828	14526
897.949	14370
898.07	14252
898.19	14366
898.311	14590
898.431	14385
898.552	14499
898.672	14621
898.792	14594
898.913	14423
899.033	14332
899.153	14301
899.273	14324
899.393	14332
899.513	14301
899.633	14461
899.753	14358
899.873	14317
899.993	14324
900.113	14370
900.232	14415
900.352	14374
900.472	14298
900.591	14172
900.711	14199
900.83	14210
900.95	14290
901.069	14370
901.189	14096
901.308	13944
901.427	13849
901.546	13826
901.665	13894
901.784	13898
901.904	13689
902.023	13647
902.141	13563
902.26	13464
902.379	13491
902.498	13407
902.617	13480
902.735	13514
902.854	13464
902.973	13343
903.091	13202
903.21	13160
903.328	13168
903.446	13179
903.565	13042
903.683	13008
903.801	13034
903.919	12954
904.038	12981
904.156	12837
904.274	12928
904.392	12768
904.51	12817
904.627	12837
904.745	12833
904.863	12977
904.981	12658
905.098	12582
905.216	12563
905.334	12540
905.451	12532
905.569	12494
905.686	12563
905.803	12483
905.921	12289
906.038	12426
906.155	12315
906.272	12232
906.389	12311
906.506	12148
906.623	12121
906.74	12079
906.857	11958
906.974	12003
907.091	12258
907.208	12262
907.324	12247
907.441	12003
907.557	11855
907.674	11885
907.79	11847
907.907	11908
908.023	11920
908.139	11897
908.256	11798
908.372	11714
908.488	11904
908.604	11691
908.72	11516
908.836	11642
908.952	11570
909.068	11657
909.184	11748
909.3	11699
909.415	11745
909.531	11630
909.647	11455
909.762	11436
909.878	11383
909.993	11455
910.108	11368
910.224	11376
910.339	11433
910.454	11284
910.57	11261
910.685	11197
910.8	11596
910.915	11543
911.03	11261
911.145	11140
911.259	11086
911.374	11109
911.489	11048
911.604	10965
911.718	10816
911.833	10892
911.947	10736
912.062	10656
912.176	10862
912.291	10866
912.405	10839
912.519	11109
912.633	11071
912.748	10968
912.862	10862
912.976	10771
913.09	10615
913.204	10649
913.318	10721
913.431	10820
913.545	10862
913.659	10873
913.772	10767
913.886	10656
914	10672
914.113	10767
914.226	10721
914.34	10736
914.453	10580
914.566	10679
914.68	10588
914.793	10599
914.906	10386
915.019	10325
915.132	10265
915.245	10386
915.358	10443
915.47	10398
915.583	10421
915.696	10405
915.809	10516
915.921	10497
916.034	10424
916.146	10318
916.259	10344
916.371	10405
916.483	10398
916.595	10230
916.708	10318
916.82	10337
916.932	10306
917.044	10162
917.156	10223
917.268	10215
917.38	10268
917.491	10154
917.603	10242
917.715	10280
917.826	10306
917.938	10272
918.049	10143
918.161	10272
918.272	10337
918.384	10371
918.495	10341
918.606	10124
918.717	10074
918.828	10002
918.939	10131
919.05	9987
919.161	10112
919.272	9857
919.383	9991
919.494	10181
919.604	10318
919.715	10177
919.826	9987
919.936	10063
920.047	10192
920.157	10150
920.267	10329
920.378	10204
920.488	10109
920.598	10291
920.708	10512
920.818	10284
920.928	10261
921.038	10508
921.148	10478
921.258	10097
921.368	10044
921.477	9994
921.587	9922
921.697	9888
921.806	10036
921.916	10006
922.025	9682
922.134	9694
922.244	9724
922.353	9762
922.462	9618
922.571	9507
922.68	9473
922.789	9336
922.898	9344
923.007	9367
923.116	9397
923.224	9424
923.333	9382
923.442	9306
923.55	9253
923.659	9306
923.767	9428
923.876	9279
923.984	9370
924.092	9302
924.201	9348
924.309	9272
924.417	9279
924.525	9260
924.633	9302
924.741	10139
924.849	9070
924.956	9245
925.064	9100
925.172	9066
925.279	9055
925.387	9081
925.494	9039
925.602	9184
925.709	9119
925.816	9017
925.924	9047
926.031	9207
926.138	9051
926.245	9089
926.352	9062
926.459	9138
926.566	9165
926.673	9009
926.779	8929
926.886	8956
926.993	8838
927.099	8845
927.206	8781
927.312	8731
927.419	8807
927.525	8746
927.631	8811
927.737	8674
927.843	8716
927.95	8648
928.056	8663
928.162	8758
928.267	8663
928.373	9359
928.479	8838
928.585	8602
928.69	8613
928.796	8773
928.901	8621
929.007	8514
929.112	8613
929.218	8602
929.323	8545
929.428	8530
929.533	8648
929.638	8438
929.743	8507
929.848	8552
929.953	8575
930.058	8389
930.163	8248
930.267	8259
930.372	8415
930.477	8218
930.581	8495
930.685	8366
930.79	8214
930.894	8294
930.998	8233
931.103	8343
931.207	8008
931.311	8092
931.415	7902
931.519	7784
931.623	7757
