Data from test_V78500241_2600.txt Node
Date: Fri Mar 25 14:51:49 CST 2022
User: usil
Spectrometer: V785-0024
Trigger mode: 0
Integration Time (sec): 4.000000E-1
Scans to average: 1
Nonlinearity correction enabled: false
Boxcar width: 0
Storing dark spectrum: false
XAxis mode: Wavelengths
Number of Pixels in Spectrum: 1024
>>>>>Begin Spectral Data<<<<<
801.071	22063
801.214	21831
801.356	21705
801.499	21542
801.641	21428
801.783	21325
801.926	21374
802.068	21294
802.211	21192
802.353	21104
802.496	20982
802.638	20830
802.78	20834
802.923	20743
803.065	20720
803.208	20731
803.35	20811
803.492	20796
803.635	20823
803.777	20609
803.919	20830
804.061	20975
804.204	20617
804.346	20781
804.488	20655
804.63	20750
804.773	20640
804.915	20701
805.057	20705
805.199	20659
805.341	20682
805.483	20792
805.626	20689
805.768	20412
805.91	20575
806.052	20640
806.194	20495
806.336	20746
806.478	20549
806.62	20587
806.762	20693
806.904	20762
807.046	20979
807.188	20963
807.33	20963
807.472	20967
807.614	20819
807.756	20899
807.898	20853
808.04	20556
808.182	20693
808.324	20716
808.465	20712
808.607	20937
808.749	21039
808.891	21157
809.033	21081
809.174	21020
809.316	20891
809.458	20975
809.6	20967
809.741	20925
809.883	21108
810.025	21108
810.166	21096
810.308	21119
810.45	20986
810.591	20937
810.733	20925
810.875	20720
811.016	20644
811.158	20651
811.299	20651
811.441	20849
811.582	20880
811.724	20762
811.865	20819
812.007	20781
812.148	20621
812.29	20743
812.431	20902
812.573	21051
812.714	21123
812.855	21249
812.997	21348
813.138	21363
813.279	21214
813.421	21329
813.562	21195
813.703	21085
813.845	20925
813.986	20648
814.127	20457
814.268	20351
814.41	20377
814.551	20377
814.692	20427
814.833	20290
814.974	20275
815.115	20366
815.256	20248
815.397	20145
815.539	20122
815.68	19989
815.821	19944
815.962	20012
816.103	19951
816.244	19913
816.385	19799
816.526	19723
816.666	19601
816.807	19605
816.948	19419
817.089	19544
817.23	19476
817.371	19411
817.512	19441
817.653	19403
817.793	19312
817.934	19392
818.075	19419
818.216	19422
818.356	19434
818.497	19236
818.638	19145
818.778	19148
818.919	19110
819.06	19084
819.2	19240
819.341	19324
819.481	19278
819.622	19445
819.762	19578
819.903	19597
820.043	19422
820.184	19441
820.324	19407
820.465	19384
820.605	19491
820.746	19464
820.886	19274
821.026	19308
821.167	19312
821.307	19327
821.447	19343
821.588	19232
821.728	19061
821.868	19015
822.008	18814
822.149	18779
822.289	18734
822.429	18475
822.569	18563
822.709	18506
822.849	18338
822.99	18372
823.13	18247
823.27	18243
823.41	18121
823.55	18095
823.69	18159
823.83	18125
823.97	18079
824.11	17843
824.25	17885
824.389	17893
824.529	17969
824.669	17832
824.809	18053
824.949	17980
825.089	18003
825.228	17920
825.368	17722
825.508	17649
825.648	17718
825.787	17756
825.927	17737
826.067	17630
826.206	17596
826.346	17703
826.485	17737
826.625	17710
826.765	17729
826.904	17680
827.044	17474
827.183	17391
827.323	17410
827.462	17539
827.601	17444
827.741	17387
827.88	17307
828.02	17277
828.159	17265
828.298	17341
828.437	17452
828.577	17429
828.716	17440
828.855	17318
828.994	17231
829.134	17083
829.273	17185
829.412	17132
829.551	17109
829.69	17136
829.829	17189
829.968	17132
830.107	17246
830.246	17227
830.385	17037
830.524	16980
830.663	16957
830.802	16900
830.941	16706
831.08	16793
831.219	16812
831.357	16782
831.496	16949
831.635	16733
831.774	16660
831.913	16752
832.051	16470
832.19	16554
832.329	16626
832.467	16516
832.606	16500
832.744	16466
832.883	16546
833.022	16337
833.16	16516
833.299	16462
833.437	16531
833.576	16519
833.714	16580
833.852	16569
833.991	16554
834.129	16668
834.267	16630
834.406	16546
834.544	16573
834.682	16561
834.821	16599
834.959	16744
835.097	16462
835.235	16668
835.373	16569
835.511	16615
835.65	16516
835.788	16390
835.926	16329
836.064	16234
836.202	16306
836.34	16470
836.478	16546
836.615	16478
836.753	16447
836.891	16497
837.029	16424
837.167	16382
837.305	16299
837.443	16265
837.58	16238
837.718	16310
837.856	16284
837.993	16242
838.131	16402
838.269	16295
838.406	16325
838.544	16181
838.681	16010
838.819	15987
838.956	15781
839.094	15899
839.231	15941
839.369	15968
839.506	16310
839.643	16192
839.781	15857
839.918	15774
840.055	15869
840.193	15823
840.33	15892
840.467	15789
840.604	15934
840.742	16131
840.879	15846
841.016	15857
841.153	15842
841.29	15972
841.427	15876
841.564	15949
841.701	15846
841.838	15816
841.975	15774
842.112	15854
842.249	15663
842.385	15637
842.522	15899
842.659	15709
842.796	15656
842.933	15587
843.069	15610
843.206	15485
843.343	15682
843.479	15679
843.616	15656
843.752	15420
843.889	15363
844.025	15660
844.162	15370
844.298	15473
844.435	15382
844.571	15447
844.708	15519
844.844	15580
844.98	15572
845.117	15564
845.253	15393
845.389	15382
845.525	15450
845.661	15374
845.798	15310
845.934	15226
846.07	15195
846.206	15313
846.342	15344
846.478	15222
846.614	15131
846.75	14933
846.886	15047
847.022	15077
847.158	15051
847.294	15001
847.429	15055
847.565	14967
847.701	15226
847.837	14708
847.972	14724
848.108	14895
848.244	14754
848.379	14705
848.515	14552
848.65	14659
848.786	14640
848.921	14670
849.057	14686
849.192	14651
849.328	14655
849.463	14587
849.598	14590
849.734	14511
849.869	14450
850.004	14301
850.14	14355
850.275	14503
850.41	14317
850.545	14278
850.68	14412
850.815	14450
850.95	14336
851.085	14594
851.22	14518
851.355	14530
851.49	14301
851.625	14336
851.76	14320
851.895	14294
852.03	14221
852.165	14324
852.299	14412
852.434	14469
852.569	14408
852.703	14381
852.838	14434
852.973	14537
853.107	14541
853.242	14370
853.376	14248
853.511	14157
853.645	14130
853.78	14324
853.914	14320
854.048	14183
854.183	14210
854.317	14244
854.451	14457
854.585	14210
854.72	14282
854.854	14275
854.988	14180
855.122	14123
855.256	14103
855.39	14195
855.524	14328
855.658	14275
855.792	14271
855.926	14347
856.06	14240
856.194	14347
856.327	14317
856.461	14263
856.595	14161
856.729	14206
856.862	14370
856.996	14351
857.13	14362
857.263	14309
857.397	14351
857.53	14252
857.664	14267
857.797	14358
857.931	14366
858.064	14336
858.197	14377
858.331	14244
858.464	14115
858.597	14130
858.731	14275
858.864	14275
858.997	14183
859.13	14301
859.263	14218
859.396	14282
859.529	14126
859.662	14256
859.795	14271
859.928	14282
860.061	14374
860.194	14419
860.327	14244
860.46	14263
860.592	14381
860.725	14465
860.858	14351
860.99	14256
861.123	14100
861.256	14225
861.388	14187
861.521	14929
861.653	14180
861.786	14031
861.918	14058
862.05	14096
862.183	14142
862.315	14313
862.447	14237
862.58	14199
862.712	13986
862.844	13989
862.976	14088
863.108	14035
863.24	14518
863.372	14020
863.504	14065
863.636	14050
863.768	14058
863.9	14092
864.032	14012
864.164	14046
864.296	14031
864.428	14107
864.559	14126
864.691	14069
864.823	14069
864.954	14126
865.086	14043
865.217	14024
865.349	14020
865.48	13982
865.612	14001
865.743	14123
865.875	14016
866.006	13951
866.137	14005
866.269	13944
866.4	13936
866.531	13928
866.662	13868
866.793	13989
866.924	13898
867.055	14043
867.186	14058
867.317	14001
867.448	13826
867.579	13917
867.71	13928
867.841	13936
867.972	14111
868.103	14043
868.233	14008
868.364	13917
868.495	14088
868.625	14282
868.756	14396
868.886	14145
869.017	14202
869.147	14358
869.278	14412
869.408	14381
869.539	14275
869.669	14408
869.799	14202
869.929	14415
870.06	14351
870.19	14590
870.32	14571
870.45	14613
870.58	14659
870.71	14815
870.84	14781
870.97	14682
871.1	14629
871.23	14838
871.36	14796
871.489	14777
871.619	14796
871.749	14868
871.879	14929
872.008	14967
872.138	14956
872.267	14921
872.397	14678
872.526	14697
872.656	14617
872.785	14674
872.915	14853
873.044	15058
873.173	14994
873.303	14986
873.432	14902
873.561	14941
873.69	14956
873.819	14914
873.948	14975
874.077	14979
874.206	14925
874.335	14944
874.464	15058
874.593	15165
874.722	15123
874.851	15264
874.979	15279
875.108	15378
875.237	15291
875.365	15089
875.494	15173
875.623	15218
875.751	15173
875.88	15264
876.008	15317
876.136	15420
876.265	15572
876.393	15873
876.521	15724
876.65	15736
876.778	15595
876.906	15595
877.034	15637
877.162	15694
877.29	15504
877.418	15679
877.546	15743
877.674	15576
877.802	15778
877.93	15671
878.058	15584
878.185	15469
878.313	15587
878.441	15701
878.568	15458
878.696	15553
878.824	15641
878.951	15591
879.079	15720
879.206	15964
879.333	15812
879.461	15648
879.588	15812
879.715	15873
879.842	15964
879.97	15816
880.097	15477
880.224	15462
880.351	15496
880.478	15496
880.605	15443
880.732	15469
880.859	15701
880.986	15431
881.112	15580
881.239	15412
881.366	15237
881.493	15108
881.619	15119
881.746	15279
881.872	15199
881.999	15173
882.125	15077
882.252	15256
882.378	15157
882.505	15233
882.631	15104
882.757	14960
882.883	14990
883.01	14937
883.136	14883
883.262	14868
883.388	14830
883.514	15013
883.64	14967
883.766	14963
883.892	14769
884.018	14823
884.143	15043
884.269	15032
884.395	14762
884.52	14670
884.646	14682
884.772	14594
884.897	14594
885.023	14663
885.148	14834
885.274	14845
885.399	14815
885.524	14701
885.65	14735
885.775	14629
885.9	14594
886.025	14743
886.15	14743
886.275	14610
886.4	14583
886.525	14636
886.65	14629
886.775	14545
886.9	14773
887.025	14944
887.149	14708
887.274	14514
887.399	14511
887.523	14438
887.648	14465
887.773	14355
887.897	14545
888.021	14507
888.146	14442
888.27	14564
888.395	14583
888.519	14564
888.643	14552
888.767	14670
888.891	14423
889.015	14355
889.139	14442
889.263	14339
889.387	14454
889.511	14526
889.635	14457
889.759	14267
889.883	14404
890.006	14423
890.13	14484
890.254	14271
890.377	14240
890.501	14229
890.624	14115
890.748	14256
890.871	14077
890.995	14043
891.118	14016
891.241	14039
891.364	14096
891.488	14199
891.611	14153
891.734	14039
891.857	14111
891.98	14020
892.103	14149
892.226	14157
892.349	13974
892.471	13970
892.594	14039
892.717	14054
892.839	14058
892.962	14035
893.085	14180
893.207	14065
893.33	13917
893.452	13936
893.575	14153
893.697	14050
893.819	14244
893.941	14301
894.064	14206
894.186	13963
894.308	13986
894.43	14214
894.552	14294
894.674	14218
894.796	14050
894.918	14149
895.04	14050
895.161	14256
895.283	14244
895.405	14046
895.526	14142
895.648	14142
895.769	14180
895.891	14347
896.012	14259
896.134	14278
896.255	14294
896.376	14157
896.498	14259
896.619	14332
896.74	14248
896.861	14309
896.982	14514
897.103	14796
897.224	14530
897.345	14507
897.466	14347
897.587	14438
897.708	14571
897.828	14560
897.949	14434
898.07	14362
898.19	14556
898.311	14708
898.431	14434
898.552	14530
898.672	14651
898.792	14640
898.913	14686
899.033	14556
899.153	14434
899.273	14282
899.393	14442
899.513	14454
899.633	14461
899.753	14522
899.873	14313
899.993	14511
900.113	14438
900.232	14412
900.352	14400
900.472	14358
900.591	14271
900.711	14210
900.83	14237
900.95	14374
901.069	14434
901.189	14286
901.308	14020
901.427	13925
901.546	13955
901.665	14008
901.784	14024
901.904	13814
902.023	13700
902.141	13544
902.26	13548
902.379	13620
902.498	13601
902.617	13533
902.735	13628
902.854	13468
902.973	13483
903.091	13266
903.21	13289
903.328	13266
903.446	13194
903.565	13141
903.683	13179
903.801	13000
903.919	13122
904.038	13072
904.156	12913
904.274	13004
904.392	12901
904.51	12943
904.627	12859
904.745	13038
904.863	13031
904.981	12650
905.098	12604
905.216	12616
905.334	12711
905.451	12597
905.569	12612
905.686	12753
905.803	12604
905.921	12471
906.038	12551
906.155	12388
906.272	12235
906.389	12369
906.506	12213
906.623	12220
906.74	12228
906.857	12083
906.974	12117
907.091	12251
907.208	12342
907.324	12277
907.441	12125
907.557	11893
907.674	12041
907.79	11996
907.907	11920
908.023	12026
908.139	11958
908.256	11916
908.372	11908
908.488	11927
908.604	11703
908.72	11646
908.836	11764
908.952	11718
909.068	11783
909.184	11798
909.3	11642
909.415	11813
909.531	11748
909.647	11463
909.762	11505
909.878	11455
909.993	11532
910.108	11425
910.224	11528
910.339	11497
910.454	11330
910.57	11379
910.685	11391
910.8	11520
910.915	11554
911.03	11372
911.145	11193
911.259	11090
911.374	11235
911.489	11204
911.604	11105
911.718	10911
911.833	10923
911.947	10869
912.062	10809
912.176	11018
912.291	10930
912.405	10896
912.519	11140
912.633	11185
912.748	11041
912.862	10923
912.976	10797
913.09	10771
913.204	10771
913.318	10885
913.431	10919
913.545	10934
913.659	10953
913.772	10843
913.886	10733
914	10679
914.113	10839
914.226	10885
914.34	10771
914.453	10588
914.566	10812
914.68	10626
914.793	10664
914.906	10455
915.019	10436
915.132	10367
915.245	10402
915.358	10428
915.47	10440
915.583	10481
915.696	10474
915.809	10675
915.921	10588
916.034	10455
916.146	10523
916.259	10405
916.371	10500
916.483	10386
916.595	10360
916.708	10394
916.82	10436
916.932	10344
917.044	10409
917.156	10306
917.268	10261
917.38	10227
917.491	10246
917.603	10291
917.715	10344
917.826	10314
917.938	10337
918.049	10116
918.161	10261
918.272	10489
918.384	10436
918.495	10322
918.606	10185
918.717	10143
918.828	10166
918.939	10211
919.05	10025
919.161	10147
919.272	9922
919.383	9975
919.494	10227
919.604	10390
919.715	10207
919.826	10082
919.936	10143
920.047	10287
920.157	10227
920.267	10398
920.378	10261
920.488	10272
920.598	10417
920.708	10508
920.818	10402
920.928	10424
921.038	10531
921.148	10500
921.258	10234
921.368	10150
921.477	10090
921.587	10040
921.697	9892
921.806	10086
921.916	9956
922.025	9743
922.134	9759
922.244	9686
922.353	9823
922.462	9633
922.571	9606
922.68	9431
922.789	9386
922.898	9443
923.007	9359
923.116	9473
923.224	9431
923.333	9424
923.442	9363
923.55	9340
923.659	9260
923.767	9374
923.876	9302
923.984	9382
924.092	9291
924.201	9325
924.309	9336
924.417	9325
924.525	9256
924.633	9256
924.741	10051
924.849	9093
924.956	9214
925.064	9116
925.172	9039
925.279	9036
925.387	9131
925.494	9135
925.602	9256
925.709	9203
925.816	9097
925.924	9058
926.031	9150
926.138	9062
926.245	9192
926.352	8979
926.459	9150
926.566	9165
926.673	9028
926.779	8948
926.886	9001
926.993	8807
927.099	8758
927.206	8811
927.312	8735
927.419	8861
927.525	8807
927.631	8853
927.737	8727
927.843	8716
927.95	8590
928.056	8678
928.162	8648
928.267	8788
928.373	9412
928.479	8762
928.585	8670
928.69	8712
928.796	8796
928.901	8629
929.007	8530
929.112	8594
929.218	8648
929.323	8541
929.428	8507
929.533	8651
929.638	8511
929.743	8473
929.848	8594
929.953	8568
930.058	8377
930.163	8290
930.267	8279
930.372	8454
930.477	8294
930.581	8495
930.685	8381
930.79	8294
930.894	8237
930.998	8271
931.103	8362
931.207	8012
931.311	8005
931.415	7898
931.519	7784
931.623	7712
