Data from test_V78500241_1846.txt Node
Date: Fri Mar 25 14:46:34 CST 2022
User: usil
Spectrometer: V785-0024
Trigger mode: 0
Integration Time (sec): 4.000000E-1
Scans to average: 1
Nonlinearity correction enabled: false
Boxcar width: 0
Storing dark spectrum: false
XAxis mode: Wavelengths
Number of Pixels in Spectrum: 1024
>>>>>Begin Spectral Data<<<<<
801.071	22196
801.214	21991
801.356	21728
801.499	21595
801.641	21504
801.783	21378
801.926	21507
802.068	21397
802.211	21294
802.353	21207
802.496	21074
802.638	20998
802.78	20960
802.923	20883
803.065	20769
803.208	20788
803.35	20762
803.492	20857
803.635	20902
803.777	20807
803.919	20853
804.061	21070
804.204	20952
804.346	20777
804.488	20686
804.63	20834
804.773	20670
804.915	20876
805.057	20762
805.199	20785
805.341	20811
805.483	20796
805.626	20682
805.768	20674
805.91	20689
806.052	20701
806.194	20678
806.336	20876
806.478	20667
806.62	20689
806.762	20826
806.904	20933
807.046	21119
807.188	20963
807.33	21005
807.472	21108
807.614	20982
807.756	20872
807.898	20960
808.04	20648
808.182	20845
808.324	20746
808.465	20796
808.607	21055
808.749	21119
808.891	21256
809.033	21184
809.174	21249
809.316	21074
809.458	21173
809.6	21093
809.741	21157
809.883	21192
810.025	21275
810.166	21310
810.308	21230
810.45	21207
810.591	21207
810.733	21009
810.875	20975
811.016	20815
811.158	20750
811.299	20979
811.441	21028
811.582	20979
811.724	20857
811.865	20918
812.007	20979
812.148	20823
812.29	20910
812.431	21070
812.573	21233
812.714	21329
812.855	21317
812.997	21374
813.138	21629
813.279	21397
813.421	21454
813.562	21256
813.703	21195
813.845	21119
813.986	20720
814.127	20575
814.268	20564
814.41	20442
814.551	20412
814.692	20575
814.833	20324
814.974	20465
815.115	20385
815.256	20259
815.397	20370
815.539	20237
815.68	20138
815.821	20122
815.962	20168
816.103	20187
816.244	20069
816.385	19856
816.526	19959
816.666	19655
816.807	19635
816.948	19647
817.089	19734
817.23	19578
817.371	19476
817.512	19594
817.653	19578
817.793	19544
817.934	19571
818.075	19647
818.216	19643
818.356	19605
818.497	19422
818.638	19171
818.778	19228
818.919	19316
819.06	19301
819.2	19358
819.341	19457
819.481	19335
819.622	19582
819.762	19753
819.903	19677
820.043	19613
820.184	19651
820.324	19525
820.465	19696
820.605	19639
820.746	19472
820.886	19460
821.026	19483
821.167	19518
821.307	19632
821.447	19506
821.588	19449
821.728	19225
821.868	19050
822.008	18890
822.149	18973
822.289	18856
822.429	18768
822.569	18669
822.709	18528
822.849	18490
822.99	18429
823.13	18506
823.27	18448
823.41	18296
823.55	18262
823.69	18353
823.83	18361
823.97	18201
824.11	18026
824.25	18072
824.389	17931
824.529	17992
824.669	18019
824.809	18057
824.949	18136
825.089	18121
825.228	18076
825.368	17851
825.508	17878
825.648	17821
825.787	17920
825.927	17908
826.067	17756
826.206	17870
826.346	17809
826.485	17882
826.625	17783
826.765	17897
826.904	17756
827.044	17558
827.183	17520
827.323	17417
827.462	17596
827.601	17452
827.741	17516
827.88	17455
828.02	17455
828.159	17482
828.298	17433
828.437	17532
828.577	17543
828.716	17661
828.855	17425
828.994	17299
829.134	17261
829.273	17402
829.412	17254
829.551	17170
829.69	17204
829.829	17280
829.968	17288
830.107	17322
830.246	17315
830.385	17208
830.524	17159
830.663	17102
830.802	16953
830.941	16858
831.08	16858
831.219	17022
831.357	16934
831.496	17124
831.635	16881
831.774	16786
831.913	16809
832.051	16713
832.19	16580
832.329	16717
832.467	16599
832.606	16561
832.744	16462
832.883	16592
833.022	16538
833.16	16531
833.299	16653
833.437	16664
833.576	16588
833.714	16588
833.852	16664
833.991	16607
834.129	16660
834.267	16618
834.406	16565
834.544	16584
834.682	16733
834.821	16622
834.959	16706
835.097	16542
835.235	16774
835.373	16687
835.511	16615
835.65	16497
835.788	16523
835.926	16428
836.064	16424
836.202	16390
836.34	16489
836.478	16611
836.615	16462
836.753	16538
836.891	16573
837.029	16584
837.167	16443
837.305	16554
837.443	16459
837.58	16352
837.718	16554
837.856	16348
837.993	16295
838.131	16455
838.269	16363
838.406	16280
838.544	16341
838.681	16139
838.819	16166
838.956	16036
839.094	15899
839.231	16128
839.369	16135
839.506	16379
839.643	16246
839.781	16029
839.918	15922
840.055	15960
840.193	15953
840.33	15994
840.467	16006
840.604	15888
840.742	16196
840.879	15759
841.016	15987
841.153	15945
841.29	16017
841.427	16017
841.564	15964
841.701	15934
841.838	15930
841.975	15789
842.112	15926
842.249	15797
842.385	15732
842.522	15888
842.659	15694
842.796	15698
842.933	15770
843.069	15652
843.206	15694
843.343	15770
843.479	15717
843.616	15808
843.752	15580
843.889	15473
844.025	15816
844.162	15500
844.298	15591
844.435	15477
844.571	15492
844.708	15679
844.844	15804
844.98	15652
845.117	15713
845.253	15507
845.389	15321
845.525	15542
845.661	15355
845.798	15283
845.934	15397
846.07	15359
846.206	15462
846.342	15302
846.478	15359
846.614	15157
846.75	15028
846.886	15131
847.022	15180
847.158	15131
847.294	15100
847.429	15180
847.565	15131
847.701	15272
847.837	14868
847.972	14724
848.108	14853
848.244	14891
848.379	14800
848.515	14758
848.65	14670
848.786	14640
848.921	14807
849.057	14765
849.192	14807
849.328	14773
849.463	14655
849.598	14663
849.734	14636
849.869	14583
850.004	14499
850.14	14465
850.275	14518
850.41	14457
850.545	14355
850.68	14358
850.815	14522
850.95	14492
851.085	14636
851.22	14556
851.355	14526
851.49	14446
851.625	14511
851.76	14442
851.895	14339
852.03	14381
852.165	14438
852.299	14461
852.434	14560
852.569	14552
852.703	14438
852.838	14503
852.973	14518
853.107	14621
853.242	14347
853.376	14396
853.511	14244
853.645	14328
853.78	14423
853.914	14389
854.048	14298
854.183	14294
854.317	14267
854.451	14552
854.585	14404
854.72	14339
854.854	14366
854.988	14263
855.122	14237
855.256	14218
855.39	14347
855.524	14362
855.658	14431
855.792	14385
855.926	14393
856.06	14400
856.194	14412
856.327	14324
856.461	14339
856.595	14153
856.729	14370
856.862	14495
856.996	14347
857.13	14454
857.263	14461
857.397	14476
857.53	14336
857.664	14454
857.797	14419
857.931	14488
858.064	14366
858.197	14412
858.331	14362
858.464	14271
858.597	14263
858.731	14282
858.864	14358
858.997	14320
859.13	14400
859.263	14370
859.396	14476
859.529	14294
859.662	14301
859.795	14377
859.928	14374
860.061	14541
860.194	14564
860.327	14408
860.46	14374
860.592	14499
860.725	14427
860.858	14461
860.99	14336
861.123	14278
861.256	14290
861.388	14396
861.521	14960
861.653	14218
861.786	14145
861.918	14229
862.05	14248
862.183	14332
862.315	14393
862.447	14404
862.58	14305
862.712	14172
862.844	14111
862.976	14244
863.108	14134
863.24	14499
863.372	13989
863.504	14084
863.636	14134
863.768	14172
863.9	14092
864.032	14073
864.164	14005
864.296	14267
864.428	14267
864.559	14183
864.691	14088
864.823	14130
864.954	14180
865.086	14145
865.217	14062
865.349	14012
865.48	14153
865.612	14077
865.743	14210
865.875	14073
866.006	14111
866.137	14145
866.269	14119
866.4	14225
866.531	14111
866.662	14054
866.793	14043
866.924	14115
867.055	14077
867.186	14134
867.317	14107
867.448	13982
867.579	14069
867.71	13997
867.841	14039
867.972	14187
868.103	14115
868.233	14084
868.364	14149
868.495	14164
868.625	14396
868.756	14438
868.886	14294
869.017	14351
869.147	14518
869.278	14522
869.408	14286
869.539	14446
869.669	14461
869.799	14480
869.929	14473
870.06	14560
870.19	14743
870.32	14731
870.45	14678
870.58	14674
870.71	14872
870.84	14845
870.97	14849
871.1	14686
871.23	14952
871.36	14902
871.489	14872
871.619	15001
871.749	14952
871.879	15100
872.008	15192
872.138	15001
872.267	15028
872.397	14979
872.526	14883
872.656	14853
872.785	14876
872.915	15005
873.044	15074
873.173	15043
873.303	15127
873.432	15108
873.561	15116
873.69	15116
873.819	15112
873.948	15154
874.077	15058
874.206	14982
874.335	15028
874.464	15218
874.593	15370
874.722	15340
874.851	15447
874.979	15313
875.108	15443
875.237	15332
875.365	15222
875.494	15344
875.623	15424
875.751	15264
875.88	15561
876.008	15542
876.136	15572
876.265	15698
876.393	15819
876.521	15869
876.65	15819
876.778	15842
876.906	15770
877.034	15899
877.162	15781
877.29	15743
877.418	15762
877.546	15781
877.674	15751
877.802	15720
877.93	15736
878.058	15652
878.185	15648
878.313	15873
878.441	15797
878.568	15542
878.696	15629
878.824	15774
878.951	15785
879.079	15991
879.206	16040
879.333	15979
879.461	15766
879.588	15876
879.715	15911
879.842	16029
879.97	15819
880.097	15739
880.224	15591
880.351	15580
880.478	15720
880.605	15504
880.732	15587
880.859	15812
880.986	15679
881.112	15766
881.239	15507
881.366	15325
881.493	15245
881.619	15306
881.746	15370
881.872	15199
881.999	15382
882.125	15222
882.252	15355
882.378	15287
882.505	15397
882.631	15275
882.757	15066
882.883	15256
883.01	14994
883.136	15043
883.262	14921
883.388	14967
883.514	15100
883.64	15062
883.766	14960
883.892	14944
884.018	14990
884.143	15047
884.269	15214
884.395	14834
884.52	14758
884.646	14811
884.772	14762
884.897	14689
885.023	14906
885.148	14952
885.274	14982
885.399	14910
885.524	14838
885.65	14773
885.775	14788
885.9	14754
886.025	14902
886.15	14785
886.275	14815
886.4	14648
886.525	14807
886.65	14674
886.775	14663
886.9	14967
887.025	15028
887.149	14830
887.274	14632
887.399	14632
887.523	14579
887.648	14568
887.773	14556
887.897	14682
888.021	14708
888.146	14556
888.27	14648
888.395	14788
888.519	14655
888.643	14674
888.767	14724
888.891	14465
889.015	14469
889.139	14484
889.263	14583
889.387	14556
889.511	14655
889.635	14693
889.759	14518
889.883	14480
890.006	14450
890.13	14556
890.254	14450
890.377	14415
890.501	14343
890.624	14202
890.748	14324
890.871	14183
890.995	14225
891.118	14130
891.241	14145
891.364	14138
891.488	14298
891.611	14172
891.734	14195
891.857	14195
891.98	14199
892.103	14267
892.226	14153
892.349	14145
892.471	13989
892.594	14206
892.717	14221
892.839	14130
892.962	14149
893.085	14362
893.207	14134
893.33	14107
893.452	14248
893.575	14240
893.697	14164
893.819	14339
893.941	14343
894.064	14320
894.186	14161
894.308	14115
894.43	14328
894.552	14400
894.674	14400
894.796	14138
894.918	14172
895.04	14161
895.161	14313
895.283	14248
895.405	14233
895.526	14263
895.648	14328
895.769	14366
895.891	14309
896.012	14366
896.134	14438
896.255	14305
896.376	14377
896.498	14328
896.619	14362
896.74	14362
896.861	14476
896.982	14735
897.103	14876
897.224	14769
897.345	14613
897.466	14545
897.587	14537
897.708	14758
897.828	14617
897.949	14598
898.07	14473
898.19	14518
898.311	14788
898.431	14708
898.552	14682
898.672	14754
898.792	14864
898.913	14720
899.033	14606
899.153	14571
899.273	14492
899.393	14465
899.513	14514
899.633	14583
899.753	14651
899.873	14518
899.993	14537
900.113	14598
900.232	14621
900.352	14541
900.472	14457
900.591	14419
900.711	14518
900.83	14317
900.95	14507
901.069	14518
901.189	14320
901.308	14077
901.427	14084
901.546	14107
901.665	14153
901.784	14229
901.904	13928
902.023	13795
902.141	13731
902.26	13655
902.379	13689
902.498	13700
902.617	13616
902.735	13712
902.854	13578
902.973	13651
903.091	13358
903.21	13373
903.328	13407
903.446	13381
903.565	13236
903.683	13179
903.801	13053
903.919	13225
904.038	13118
904.156	13095
904.274	13145
904.392	13084
904.51	13057
904.627	13065
904.745	13053
904.863	13103
904.981	12924
905.098	12760
905.216	12707
905.334	12677
905.451	12810
905.569	12741
905.686	12726
905.803	12719
905.921	12574
906.038	12669
906.155	12616
906.272	12391
906.389	12464
906.506	12414
906.623	12410
906.74	12311
906.857	12220
906.974	12239
907.091	12388
907.208	12410
907.324	12296
907.441	12247
907.557	12167
907.674	12060
907.79	12007
907.907	11969
908.023	12072
908.139	11992
908.256	12038
908.372	12011
908.488	12019
908.604	11931
908.72	11760
908.836	11805
908.952	11824
909.068	11790
909.184	11901
909.3	11779
909.415	11847
909.531	11824
909.647	11547
909.762	11539
909.878	11566
909.993	11592
910.108	11600
910.224	11482
910.339	11551
910.454	11501
910.57	11414
910.685	11402
910.8	11585
910.915	11653
911.03	11478
911.145	11356
911.259	11239
911.374	11242
911.489	11284
911.604	11181
911.718	11121
911.833	11067
911.947	10938
912.062	10919
912.176	11048
912.291	11052
912.405	11037
912.519	11269
912.633	11277
912.748	11090
912.862	11083
912.976	10942
913.09	10786
913.204	10885
913.318	11022
913.431	10980
913.545	10984
913.659	11071
913.772	10949
913.886	10755
914	10790
914.113	10934
914.226	10965
914.34	10835
914.453	10763
914.566	10877
914.68	10778
914.793	10793
914.906	10653
915.019	10512
915.132	10516
915.245	10550
915.358	10615
915.47	10592
915.583	10542
915.696	10516
915.809	10637
915.921	10729
916.034	10527
916.146	10569
916.259	10443
916.371	10550
916.483	10588
916.595	10466
916.708	10527
916.82	10516
916.932	10466
917.044	10436
917.156	10478
917.268	10322
917.38	10371
917.491	10402
917.603	10413
917.715	10466
917.826	10493
917.938	10413
918.049	10249
918.161	10375
918.272	10577
918.384	10440
918.495	10436
918.606	10215
918.717	10169
918.828	10257
918.939	10230
919.05	10196
919.161	10215
919.272	10044
919.383	10101
919.494	10272
919.604	10500
919.715	10242
919.826	10268
919.936	10227
920.047	10398
920.157	10230
920.267	10485
920.378	10280
920.488	10215
920.598	10447
920.708	10592
920.818	10470
920.928	10500
921.038	10691
921.148	10580
921.258	10249
921.368	10207
921.477	10131
921.587	10173
921.697	10036
921.806	10177
921.916	10044
922.025	9823
922.134	9842
922.244	9831
922.353	9876
922.462	9698
922.571	9652
922.68	9545
922.789	9515
922.898	9526
923.007	9507
923.116	9622
923.224	9580
923.333	9462
923.442	9408
923.55	9401
923.659	9374
923.767	9477
923.876	9359
923.984	9462
924.092	9325
924.201	9428
924.309	9363
924.417	9389
924.525	9291
924.633	9389
924.741	10215
924.849	9138
924.956	9340
925.064	9173
925.172	9131
925.279	9135
925.387	9161
925.494	9176
925.602	9249
925.709	9294
925.816	9089
925.924	9180
926.031	9249
926.138	9108
926.245	9226
926.352	9066
926.459	9230
926.566	9249
926.673	9146
926.779	9032
926.886	9036
926.993	8921
927.099	8876
927.206	8857
927.312	8845
927.419	8933
927.525	8895
927.631	8979
927.737	8678
927.843	8754
927.95	8705
928.056	8708
928.162	8758
928.267	8815
928.373	9348
928.479	8861
928.585	8617
928.69	8777
928.796	8891
928.901	8716
929.007	8537
929.112	8701
929.218	8682
929.323	8625
929.428	8629
929.533	8777
929.638	8522
929.743	8590
929.848	8549
929.953	8598
930.058	8454
930.163	8419
930.267	8309
930.372	8530
930.477	8313
930.581	8579
930.685	8473
930.79	8339
930.894	8362
930.998	8267
931.103	8476
931.207	8115
931.311	8046
931.415	8039
931.519	7860
931.623	7852
