Data from test_V78500241_1341.txt Node
Date: Fri Mar 25 14:43:03 CST 2022
User: usil
Spectrometer: V785-0024
Trigger mode: 0
Integration Time (sec): 4.000000E-1
Scans to average: 1
Nonlinearity correction enabled: false
Boxcar width: 0
Storing dark spectrum: false
XAxis mode: Wavelengths
Number of Pixels in Spectrum: 1024
>>>>>Begin Spectral Data<<<<<
801.071	22432
801.214	22436
801.356	22002
801.499	21945
801.641	21774
801.783	21747
801.926	21827
802.068	21743
802.211	21747
802.353	21629
802.496	21332
802.638	21310
802.78	21192
802.923	21188
803.065	21024
803.208	21119
803.35	21066
803.492	21131
803.635	21382
803.777	21154
803.919	21291
804.061	21405
804.204	21089
804.346	21058
804.488	21066
804.63	21077
804.773	21009
804.915	21009
805.057	21199
805.199	20979
805.341	21230
805.483	21184
805.626	21055
805.768	20853
805.91	21043
806.052	21070
806.194	21024
806.336	21119
806.478	21001
806.62	21119
806.762	21173
806.904	21272
807.046	21462
807.188	21325
807.33	21344
807.472	21428
807.614	21386
807.756	21382
807.898	21218
808.04	21169
808.182	21195
808.324	21374
808.465	21359
808.607	21485
808.749	21633
808.891	21698
809.033	21774
809.174	21736
809.316	21561
809.458	21549
809.6	21443
809.741	21583
809.883	21641
810.025	21656
810.166	21637
810.308	21633
810.45	21557
810.591	21507
810.733	21363
810.875	21256
811.016	21119
811.158	21123
811.299	21260
811.441	21329
811.582	21424
811.724	21165
811.865	21249
812.007	21138
812.148	21207
812.29	21211
812.431	21363
812.573	21530
812.714	21568
812.855	21709
812.997	21865
813.138	22112
813.279	21823
813.421	21831
813.562	21580
813.703	21469
813.845	21279
813.986	21150
814.127	20929
814.268	20876
814.41	20735
814.551	20743
814.692	20811
814.833	20727
814.974	20659
815.115	20678
815.256	20644
815.397	20640
815.539	20629
815.68	20434
815.821	20438
815.962	20465
816.103	20404
816.244	20347
816.385	20259
816.526	20286
816.666	20221
816.807	20008
816.948	20035
817.089	20103
817.23	19925
817.371	19883
817.512	19826
817.653	20001
817.793	19807
817.934	20020
818.075	19982
818.216	19902
818.356	19940
818.497	19769
818.638	19548
818.778	19616
818.919	19643
819.06	19563
819.2	19719
819.341	19811
819.481	19738
819.622	19970
819.762	20043
819.903	20005
820.043	19967
820.184	19928
820.324	19967
820.465	20043
820.605	19883
820.746	19860
820.886	19708
821.026	19906
821.167	19761
821.307	19864
821.447	19883
821.588	19666
821.728	19605
821.868	19400
822.008	19365
822.149	19285
822.289	19285
822.429	19084
822.569	18878
822.709	19019
822.849	18749
822.99	18764
823.13	18772
823.27	18821
823.41	18608
823.55	18574
823.69	18574
823.83	18623
823.97	18467
824.11	18330
824.25	18372
824.389	18395
824.529	18399
824.669	18315
824.809	18616
824.949	18437
825.089	18380
825.228	18502
825.368	18194
825.508	18102
825.648	18129
825.787	18220
825.927	18213
826.067	18045
826.206	18064
826.346	18235
826.485	18292
826.625	18083
826.765	18247
826.904	18117
827.044	17901
827.183	17866
827.323	17836
827.462	17851
827.601	17863
827.741	17859
827.88	17790
828.02	17756
828.159	17847
828.298	17764
828.437	17882
828.577	17741
828.716	17885
828.855	17798
828.994	17714
829.134	17733
829.273	17661
829.412	17539
829.551	17619
829.69	17497
829.829	17551
829.968	17737
830.107	17630
830.246	17596
830.385	17520
830.524	17398
830.663	17486
830.802	17341
830.941	17212
831.08	17212
831.219	17258
831.357	17261
831.496	17539
831.635	17147
831.774	17227
831.913	17056
832.051	16957
832.19	17041
832.329	17033
832.467	16938
832.606	16900
832.744	16942
832.883	16908
833.022	16930
833.16	16946
833.299	17003
833.437	16961
833.576	16946
833.714	16904
833.852	17014
833.991	17075
834.129	16984
834.267	17022
834.406	16946
834.544	16911
834.682	16930
834.821	16991
834.959	17204
835.097	16949
835.235	17064
835.373	17037
835.511	17010
835.65	16839
835.788	16885
835.926	16713
836.064	16736
836.202	16752
836.34	16816
836.478	16919
836.615	16896
836.753	16885
836.891	16942
837.029	16866
837.167	16801
837.305	16759
837.443	16725
837.58	16660
837.718	16725
837.856	16778
837.993	16755
838.131	16755
838.269	16580
838.406	16752
838.544	16698
838.681	16478
838.819	16466
838.956	16261
839.094	16276
839.231	16215
839.369	16352
839.506	16607
839.643	16618
839.781	16341
839.918	16238
840.055	16329
840.193	16211
840.33	16242
840.467	16249
840.604	16382
840.742	16607
840.879	16093
841.016	16169
841.153	16059
841.29	16405
841.427	16265
841.564	16341
841.701	16299
841.838	16200
841.975	16131
842.112	16238
842.249	16135
842.385	16013
842.522	16192
842.659	16067
842.796	16006
842.933	16010
843.069	16040
843.206	16002
843.343	16097
843.479	16082
843.616	16044
843.752	15884
843.889	15854
844.025	16021
844.162	15751
844.298	16021
844.435	15895
844.571	15770
844.708	15926
844.844	16006
844.98	16021
845.117	15960
845.253	15774
845.389	15838
845.525	15911
845.661	15873
845.798	15854
845.934	15876
846.07	15941
846.206	15953
846.342	15930
846.478	15743
846.614	15511
846.75	15507
846.886	15435
847.022	15538
847.158	15424
847.294	15515
847.429	15355
847.565	15408
847.701	15584
847.837	15093
847.972	15077
848.108	15268
848.244	15245
848.379	15077
848.515	14967
848.65	14994
848.786	15024
848.921	14998
849.057	15119
849.192	15039
849.328	14990
849.463	15043
849.598	14925
849.734	14944
849.869	14853
850.004	14853
850.14	14773
850.275	14815
850.41	14598
850.545	14739
850.68	14788
850.815	14735
850.95	14765
851.085	15005
851.22	14883
851.355	14800
851.49	14708
851.625	14697
851.76	14819
851.895	14674
852.03	14621
852.165	14807
852.299	14807
852.434	14804
852.569	14887
852.703	14781
852.838	14838
852.973	14948
853.107	14994
853.242	14750
853.376	14644
853.511	14461
853.645	14606
853.78	14769
853.914	14686
854.048	14613
854.183	14701
854.317	14701
854.451	14777
854.585	14587
854.72	14571
854.854	14792
854.988	14484
855.122	14621
855.256	14526
855.39	14575
855.524	14754
855.658	14693
855.792	14571
855.926	14693
856.06	14655
856.194	14777
856.327	14568
856.461	14610
856.595	14651
856.729	14610
856.862	14796
856.996	14670
857.13	14750
857.263	14746
857.397	14788
857.53	14594
857.664	14716
857.797	14705
857.931	14762
858.064	14640
858.197	14781
858.331	14674
858.464	14663
858.597	14594
858.731	14724
858.864	14667
858.997	14541
859.13	14746
859.263	14617
859.396	14682
859.529	14655
859.662	14560
859.795	14632
859.928	14750
860.061	14724
860.194	14769
860.327	14727
860.46	14712
860.592	14670
860.725	14849
860.858	14724
860.99	14571
861.123	14526
861.256	14606
861.388	14610
861.521	15291
861.653	14602
861.786	14495
861.918	14530
862.05	14579
862.183	14610
862.315	14674
862.447	14625
862.58	14606
862.712	14446
862.844	14343
862.976	14404
863.108	14404
863.24	14853
863.372	14355
863.504	14446
863.636	14400
863.768	14454
863.9	14427
864.032	14301
864.164	14366
864.296	14476
864.428	14495
864.559	14579
864.691	14499
864.823	14431
864.954	14514
865.086	14488
865.217	14385
865.349	14290
865.48	14374
865.612	14389
865.743	14621
865.875	14492
866.006	14377
866.137	14469
866.269	14427
866.4	14347
866.531	14381
866.662	14317
866.793	14271
866.924	14434
867.055	14454
867.186	14423
867.317	14328
867.448	14244
867.579	14320
867.71	14298
867.841	14244
867.972	14396
868.103	14313
868.233	14427
868.364	14511
868.495	14454
868.625	14541
868.756	14693
868.886	14514
869.017	14583
869.147	14754
869.278	14788
869.408	14754
869.539	14663
869.669	14735
869.799	14617
869.929	14773
870.06	14743
870.19	14960
870.32	15028
870.45	15070
870.58	14998
870.71	15150
870.84	15176
870.97	14990
871.1	15009
871.23	15142
871.36	15252
871.489	15180
871.619	15150
871.749	15211
871.879	15310
872.008	15321
872.138	15233
872.267	15272
872.397	15024
872.526	15176
872.656	14979
872.785	15165
872.915	15378
873.044	15310
873.173	15294
873.303	15340
873.432	15416
873.561	15374
873.69	15310
873.819	15275
873.948	15291
874.077	15302
874.206	15169
874.335	15355
874.464	15428
874.593	15637
874.722	15447
874.851	15709
874.979	15614
875.108	15606
875.237	15633
875.365	15481
875.494	15717
875.623	15557
875.751	15542
875.88	15682
876.008	15838
876.136	15755
876.265	16055
876.393	16154
876.521	16128
876.65	16120
876.778	16051
876.906	16017
877.034	16021
877.162	15994
877.29	16048
877.418	15991
877.546	16025
877.674	16116
877.802	16059
877.93	15972
878.058	15941
878.185	15876
878.313	16017
878.441	16029
878.568	15918
878.696	16036
878.824	16135
878.951	16051
879.079	16207
879.206	16512
879.333	16310
879.461	16215
879.588	16310
879.715	16329
879.842	16436
879.97	16147
880.097	16002
880.224	15937
880.351	15941
880.478	15964
880.605	15892
880.732	15816
880.859	16071
880.986	15949
881.112	15869
881.239	15709
881.366	15720
881.493	15572
881.619	15561
881.746	15561
881.872	15557
881.999	15393
882.125	15481
882.252	15641
882.378	15584
882.505	15705
882.631	15545
882.757	15412
882.883	15367
883.01	15439
883.136	15279
883.262	15275
883.388	15203
883.514	15287
883.64	15443
883.766	15313
883.892	15203
884.018	15317
884.143	15291
884.269	15378
884.395	15093
884.52	15028
884.646	15089
884.772	15039
884.897	14929
885.023	15051
885.148	15123
885.274	15214
885.399	15085
885.524	15135
885.65	15081
885.775	15032
885.9	15013
886.025	15165
886.15	15074
886.275	15020
886.4	14990
886.525	15062
886.65	14952
886.775	14941
886.9	15062
887.025	15230
887.149	15066
887.274	14929
887.399	14853
887.523	14876
887.648	14864
887.773	14750
887.897	14906
888.021	14895
888.146	14800
888.27	14998
888.395	15043
888.519	14883
888.643	15043
888.767	14823
888.891	14819
889.015	14712
889.139	14842
889.263	14750
889.387	14769
889.511	14948
889.635	14815
889.759	14701
889.883	14731
890.006	14746
890.13	14902
890.254	14594
890.377	14651
890.501	14450
890.624	14442
890.748	14545
890.871	14495
890.995	14438
891.118	14233
891.241	14381
891.364	14400
891.488	14579
891.611	14358
891.734	14438
891.857	14507
891.98	14484
892.103	14522
892.226	14454
892.349	14393
892.471	14317
892.594	14381
892.717	14438
892.839	14290
892.962	14332
893.085	14514
893.207	14389
893.33	14278
893.452	14282
893.575	14396
893.697	14294
893.819	14488
893.941	14659
894.064	14545
894.186	14328
894.308	14404
894.43	14518
894.552	14503
894.674	14427
894.796	14358
894.918	14473
895.04	14514
895.161	14579
895.283	14480
895.405	14499
895.526	14438
895.648	14488
895.769	14564
895.891	14579
896.012	14556
896.134	14568
896.255	14602
896.376	14564
896.498	14594
896.619	14606
896.74	14602
896.861	14636
896.982	14906
897.103	15028
897.224	14849
897.345	14815
897.466	14796
897.587	14838
897.708	14941
897.828	14861
897.949	14762
898.07	14716
898.19	14743
898.311	14956
898.431	14826
898.552	14937
898.672	14982
898.792	15043
898.913	14963
899.033	14807
899.153	14777
899.273	14629
899.393	14682
899.513	14727
899.633	14693
899.753	14815
899.873	14735
899.993	14788
900.113	14758
900.232	14773
900.352	14727
900.472	14689
900.591	14537
900.711	14644
900.83	14522
900.95	14648
901.069	14773
901.189	14606
901.308	14358
901.427	14298
901.546	14343
901.665	14362
901.784	14339
901.904	14142
902.023	14031
902.141	13879
902.26	13799
902.379	14001
902.498	13833
902.617	13814
902.735	14001
902.854	13780
902.973	13765
903.091	13670
903.21	13590
903.328	13525
903.446	13476
903.565	13407
903.683	13487
903.801	13247
903.919	13438
904.038	13430
904.156	13213
904.274	13304
904.392	13206
904.51	13107
904.627	13221
904.745	13225
904.863	13206
904.981	12981
905.098	12985
905.216	12916
905.334	13038
905.451	12962
905.569	12993
905.686	12890
905.803	12909
905.921	12779
906.038	12848
906.155	12745
906.272	12700
906.389	12658
906.506	12456
906.623	12574
906.74	12563
906.857	12429
906.974	12346
907.091	12521
907.208	12593
907.324	12551
907.441	12441
907.557	12315
907.674	12289
907.79	12167
907.907	12197
908.023	12201
908.139	12205
908.256	12159
908.372	12148
908.488	12114
908.604	12117
908.72	11988
908.836	11958
908.952	11958
909.068	12038
909.184	12136
909.3	12038
909.415	12015
909.531	12095
909.647	11767
909.762	11737
909.878	11703
909.993	11775
910.108	11779
910.224	11642
910.339	11752
910.454	11714
910.57	11570
910.685	11532
910.8	11843
910.915	11684
911.03	11703
911.145	11474
911.259	11463
911.374	11490
911.489	11433
911.604	11315
911.718	11315
911.833	11299
911.947	11159
912.062	11045
912.176	11231
912.291	11246
912.405	11250
912.519	11410
912.633	11444
912.748	11235
912.862	11258
912.976	11170
913.09	11018
913.204	11128
913.318	11079
913.431	11185
913.545	11113
913.659	11201
913.772	11136
913.886	11064
914	10930
914.113	11025
914.226	11048
914.34	10991
914.453	10839
914.566	11109
914.68	10900
914.793	10923
914.906	10714
915.019	10694
915.132	10630
915.245	10721
915.358	10782
915.47	10771
915.583	10767
915.696	10748
915.809	10869
915.921	10904
916.034	10717
916.146	10740
916.259	10645
916.371	10767
916.483	10691
916.595	10698
916.708	10660
916.82	10687
916.932	10592
917.044	10630
917.156	10592
917.268	10550
917.38	10607
917.491	10531
917.603	10596
917.715	10694
917.826	10740
917.938	10569
918.049	10497
918.161	10588
918.272	10774
918.384	10679
918.495	10531
918.606	10561
918.717	10314
918.828	10466
918.939	10459
919.05	10394
919.161	10417
919.272	10238
919.383	10325
919.494	10527
919.604	10660
919.715	10485
919.826	10409
919.936	10413
920.047	10542
920.157	10493
920.267	10679
920.378	10474
920.488	10436
920.598	10660
920.708	10824
920.818	10660
920.928	10664
921.038	10843
921.148	10748
921.258	10504
921.368	10466
921.477	10382
921.587	10295
921.697	10177
921.806	10367
921.916	10204
922.025	10002
922.134	10032
922.244	9926
922.353	10078
922.462	9907
922.571	9842
922.68	9732
922.789	9671
922.898	9705
923.007	9618
923.116	9770
923.224	9751
923.333	9728
923.442	9591
923.55	9545
923.659	9603
923.767	9591
923.876	9507
923.984	9660
924.092	9443
924.201	9549
924.309	9610
924.417	9504
924.525	9511
924.633	9519
924.741	10413
924.849	9321
924.956	9447
925.064	9268
925.172	9287
925.279	9325
925.387	9389
925.494	9340
925.602	9500
925.709	9348
925.816	9298
925.924	9310
926.031	9363
926.138	9306
926.245	9374
926.352	9222
926.459	9496
926.566	9412
926.673	9329
926.779	9253
926.886	9161
926.993	9074
927.099	9039
927.206	9005
927.312	8929
927.419	9169
927.525	9017
927.631	9165
927.737	8971
927.843	8948
927.95	8868
928.056	8979
928.162	8941
928.267	9039
928.373	9526
928.479	9043
928.585	8781
928.69	8910
928.796	8975
928.901	8842
929.007	8697
929.112	8857
929.218	8842
929.323	8777
929.428	8746
929.533	8857
929.638	8625
929.743	8823
929.848	8800
929.953	8785
930.058	8743
930.163	8511
930.267	8537
930.372	8674
930.477	8465
930.581	8735
930.685	8556
930.79	8488
930.894	8492
930.998	8454
931.103	8526
931.207	8210
931.311	8202
931.415	8149
931.519	7978
931.623	7986
