Data from test_V78500241_3430.txt Node
Date: Fri Mar 25 14:57:35 CST 2022
User: usil
Spectrometer: V785-0024
Trigger mode: 0
Integration Time (sec): 4.000000E-1
Scans to average: 1
Nonlinearity correction enabled: false
Boxcar width: 0
Storing dark spectrum: false
XAxis mode: Wavelengths
Number of Pixels in Spectrum: 1024
>>>>>Begin Spectral Data<<<<<
801.071	21724
801.214	21724
801.356	21542
801.499	21481
801.641	21279
801.783	21287
801.926	21389
802.068	21161
802.211	21169
802.353	21104
802.496	20899
802.638	20727
802.78	20758
802.923	20689
803.065	20571
803.208	20590
803.35	20644
803.492	20705
803.635	20758
803.777	20579
803.919	20617
804.061	20937
804.204	20788
804.346	20511
804.488	20568
804.63	20556
804.773	20511
804.915	20602
805.057	20667
805.199	20514
805.341	20537
805.483	20636
805.626	20568
805.768	20404
805.91	20511
806.052	20644
806.194	20343
806.336	20625
806.478	20526
806.62	20438
806.762	20674
806.904	20731
807.046	20975
807.188	20796
807.33	20982
807.472	20910
807.614	20834
807.756	20743
807.898	20625
808.04	20609
808.182	20575
808.324	20590
808.465	20583
808.607	20811
808.749	20830
808.891	20967
809.033	20998
809.174	21001
809.316	20735
809.458	20902
809.6	20975
809.741	21005
809.883	21032
810.025	21074
810.166	21074
810.308	21009
810.45	21074
810.591	20883
810.733	20765
810.875	20621
811.016	20606
811.158	20629
811.299	20651
811.441	20796
811.582	20762
811.724	20583
811.865	20636
812.007	20533
812.148	20575
812.29	20693
812.431	20921
812.573	20986
812.714	20910
812.855	21226
812.997	21108
813.138	21408
813.279	21340
813.421	21150
813.562	21036
813.703	20853
813.845	20807
813.986	20434
814.127	20450
814.268	20282
814.41	20214
814.551	20134
814.692	20225
814.833	20115
814.974	20187
815.115	20218
815.256	19947
815.397	19986
815.539	19959
815.68	19868
815.821	19765
815.962	19856
816.103	19974
816.244	19674
816.385	19628
816.526	19734
816.666	19620
816.807	19289
816.948	19411
817.089	19502
817.23	19335
817.371	19358
817.512	19259
817.653	19373
817.793	19225
817.934	19289
818.075	19335
818.216	19419
818.356	19190
818.497	19103
818.638	19000
818.778	18973
818.919	19012
819.06	19061
819.2	19236
819.341	19194
819.481	19266
819.622	19304
819.762	19537
819.903	19426
820.043	19289
820.184	19236
820.324	19381
820.465	19335
820.605	19244
820.746	19236
820.886	19187
821.026	19316
821.167	19301
821.307	19255
821.447	19168
821.588	19023
821.728	18981
821.868	18890
822.008	18715
822.149	18749
822.289	18661
822.429	18471
822.569	18407
822.709	18407
822.849	18262
822.99	18224
823.13	18163
823.27	18171
823.41	18038
823.55	17904
823.69	18015
823.83	17920
823.97	17912
824.11	17817
824.25	17718
824.389	17821
824.529	17851
824.669	17798
824.809	17847
824.949	17878
825.089	17912
825.228	17672
825.368	17554
825.508	17642
825.648	17596
825.787	17592
825.927	17627
826.067	17539
826.206	17562
826.346	17608
826.485	17543
826.625	17516
826.765	17684
826.904	17577
827.044	17372
827.183	17307
827.323	17269
827.462	17204
827.601	17269
827.741	17288
827.88	17250
828.02	17124
828.159	17105
828.298	17391
828.437	17391
828.577	17136
828.716	17421
828.855	17292
828.994	17105
829.134	16961
829.273	17075
829.412	17018
829.551	16915
829.69	17025
829.829	17029
829.968	17102
830.107	17098
830.246	16908
830.385	17010
830.524	16987
830.663	16805
830.802	16763
830.941	16630
831.08	16664
831.219	16713
831.357	16519
831.496	16843
831.635	16584
831.774	16546
831.913	16527
832.051	16394
832.19	16306
832.329	16466
832.467	16402
832.606	16299
832.744	16344
832.883	16318
833.022	16238
833.16	16280
833.299	16341
833.437	16333
833.576	16379
833.714	16287
833.852	16417
833.991	16447
834.129	16474
834.267	16523
834.406	16363
834.544	16455
834.682	16409
834.821	16428
834.959	16660
835.097	16379
835.235	16462
835.373	16428
835.511	16402
835.65	16417
835.788	16291
835.926	16105
836.064	16063
836.202	16230
836.34	16394
836.478	16333
836.615	16173
836.753	16295
836.891	16409
837.029	16360
837.167	16253
837.305	16226
837.443	16196
837.58	16150
837.718	16280
837.856	16268
837.993	16010
838.131	16219
838.269	16143
838.406	16116
838.544	16105
838.681	15838
838.819	15899
838.956	15789
839.094	15633
839.231	15789
839.369	15937
839.506	16154
839.643	16013
839.781	15762
839.918	15656
840.055	15793
840.193	15774
840.33	15686
840.467	15842
840.604	15736
840.742	15991
840.879	15572
841.016	15835
841.153	15660
841.29	15899
841.427	15686
841.564	15663
841.701	15762
841.838	15698
841.975	15618
842.112	15633
842.249	15412
842.385	15488
842.522	15812
842.659	15595
842.796	15466
842.933	15481
843.069	15507
843.206	15488
843.343	15633
843.479	15507
843.616	15564
843.752	15332
843.889	15154
844.025	15435
844.162	15321
844.298	15500
844.435	15363
844.571	15321
844.708	15397
844.844	15595
844.98	15412
845.117	15340
845.253	15291
845.389	15252
845.525	15226
845.661	15222
845.798	15020
845.934	15184
846.07	15043
846.206	15264
846.342	15207
846.478	15135
846.614	15070
846.75	14979
846.886	14941
847.022	15074
847.158	14986
847.294	14937
847.429	14868
847.565	14864
847.701	15097
847.837	14526
847.972	14590
848.108	14670
848.244	14701
848.379	14568
848.515	14530
848.65	14423
848.786	14571
848.921	14503
849.057	14568
849.192	14495
849.328	14495
849.463	14518
849.598	14503
849.734	14313
849.869	14305
850.004	14271
850.14	14309
850.275	14298
850.41	14077
850.545	14263
850.68	14313
850.815	14218
850.95	14301
851.085	14377
851.22	14381
851.355	14229
851.49	14176
851.625	14153
851.76	14240
851.895	14172
852.03	14043
852.165	14225
852.299	14267
852.434	14351
852.569	14305
852.703	14263
852.838	14305
852.973	14446
853.107	14408
853.242	14176
853.376	14054
853.511	13944
853.645	14043
853.78	14202
853.914	14046
854.048	14164
854.183	14077
854.317	14123
854.451	14237
854.585	14092
854.72	14073
854.854	14199
854.988	14020
855.122	14077
855.256	14035
855.39	14142
855.524	14199
855.658	14187
855.792	14062
855.926	14168
856.06	14134
856.194	14237
856.327	14145
856.461	14088
856.595	14100
856.729	14054
856.862	14180
856.996	14149
857.13	14092
857.263	14336
857.397	14180
857.53	14088
857.664	14130
857.797	14168
857.931	14275
858.064	14187
858.197	14240
858.331	14218
858.464	14073
858.597	13989
858.731	14100
858.864	14111
858.997	14092
859.13	14084
859.263	14142
859.396	14145
859.529	14058
859.662	14123
859.795	14081
859.928	14210
860.061	14210
860.194	14256
860.327	14164
860.46	14111
860.592	14278
860.725	14229
860.858	14221
860.99	14115
861.123	13963
861.256	14107
861.388	14187
861.521	14853
861.653	14027
861.786	14008
861.918	13974
862.05	13959
862.183	14081
862.315	14031
862.447	14153
862.58	14096
862.712	13917
862.844	13928
862.976	13974
863.108	13944
863.24	14275
863.372	13700
863.504	14016
863.636	13982
863.768	13978
863.9	13917
864.032	13833
864.164	13936
864.296	13993
864.428	14062
864.559	13997
864.691	13917
864.823	13993
864.954	14008
865.086	13906
865.217	13944
865.349	13803
865.48	13909
865.612	14020
865.743	14050
865.875	13955
866.006	13868
866.137	13871
866.269	13875
866.4	13940
866.531	13776
866.662	13833
866.793	13776
866.924	13890
867.055	13909
867.186	13887
867.317	13826
867.448	13772
867.579	13788
867.71	13841
867.841	13803
867.972	13932
868.103	13875
868.233	13909
868.364	13978
868.495	13890
868.625	14054
868.756	14229
868.886	14020
869.017	14065
869.147	14298
869.278	14298
869.408	14138
869.539	14103
869.669	14240
869.799	14206
869.929	14237
870.06	14233
870.19	14560
870.32	14434
870.45	14594
870.58	14549
870.71	14651
870.84	14590
870.97	14488
871.1	14541
871.23	14693
871.36	14724
871.489	14590
871.619	14686
871.749	14769
871.879	14811
872.008	14868
872.138	14781
872.267	14708
872.397	14610
872.526	14568
872.656	14556
872.785	14651
872.915	14804
873.044	14838
873.173	14720
873.303	14804
873.432	14800
873.561	14883
873.69	14800
873.819	14800
873.948	14883
874.077	14796
874.206	14804
874.335	14830
874.464	15005
874.593	15058
874.722	15039
874.851	15203
874.979	15051
875.108	15104
875.237	15097
875.365	15024
875.494	15116
875.623	15161
875.751	15112
875.88	15142
876.008	15310
876.136	15321
876.265	15595
876.393	15652
876.521	15614
876.65	15606
876.778	15526
876.906	15492
877.034	15466
877.162	15428
877.29	15370
877.418	15530
877.546	15443
877.674	15530
877.802	15545
877.93	15637
878.058	15466
878.185	15492
878.313	15443
878.441	15492
878.568	15367
878.696	15515
878.824	15538
878.951	15595
879.079	15686
879.206	15812
879.333	15671
879.461	15572
879.588	15667
879.715	15747
879.842	15793
879.97	15652
880.097	15321
880.224	15325
880.351	15386
880.478	15389
880.605	15348
880.732	15374
880.859	15576
880.986	15291
881.112	15412
881.239	15252
881.366	15047
881.493	15024
881.619	15157
881.746	15112
881.872	14986
881.999	14929
882.125	14990
882.252	15112
882.378	15009
882.505	15127
882.631	15005
882.757	14826
882.883	14948
883.01	14952
883.136	14720
883.262	14689
883.388	14640
883.514	14895
883.64	14883
883.766	14819
883.892	14765
884.018	14648
884.143	14811
884.269	14948
884.395	14579
884.52	14518
884.646	14560
884.772	14438
884.897	14526
885.023	14613
885.148	14667
885.274	14689
885.399	14777
885.524	14541
885.65	14636
885.775	14575
885.9	14587
886.025	14594
886.15	14705
886.275	14526
886.4	14457
886.525	14552
886.65	14431
886.775	14484
886.9	14697
887.025	14895
887.149	14564
887.274	14377
887.399	14347
887.523	14317
887.648	14370
887.773	14336
887.897	14438
888.021	14465
888.146	14389
888.27	14564
888.395	14621
888.519	14545
888.643	14461
888.767	14518
888.891	14465
889.015	14271
889.139	14282
889.263	14263
889.387	14347
889.511	14427
889.635	14317
889.759	14309
889.883	14214
890.006	14328
890.13	14431
890.254	14157
890.377	14195
890.501	14062
890.624	13989
890.748	14191
890.871	14027
890.995	13818
891.118	13856
891.241	13974
891.364	13947
891.488	14096
891.611	13944
891.734	13951
891.857	13978
891.98	14062
892.103	14050
892.226	13970
892.349	13875
892.471	13715
892.594	13951
892.717	14016
892.839	13951
892.962	14005
893.085	14062
893.207	13982
893.33	13917
893.452	13883
893.575	14039
893.697	13997
893.819	14145
893.941	14195
894.064	14115
894.186	13967
894.308	13875
894.43	14161
894.552	14138
894.674	14123
894.796	13940
894.918	14107
895.04	13902
895.161	14043
895.283	14100
895.405	13951
895.526	14115
895.648	13997
895.769	14073
895.891	14111
896.012	14225
896.134	14161
896.255	14180
896.376	14062
896.498	14153
896.619	14164
896.74	14199
896.861	14115
896.982	14400
897.103	14579
897.224	14408
897.345	14404
897.466	14370
897.587	14396
897.708	14602
897.828	14393
897.949	14294
898.07	14267
898.19	14317
898.311	14598
898.431	14507
898.552	14434
898.672	14606
898.792	14598
898.913	14454
899.033	14518
899.153	14393
899.273	14233
899.393	14412
899.513	14362
899.633	14336
899.753	14324
899.873	14336
899.993	14313
900.113	14237
900.232	14336
900.352	14259
900.472	14278
900.591	14233
900.711	14187
900.83	14172
900.95	14256
901.069	14374
901.189	14115
901.308	13936
901.427	13814
901.546	13852
901.665	13932
901.784	13883
901.904	13849
902.023	13746
902.141	13525
902.26	13457
902.379	13487
902.498	13441
902.617	13392
902.735	13529
902.854	13419
902.973	13464
903.091	13263
903.21	13206
903.328	13175
903.446	13179
903.565	13072
903.683	13027
903.801	12939
903.919	13046
904.038	13015
904.156	12916
904.274	12981
904.392	12764
904.51	12852
904.627	12901
904.745	12859
904.863	12962
904.981	12608
905.098	12525
905.216	12620
905.334	12559
905.451	12608
905.569	12448
905.686	12597
905.803	12642
905.921	12391
906.038	12494
906.155	12357
906.272	12239
906.389	12304
906.506	12136
906.623	12125
906.74	12182
906.857	12064
906.974	12060
907.091	12178
907.208	12254
907.324	12167
907.441	12125
907.557	11927
907.674	11847
907.79	11840
907.907	11802
908.023	11984
908.139	11931
908.256	11882
908.372	11783
908.488	11775
908.604	11634
908.72	11638
908.836	11577
908.952	11551
909.068	11638
909.184	11775
909.3	11688
909.415	11680
909.531	11672
909.647	11455
909.762	11345
909.878	11322
909.993	11452
910.108	11459
910.224	11296
910.339	11433
910.454	11307
910.57	11345
910.685	11197
910.8	11501
910.915	11425
911.03	11235
911.145	11052
911.259	11022
911.374	11113
911.489	10980
911.604	11052
911.718	10915
911.833	10873
911.947	10736
912.062	10687
912.176	10839
912.291	10881
912.405	10900
912.519	10961
912.633	11048
912.748	11006
912.862	10847
912.976	10717
913.09	10641
913.204	10725
913.318	10767
913.431	10820
913.545	10847
913.659	10869
913.772	10786
913.886	10607
914	10615
914.113	10755
914.226	10744
914.34	10645
914.453	10569
914.566	10797
914.68	10592
914.793	10622
914.906	10409
915.019	10405
915.132	10325
915.245	10379
915.358	10421
915.47	10409
915.583	10470
915.696	10481
915.809	10531
915.921	10508
916.034	10409
916.146	10322
916.259	10299
916.371	10432
916.483	10493
916.595	10299
916.708	10284
916.82	10227
916.932	10238
917.044	10272
917.156	10398
917.268	10154
917.38	10181
917.491	10211
917.603	10230
917.715	10348
917.826	10371
917.938	10238
918.049	10090
918.161	10223
918.272	10287
918.384	10367
918.495	10295
918.606	10086
918.717	10059
918.828	10177
918.939	10135
919.05	10013
919.161	10036
919.272	9983
919.383	9972
919.494	10196
919.604	10291
919.715	10150
919.826	10036
919.936	10131
920.047	10162
920.157	10131
920.267	10398
920.378	10257
920.488	10147
920.598	10249
920.708	10390
920.818	10287
920.928	10333
921.038	10485
921.148	10500
921.258	10196
921.368	9994
921.477	10017
921.587	10055
921.697	9869
921.806	10006
921.916	9808
922.025	9751
922.134	9720
922.244	9682
922.353	9701
922.462	9523
922.571	9606
922.68	9389
922.789	9294
922.898	9424
923.007	9264
923.116	9458
923.224	9450
923.333	9382
923.442	9230
923.55	9260
923.659	9283
923.767	9359
923.876	9268
923.984	9268
924.092	9188
924.201	9264
924.309	9260
924.417	9306
924.525	9226
924.633	9237
924.741	10166
924.849	8994
924.956	9199
925.064	8994
925.172	8933
925.279	9013
925.387	9081
925.494	9051
925.602	9214
925.709	9142
925.816	8963
925.924	9074
926.031	9150
926.138	9036
926.245	9100
926.352	8960
926.459	9135
926.566	9100
926.673	9051
926.779	8880
926.886	8883
926.993	8769
927.099	8727
927.206	8682
927.312	8686
927.419	8823
927.525	8750
927.631	8830
927.737	8689
927.843	8606
927.95	8568
928.056	8640
928.162	8632
928.267	8754
928.373	9340
928.479	8754
928.585	8450
928.69	8606
928.796	8766
928.901	8545
929.007	8495
929.112	8564
929.218	8594
929.323	8446
929.428	8454
929.533	8670
929.638	8370
929.743	8488
929.848	8530
929.953	8457
930.058	8374
930.163	8221
930.267	8237
930.372	8374
930.477	8248
930.581	8514
930.685	8286
930.79	8202
930.894	8240
930.998	8168
931.103	8309
931.207	7974
931.311	7902
931.415	7833
931.519	7681
931.623	7681
