Data from test_V78500241_1587.txt Node
Date: Fri Mar 25 14:44:45 CST 2022
User: usil
Spectrometer: V785-0024
Trigger mode: 0
Integration Time (sec): 4.000000E-1
Scans to average: 1
Nonlinearity correction enabled: false
Boxcar width: 0
Storing dark spectrum: false
XAxis mode: Wavelengths
Number of Pixels in Spectrum: 1024
>>>>>Begin Spectral Data<<<<<
801.071	22329
801.214	22230
801.356	21994
801.499	21808
801.641	21857
801.783	21755
801.926	21759
802.068	21637
802.211	21614
802.353	21610
802.496	21294
802.638	21211
802.78	21256
802.923	21184
803.065	21005
803.208	21009
803.35	20994
803.492	21180
803.635	21317
803.777	21077
803.919	21165
804.061	21450
804.204	21241
804.346	21062
804.488	20948
804.63	21055
804.773	20880
804.915	21017
805.057	21188
805.199	20910
805.341	21142
805.483	21142
805.626	21192
805.768	20986
805.91	21028
806.052	21131
806.194	20887
806.336	21165
806.478	21017
806.62	21043
806.762	21058
806.904	21195
807.046	21492
807.188	21355
807.33	21268
807.472	21485
807.614	21401
807.756	21370
807.898	21192
808.04	21089
808.182	21135
808.324	21230
808.465	21233
808.607	21431
808.749	21447
808.891	21671
809.033	21789
809.174	21629
809.316	21580
809.458	21515
809.6	21485
809.741	21488
809.883	21424
810.025	21633
810.166	21572
810.308	21603
810.45	21530
810.591	21412
810.733	21386
810.875	21237
811.016	21104
811.158	21142
811.299	21222
811.441	21317
811.582	21325
811.724	21283
811.865	21173
812.007	21264
812.148	21245
812.29	21241
812.431	21336
812.573	21504
812.714	21595
812.855	21781
812.997	21739
813.138	21979
813.279	21686
813.421	21682
813.562	21633
813.703	21466
813.845	21424
813.986	21070
814.127	20800
814.268	20834
814.41	20727
814.551	20754
814.692	20838
814.833	20697
814.974	20754
815.115	20773
815.256	20552
815.397	20651
815.539	20564
815.68	20514
815.821	20446
815.962	20450
816.103	20408
816.244	20320
816.385	20225
816.526	20256
816.666	20031
816.807	19811
816.948	20005
817.089	20001
817.23	19982
817.371	19909
817.512	19898
817.653	19940
817.793	19807
817.934	19894
818.075	19837
818.216	19898
818.356	19871
818.497	19799
818.638	19548
818.778	19578
818.919	19472
819.06	19594
819.2	19723
819.341	19833
819.481	19696
819.622	19967
819.762	20012
819.903	19970
820.043	19940
820.184	19799
820.324	19753
820.465	19925
820.605	19776
820.746	19750
820.886	19666
821.026	19837
821.167	19788
821.307	19868
821.447	19799
821.588	19689
821.728	19445
821.868	19373
822.008	19202
822.149	19221
822.289	19148
822.429	19038
822.569	18939
822.709	18993
822.849	18700
822.99	18897
823.13	18681
823.27	18639
823.41	18692
823.55	18574
823.69	18566
823.83	18589
823.97	18437
824.11	18361
824.25	18304
824.389	18292
824.529	18311
824.669	18460
824.809	18448
824.949	18422
825.089	18407
825.228	18410
825.368	18072
825.508	18064
825.648	18178
825.787	18140
825.927	18243
826.067	18091
826.206	18152
826.346	18125
826.485	18140
826.625	18079
826.765	18201
826.904	18182
827.044	17885
827.183	17984
827.323	17771
827.462	17859
827.601	17748
827.741	17786
827.88	17832
828.02	17737
828.159	17798
828.298	17866
828.437	17764
828.577	17687
828.716	17840
828.855	17737
828.994	17524
829.134	17551
829.273	17604
829.412	17566
829.551	17467
829.69	17512
829.829	17486
829.968	17535
830.107	17638
830.246	17623
830.385	17429
830.524	17417
830.663	17345
830.802	17280
830.941	17155
831.08	17075
831.219	17254
831.357	17277
831.496	17261
831.635	17033
831.774	17045
831.913	16976
832.051	16965
832.19	16923
832.329	16896
832.467	16877
832.606	16858
832.744	16805
832.883	16843
833.022	16752
833.16	16877
833.299	16877
833.437	16831
833.576	16805
833.714	16919
833.852	16892
833.991	16767
834.129	16968
834.267	16938
834.406	16900
834.544	16999
834.682	16881
834.821	16889
834.959	16984
835.097	16771
835.235	16984
835.373	16839
835.511	16869
835.65	16706
835.788	16801
835.926	16675
836.064	16599
836.202	16565
836.34	16752
836.478	16824
836.615	16805
836.753	16782
836.891	16805
837.029	16938
837.167	16725
837.305	16687
837.443	16675
837.58	16607
837.718	16725
837.856	16607
837.993	16649
838.131	16622
838.269	16531
838.406	16470
838.544	16455
838.681	16272
838.819	16280
838.956	16139
839.094	16185
839.231	16147
839.369	16219
839.506	16558
839.643	16382
839.781	16215
839.918	16029
840.055	16226
840.193	16169
840.33	16143
840.467	16158
840.604	16280
840.742	16474
840.879	16040
841.016	16135
841.153	16101
841.29	16215
841.427	16158
841.564	16230
841.701	16265
841.838	16116
841.975	16032
842.112	16051
842.249	16002
842.385	15892
842.522	16188
842.659	15918
842.796	15937
842.933	15850
843.069	15937
843.206	15873
843.343	15983
843.479	15941
843.616	15915
843.752	15682
843.889	15800
844.025	15926
844.162	15728
844.298	15732
844.435	15701
844.571	15690
844.708	15816
844.844	15865
844.98	15880
845.117	15808
845.253	15717
845.389	15686
845.525	15698
845.661	15724
845.798	15595
845.934	15713
846.07	15580
846.206	15709
846.342	15736
846.478	15622
846.614	15511
846.75	15294
846.886	15355
847.022	15450
847.158	15336
847.294	15264
847.429	15256
847.565	15283
847.701	15553
847.837	14960
847.972	14963
848.108	15100
848.244	15089
848.379	14994
848.515	14933
848.65	14819
848.786	14830
848.921	14910
849.057	15047
849.192	15036
849.328	14929
849.463	14857
849.598	14864
849.734	14842
849.869	14724
850.004	14743
850.14	14727
850.275	14651
850.41	14583
850.545	14648
850.68	14640
850.815	14545
850.95	14530
851.085	14815
851.22	14785
851.355	14670
851.49	14598
851.625	14651
851.76	14621
851.895	14507
852.03	14507
852.165	14632
852.299	14632
852.434	14731
852.569	14701
852.703	14708
852.838	14708
852.973	14815
853.107	14876
853.242	14625
853.376	14492
853.511	14404
853.645	14438
853.78	14587
853.914	14552
854.048	14503
854.183	14541
854.317	14541
854.451	14678
854.585	14537
854.72	14511
854.854	14575
854.988	14446
855.122	14457
855.256	14419
855.39	14434
855.524	14571
855.658	14560
855.792	14587
855.926	14564
856.06	14644
856.194	14644
856.327	14507
856.461	14545
856.595	14499
856.729	14495
856.862	14613
856.996	14575
857.13	14629
857.263	14571
857.397	14564
857.53	14530
857.664	14575
857.797	14594
857.931	14739
858.064	14514
858.197	14590
858.331	14488
858.464	14434
858.597	14294
858.731	14484
858.864	14526
858.997	14473
859.13	14476
859.263	14549
859.396	14667
859.529	14495
859.662	14476
859.795	14514
859.928	14530
860.061	14640
860.194	14705
860.327	14492
860.46	14503
860.592	14674
860.725	14689
860.858	14579
860.99	14476
861.123	14412
861.256	14389
861.388	14499
861.521	15348
861.653	14431
861.786	14301
861.918	14408
862.05	14320
862.183	14431
862.315	14465
862.447	14571
862.58	14423
862.712	14381
862.844	14161
862.976	14275
863.108	14301
863.24	14697
863.372	14149
863.504	14294
863.636	14199
863.768	14374
863.9	14404
864.032	14149
864.164	14214
864.296	14374
864.428	14480
864.559	14355
864.691	14355
864.823	14404
864.954	14267
865.086	14305
865.217	14256
865.349	14240
865.48	14290
865.612	14199
865.743	14374
865.875	14218
866.006	14298
866.137	14286
866.269	14290
866.4	14320
866.531	14210
866.662	14084
866.793	14332
866.924	14301
867.055	14301
867.186	14187
867.317	14267
867.448	14202
867.579	14252
867.71	14161
867.841	14221
867.972	14305
868.103	14183
868.233	14214
868.364	14336
868.495	14370
868.625	14473
868.756	14575
868.886	14473
869.017	14461
869.147	14648
869.278	14587
869.408	14492
869.539	14568
869.669	14526
869.799	14686
869.929	14648
870.06	14587
870.19	14826
870.32	14887
870.45	14762
870.58	14910
870.71	14990
870.84	14963
870.97	14880
871.1	15032
871.23	15058
871.36	15100
871.489	15017
871.619	15032
871.749	15058
871.879	15100
872.008	15199
872.138	15108
872.267	15077
872.397	14975
872.526	14944
872.656	14975
872.785	14891
872.915	15207
873.044	15245
873.173	15093
873.303	15119
873.432	15195
873.561	15169
873.69	15203
873.819	15173
873.948	15291
874.077	15169
874.206	15127
874.335	15184
874.464	15359
874.593	15279
874.722	15378
874.851	15454
874.979	15450
875.108	15492
875.237	15428
875.365	15378
875.494	15458
875.623	15389
875.751	15405
875.88	15538
876.008	15606
876.136	15671
876.265	15899
876.393	16010
876.521	15975
876.65	15926
876.778	15918
876.906	15816
877.034	15751
877.162	15785
877.29	15846
877.418	15915
877.546	15869
877.674	15838
877.802	15838
877.93	15884
878.058	15812
878.185	15679
878.313	15827
878.441	15865
878.568	15762
878.696	15831
878.824	15899
878.951	15979
879.079	15991
879.206	16226
879.333	16120
879.461	16040
879.588	16013
879.715	16226
879.842	16082
879.97	15979
880.097	15812
880.224	15755
880.351	15675
880.478	15694
880.605	15679
880.732	15644
880.859	15907
880.986	15751
881.112	15728
881.239	15629
881.366	15526
881.493	15447
881.619	15340
881.746	15332
881.872	15306
881.999	15382
882.125	15424
882.252	15439
882.378	15492
882.505	15458
882.631	15351
882.757	15233
882.883	15241
883.01	15218
883.136	15195
883.262	15104
883.388	15135
883.514	15222
883.64	15272
883.766	15268
883.892	15066
884.018	15001
884.143	15230
884.269	15348
884.395	14956
884.52	14906
884.646	14880
884.772	14800
884.897	14807
885.023	14948
885.148	15032
885.274	15169
885.399	14971
885.524	14925
885.65	14861
885.775	14952
885.9	14876
886.025	15077
886.15	14982
886.275	14918
886.4	14804
886.525	14952
886.65	14785
886.775	14796
886.9	15058
887.025	15169
887.149	14929
887.274	14743
887.399	14629
887.523	14686
887.648	14667
887.773	14610
887.897	14792
888.021	14693
888.146	14686
888.27	14754
888.395	14842
888.519	14819
888.643	14743
888.767	14815
888.891	14697
889.015	14640
889.139	14670
889.263	14598
889.387	14735
889.511	14796
889.635	14674
889.759	14507
889.883	14583
890.006	14598
890.13	14651
890.254	14560
890.377	14610
890.501	14400
890.624	14298
890.748	14457
890.871	14332
890.995	14305
891.118	14248
891.241	14214
891.364	14374
891.488	14396
891.611	14282
891.734	14282
891.857	14259
891.98	14305
892.103	14347
892.226	14324
892.349	14294
892.471	14107
892.594	14298
892.717	14320
892.839	14252
892.962	14305
893.085	14317
893.207	14229
893.33	14202
893.452	14305
893.575	14362
893.697	14225
893.819	14431
893.941	14457
894.064	14419
894.186	14278
894.308	14271
894.43	14415
894.552	14526
894.674	14454
894.796	14298
894.918	14282
895.04	14267
895.161	14415
895.283	14442
895.405	14229
895.526	14313
895.648	14362
895.769	14396
895.891	14381
896.012	14503
896.134	14412
896.255	14533
896.376	14423
896.498	14465
896.619	14476
896.74	14473
896.861	14492
896.982	14800
897.103	14887
897.224	14765
897.345	14705
897.466	14640
897.587	14632
897.708	14864
897.828	14762
897.949	14720
898.07	14613
898.19	14739
898.311	14857
898.431	14712
898.552	14842
898.672	14910
898.792	14937
898.913	14796
899.033	14705
899.153	14648
899.273	14503
899.393	14651
899.513	14629
899.633	14739
899.753	14716
899.873	14598
899.993	14720
900.113	14606
900.232	14686
900.352	14625
900.472	14552
900.591	14511
900.711	14590
900.83	14476
900.95	14537
901.069	14587
901.189	14457
901.308	14278
901.427	14195
901.546	14119
901.665	14161
901.784	14282
901.904	14134
902.023	13967
902.141	13788
902.26	13811
902.379	13814
902.498	13788
902.617	13719
902.735	13750
902.854	13731
902.973	13750
903.091	13392
903.21	13411
903.328	13502
903.446	13316
903.565	13343
903.683	13266
903.801	13194
903.919	13293
904.038	13255
904.156	13171
904.274	13221
904.392	13164
904.51	13126
904.627	13137
904.745	13190
904.863	13114
904.981	13019
905.098	12821
905.216	12863
905.334	12871
905.451	12840
905.569	12852
905.686	12916
905.803	12802
905.921	12711
906.038	12764
906.155	12623
906.272	12521
906.389	12574
906.506	12429
906.623	12483
906.74	12418
906.857	12266
906.974	12346
907.091	12517
907.208	12547
907.324	12369
907.441	12407
907.557	12095
907.674	12144
907.79	12011
907.907	12110
908.023	12114
908.139	12136
908.256	12057
908.372	12117
908.488	12034
908.604	11889
908.72	11878
908.836	11946
908.952	11863
909.068	11961
909.184	11992
909.3	11840
909.415	11927
909.531	11954
909.647	11707
909.762	11726
909.878	11596
909.993	11756
910.108	11684
910.224	11562
910.339	11619
910.454	11638
910.57	11547
910.685	11471
910.8	11668
910.915	11668
911.03	11497
911.145	11307
911.259	11379
911.374	11349
911.489	11269
911.604	11254
911.718	11136
911.833	11151
911.947	11071
912.062	10995
912.176	11162
912.291	11033
912.405	11193
912.519	11269
912.633	11334
912.748	11147
912.862	11181
912.976	11014
913.09	10953
913.204	10999
913.318	10968
913.431	11006
913.545	11056
913.659	11086
913.772	10987
913.886	10961
914	10816
914.113	10957
914.226	11022
914.34	10908
914.453	10771
914.566	10949
914.68	10797
914.793	10839
914.906	10748
915.019	10592
915.132	10565
915.245	10622
915.358	10664
915.47	10717
915.583	10717
915.696	10733
915.809	10824
915.921	10767
916.034	10626
916.146	10565
916.259	10462
916.371	10744
916.483	10611
916.595	10546
916.708	10592
916.82	10588
916.932	10561
917.044	10538
917.156	10542
917.268	10462
917.38	10428
917.491	10394
917.603	10558
917.715	10588
917.826	10535
917.938	10516
918.049	10356
918.161	10394
918.272	10577
918.384	10599
918.495	10451
918.606	10318
918.717	10310
918.828	10360
918.939	10310
919.05	10329
919.161	10306
919.272	10074
919.383	10253
919.494	10436
919.604	10462
919.715	10348
919.826	10268
919.936	10253
920.047	10519
920.157	10390
920.267	10504
920.378	10402
920.488	10337
920.598	10535
920.708	10664
920.818	10459
920.928	10538
921.038	10698
921.148	10637
921.258	10382
921.368	10333
921.477	10196
921.587	10192
921.697	10109
921.806	10223
921.916	10074
922.025	9945
922.134	9876
922.244	9770
922.353	9911
922.462	9800
922.571	9770
922.68	9568
922.789	9587
922.898	9618
923.007	9580
923.116	9629
923.224	9618
923.333	9587
923.442	9538
923.55	9443
923.659	9507
923.767	9519
923.876	9526
923.984	9477
924.092	9367
924.201	9488
924.309	9466
924.417	9492
924.525	9386
924.633	9447
924.741	10303
924.849	9207
924.956	9389
925.064	9214
925.172	9173
925.279	9230
925.387	9302
925.494	9157
925.602	9363
925.709	9264
925.816	9138
925.924	9253
926.031	9329
926.138	9268
926.245	9192
926.352	9138
926.459	9268
926.566	9348
926.673	9203
926.779	9089
926.886	9085
926.993	8963
927.099	8918
927.206	8887
927.312	8883
927.419	9013
927.525	8986
927.631	8937
927.737	8864
927.843	8819
927.95	8739
928.056	8804
928.162	8819
928.267	8842
928.373	9378
928.479	8899
928.585	8746
928.69	8735
928.796	8872
928.901	8670
929.007	8598
929.112	8750
929.218	8701
929.323	8667
929.428	8587
929.533	8724
929.638	8579
929.743	8594
929.848	8750
929.953	8636
930.058	8549
930.163	8415
930.267	8446
930.372	8610
930.477	8427
930.581	8575
930.685	8454
930.79	8328
930.894	8389
930.998	8381
931.103	8564
931.207	8149
931.311	8077
931.415	8096
931.519	7883
931.623	7845
