Data from test_V78500241_1890.txt Node
Date: Fri Mar 25 14:46:52 CST 2022
User: usil
Spectrometer: V785-0024
Trigger mode: 0
Integration Time (sec): 4.000000E-1
Scans to average: 1
Nonlinearity correction enabled: false
Boxcar width: 0
Storing dark spectrum: false
XAxis mode: Wavelengths
Number of Pixels in Spectrum: 1024
>>>>>Begin Spectral Data<<<<<
801.071	22070
801.214	22032
801.356	21781
801.499	21641
801.641	21572
801.783	21496
801.926	21500
802.068	21428
802.211	21416
802.353	21226
802.496	21093
802.638	20982
802.78	20845
802.923	20891
803.065	20743
803.208	20845
803.35	20746
803.492	20861
803.635	20967
803.777	20857
803.919	20880
804.061	21146
804.204	21001
804.346	20864
804.488	20731
804.63	20868
804.773	20682
804.915	20693
805.057	20830
805.199	20735
805.341	20952
805.483	20807
805.626	20834
805.768	20697
805.91	20807
806.052	20705
806.194	20754
806.336	20960
806.478	20853
806.62	20739
806.762	20834
806.904	20979
807.046	21199
807.188	21157
807.33	21074
807.472	21195
807.614	20887
807.756	20998
807.898	20868
808.04	20739
808.182	20842
808.324	20823
808.465	20849
808.607	21036
808.749	21218
808.891	21264
809.033	21135
809.174	21218
809.316	20979
809.458	20967
809.6	21085
809.741	21180
809.883	21066
810.025	21256
810.166	21294
810.308	21256
810.45	21241
810.591	21180
810.733	20929
810.875	20895
811.016	20990
811.158	20777
811.299	20902
811.441	21047
811.582	21089
811.724	20906
811.865	20800
812.007	20826
812.148	20819
812.29	20883
812.431	21024
812.573	21192
812.714	21249
812.855	21351
812.997	21447
813.138	21591
813.279	21435
813.421	21428
813.562	21386
813.703	21252
813.845	20956
813.986	20705
814.127	20575
814.268	20568
814.41	20476
814.551	20294
814.692	20454
814.833	20370
814.974	20374
815.115	20332
815.256	20298
815.397	20290
815.539	20317
815.68	20240
815.821	20096
815.962	20294
816.103	20035
816.244	20058
816.385	19936
816.526	19993
816.666	19780
816.807	19597
816.948	19677
817.089	19685
817.23	19651
817.371	19483
817.512	19521
817.653	19518
817.793	19514
817.934	19559
818.075	19586
818.216	19529
818.356	19476
818.497	19468
818.638	19221
818.778	19206
818.919	19263
819.06	19403
819.2	19365
819.341	19415
819.481	19491
819.622	19620
819.762	19791
819.903	19719
820.043	19586
820.184	19609
820.324	19552
820.465	19548
820.605	19575
820.746	19476
820.886	19472
821.026	19441
821.167	19369
821.307	19457
821.447	19457
821.588	19373
821.728	19327
821.868	19107
822.008	18981
822.149	18897
822.289	18943
822.429	18757
822.569	18593
822.709	18639
822.849	18418
822.99	18506
823.13	18464
823.27	18304
823.41	18258
823.55	18319
823.69	18346
823.83	18186
823.97	18152
824.11	18068
824.25	18068
824.389	18049
824.529	18060
824.669	18060
824.809	18174
824.949	18072
825.089	18114
825.228	18091
825.368	17748
825.508	17813
825.648	17813
825.787	17786
825.927	17824
826.067	17802
826.206	17764
826.346	17802
826.485	17908
826.625	17855
826.765	17969
826.904	17904
827.044	17653
827.183	17524
827.323	17444
827.462	17592
827.601	17532
827.741	17406
827.88	17585
828.02	17478
828.159	17505
828.298	17638
828.437	17551
828.577	17459
828.716	17687
828.855	17516
828.994	17368
829.134	17284
829.273	17284
829.412	17280
829.551	17193
829.69	17284
829.829	17254
829.968	17425
830.107	17376
830.246	17288
830.385	17261
830.524	17079
830.663	17033
830.802	16999
830.941	16923
831.08	16850
831.219	16946
831.357	17064
831.496	17067
831.635	16831
831.774	16839
831.913	16805
832.051	16736
832.19	16660
832.329	16713
832.467	16653
832.606	16523
832.744	16447
832.883	16603
833.022	16512
833.16	16523
833.299	16729
833.437	16611
833.576	16641
833.714	16656
833.852	16603
833.991	16710
834.129	16656
834.267	16710
834.406	16713
834.544	16656
834.682	16664
834.821	16656
834.959	16744
835.097	16611
835.235	16645
835.373	16740
835.511	16611
835.65	16596
835.788	16527
835.926	16447
836.064	16405
836.202	16398
836.34	16573
836.478	16622
836.615	16474
836.753	16580
836.891	16634
837.029	16489
837.167	16455
837.305	16558
837.443	16413
837.58	16409
837.718	16481
837.856	16523
837.993	16291
838.131	16398
838.269	16272
838.406	16402
838.544	16238
838.681	16082
838.819	16063
838.956	15998
839.094	15968
839.231	16055
839.369	16071
839.506	16421
839.643	16211
839.781	16055
839.918	15983
840.055	16017
840.193	15987
840.33	15930
840.467	16002
840.604	15956
840.742	16249
840.879	15823
841.016	15857
841.153	15911
841.29	16071
841.427	15964
841.564	15975
841.701	15956
841.838	15907
841.975	15884
842.112	15926
842.249	15831
842.385	15759
842.522	16006
842.659	15823
842.796	15675
842.933	15656
843.069	15663
843.206	15724
843.343	15827
843.479	15781
843.616	15694
843.752	15500
843.889	15542
844.025	15736
844.162	15450
844.298	15584
844.435	15507
844.571	15466
844.708	15591
844.844	15728
844.98	15686
845.117	15686
845.253	15580
845.389	15405
845.525	15469
845.661	15344
845.798	15306
845.934	15405
846.07	15287
846.206	15340
846.342	15443
846.478	15348
846.614	15154
846.75	15055
846.886	15036
847.022	15233
847.158	15138
847.294	15154
847.429	15119
847.565	15081
847.701	15344
847.837	14868
847.972	14872
848.108	14929
848.244	14960
848.379	14735
848.515	14724
848.65	14686
848.786	14686
848.921	14788
849.057	14834
849.192	14777
849.328	14701
849.463	14708
849.598	14663
849.734	14602
849.869	14537
850.004	14522
850.14	14503
850.275	14533
850.41	14389
850.545	14484
850.68	14385
850.815	14541
850.95	14488
851.085	14617
851.22	14446
851.355	14431
851.49	14484
851.625	14488
851.76	14503
851.895	14374
852.03	14381
852.165	14385
852.299	14427
852.434	14552
852.569	14442
852.703	14446
852.838	14579
852.973	14617
853.107	14590
853.242	14442
853.376	14328
853.511	14233
853.645	14404
853.78	14473
853.914	14427
854.048	14355
854.183	14377
854.317	14446
854.451	14461
854.585	14377
854.72	14355
854.854	14412
854.988	14191
855.122	14347
855.256	14267
855.39	14415
855.524	14423
855.658	14396
855.792	14332
855.926	14278
856.06	14419
856.194	14514
856.327	14362
856.461	14240
856.595	14301
856.729	14294
856.862	14484
856.996	14377
857.13	14396
857.263	14514
857.397	14537
857.53	14389
857.664	14438
857.797	14423
857.931	14480
858.064	14434
858.197	14480
858.331	14362
858.464	14229
858.597	14267
858.731	14286
858.864	14457
858.997	14404
859.13	14385
859.263	14396
859.396	14454
859.529	14317
859.662	14282
859.795	14301
859.928	14336
860.061	14514
860.194	14503
860.327	14431
860.46	14294
860.592	14492
860.725	14526
860.858	14488
860.99	14408
861.123	14294
861.256	14309
861.388	14328
861.521	14937
861.653	14218
861.786	14218
861.918	14240
862.05	14305
862.183	14286
862.315	14309
862.447	14339
862.58	14320
862.712	14206
862.844	14077
862.976	14153
863.108	14119
863.24	14552
863.372	14062
863.504	14119
863.636	14103
863.768	14168
863.9	14149
864.032	14172
864.164	14062
864.296	14172
864.428	14244
864.559	14168
864.691	14271
864.823	14172
864.954	14176
865.086	14195
865.217	14092
865.349	14069
865.48	14134
865.612	14084
865.743	14317
865.875	14142
866.006	14153
866.137	14119
866.269	14073
866.4	14126
866.531	14031
866.662	14043
866.793	14058
866.924	14103
867.055	14202
867.186	14088
867.317	14088
867.448	14046
867.579	14031
867.71	13940
867.841	14005
867.972	14142
868.103	14100
868.233	14058
868.364	14199
868.495	14183
868.625	14290
868.756	14404
868.886	14138
869.017	14339
869.147	14450
869.278	14530
869.408	14393
869.539	14377
869.669	14423
869.799	14317
869.929	14503
870.06	14476
870.19	14663
870.32	14705
870.45	14693
870.58	14811
870.71	14883
870.84	14811
870.97	14777
871.1	14682
871.23	14948
871.36	14929
871.489	14872
871.619	14849
871.749	15058
871.879	14960
872.008	15066
872.138	14986
872.267	14960
872.397	14804
872.526	14815
872.656	14830
872.785	14864
872.915	14937
873.044	14998
873.173	14899
873.303	15070
873.432	15020
873.561	15062
873.69	14982
873.819	15104
873.948	15161
874.077	14994
874.206	14960
874.335	15074
874.464	15195
874.593	15272
874.722	15283
874.851	15389
874.979	15355
875.108	15412
875.237	15355
875.365	15203
875.494	15348
875.623	15523
875.751	15291
875.88	15374
876.008	15462
876.136	15526
876.265	15755
876.393	15888
876.521	15846
876.65	15774
876.778	15641
876.906	15671
877.034	15717
877.162	15736
877.29	15644
877.418	15652
877.546	15751
877.674	15682
877.802	15789
877.93	15838
878.058	15724
878.185	15679
878.313	15724
878.441	15679
878.568	15686
878.696	15701
878.824	15759
878.951	15819
879.079	15930
879.206	16067
879.333	15880
879.461	15838
879.588	15819
879.715	16002
879.842	16059
879.97	15865
880.097	15637
880.224	15576
880.351	15682
880.478	15629
880.605	15644
880.732	15633
880.859	15717
880.986	15694
881.112	15663
881.239	15447
881.366	15359
881.493	15241
881.619	15230
881.746	15203
881.872	15275
881.999	15211
882.125	15161
882.252	15310
882.378	15317
882.505	15405
882.631	15154
882.757	15051
882.883	15150
883.01	15142
883.136	15097
883.262	14845
883.388	14845
883.514	15047
883.64	15116
883.766	15108
883.892	14948
884.018	14899
884.143	15017
884.269	15169
884.395	14819
884.52	14727
884.646	14792
884.772	14777
884.897	14636
885.023	14705
885.148	14971
885.274	14857
885.399	14785
885.524	14838
885.65	14712
885.775	14853
885.9	14762
886.025	14845
886.15	14918
886.275	14670
886.4	14708
886.525	14667
886.65	14667
886.775	14663
886.9	14849
887.025	14956
887.149	14804
887.274	14610
887.399	14625
887.523	14583
887.648	14606
887.773	14579
887.897	14640
888.021	14629
888.146	14492
888.27	14629
888.395	14739
888.519	14727
888.643	14598
888.767	14663
888.891	14606
889.015	14499
889.139	14431
889.263	14450
889.387	14594
889.511	14659
889.635	14613
889.759	14457
889.883	14381
890.006	14594
890.13	14568
890.254	14488
890.377	14450
890.501	14237
890.624	14202
890.748	14324
890.871	14199
890.995	14176
891.118	14088
891.241	14237
891.364	14142
891.488	14259
891.611	14161
891.734	14233
891.857	14278
891.98	14164
892.103	14214
892.226	14161
892.349	14096
892.471	14027
892.594	14111
892.717	14123
892.839	14077
892.962	14202
893.085	14244
893.207	14115
893.33	14043
893.452	14084
893.575	14183
893.697	14172
893.819	14248
893.941	14393
894.064	14233
894.186	14069
894.308	14195
894.43	14320
894.552	14301
894.674	14343
894.796	14130
894.918	14157
895.04	14244
895.161	14301
895.283	14267
895.405	14267
895.526	14305
895.648	14263
895.769	14339
895.891	14320
896.012	14381
896.134	14419
896.255	14370
896.376	14301
896.498	14328
896.619	14366
896.74	14317
896.861	14457
896.982	14735
897.103	14830
897.224	14670
897.345	14522
897.466	14503
897.587	14530
897.708	14682
897.828	14560
897.949	14587
898.07	14499
898.19	14583
898.311	14693
898.431	14571
898.552	14670
898.672	14823
898.792	14792
898.913	14606
899.033	14568
899.153	14560
899.273	14404
899.393	14446
899.513	14484
899.633	14518
899.753	14537
899.873	14568
899.993	14670
900.113	14454
900.232	14492
900.352	14495
900.472	14476
900.591	14362
900.711	14328
900.83	14377
900.95	14476
901.069	14427
901.189	14278
901.308	14130
901.427	14046
901.546	13986
901.665	14027
901.784	14092
901.904	13879
902.023	13822
902.141	13712
902.26	13647
902.379	13681
902.498	13620
902.617	13647
902.735	13719
902.854	13537
902.973	13571
903.091	13403
903.21	13331
903.328	13449
903.446	13240
903.565	13221
903.683	13160
903.801	13228
903.919	13255
904.038	13129
904.156	12966
904.274	13019
904.392	12977
904.51	13084
904.627	13050
904.745	12958
904.863	13141
904.981	12798
905.098	12669
905.216	12677
905.334	12802
905.451	12715
905.569	12642
905.686	12711
905.803	12703
905.921	12525
906.038	12662
906.155	12502
906.272	12479
906.389	12471
906.506	12300
906.623	12285
906.74	12266
906.857	12205
906.974	12254
907.091	12391
907.208	12464
907.324	12311
907.441	12224
907.557	12064
907.674	12034
907.79	11935
907.907	12041
908.023	12087
908.139	12030
908.256	12072
908.372	11935
908.488	11992
908.604	11863
908.72	11832
908.836	11805
908.952	11741
909.068	11874
909.184	11885
909.3	11843
909.415	11824
909.531	11855
909.647	11604
909.762	11581
909.878	11566
909.993	11566
910.108	11512
910.224	11585
910.339	11596
910.454	11516
910.57	11474
910.685	11368
910.8	11699
910.915	11573
911.03	11471
911.145	11345
911.259	11258
911.374	11307
911.489	11185
911.604	11056
911.718	10976
911.833	11048
911.947	10987
912.062	10873
912.176	11067
912.291	10987
912.405	11006
912.519	11258
912.633	11220
912.748	11109
912.862	11071
912.976	10881
913.09	10793
913.204	10854
913.318	10961
913.431	11083
913.545	10999
913.659	11094
913.772	10919
913.886	10854
914	10816
914.113	10934
914.226	10881
914.34	10866
914.453	10717
914.566	10850
914.68	10767
914.793	10801
914.906	10542
915.019	10527
915.132	10409
915.245	10489
915.358	10527
915.47	10569
915.583	10474
915.696	10622
915.809	10706
915.921	10801
916.034	10535
916.146	10538
916.259	10382
916.371	10527
916.483	10516
916.595	10466
916.708	10443
916.82	10470
916.932	10527
917.044	10443
917.156	10314
917.268	10371
917.38	10375
917.491	10356
917.603	10394
917.715	10443
917.826	10440
917.938	10363
918.049	10215
918.161	10306
918.272	10546
918.384	10516
918.495	10379
918.606	10249
918.717	10238
918.828	10272
918.939	10227
919.05	10135
919.161	10230
919.272	10071
919.383	10048
919.494	10257
919.604	10443
919.715	10284
919.826	10173
919.936	10215
920.047	10249
920.157	10287
920.267	10459
920.378	10272
920.488	10169
920.598	10348
920.708	10561
920.818	10440
920.928	10440
921.038	10500
921.148	10550
921.258	10215
921.368	10181
921.477	10181
921.587	10055
921.697	9968
921.806	10120
921.916	10063
922.025	9835
922.134	9816
922.244	9808
922.353	9835
922.462	9717
922.571	9705
922.68	9530
922.789	9492
922.898	9530
923.007	9488
923.116	9530
923.224	9504
923.333	9580
923.442	9382
923.55	9382
923.659	9382
923.767	9416
923.876	9378
923.984	9492
924.092	9287
924.201	9386
924.309	9405
924.417	9382
924.525	9336
924.633	9447
924.741	10303
924.849	9081
924.956	9310
925.064	9112
925.172	9104
925.279	9055
925.387	9214
925.494	9127
925.602	9325
925.709	9226
925.816	9077
925.924	9157
926.031	9203
926.138	9116
926.245	9233
926.352	9036
926.459	9218
926.566	9313
926.673	9131
926.779	9070
926.886	8971
926.993	8925
927.099	8925
927.206	8830
927.312	8857
927.419	8971
927.525	8925
927.631	8876
927.737	8807
927.843	8678
927.95	8629
928.056	8735
928.162	8762
928.267	8815
928.373	9367
928.479	8857
928.585	8678
928.69	8739
928.796	8773
928.901	8727
929.007	8526
929.112	8750
929.218	8606
929.323	8598
929.428	8625
929.533	8651
929.638	8556
929.743	8552
929.848	8575
929.953	8545
930.058	8499
930.163	8389
930.267	8438
930.372	8480
930.477	8263
930.581	8526
930.685	8465
930.79	8259
930.894	8317
930.998	8339
931.103	8450
931.207	8050
931.311	8046
931.415	7997
931.519	7837
931.623	7776
