Data from test_V78500241_3555.txt Node
Date: Fri Mar 25 14:58:28 CST 2022
User: usil
Spectrometer: V785-0024
Trigger mode: 0
Integration Time (sec): 4.000000E-1
Scans to average: 1
Nonlinearity correction enabled: false
Boxcar width: 0
Storing dark spectrum: false
XAxis mode: Wavelengths
Number of Pixels in Spectrum: 1024
>>>>>Begin Spectral Data<<<<<
801.071	21907
801.214	21888
801.356	21523
801.499	21580
801.641	21443
801.783	21317
801.926	21386
802.068	21188
802.211	21226
802.353	21089
802.496	20910
802.638	20975
802.78	20667
802.923	20777
803.065	20545
803.208	20602
803.35	20659
803.492	20788
803.635	20925
803.777	20533
803.919	20644
804.061	20864
804.204	20644
804.346	20587
804.488	20522
804.63	20648
804.773	20446
804.915	20492
805.057	20640
805.199	20385
805.341	20522
805.483	20629
805.626	20629
805.768	20469
805.91	20511
806.052	20503
806.194	20434
806.336	20708
806.478	20488
806.62	20537
806.762	20552
806.904	20750
807.046	20883
807.188	20773
807.33	20823
807.472	20819
807.614	20651
807.756	20686
807.898	20625
808.04	20583
808.182	20537
808.324	20583
808.465	20560
808.607	20834
808.749	20891
808.891	20899
809.033	20979
809.174	20941
809.316	20769
809.458	20944
809.6	20792
809.741	20937
809.883	21028
810.025	21055
810.166	20967
810.308	20960
810.45	20853
810.591	20792
810.733	20758
810.875	20678
811.016	20442
811.158	20533
811.299	20579
811.441	20731
811.582	20788
811.724	20564
811.865	20594
812.007	20575
812.148	20731
812.29	20674
812.431	20750
812.573	20990
812.714	20963
812.855	21119
812.997	21218
813.138	21386
813.279	21249
813.421	21081
813.562	21093
813.703	20967
813.845	20785
813.986	20537
814.127	20244
814.268	20199
814.41	20119
814.551	20122
814.692	20149
814.833	20122
814.974	20271
815.115	20149
815.256	20107
815.397	19894
815.539	19955
815.68	19963
815.821	19818
815.962	19967
816.103	19898
816.244	19704
816.385	19712
816.526	19616
816.666	19472
816.807	19384
816.948	19407
817.089	19293
817.23	19373
817.371	19400
817.512	19358
817.653	19312
817.793	19251
817.934	19350
818.075	19339
818.216	19278
818.356	19213
818.497	19046
818.638	19053
818.778	18966
818.919	19053
819.06	19015
819.2	19019
819.341	19236
819.481	19274
819.622	19411
819.762	19594
819.903	19563
820.043	19384
820.184	19373
820.324	19327
820.465	19381
820.605	19316
820.746	19354
820.886	19244
821.026	19171
821.167	19331
821.307	19289
821.447	19285
821.588	19187
821.728	19000
821.868	18856
822.008	18734
822.149	18749
822.289	18749
822.429	18445
822.569	18464
822.709	18414
822.849	18270
822.99	18338
823.13	18235
823.27	18213
823.41	18110
823.55	17980
823.69	18091
823.83	18060
823.97	18007
824.11	17870
824.25	17737
824.389	17813
824.529	17870
824.669	17866
824.809	17874
824.949	18011
825.089	17851
825.228	17687
825.368	17714
825.508	17573
825.648	17585
825.787	17665
825.927	17566
826.067	17524
826.206	17478
826.346	17581
826.485	17600
826.625	17653
826.765	17627
826.904	17581
827.044	17326
827.183	17299
827.323	17162
827.462	17345
827.601	17216
827.741	17220
827.88	17303
828.02	17193
828.159	17299
828.298	17406
828.437	17311
828.577	17197
828.716	17410
828.855	17269
828.994	17075
829.134	17025
829.273	16961
829.412	17033
829.551	16908
829.69	17064
829.829	17060
829.968	17136
830.107	17113
830.246	17132
830.385	16953
830.524	16942
830.663	16908
830.802	16828
830.941	16744
831.08	16668
831.219	16649
831.357	16771
831.496	16949
831.635	16702
831.774	16504
831.913	16603
832.051	16493
832.19	16447
832.329	16371
832.467	16360
832.606	16303
832.744	16413
832.883	16284
833.022	16299
833.16	16402
833.299	16478
833.437	16367
833.576	16428
833.714	16363
833.852	16519
833.991	16554
834.129	16417
834.267	16474
834.406	16398
834.544	16504
834.682	16451
834.821	16341
834.959	16584
835.097	16363
835.235	16527
835.373	16500
835.511	16341
835.65	16360
835.788	16451
835.926	16223
836.064	16181
836.202	16154
836.34	16424
836.478	16527
836.615	16306
836.753	16356
836.891	16303
837.029	16409
837.167	16310
837.305	16371
837.443	16253
837.58	16211
837.718	16223
837.856	16284
837.993	16093
838.131	16154
838.269	16128
838.406	16287
838.544	16135
838.681	16036
838.819	15930
838.956	15797
839.094	15797
839.231	15816
839.369	15953
839.506	16200
839.643	15983
839.781	15709
839.918	15667
840.055	15785
840.193	15823
840.33	15854
840.467	15774
840.604	15762
840.742	15915
840.879	15595
841.016	15591
841.153	15652
841.29	15888
841.427	15808
841.564	15797
841.701	15812
841.838	15694
841.975	15629
842.112	15743
842.249	15614
842.385	15553
842.522	15660
842.659	15679
842.796	15500
842.933	15614
843.069	15538
843.206	15530
843.343	15610
843.479	15603
843.616	15568
843.752	15260
843.889	15420
844.025	15332
844.162	15272
844.298	15435
844.435	15359
844.571	15310
844.708	15420
844.844	15481
844.98	15435
845.117	15447
845.253	15294
845.389	15211
845.525	15256
845.661	15245
845.798	15169
845.934	15116
846.07	15062
846.206	15195
846.342	15245
846.478	15161
846.614	14975
846.75	14925
846.886	14792
847.022	14963
847.158	14960
847.294	15013
847.429	14998
847.565	14891
847.701	15119
847.837	14708
847.972	14632
848.108	14640
848.244	14727
848.379	14625
848.515	14514
848.65	14518
848.786	14556
848.921	14473
849.057	14579
849.192	14571
849.328	14575
849.463	14587
849.598	14423
849.734	14362
849.869	14362
850.004	14309
850.14	14381
850.275	14313
850.41	14065
850.545	14259
850.68	14256
850.815	14332
850.95	14180
851.085	14412
851.22	14404
851.355	14301
851.49	14244
851.625	14168
851.76	14286
851.895	14161
852.03	14134
852.165	14138
852.299	14294
852.434	14324
852.569	14309
852.703	14298
852.838	14309
852.973	14450
853.107	14454
853.242	14298
853.376	14221
853.511	14081
853.645	14115
853.78	14206
853.914	14092
854.048	14130
854.183	14149
854.317	14157
854.451	14324
854.585	14142
854.72	14096
854.854	14263
854.988	14103
855.122	14191
855.256	14046
855.39	14088
855.524	14164
855.658	14111
855.792	14263
855.926	14119
856.06	14225
856.194	14290
856.327	14096
856.461	14092
856.595	14111
856.729	14119
856.862	14256
856.996	14176
857.13	14252
857.263	14317
857.397	14225
857.53	14145
857.664	14225
857.797	14309
857.931	14168
858.064	14214
858.197	14263
858.331	14202
858.464	14134
858.597	14031
858.731	14191
858.864	14172
858.997	14164
859.13	14145
859.263	14183
859.396	14191
859.529	14088
859.662	14084
859.795	14050
859.928	14149
860.061	14187
860.194	14370
860.327	14153
860.46	14161
860.592	14301
860.725	14237
860.858	14244
860.99	14062
861.123	14035
861.256	14084
861.388	14161
861.521	14895
861.653	14035
861.786	13982
861.918	13944
862.05	14077
862.183	14107
862.315	13982
862.447	14191
862.58	14134
862.712	14001
862.844	13826
862.976	13947
863.108	13989
863.24	14237
863.372	13925
863.504	13887
863.636	13883
863.768	13849
863.9	13978
864.032	13921
864.164	13879
864.296	14050
864.428	14054
864.559	13982
864.691	14031
864.823	13997
864.954	13944
865.086	13944
865.217	13970
865.349	13902
865.48	13913
865.612	13868
865.743	13986
865.875	13997
866.006	13997
866.137	13906
866.269	13928
866.4	13807
866.531	13940
866.662	13830
866.793	13807
866.924	13879
867.055	13883
867.186	13852
867.317	13814
867.448	13871
867.579	13879
867.71	13788
867.841	13822
867.972	14005
868.103	13925
868.233	13811
868.364	13989
868.495	13989
868.625	14244
868.756	14244
868.886	14065
869.017	14046
869.147	14351
869.278	14305
869.408	14237
869.539	14130
869.669	14256
869.799	14252
869.929	14294
870.06	14180
870.19	14347
870.32	14415
870.45	14507
870.58	14625
870.71	14693
870.84	14670
870.97	14568
871.1	14568
871.23	14796
871.36	14765
871.489	14632
871.619	14800
871.749	14792
871.879	14796
872.008	14762
872.138	14838
872.267	14678
872.397	14610
872.526	14720
872.656	14613
872.785	14560
872.915	14876
873.044	14872
873.173	14891
873.303	14830
873.432	14830
873.561	14967
873.69	14838
873.819	14842
873.948	14842
874.077	14830
874.206	14773
874.335	14925
874.464	14883
874.593	15127
874.722	15066
874.851	15176
874.979	15192
875.108	15218
875.237	15135
875.365	15005
875.494	15074
875.623	15123
875.751	15112
875.88	15237
876.008	15355
876.136	15439
876.265	15576
876.393	15774
876.521	15637
876.65	15599
876.778	15515
876.906	15587
877.034	15595
877.162	15519
877.29	15477
877.418	15641
877.546	15519
877.674	15564
877.802	15481
877.93	15572
878.058	15545
878.185	15450
878.313	15542
878.441	15515
878.568	15408
878.696	15507
878.824	15553
878.951	15603
879.079	15701
879.206	15949
879.333	15778
879.461	15603
879.588	15587
879.715	15751
879.842	15842
879.97	15610
880.097	15424
880.224	15306
880.351	15466
880.478	15382
880.605	15367
880.732	15397
880.859	15671
880.986	15458
881.112	15469
881.239	15367
881.366	15173
881.493	15089
881.619	15081
881.746	15013
881.872	15009
881.999	15039
882.125	14998
882.252	15097
882.378	15176
882.505	15252
882.631	15013
882.757	14895
882.883	14929
883.01	14963
883.136	14849
883.262	14807
883.388	14727
883.514	14933
883.64	15009
883.766	14800
883.892	14708
884.018	14735
884.143	14906
884.269	14910
884.395	14606
884.52	14610
884.646	14606
884.772	14545
884.897	14530
885.023	14579
885.148	14708
885.274	14773
885.399	14606
885.524	14594
885.65	14587
885.775	14651
885.9	14514
886.025	14754
886.15	14621
886.275	14583
886.4	14590
886.525	14598
886.65	14533
886.775	14499
886.9	14804
887.025	14887
887.149	14530
887.274	14419
887.399	14377
887.523	14423
887.648	14370
887.773	14275
887.897	14511
888.021	14469
888.146	14328
888.27	14446
888.395	14568
888.519	14450
888.643	14431
888.767	14476
888.891	14427
889.015	14210
889.139	14298
889.263	14240
889.387	14431
889.511	14457
889.635	14412
889.759	14256
889.883	14263
890.006	14320
890.13	14374
890.254	14221
890.377	14282
890.501	14145
890.624	14088
890.748	14176
890.871	14039
890.995	13955
891.118	13913
891.241	13993
891.364	13978
891.488	14065
891.611	13947
891.734	13955
891.857	14119
891.98	14027
892.103	14012
892.226	14024
892.349	13947
892.471	13753
892.594	13871
892.717	13986
892.839	14001
892.962	14039
893.085	14058
893.207	13928
893.33	13845
893.452	13936
893.575	14031
893.697	13883
893.819	14119
893.941	14119
894.064	14134
894.186	14005
894.308	13913
894.43	14161
894.552	14263
894.674	14149
894.796	14031
894.918	13989
895.04	13986
895.161	14191
895.283	14115
895.405	14046
895.526	14092
895.648	14096
895.769	14050
895.891	14244
896.012	14191
896.134	14294
896.255	14111
896.376	14096
896.498	14153
896.619	14187
896.74	14103
896.861	14259
896.982	14450
897.103	14629
897.224	14503
897.345	14366
897.466	14332
897.587	14328
897.708	14499
897.828	14396
897.949	14408
898.07	14263
898.19	14389
898.311	14606
898.431	14434
898.552	14469
898.672	14632
898.792	14530
898.913	14602
899.033	14415
899.153	14332
899.273	14324
899.393	14370
899.513	14393
899.633	14252
899.753	14454
899.873	14343
899.993	14324
900.113	14343
900.232	14290
900.352	14294
900.472	14240
900.591	14168
900.711	14237
900.83	14278
900.95	14396
901.069	14427
901.189	14180
901.308	13970
901.427	13879
901.546	13887
901.665	13887
901.784	13913
901.904	13818
902.023	13685
902.141	13514
902.26	13415
902.379	13613
902.498	13362
902.617	13468
902.735	13438
902.854	13529
902.973	13335
903.091	13190
903.21	13255
903.328	13168
903.446	13198
903.565	12977
903.683	13095
903.801	12966
903.919	13012
904.038	12935
904.156	12848
904.274	12905
904.392	12894
904.51	12886
904.627	12844
904.745	12939
904.863	12909
904.981	12741
905.098	12604
905.216	12585
905.334	12585
905.451	12471
905.569	12506
905.686	12536
905.803	12513
905.921	12372
906.038	12464
906.155	12407
906.272	12292
906.389	12342
906.506	12098
906.623	12144
906.74	12167
906.857	11988
906.974	12041
907.091	12254
907.208	12285
907.324	12190
907.441	12068
907.557	11893
907.674	11885
907.79	11745
907.907	11821
908.023	11965
908.139	11821
908.256	11794
908.372	11832
908.488	11817
908.604	11714
908.72	11615
908.836	11596
908.952	11611
909.068	11649
909.184	11764
909.3	11653
909.415	11688
909.531	11657
909.647	11493
909.762	11520
909.878	11440
909.993	11471
910.108	11410
910.224	11395
910.339	11429
910.454	11391
910.57	11307
910.685	11220
910.8	11509
910.915	11448
911.03	11269
911.145	11185
911.259	11151
911.374	11159
911.489	11041
911.604	11018
911.718	10904
911.833	10953
911.947	10786
912.062	10675
912.176	10927
912.291	10896
912.405	10869
912.519	11075
912.633	11071
912.748	10968
912.862	10885
912.976	10748
913.09	10744
913.204	10679
913.318	10797
913.431	10812
913.545	10809
913.659	10904
913.772	10771
913.886	10752
914	10698
914.113	10740
914.226	10828
914.34	10767
914.453	10607
914.566	10694
914.68	10569
914.793	10523
914.906	10440
915.019	10280
915.132	10310
915.245	10398
915.358	10363
915.47	10455
915.583	10428
915.696	10451
915.809	10611
915.921	10531
916.034	10329
916.146	10287
916.259	10394
916.371	10428
916.483	10500
916.595	10257
916.708	10322
916.82	10402
916.932	10303
917.044	10272
917.156	10291
917.268	10196
917.38	10196
917.491	10188
917.603	10204
917.715	10287
917.826	10318
917.938	10310
918.049	10139
918.161	10249
918.272	10310
918.384	10371
918.495	10272
918.606	10093
918.717	10090
918.828	10082
918.939	10177
919.05	10059
919.161	10063
919.272	9888
919.383	9983
919.494	10158
919.604	10325
919.715	10074
919.826	9956
919.936	10177
920.047	10223
920.157	10124
920.267	10363
920.378	10268
920.488	10143
920.598	10238
920.708	10485
920.818	10333
920.928	10329
921.038	10466
921.148	10432
921.258	10169
921.368	10051
921.477	10063
921.587	9930
921.697	9926
921.806	10029
921.916	9865
922.025	9740
922.134	9686
922.244	9576
922.353	9728
922.462	9618
922.571	9526
922.68	9477
922.789	9378
922.898	9393
923.007	9359
923.116	9454
923.224	9389
923.333	9294
923.442	9260
923.55	9233
923.659	9306
923.767	9310
923.876	9230
923.984	9401
924.092	9249
924.201	9169
924.309	9256
924.417	9298
924.525	9142
924.633	9294
924.741	10025
924.849	9017
924.956	9165
925.064	9051
925.172	9001
925.279	9001
925.387	9036
925.494	8963
925.602	9207
925.709	9081
925.816	8937
925.924	9047
926.031	9188
926.138	9013
926.245	9093
926.352	8914
926.459	9066
926.566	9195
926.673	9043
926.779	8887
926.886	8967
926.993	8750
927.099	8750
927.206	8724
927.312	8724
927.419	8800
927.525	8788
927.631	8735
927.737	8689
927.843	8674
927.95	8549
928.056	8613
928.162	8632
928.267	8735
928.373	9260
928.479	8781
928.585	8476
928.69	8648
928.796	8739
928.901	8625
929.007	8473
929.112	8594
929.218	8560
929.323	8488
929.428	8484
929.533	8629
929.638	8434
929.743	8450
929.848	8575
929.953	8484
930.058	8400
930.163	8225
930.267	8259
930.372	8476
930.477	8187
930.581	8488
930.685	8332
930.79	8134
930.894	8252
930.998	8176
931.103	8336
931.207	7936
931.311	7947
931.415	7833
931.519	7666
931.623	7681
