Data from test_V78500241_434.txt Node
Date: Fri Mar 25 14:36:44 CST 2022
User: usil
Spectrometer: V785-0024
Trigger mode: 0
Integration Time (sec): 4.000000E-1
Scans to average: 1
Nonlinearity correction enabled: false
Boxcar width: 0
Storing dark spectrum: false
XAxis mode: Wavelengths
Number of Pixels in Spectrum: 1024
>>>>>Begin Spectral Data<<<<<
801.071	26590
801.214	26461
801.356	26298
801.499	26130
801.641	26027
801.783	25959
801.926	26107
802.068	25978
802.211	25932
802.353	25868
802.496	25613
802.638	25438
802.78	25586
802.923	25396
803.065	25411
803.208	25476
803.35	25590
803.492	25666
803.635	25696
803.777	25548
803.919	25518
804.061	25936
804.204	25772
804.346	25388
804.488	25381
804.63	25483
804.773	25438
804.915	25460
805.057	25647
805.199	25479
805.341	25537
805.483	25521
805.626	25632
805.768	25468
805.91	25655
806.052	25544
806.194	25441
806.336	25635
806.478	25487
806.62	25483
806.762	25609
806.904	25887
807.046	25974
807.188	25871
807.33	25963
807.472	26031
807.614	25921
807.756	25845
807.898	25776
808.04	25632
808.182	25674
808.324	25700
808.465	25750
808.607	25864
808.749	26016
808.891	26138
809.033	26233
809.174	26267
809.316	25818
809.458	25982
809.6	25982
809.741	26088
809.883	26069
810.025	26267
810.166	26199
810.308	26107
810.45	26058
810.591	26138
810.733	25921
810.875	26054
811.016	25913
811.158	25818
811.299	25909
811.441	26046
811.582	26020
811.724	25875
811.865	25811
812.007	25849
812.148	25925
812.29	25932
812.431	25963
812.573	26225
812.714	26263
812.855	26415
812.997	26484
813.138	26503
813.279	26404
813.421	26377
813.562	26415
813.703	26138
813.845	26020
813.986	25700
814.127	25510
814.268	25358
814.41	25487
814.551	25350
814.692	25514
814.833	25320
814.974	25308
815.115	25331
815.256	25198
815.397	25129
815.539	25187
815.68	25126
815.821	25122
815.962	25118
816.103	25228
816.244	24954
816.385	24817
816.526	24913
816.666	24700
816.807	24589
816.948	24654
817.089	24551
817.23	24566
817.371	24601
817.512	24559
817.653	24551
817.793	24604
817.934	24486
818.075	24475
818.216	24551
818.356	24464
818.497	24353
818.638	24125
818.778	24285
818.919	24076
819.06	24292
819.2	24292
819.341	24452
819.481	24315
819.622	24597
819.762	24905
819.903	24768
820.043	24650
820.184	24661
820.324	24528
820.465	24544
820.605	24502
820.746	24582
820.886	24380
821.026	24388
821.167	24486
821.307	24608
821.447	24357
821.588	24346
821.728	24117
821.868	24011
822.008	23874
822.149	23863
822.289	23851
822.429	23562
822.569	23661
822.709	23566
822.849	23436
822.99	23353
823.13	23292
823.27	23299
823.41	23155
823.55	23052
823.69	23018
823.83	23166
823.97	22953
824.11	22790
824.25	22858
824.389	22919
824.529	22904
824.669	22869
824.809	23003
824.949	22980
825.089	23018
825.228	22972
825.368	22748
825.508	22744
825.648	22611
825.787	22763
825.927	22824
826.067	22733
826.206	22729
826.346	22637
826.485	22782
826.625	22691
826.765	22759
826.904	22599
827.044	22470
827.183	22436
827.323	22363
827.462	22402
827.601	22352
827.741	22352
827.88	22413
828.02	22246
828.159	22295
828.298	22341
828.437	22474
828.577	22257
828.716	22432
828.855	22306
828.994	22154
829.134	22055
829.273	22162
829.412	22048
829.551	22013
829.69	22040
829.829	22059
829.968	22048
830.107	22063
830.246	22044
830.385	22048
830.524	21960
830.663	21827
830.802	21686
830.941	21633
831.08	21557
831.219	21515
831.357	21671
831.496	21876
831.635	21591
831.774	21515
831.913	21412
832.051	21447
832.19	21389
832.329	21420
832.467	21268
832.606	21138
832.744	21416
832.883	21272
833.022	21340
833.16	21294
833.299	21355
833.437	21283
833.576	21424
833.714	21374
833.852	21405
833.991	21408
834.129	21378
834.267	21367
834.406	21226
834.544	21294
834.682	21241
834.821	21260
834.959	21393
835.097	21272
835.235	21313
835.373	21188
835.511	21294
835.65	21188
835.788	21188
835.926	21013
836.064	20986
836.202	21096
836.34	21138
836.478	21260
836.615	21100
836.753	20956
836.891	21169
837.029	21165
837.167	21017
837.305	21055
837.443	21089
837.58	21001
837.718	21131
837.856	20994
837.993	20944
838.131	21051
838.269	20887
838.406	20921
838.544	20872
838.681	20518
838.819	20655
838.956	20438
839.094	20393
839.231	20434
839.369	20651
839.506	20963
839.643	20629
839.781	20549
839.918	20526
840.055	20332
840.193	20332
840.33	20347
840.467	20446
840.604	20374
840.742	20541
840.879	20145
841.016	20237
841.153	20244
841.29	20514
841.427	20332
841.564	20396
841.701	20366
841.838	20199
841.975	20157
842.112	20252
842.249	20046
842.385	20077
842.522	20271
842.659	20157
842.796	19989
842.933	20050
843.069	20096
843.206	19955
843.343	20077
843.479	20031
843.616	20103
843.752	19860
843.889	19871
844.025	19951
844.162	19852
844.298	19917
844.435	19811
844.571	19909
844.708	19890
844.844	19997
844.98	19906
845.117	19944
845.253	19715
845.389	19677
845.525	19750
845.661	19685
845.798	19605
845.934	19757
846.07	19487
846.206	19662
846.342	19693
846.478	19624
846.614	19327
846.75	19316
846.886	19316
847.022	19422
847.158	19339
847.294	19282
847.429	19403
847.565	19179
847.701	19476
847.837	19019
847.972	19027
848.108	19008
848.244	19118
848.379	18905
848.515	18882
848.65	18848
848.786	18962
848.921	18962
849.057	18989
849.192	19015
849.328	18840
849.463	18806
849.598	18913
849.734	18901
849.869	18623
850.004	18623
850.14	18635
850.275	18604
850.41	18589
850.545	18551
850.68	18612
850.815	18540
850.95	18578
851.085	18882
851.22	18726
851.355	18635
851.49	18559
851.625	18574
851.76	18490
851.895	18460
852.03	18445
852.165	18517
852.299	18563
852.434	18741
852.569	18540
852.703	18642
852.838	18563
852.973	18726
853.107	18585
853.242	18506
853.376	18448
853.511	18330
853.645	18338
853.78	18502
853.914	18464
854.048	18315
854.183	18414
854.317	18365
854.451	18555
854.585	18437
854.72	18384
854.854	18589
854.988	18388
855.122	18426
855.256	18319
855.39	18445
855.524	18574
855.658	18486
855.792	18460
855.926	18460
856.06	18361
856.194	18593
856.327	18460
856.461	18429
856.595	18384
856.729	18460
856.862	18563
856.996	18418
857.13	18350
857.263	18544
857.397	18582
857.53	18422
857.664	18418
857.797	18414
857.931	18506
858.064	18372
858.197	18437
858.331	18319
858.464	18330
858.597	18270
858.731	18353
858.864	18426
858.997	18414
859.13	18353
859.263	18361
859.396	18448
859.529	18372
859.662	18330
859.795	18327
859.928	18384
860.061	18517
860.194	18521
860.327	18407
860.46	18350
860.592	18498
860.725	18528
860.858	18422
860.99	18304
861.123	18281
861.256	18292
861.388	18399
861.521	19133
861.653	18213
861.786	18133
861.918	18247
862.05	18334
862.183	18334
862.315	18376
862.447	18464
862.58	18410
862.712	18053
862.844	18060
862.976	18273
863.108	18064
863.24	18547
863.372	18038
863.504	18106
863.636	18060
863.768	18121
863.9	17965
864.032	18049
864.164	18117
864.296	18068
864.428	18049
864.559	18201
864.691	18060
864.823	18095
864.954	18022
865.086	18102
865.217	18019
865.349	17908
865.48	17946
865.612	17901
865.743	18220
865.875	17965
866.006	17996
866.137	18068
866.269	17954
866.4	17973
866.531	18015
866.662	17843
866.793	17779
866.924	17942
867.055	17980
867.186	17908
867.317	17855
867.448	17961
867.579	17950
867.71	17878
867.841	17824
867.972	17965
868.103	17931
868.233	17954
868.364	17889
868.495	18060
868.625	18155
868.756	18323
868.886	18079
869.017	18174
869.147	18285
869.278	18369
869.408	18201
869.539	18136
869.669	18311
869.799	18209
869.929	18232
870.06	18292
870.19	18426
870.32	18479
870.45	18536
870.58	18559
870.71	18681
870.84	18639
870.97	18574
871.1	18536
871.23	18635
871.36	18817
871.489	18669
871.619	18661
871.749	18654
871.879	18688
872.008	18958
872.138	18730
872.267	18859
872.397	18722
872.526	18502
872.656	18536
872.785	18528
872.915	18753
873.044	18856
873.173	18787
873.303	18833
873.432	18863
873.561	18939
873.69	18730
873.819	18795
873.948	18787
874.077	18768
874.206	18757
874.335	18741
874.464	18897
874.593	19050
874.722	19076
874.851	19110
874.979	19152
875.108	19171
875.237	18996
875.365	18985
875.494	18989
875.623	19179
875.751	19091
875.88	19076
876.008	19270
876.136	19335
876.265	19472
876.393	19480
876.521	19537
876.65	19525
876.778	19453
876.906	19495
877.034	19491
877.162	19441
877.29	19430
877.418	19529
877.546	19491
877.674	19426
877.802	19506
877.93	19415
878.058	19400
878.185	19232
878.313	19460
878.441	19480
878.568	19365
878.696	19381
878.824	19457
878.951	19556
879.079	19685
879.206	19784
879.333	19624
879.461	19460
879.588	19559
879.715	19723
879.842	19708
879.97	19453
880.097	19373
880.224	19259
880.351	19346
880.478	19369
880.605	19350
880.732	19449
880.859	19518
880.986	19297
881.112	19225
881.239	19304
881.366	19141
881.493	18943
881.619	18867
881.746	19065
881.872	18977
881.999	18939
882.125	18939
882.252	18905
882.378	18920
882.505	18985
882.631	18958
882.757	18749
882.883	18703
883.01	18871
883.136	18616
883.262	18646
883.388	18570
883.514	18753
883.64	18696
883.766	18639
883.892	18372
884.018	18540
884.143	18726
884.269	18677
884.395	18426
884.52	18277
884.646	18414
884.772	18384
884.897	18323
885.023	18266
885.148	18448
885.274	18547
885.399	18361
885.524	18384
885.65	18418
885.775	18410
885.9	18292
886.025	18418
886.15	18376
886.275	18289
886.4	18308
886.525	18304
886.65	18304
886.775	18311
886.9	18448
887.025	18521
887.149	18346
887.274	18186
887.399	18171
887.523	18095
887.648	18072
887.773	18003
887.897	18148
888.021	18102
888.146	18076
888.27	18152
888.395	18102
888.519	18060
888.643	18133
888.767	18270
888.891	18022
889.015	17996
889.139	17927
889.263	17946
889.387	18053
889.511	18144
889.635	18060
889.759	17939
889.883	17973
890.006	17942
890.13	17961
890.254	17752
890.377	17855
890.501	17714
890.624	17642
890.748	17684
890.871	17611
890.995	17573
891.118	17535
891.241	17600
891.364	17539
891.488	17672
891.611	17570
891.734	17577
891.857	17649
891.98	17535
892.103	17577
892.226	17600
892.349	17486
892.471	17433
892.594	17520
892.717	17729
892.839	17493
892.962	17600
893.085	17592
893.207	17455
893.33	17402
893.452	17493
893.575	17414
893.697	17433
893.819	17627
893.941	17729
894.064	17638
894.186	17524
894.308	17433
894.43	17551
894.552	17684
894.674	17604
894.796	17402
894.918	17512
895.04	17528
895.161	17543
895.283	17535
895.405	17524
895.526	17452
895.648	17604
895.769	17596
895.891	17695
896.012	17718
896.134	17764
896.255	17551
896.376	17535
896.498	17627
896.619	17642
896.74	17691
896.861	17665
896.982	17961
897.103	18076
897.224	17935
897.345	17821
897.466	17691
897.587	17946
897.708	17927
897.828	17813
897.949	17798
898.07	17627
898.19	17798
898.311	17920
898.431	17783
898.552	17904
898.672	17897
898.792	17885
898.913	17767
899.033	17737
899.153	17680
899.273	17554
899.393	17543
899.513	17619
899.633	17623
899.753	17619
899.873	17471
899.993	17680
900.113	17566
900.232	17600
900.352	17573
900.472	17532
900.591	17410
900.711	17493
900.83	17303
900.95	17551
901.069	17539
901.189	17334
901.308	17181
901.427	17041
901.546	17079
901.665	17178
901.784	17064
901.904	16938
902.023	16812
902.141	16706
902.26	16634
902.379	16641
902.498	16550
902.617	16535
902.735	16668
902.854	16527
902.973	16535
903.091	16356
903.21	16253
903.328	16303
903.446	16158
903.565	16093
903.683	16139
903.801	15884
903.919	16131
904.038	15941
904.156	15812
904.274	15876
904.392	15869
904.51	15892
904.627	15892
904.745	15926
904.863	15892
904.981	15720
905.098	15530
905.216	15473
905.334	15507
905.451	15580
905.569	15431
905.686	15599
905.803	15599
905.921	15416
906.038	15401
906.155	15302
906.272	15237
906.389	15173
906.506	15066
906.623	15135
906.74	15009
906.857	15036
906.974	14979
907.091	15165
907.208	15176
907.324	15138
907.441	15024
907.557	14800
907.674	14769
907.79	14796
907.907	14819
908.023	14868
908.139	14857
908.256	14743
908.372	14689
908.488	14674
908.604	14526
908.72	14541
908.836	14518
908.952	14400
909.068	14480
909.184	14583
909.3	14503
909.415	14564
909.531	14507
909.647	14214
909.762	14202
909.878	14218
909.993	14214
910.108	14210
910.224	14187
910.339	14259
910.454	14088
910.57	14096
910.685	14058
910.8	14294
910.915	14244
911.03	14157
911.145	13902
911.259	13993
911.374	13776
911.489	13803
911.604	13734
911.718	13674
911.833	13616
911.947	13495
912.062	13460
912.176	13556
912.291	13624
912.405	13529
912.519	13799
912.633	13811
912.748	13662
912.862	13537
912.976	13514
913.09	13297
913.204	13430
913.318	13472
913.431	13529
913.545	13518
913.659	13616
913.772	13377
913.886	13285
914	13240
914.113	13518
914.226	13384
914.34	13354
914.453	13202
914.566	13350
914.68	13187
914.793	13171
914.906	13053
915.019	12939
915.132	12935
915.245	12932
915.358	12981
915.47	12856
915.583	13034
915.696	13091
915.809	13156
915.921	13057
916.034	12928
916.146	12882
916.259	12894
916.371	12970
916.483	12932
916.595	12776
916.708	12871
916.82	12802
916.932	12928
917.044	12848
917.156	12821
917.268	12688
917.38	12665
917.491	12722
917.603	12711
917.715	12833
917.826	12722
917.938	12650
918.049	12506
918.161	12642
918.272	12711
918.384	12798
918.495	12715
918.606	12467
918.717	12547
918.828	12460
918.939	12574
919.05	12448
919.161	12422
919.272	12285
919.383	12315
919.494	12490
919.604	12764
919.715	12502
919.826	12410
919.936	12437
920.047	12456
920.157	12456
920.267	12673
920.378	12555
920.488	12407
920.598	12688
920.708	12798
920.818	12646
920.928	12650
921.038	12802
921.148	12585
921.258	12559
921.368	12361
921.477	12213
921.587	12178
921.697	12102
921.806	12289
921.916	12079
922.025	11969
922.134	11904
922.244	11859
922.353	11973
922.462	11779
922.571	11771
922.68	11615
922.789	11543
922.898	11589
923.007	11562
923.116	11627
923.224	11520
923.333	11436
923.442	11459
923.55	11402
923.659	11425
923.767	11455
923.876	11349
923.984	11505
924.092	11349
924.201	11395
924.309	11349
924.417	11349
924.525	11288
924.633	11250
924.741	12232
924.849	11105
924.956	11311
925.064	11136
925.172	10961
925.279	11086
925.387	11075
925.494	11178
925.602	11197
925.709	11098
925.816	11067
925.924	11121
926.031	11166
926.138	11071
926.245	11052
926.352	10987
926.459	11086
926.566	11201
926.673	10995
926.779	10900
926.886	10889
926.993	10771
927.099	10733
927.206	10721
927.312	10679
927.419	10725
927.525	10702
927.631	10763
927.737	10675
927.843	10569
927.95	10527
928.056	10569
928.162	10580
928.267	10672
928.373	11178
928.479	10630
928.585	10466
928.69	10641
928.796	10588
928.901	10489
929.007	10356
929.112	10512
929.218	10462
929.323	10382
929.428	10318
929.533	10485
929.638	10367
929.743	10360
929.848	10352
929.953	10322
930.058	10200
930.163	10036
930.267	10059
930.372	10234
930.477	10093
930.581	10249
930.685	10097
930.79	9949
930.894	9926
930.998	9892
931.103	10048
931.207	9732
931.311	9644
931.415	9564
931.519	9408
931.623	9469
