Data from test_V78500241_1886.txt Node
Date: Fri Mar 25 14:46:50 CST 2022
User: usil
Spectrometer: V785-0024
Trigger mode: 0
Integration Time (sec): 4.000000E-1
Scans to average: 1
Nonlinearity correction enabled: false
Boxcar width: 0
Storing dark spectrum: false
XAxis mode: Wavelengths
Number of Pixels in Spectrum: 1024
>>>>>Begin Spectral Data<<<<<
801.071	22139
801.214	21987
801.356	21732
801.499	21660
801.641	21511
801.783	21447
801.926	21466
802.068	21443
802.211	21397
802.353	21294
802.496	21047
802.638	21036
802.78	20967
802.923	20830
803.065	20758
803.208	20887
803.35	20815
803.492	20899
803.635	20933
803.777	20845
803.919	20857
804.061	21116
804.204	20785
804.346	20883
804.488	20739
804.63	20701
804.773	20697
804.915	20872
805.057	20861
805.199	20720
805.341	20902
805.483	20902
805.626	20838
805.768	20819
805.91	20762
806.052	20667
806.194	20746
806.336	20781
806.478	20807
806.62	20686
806.762	20838
806.904	20944
807.046	21127
807.188	21089
807.33	21028
807.472	21070
807.614	20971
807.756	20963
807.898	20861
808.04	20842
808.182	20769
808.324	20849
808.465	20933
808.607	21100
808.749	21249
808.891	21214
809.033	21329
809.174	21089
809.316	21051
809.458	21142
809.6	21017
809.741	21047
809.883	21226
810.025	21332
810.166	21306
810.308	21332
810.45	21279
810.591	21100
810.733	21009
810.875	20895
811.016	20887
811.158	20781
811.299	21009
811.441	20971
811.582	21051
811.724	20834
811.865	20819
812.007	20750
812.148	20948
812.29	21001
812.431	21024
812.573	21184
812.714	21306
812.855	21386
812.997	21355
813.138	21557
813.279	21408
813.421	21504
813.562	21374
813.703	21161
813.845	21005
813.986	20777
814.127	20560
814.268	20465
814.41	20480
814.551	20492
814.692	20499
814.833	20415
814.974	20347
815.115	20446
815.256	20282
815.397	20233
815.539	20298
815.68	20138
815.821	20054
815.962	20214
816.103	20149
816.244	19974
816.385	19986
816.526	19818
816.666	19658
816.807	19559
816.948	19723
817.089	19799
817.23	19666
817.371	19548
817.512	19537
817.653	19491
817.793	19559
817.934	19525
818.075	19624
818.216	19643
818.356	19544
818.497	19381
818.638	19297
818.778	19240
818.919	19225
819.06	19320
819.2	19495
819.341	19426
819.481	19468
819.622	19571
819.762	19769
819.903	19693
820.043	19567
820.184	19582
820.324	19556
820.465	19620
820.605	19563
820.746	19590
820.886	19381
821.026	19480
821.167	19403
821.307	19586
821.447	19377
821.588	19362
821.728	19251
821.868	19133
822.008	18993
822.149	19069
822.289	18913
822.429	18715
822.569	18654
822.709	18623
822.849	18414
822.99	18521
823.13	18471
823.27	18292
823.41	18327
823.55	18201
823.69	18285
823.83	18205
823.97	18186
824.11	18064
824.25	17931
824.389	18167
824.529	18064
824.669	18095
824.809	18152
824.949	18167
825.089	18163
825.228	18152
825.368	17824
825.508	17817
825.648	17843
825.787	17878
825.927	17794
826.067	17798
826.206	17695
826.346	17824
826.485	17824
826.625	17783
826.765	17843
826.904	17718
827.044	17623
827.183	17566
827.323	17524
827.462	17615
827.601	17520
827.741	17463
827.88	17467
828.02	17349
828.159	17493
828.298	17573
828.437	17596
828.577	17379
828.716	17604
828.855	17444
828.994	17296
829.134	17185
829.273	17227
829.412	17273
829.551	17113
829.69	17258
829.829	17391
829.968	17311
830.107	17341
830.246	17364
830.385	17200
830.524	17208
830.663	17094
830.802	17067
830.941	16873
831.08	16927
831.219	16915
831.357	16911
831.496	17014
831.635	16843
831.774	16790
831.913	16805
832.051	16687
832.19	16577
832.329	16786
832.467	16656
832.606	16603
832.744	16580
832.883	16596
833.022	16436
833.16	16672
833.299	16523
833.437	16550
833.576	16596
833.714	16527
833.852	16626
833.991	16698
834.129	16664
834.267	16774
834.406	16618
834.544	16641
834.682	16675
834.821	16626
834.959	16824
835.097	16519
835.235	16698
835.373	16611
835.511	16637
835.65	16554
835.788	16462
835.926	16352
836.064	16375
836.202	16474
836.34	16538
836.478	16588
836.615	16565
836.753	16493
836.891	16694
837.029	16596
837.167	16561
837.305	16440
837.443	16382
837.58	16341
837.718	16478
837.856	16436
837.993	16348
838.131	16527
838.269	16276
838.406	16405
838.544	16223
838.681	16051
838.819	16082
838.956	16006
839.094	15956
839.231	16055
839.369	16036
839.506	16344
839.643	16306
839.781	15888
839.918	15953
840.055	15911
840.193	16006
840.33	15880
840.467	15934
840.604	15987
840.742	16238
840.879	15804
841.016	15861
841.153	15861
841.29	16093
841.427	15994
841.564	16010
841.701	15918
841.838	15987
841.975	15869
842.112	15918
842.249	15778
842.385	15751
842.522	15956
842.659	15778
842.796	15644
842.933	15736
843.069	15675
843.206	15682
843.343	15861
843.479	15720
843.616	15743
843.752	15576
843.889	15462
844.025	15770
844.162	15401
844.298	15705
844.435	15519
844.571	15492
844.708	15629
844.844	15637
844.98	15660
845.117	15682
845.253	15439
845.389	15336
845.525	15424
845.661	15393
845.798	15374
845.934	15435
846.07	15424
846.206	15355
846.342	15298
846.478	15363
846.614	15226
846.75	15116
846.886	15058
847.022	15173
847.158	15116
847.294	15195
847.429	15211
847.565	15085
847.701	15374
847.837	14921
847.972	14823
848.108	14941
848.244	14830
848.379	14792
848.515	14769
848.65	14617
848.786	14667
848.921	14712
849.057	14830
849.192	14834
849.328	14701
849.463	14754
849.598	14689
849.734	14541
849.869	14617
850.004	14423
850.14	14530
850.275	14511
850.41	14328
850.545	14427
850.68	14332
850.815	14419
850.95	14473
851.085	14655
851.22	14575
851.355	14583
851.49	14446
851.625	14461
851.76	14404
851.895	14408
852.03	14267
852.165	14457
852.299	14446
852.434	14541
852.569	14461
852.703	14431
852.838	14530
852.973	14587
853.107	14613
853.242	14442
853.376	14374
853.511	14313
853.645	14191
853.78	14404
853.914	14328
854.048	14286
854.183	14278
854.317	14313
854.451	14590
854.585	14256
854.72	14339
854.854	14355
854.988	14259
855.122	14313
855.256	14126
855.39	14393
855.524	14431
855.658	14305
855.792	14450
855.926	14339
856.06	14438
856.194	14465
856.327	14332
856.461	14298
856.595	14282
856.729	14374
856.862	14381
856.996	14313
857.13	14328
857.263	14507
857.397	14518
857.53	14404
857.664	14336
857.797	14385
857.931	14469
858.064	14362
858.197	14473
858.331	14400
858.464	14328
858.597	14225
858.731	14412
858.864	14434
858.997	14389
859.13	14393
859.263	14438
859.396	14495
859.529	14313
859.662	14278
859.795	14256
859.928	14267
860.061	14530
860.194	14526
860.327	14526
860.46	14336
860.592	14396
860.725	14419
860.858	14457
860.99	14400
861.123	14240
861.256	14298
861.388	14317
861.521	14975
861.653	14252
861.786	14221
861.918	14298
862.05	14256
862.183	14355
862.315	14324
862.447	14389
862.58	14320
862.712	14237
862.844	14054
862.976	14183
863.108	14138
863.24	14454
863.372	14077
863.504	14134
863.636	14115
863.768	14145
863.9	14107
864.032	14008
864.164	14138
864.296	14199
864.428	14240
864.559	14237
864.691	14294
864.823	14107
864.954	14103
865.086	14183
865.217	14111
865.349	14005
865.48	14073
865.612	14046
865.743	14332
865.875	14130
866.006	14107
866.137	14176
866.269	14062
866.4	14073
866.531	14202
866.662	14065
866.793	14016
866.924	14043
867.055	14168
867.186	14054
867.317	14073
867.448	13963
867.579	14084
867.71	13989
867.841	13887
867.972	14065
868.103	14149
868.233	14180
868.364	14103
868.495	14218
868.625	14389
868.756	14484
868.886	14324
869.017	14400
869.147	14522
869.278	14438
869.408	14324
869.539	14450
869.669	14442
869.799	14408
869.929	14484
870.06	14564
870.19	14610
870.32	14590
870.45	14716
870.58	14735
870.71	14899
870.84	14815
870.97	14754
871.1	14762
871.23	15070
871.36	15017
871.489	14853
871.619	14944
871.749	14807
871.879	14971
872.008	15043
872.138	14979
872.267	15005
872.397	14811
872.526	14769
872.656	14758
872.785	14857
872.915	14975
873.044	15058
873.173	15005
873.303	15017
873.432	15017
873.561	15047
873.69	14967
873.819	15062
873.948	15058
874.077	15013
874.206	14880
874.335	14956
874.464	15161
874.593	15275
874.722	15199
874.851	15268
874.979	15351
875.108	15374
875.237	15252
875.365	15157
875.494	15249
875.623	15351
875.751	15233
875.88	15428
876.008	15485
876.136	15500
876.265	15732
876.393	15994
876.521	15854
876.65	15774
876.778	15762
876.906	15743
877.034	15663
877.162	15663
877.29	15679
877.418	15732
877.546	15671
877.674	15842
877.802	15660
877.93	15713
878.058	15743
878.185	15663
878.313	15724
878.441	15682
878.568	15614
878.696	15564
878.824	15770
878.951	15812
879.079	15949
879.206	16029
879.333	15953
879.461	15755
879.588	15861
879.715	15956
879.842	16013
879.97	15854
880.097	15591
880.224	15587
880.351	15682
880.478	15603
880.605	15648
880.732	15515
880.859	15918
880.986	15584
881.112	15641
881.239	15492
881.366	15294
881.493	15233
881.619	15264
881.746	15180
881.872	15218
881.999	15211
882.125	15176
882.252	15264
882.378	15291
882.505	15435
882.631	15165
882.757	15062
882.883	15066
883.01	15028
883.136	15028
883.262	14902
883.388	14880
883.514	15127
883.64	15013
883.766	15024
883.892	14830
884.018	14937
884.143	15017
884.269	15157
884.395	14883
884.52	14674
884.646	14788
884.772	14644
884.897	14708
885.023	14811
885.148	14906
885.274	14982
885.399	14899
885.524	14785
885.65	14777
885.775	14765
885.9	14796
886.025	14811
886.15	14667
886.275	14754
886.4	14625
886.525	14834
886.65	14724
886.775	14765
886.9	14838
887.025	14998
887.149	14868
887.274	14560
887.399	14503
887.523	14587
887.648	14427
887.773	14469
887.897	14632
888.021	14621
888.146	14568
888.27	14682
888.395	14754
888.519	14769
888.643	14682
888.767	14720
888.891	14530
889.015	14461
889.139	14640
889.263	14347
889.387	14495
889.511	14674
889.635	14537
889.759	14476
889.883	14412
890.006	14419
890.13	14541
890.254	14385
890.377	14438
890.501	14366
890.624	14240
890.748	14290
890.871	14172
890.995	14103
891.118	14092
891.241	14096
891.364	14149
891.488	14199
891.611	14168
891.734	14100
891.857	14309
891.98	14157
892.103	14275
892.226	14244
892.349	14103
892.471	13982
892.594	14130
892.717	14069
892.839	14145
892.962	14142
893.085	14195
893.207	14153
893.33	14046
893.452	14157
893.575	14183
893.697	14119
893.819	14355
893.941	14427
894.064	14282
894.186	14096
894.308	14180
894.43	14244
894.552	14347
894.674	14233
894.796	14123
894.918	14145
895.04	14237
895.161	14305
895.283	14256
895.405	14233
895.526	14282
895.648	14298
895.769	14267
895.891	14347
896.012	14324
896.134	14244
896.255	14290
896.376	14309
896.498	14313
896.619	14263
896.74	14271
896.861	14355
896.982	14735
897.103	14785
897.224	14655
897.345	14571
897.466	14526
897.587	14499
897.708	14659
897.828	14613
897.949	14499
898.07	14431
898.19	14522
898.311	14667
898.431	14670
898.552	14716
898.672	14708
898.792	14750
898.913	14792
899.033	14648
899.153	14492
899.273	14393
899.393	14556
899.513	14492
899.633	14564
899.753	14545
899.873	14518
899.993	14629
900.113	14556
900.232	14621
900.352	14446
900.472	14461
900.591	14328
900.711	14419
900.83	14324
900.95	14393
901.069	14594
901.189	14427
901.308	14164
901.427	13997
901.546	14218
901.665	13982
901.784	14043
901.904	13940
902.023	13830
902.141	13696
902.26	13639
902.379	13727
902.498	13708
902.617	13533
902.735	13605
902.854	13658
902.973	13480
903.091	13369
903.21	13316
903.328	13388
903.446	13282
903.565	13263
903.683	13259
903.801	13057
903.919	13251
904.038	13118
904.156	13050
904.274	13015
904.392	12989
904.51	13004
904.627	13012
904.745	13031
904.863	13099
904.981	12741
905.098	12612
905.216	12696
905.334	12753
905.451	12703
905.569	12612
905.686	12669
905.803	12760
905.921	12448
906.038	12612
906.155	12452
906.272	12433
906.389	12521
906.506	12273
906.623	12251
906.74	12254
906.857	12171
906.974	12190
907.091	12369
907.208	12369
907.324	12369
907.441	12247
907.557	12003
907.674	11958
907.79	12045
907.907	11923
908.023	12019
908.139	12045
908.256	12015
908.372	11984
908.488	11878
908.604	11832
908.72	11805
908.836	11794
908.952	11733
909.068	11840
909.184	11920
909.3	11821
909.415	11855
909.531	11843
909.647	11558
909.762	11623
909.878	11497
909.993	11589
910.108	11558
910.224	11539
910.339	11539
910.454	11558
910.57	11398
910.685	11299
910.8	11661
910.915	11585
911.03	11417
911.145	11322
911.259	11284
911.374	11277
911.489	11239
911.604	11132
911.718	11071
911.833	11124
911.947	10999
912.062	10839
912.176	11060
912.291	10976
912.405	11037
912.519	11166
912.633	11208
912.748	11155
912.862	11014
912.976	10896
913.09	10820
913.204	10892
913.318	10885
913.431	10949
913.545	10900
913.659	11075
913.772	10877
913.886	10771
914	10729
914.113	10885
914.226	10942
914.34	10869
914.453	10694
914.566	10869
914.68	10763
914.793	10694
914.906	10573
915.019	10512
915.132	10462
915.245	10455
915.358	10489
915.47	10489
915.583	10558
915.696	10516
915.809	10740
915.921	10714
916.034	10436
916.146	10497
916.259	10436
916.371	10580
916.483	10538
916.595	10424
916.708	10493
916.82	10516
916.932	10436
917.044	10409
917.156	10360
917.268	10325
917.38	10413
917.491	10295
917.603	10398
917.715	10413
917.826	10443
917.938	10428
918.049	10223
918.161	10470
918.272	10451
918.384	10573
918.495	10462
918.606	10295
918.717	10158
918.828	10204
918.939	10249
919.05	10128
919.161	10265
919.272	10044
919.383	10143
919.494	10325
919.604	10447
919.715	10333
919.826	10200
919.936	10234
920.047	10265
920.157	10344
920.267	10405
920.378	10284
920.488	10219
920.598	10402
920.708	10554
920.818	10466
920.928	10375
921.038	10580
921.148	10599
921.258	10329
921.368	10162
921.477	10036
921.587	10082
921.697	9895
921.806	10109
921.916	9994
922.025	9823
922.134	9823
922.244	9785
922.353	9865
922.462	9720
922.571	9652
922.68	9504
922.789	9389
922.898	9523
923.007	9447
923.116	9538
923.224	9568
923.333	9450
923.442	9401
923.55	9329
923.659	9473
923.767	9397
923.876	9401
923.984	9469
924.092	9287
924.201	9378
924.309	9370
924.417	9355
924.525	9321
924.633	9397
924.741	10150
924.849	9093
924.956	9268
925.064	9138
925.172	9062
925.279	9119
925.387	9154
925.494	9165
925.602	9310
925.709	9226
925.816	9165
925.924	9116
926.031	9237
926.138	9150
926.245	9256
926.352	9112
926.459	9241
926.566	9192
926.673	9047
926.779	9062
926.886	8956
926.993	8921
927.099	8902
927.206	8868
927.312	8788
927.419	8902
927.525	8891
927.631	8910
927.737	8766
927.843	8739
927.95	8670
928.056	8697
928.162	8807
928.267	8853
928.373	9283
928.479	8834
928.585	8667
928.69	8739
928.796	8853
928.901	8674
929.007	8575
929.112	8750
929.218	8655
929.323	8602
929.428	8526
929.533	8629
929.638	8552
929.743	8552
929.848	8617
929.953	8610
930.058	8442
930.163	8377
930.267	8374
930.372	8484
930.477	8343
930.581	8552
930.685	8514
930.79	8271
930.894	8404
930.998	8294
931.103	8427
931.207	8096
931.311	8024
931.415	8012
931.519	7822
931.623	7734
