Data from test_V78500241_2063.txt Node
Date: Fri Mar 25 14:48:04 CST 2022
User: usil
Spectrometer: V785-0024
Trigger mode: 0
Integration Time (sec): 4.000000E-1
Scans to average: 1
Nonlinearity correction enabled: false
Boxcar width: 0
Storing dark spectrum: false
XAxis mode: Wavelengths
Number of Pixels in Spectrum: 1024
>>>>>Begin Spectral Data<<<<<
801.071	22143
801.214	22013
801.356	21880
801.499	21622
801.641	21542
801.783	21496
801.926	21424
802.068	21374
802.211	21283
802.353	21195
802.496	21112
802.638	20967
802.78	20956
802.923	20876
803.065	20792
803.208	20750
803.35	20830
803.492	20838
803.635	20880
803.777	20849
803.919	20853
804.061	21218
804.204	20925
804.346	20693
804.488	20670
804.63	20815
804.773	20807
804.915	20686
805.057	20716
805.199	20606
805.341	20701
805.483	20857
805.626	20823
805.768	20594
805.91	20845
806.052	20743
806.194	20716
806.336	20826
806.478	20769
806.62	20617
806.762	20830
806.904	20941
807.046	21123
807.188	20979
807.33	21135
807.472	21074
807.614	20990
807.756	21013
807.898	20807
808.04	20842
808.182	20845
808.324	20807
808.465	20944
808.607	20944
808.749	21119
808.891	21036
809.033	21329
809.174	21226
809.316	21096
809.458	21123
809.6	21093
809.741	21123
809.883	21001
810.025	21237
810.166	21275
810.308	21211
810.45	21203
810.591	21180
810.733	20941
810.875	20804
811.016	20876
811.158	20632
811.299	20929
811.441	20982
811.582	20971
811.724	20986
811.865	20891
812.007	20864
812.148	20838
812.29	20849
812.431	21058
812.573	21135
812.714	21241
812.855	21386
812.997	21462
813.138	21629
813.279	21481
813.421	21260
813.562	21321
813.703	21150
813.845	21039
813.986	20857
814.127	20590
814.268	20408
814.41	20473
814.551	20393
814.692	20347
814.833	20332
814.974	20313
815.115	20317
815.256	20305
815.397	20157
815.539	20161
815.68	20138
815.821	20092
815.962	20111
816.103	20100
816.244	20043
816.385	19833
816.526	19906
816.666	19693
816.807	19537
816.948	19655
817.089	19666
817.23	19609
817.371	19533
817.512	19537
817.653	19571
817.793	19502
817.934	19635
818.075	19556
818.216	19514
818.356	19567
818.497	19400
818.638	19263
818.778	19004
818.919	19213
819.06	19289
819.2	19441
819.341	19434
819.481	19373
819.622	19666
819.762	19693
819.903	19655
820.043	19502
820.184	19601
820.324	19624
820.465	19662
820.605	19544
820.746	19514
820.886	19453
821.026	19457
821.167	19491
821.307	19647
821.447	19422
821.588	19335
821.728	19247
821.868	19031
822.008	19004
822.149	18985
822.289	18867
822.429	18555
822.569	18589
822.709	18582
822.849	18353
822.99	18441
823.13	18426
823.27	18403
823.41	18323
823.55	18220
823.69	18330
823.83	18273
823.97	18076
824.11	17999
824.25	17859
824.389	18049
824.529	18057
824.669	17980
824.809	18068
824.949	18076
825.089	18087
825.228	18038
825.368	17878
825.508	17859
825.648	17885
825.787	17843
825.927	17821
826.067	17737
826.206	17604
826.346	17813
826.485	17821
826.625	17687
826.765	17828
826.904	17901
827.044	17657
827.183	17577
827.323	17486
827.462	17524
827.601	17505
827.741	17444
827.88	17493
828.02	17414
828.159	17463
828.298	17543
828.437	17532
828.577	17436
828.716	17661
828.855	17452
828.994	17261
829.134	17269
829.273	17395
829.412	17216
829.551	17113
829.69	17136
829.829	17307
829.968	17417
830.107	17337
830.246	17174
830.385	17083
830.524	17109
830.663	17010
830.802	17022
830.941	16900
831.08	16801
831.219	16911
831.357	16919
831.496	17151
831.635	16873
831.774	16755
831.913	16744
832.051	16675
832.19	16672
832.329	16637
832.467	16508
832.606	16523
832.744	16580
832.883	16527
833.022	16508
833.16	16535
833.299	16656
833.437	16542
833.576	16580
833.714	16538
833.852	16588
833.991	16596
834.129	16691
834.267	16630
834.406	16542
834.544	16649
834.682	16615
834.821	16599
834.959	16748
835.097	16569
835.235	16710
835.373	16565
835.511	16717
835.65	16523
835.788	16443
835.926	16348
836.064	16386
836.202	16341
836.34	16596
836.478	16592
836.615	16561
836.753	16538
836.891	16531
837.029	16561
837.167	16371
837.305	16409
837.443	16440
837.58	16333
837.718	16455
837.856	16363
837.993	16322
838.131	16413
838.269	16253
838.406	16337
838.544	16219
838.681	16074
838.819	16143
838.956	15876
839.094	15960
839.231	16006
839.369	16074
839.506	16280
839.643	16169
839.781	15922
839.918	15953
840.055	15934
840.193	15979
840.33	15934
840.467	15892
840.604	15911
840.742	16101
840.879	15759
841.016	15770
841.153	15873
841.29	16025
841.427	15915
841.564	16010
841.701	15937
841.838	15903
841.975	15846
842.112	15804
842.249	15766
842.385	15671
842.522	15869
842.659	15812
842.796	15648
842.933	15724
843.069	15675
843.206	15629
843.343	15755
843.479	15724
843.616	15724
843.752	15576
843.889	15466
844.025	15606
844.162	15340
844.298	15622
844.435	15447
844.571	15477
844.708	15435
844.844	15652
844.98	15686
845.117	15572
845.253	15466
845.389	15420
845.525	15439
845.661	15386
845.798	15291
845.934	15275
846.07	15241
846.206	15351
846.342	15481
846.478	15195
846.614	15123
846.75	15020
846.886	14880
847.022	15089
847.158	15104
847.294	15043
847.429	15165
847.565	14998
847.701	15397
847.837	14777
847.972	14887
848.108	14872
848.244	14975
848.379	14670
848.515	14545
848.65	14648
848.786	14594
848.921	14720
849.057	14724
849.192	14743
849.328	14739
849.463	14667
849.598	14610
849.734	14617
849.869	14583
850.004	14499
850.14	14457
850.275	14450
850.41	14396
850.545	14343
850.68	14412
850.815	14438
850.95	14404
851.085	14575
851.22	14541
851.355	14503
851.49	14396
851.625	14343
851.76	14343
851.895	14374
852.03	14286
852.165	14381
852.299	14518
852.434	14537
852.569	14476
852.703	14412
852.838	14457
852.973	14530
853.107	14541
853.242	14434
853.376	14328
853.511	14225
853.645	14275
853.78	14442
853.914	14324
854.048	14252
854.183	14267
854.317	14237
854.451	14385
854.585	14244
854.72	14252
854.854	14374
854.988	14248
855.122	14218
855.256	14142
855.39	14313
855.524	14427
855.658	14301
855.792	14442
855.926	14313
856.06	14328
856.194	14415
856.327	14240
856.461	14180
856.595	14278
856.729	14145
856.862	14434
856.996	14343
857.13	14374
857.263	14427
857.397	14381
857.53	14240
857.664	14339
857.797	14400
857.931	14476
858.064	14385
858.197	14473
858.331	14309
858.464	14286
858.597	14221
858.731	14355
858.864	14233
858.997	14202
859.13	14244
859.263	14427
859.396	14396
859.529	14263
859.662	14218
859.795	14187
859.928	14313
860.061	14564
860.194	14518
860.327	14298
860.46	14301
860.592	14305
860.725	14362
860.858	14431
860.99	14343
861.123	14206
861.256	14305
861.388	14301
861.521	15005
861.653	14199
861.786	14161
861.918	14202
862.05	14237
862.183	14218
862.315	14278
862.447	14278
862.58	14233
862.712	14096
862.844	14065
862.976	14046
863.108	14100
863.24	14503
863.372	14005
863.504	14081
863.636	14058
863.768	14069
863.9	14031
864.032	13989
864.164	14031
864.296	14149
864.428	14187
864.559	14278
864.691	14195
864.823	14126
864.954	14172
865.086	14111
865.217	14103
865.349	13997
865.48	14035
865.612	14062
865.743	14233
865.875	14050
866.006	14054
866.137	14096
866.269	13986
866.4	14054
866.531	14054
866.662	14043
866.793	13989
866.924	14062
867.055	14081
867.186	14046
867.317	13944
867.448	13921
867.579	14043
867.71	13959
867.841	14001
867.972	14050
868.103	14020
868.233	13970
868.364	14062
868.495	14149
868.625	14252
868.756	14301
868.886	14206
869.017	14332
869.147	14404
869.278	14446
869.408	14355
869.539	14343
869.669	14457
869.799	14400
869.929	14488
870.06	14454
870.19	14617
870.32	14598
870.45	14667
870.58	14720
870.71	14849
870.84	14857
870.97	14746
871.1	14708
871.23	14781
871.36	14948
871.489	14746
871.619	14891
871.749	14872
871.879	14883
872.008	15047
872.138	14815
872.267	14956
872.397	14792
872.526	14731
872.656	14716
872.785	14670
872.915	14925
873.044	15077
873.173	14979
873.303	15058
873.432	14990
873.561	15024
873.69	14982
873.819	14986
873.948	15055
874.077	15108
874.206	14967
874.335	15074
874.464	15070
874.593	15294
874.722	15142
874.851	15355
874.979	15252
875.108	15359
875.237	15249
875.365	15180
875.494	15287
875.623	15340
875.751	15268
875.88	15291
876.008	15538
876.136	15435
876.265	15667
876.393	15705
876.521	15781
876.65	15724
876.778	15743
876.906	15572
877.034	15603
877.162	15641
877.29	15644
877.418	15652
877.546	15667
877.674	15629
877.802	15720
877.93	15778
878.058	15736
878.185	15504
878.313	15603
878.441	15648
878.568	15557
878.696	15580
878.824	15679
878.951	15816
879.079	15930
879.206	15972
879.333	15846
879.461	15755
879.588	15804
879.715	15884
879.842	15930
879.97	15804
880.097	15557
880.224	15485
880.351	15488
880.478	15584
880.605	15610
880.732	15511
880.859	15739
880.986	15523
881.112	15549
881.239	15416
881.366	15279
881.493	15218
881.619	15252
881.746	15256
881.872	15222
881.999	15146
882.125	15093
882.252	15245
882.378	15142
882.505	15344
882.631	15188
882.757	15005
882.883	15108
883.01	15085
883.136	14990
883.262	14811
883.388	14887
883.514	14876
883.64	14994
883.766	15013
883.892	14819
884.018	14876
884.143	14971
884.269	15097
884.395	14765
884.52	14621
884.646	14705
884.772	14648
884.897	14610
885.023	14743
885.148	14857
885.274	14861
885.399	14807
885.524	14754
885.65	14754
885.775	14670
885.9	14743
886.025	14906
886.15	14735
886.275	14568
886.4	14602
886.525	14693
886.65	14686
886.775	14663
886.9	14899
887.025	14902
887.149	14724
887.274	14514
887.399	14545
887.523	14522
887.648	14484
887.773	14503
887.897	14541
888.021	14575
888.146	14537
888.27	14629
888.395	14682
888.519	14644
888.643	14533
888.767	14602
888.891	14488
889.015	14339
889.139	14381
889.263	14389
889.387	14552
889.511	14541
889.635	14503
889.759	14396
889.883	14415
890.006	14393
890.13	14442
890.254	14366
890.377	14358
890.501	14218
890.624	14290
890.748	14248
890.871	14081
890.995	14020
891.118	14058
891.241	14138
891.364	14119
891.488	14259
891.611	14237
891.734	14157
891.857	14145
891.98	14138
892.103	14240
892.226	14084
892.349	14153
892.471	13894
892.594	14043
892.717	14161
892.839	14050
892.962	14210
893.085	14153
893.207	14043
893.33	14096
893.452	14027
893.575	14263
893.697	14107
893.819	14290
893.941	14278
894.064	14259
894.186	14088
894.308	14046
894.43	14229
894.552	14305
894.674	14271
894.796	14092
894.918	14123
895.04	14180
895.161	14195
895.283	14259
895.405	14123
895.526	14214
895.648	14142
895.769	14233
895.891	14282
896.012	14412
896.134	14275
896.255	14210
896.376	14267
896.498	14267
896.619	14412
896.74	14324
896.861	14454
896.982	14587
897.103	14864
897.224	14583
897.345	14454
897.466	14556
897.587	14552
897.708	14670
897.828	14556
897.949	14530
898.07	14541
898.19	14393
898.311	14716
898.431	14549
898.552	14613
898.672	14670
898.792	14781
898.913	14670
899.033	14552
899.153	14503
899.273	14461
899.393	14480
899.513	14492
899.633	14469
899.753	14396
899.873	14469
899.993	14533
900.113	14434
900.232	14526
900.352	14454
900.472	14473
900.591	14278
900.711	14301
900.83	14320
900.95	14423
901.069	14473
901.189	14263
901.308	14111
901.427	13997
901.546	14005
901.665	13993
901.784	13970
901.904	13932
902.023	13925
902.141	13708
902.26	13510
902.379	13662
902.498	13647
902.617	13537
902.735	13636
902.854	13624
902.973	13525
903.091	13350
903.21	13324
903.328	13400
903.446	13247
903.565	13175
903.683	13232
903.801	13042
903.919	13133
904.038	13129
904.156	13053
904.274	13080
904.392	12886
904.51	13000
904.627	12840
904.745	13046
904.863	13156
904.981	12867
905.098	12616
905.216	12730
905.334	12669
905.451	12734
905.569	12703
905.686	12665
905.803	12677
905.921	12563
906.038	12578
906.155	12486
906.272	12486
906.389	12410
906.506	12281
906.623	12300
906.74	12197
906.857	12144
906.974	12190
907.091	12422
907.208	12475
907.324	12327
907.441	12209
907.557	12015
907.674	12022
907.79	11950
907.907	11954
908.023	11961
908.139	11996
908.256	11931
908.372	11954
908.488	11889
908.604	11828
908.72	11745
908.836	11817
908.952	11752
909.068	11752
909.184	11847
909.3	11729
909.415	11802
909.531	11745
909.647	11535
909.762	11551
909.878	11482
909.993	11570
910.108	11497
910.224	11497
910.339	11490
910.454	11436
910.57	11440
910.685	11318
910.8	11608
910.915	11497
911.03	11474
911.145	11231
911.259	11273
911.374	11189
911.489	11166
911.604	11079
911.718	11067
911.833	11086
911.947	10934
912.062	10790
912.176	11048
912.291	10938
912.405	10980
912.519	11235
912.633	11098
912.748	11064
912.862	10972
912.976	10869
913.09	10729
913.204	10824
913.318	10824
913.431	10961
913.545	10957
913.659	11006
913.772	10850
913.886	10725
914	10744
914.113	10877
914.226	10900
914.34	10771
914.453	10656
914.566	10828
914.68	10698
914.793	10664
914.906	10432
915.019	10493
915.132	10428
915.245	10459
915.358	10440
915.47	10538
915.583	10527
915.696	10599
915.809	10721
915.921	10630
916.034	10443
916.146	10466
916.259	10459
916.371	10489
916.483	10561
916.595	10417
916.708	10413
916.82	10462
916.932	10421
917.044	10417
917.156	10375
917.268	10276
917.38	10287
917.491	10215
917.603	10322
917.715	10409
917.826	10417
917.938	10295
918.049	10230
918.161	10310
918.272	10432
918.384	10500
918.495	10344
918.606	10253
918.717	10166
918.828	10238
918.939	10227
919.05	10124
919.161	10074
919.272	9968
919.383	10074
919.494	10268
919.604	10375
919.715	10280
919.826	10097
919.936	10139
920.047	10303
920.157	10276
920.267	10421
920.378	10230
920.488	10173
920.598	10394
920.708	10535
920.818	10459
920.928	10382
921.038	10542
921.148	10478
921.258	10257
921.368	10097
921.477	10124
921.587	9991
921.697	9941
921.806	10093
921.916	9930
922.025	9823
922.134	9812
922.244	9701
922.353	9774
922.462	9747
922.571	9614
922.68	9488
922.789	9458
922.898	9526
923.007	9420
923.116	9488
923.224	9523
923.333	9557
923.442	9408
923.55	9386
923.659	9340
923.767	9523
923.876	9325
923.984	9340
924.092	9272
924.201	9374
924.309	9336
924.417	9310
924.525	9317
924.633	9355
924.741	10211
924.849	9066
924.956	9325
925.064	9097
925.172	8994
925.279	8998
925.387	9138
925.494	9127
925.602	9253
925.709	9180
925.816	9047
925.924	9184
926.031	9195
926.138	9142
926.245	9169
926.352	9119
926.459	9161
926.566	9184
926.673	9161
926.779	8982
926.886	9017
926.993	8796
927.099	8819
927.206	8743
927.312	8857
927.419	8914
927.525	8883
927.631	8902
927.737	8746
927.843	8754
927.95	8651
928.056	8701
928.162	8739
928.267	8845
928.373	9367
928.479	8845
928.585	8587
928.69	8792
928.796	8762
928.901	8712
929.007	8549
929.112	8682
929.218	8629
929.323	8556
929.428	8575
929.533	8762
929.638	8495
929.743	8488
929.848	8648
929.953	8587
930.058	8450
930.163	8370
930.267	8419
930.372	8427
930.477	8324
930.581	8590
930.685	8374
930.79	8244
930.894	8328
930.998	8252
931.103	8400
931.207	8046
931.311	8027
931.415	7932
931.519	7830
931.623	7750
