Data from test_V78500241_870.txt Node
Date: Fri Mar 25 14:39:46 CST 2022
User: usil
Spectrometer: V785-0024
Trigger mode: 0
Integration Time (sec): 4.000000E-1
Scans to average: 1
Nonlinearity correction enabled: false
Boxcar width: 0
Storing dark spectrum: false
XAxis mode: Wavelengths
Number of Pixels in Spectrum: 1024
>>>>>Begin Spectral Data<<<<<
801.071	25628
801.214	25449
801.356	25377
801.499	25236
801.641	25088
801.783	25084
801.926	25050
802.068	24829
802.211	24802
802.353	24764
802.496	24593
802.638	24505
802.78	24547
802.923	24464
803.065	24357
803.208	24308
803.35	24338
803.492	24422
803.635	24502
803.777	24304
803.919	24460
804.061	24776
804.204	24399
804.346	24418
804.488	24342
804.63	24376
804.773	24304
804.915	24479
805.057	24635
805.199	24429
805.341	24544
805.483	24604
805.626	24711
805.768	24452
805.91	24722
806.052	24726
806.194	24684
806.336	24996
806.478	24909
806.62	24837
806.762	25209
806.904	25510
807.046	25731
807.188	25708
807.33	25928
807.472	26176
807.614	26351
807.756	26758
807.898	27039
808.04	27606
808.182	28379
808.324	29490
808.465	30681
808.607	31841
808.749	33165
808.891	33865
809.033	33823
809.174	33150
809.316	31837
809.458	30635
809.6	29292
809.741	28447
809.883	27549
810.025	27055
810.166	26815
810.308	26278
810.45	26119
810.591	26005
810.733	25681
810.875	25438
811.016	25289
811.158	25057
811.299	25221
811.441	25320
811.582	25244
811.724	24920
811.865	24920
812.007	24795
812.148	24943
812.29	24932
812.431	24996
812.573	25152
812.714	25027
812.855	25301
812.997	25297
813.138	25426
813.279	25324
813.421	25118
813.562	25221
813.703	24901
813.845	24878
813.986	24410
814.127	24418
814.268	24174
814.41	24266
814.551	24182
814.692	24228
814.833	24022
814.974	24106
815.115	24034
815.256	23843
815.397	23885
815.539	23923
815.68	23832
815.821	23665
815.962	23794
816.103	23767
816.244	23577
816.385	23490
816.526	23543
816.666	23318
816.807	23159
816.948	23391
817.089	23258
817.23	23166
817.371	23166
817.512	23181
817.653	23086
817.793	23083
817.934	23212
818.075	23140
818.216	23060
818.356	23022
818.497	23006
818.638	22824
818.778	22953
818.919	22873
819.06	22881
819.2	22862
819.341	22976
819.481	22938
819.622	23067
819.762	23280
819.903	23242
820.043	23117
820.184	22984
820.324	23064
820.465	23006
820.605	22957
820.746	22957
820.886	22873
821.026	22965
821.167	22911
821.307	22984
821.447	22881
821.588	22805
821.728	22733
821.868	22497
822.008	22268
822.149	22379
822.289	22390
822.429	22105
822.569	22090
822.709	22067
822.849	21804
822.99	21869
823.13	21823
823.27	21732
823.41	21701
823.55	21686
823.69	21625
823.83	21557
823.97	21542
824.11	21256
824.25	21439
824.389	21370
824.529	21462
824.669	21252
824.809	21420
824.949	21526
825.089	21431
825.228	21462
825.368	21268
825.508	21161
825.648	21108
825.787	21245
825.927	21192
826.067	21112
826.206	21058
826.346	21146
826.485	21104
826.625	21199
826.765	21138
826.904	21146
827.044	20975
827.183	20849
827.323	20777
827.462	20952
827.601	20849
827.741	20670
827.88	20845
828.02	20712
828.159	20826
828.298	20716
828.437	20899
828.577	20796
828.716	20914
828.855	20746
828.994	20590
829.134	20412
829.273	20480
829.412	20366
829.551	20434
829.69	20530
829.829	20503
829.968	20556
830.107	20465
830.246	20454
830.385	20389
830.524	20336
830.663	20301
830.802	20256
830.941	20005
831.08	20199
831.219	20275
831.357	20081
831.496	20214
831.635	20077
831.774	19974
831.913	19947
832.051	19765
832.19	19860
832.329	19986
832.467	19868
832.606	19822
832.744	19879
832.883	19909
833.022	19734
833.16	19875
833.299	20016
833.437	19955
833.576	20149
833.714	20149
833.852	20149
833.991	20183
834.129	20282
834.267	20225
834.406	20233
834.544	20225
834.682	20100
834.821	20069
834.959	20199
835.097	20016
835.235	20001
835.373	19936
835.511	19894
835.65	19772
835.788	19689
835.926	19556
836.064	19430
836.202	19556
836.34	19632
836.478	19780
836.615	19613
836.753	19624
836.891	19753
837.029	19609
837.167	19464
837.305	19552
837.443	19594
837.58	19422
837.718	19529
837.856	19430
837.993	19373
838.131	19529
838.269	19335
838.406	19373
838.544	19324
838.681	19141
838.819	19050
838.956	18821
839.094	18932
839.231	18909
839.369	19034
839.506	19282
839.643	19232
839.781	18833
839.918	18734
840.055	18981
840.193	18901
840.33	18673
840.467	18867
840.604	18848
840.742	19065
840.879	18753
841.016	18802
841.153	18707
841.29	18928
841.427	18875
841.564	18894
841.701	18905
841.838	18848
841.975	18760
842.112	18810
842.249	18551
842.385	18566
842.522	18730
842.659	18681
842.796	18578
842.933	18608
843.069	18612
843.206	18582
843.343	18772
843.479	18734
843.616	18700
843.752	18498
843.889	18517
844.025	18684
844.162	18471
844.298	18623
844.435	18620
844.571	18673
844.708	18920
844.844	19057
844.98	19148
845.117	19472
845.253	19647
845.389	20218
845.525	21534
845.661	23551
845.798	26164
845.934	28299
846.07	29003
846.206	28733
846.342	27192
846.478	24479
846.614	22120
846.75	20568
846.886	19559
847.022	19217
847.158	18574
847.294	18467
847.429	18308
847.565	18136
847.701	18327
847.837	17851
847.972	17707
848.108	17863
848.244	17828
848.379	17661
848.515	17577
848.65	17611
848.786	17512
848.921	17539
849.057	17570
849.192	17661
849.328	17509
849.463	17566
849.598	17414
849.734	17429
849.869	17410
850.004	17242
850.14	17242
850.275	17299
850.41	17212
850.545	17235
850.68	17246
850.815	17337
850.95	17277
851.085	17421
851.22	17326
851.355	17254
851.49	17197
851.625	17254
851.76	17132
851.895	17086
852.03	17162
852.165	17132
852.299	17284
852.434	17417
852.569	17204
852.703	17174
852.838	17330
852.973	17337
853.107	17417
853.242	17246
853.376	17124
853.511	17025
853.645	17086
853.78	17322
853.914	17242
854.048	17208
854.183	17231
854.317	17318
854.451	17376
854.585	17193
854.72	17155
854.854	17269
854.988	17155
855.122	17147
855.256	17098
855.39	17136
855.524	17246
855.658	17250
855.792	17064
855.926	17090
856.06	17193
856.194	17212
856.327	17064
856.461	16976
856.595	17033
856.729	17025
856.862	17155
856.996	17102
857.13	17170
857.263	17151
857.397	17128
857.53	16999
857.664	17143
857.797	17003
857.931	17265
858.064	17109
858.197	17235
858.331	16934
858.464	17006
858.597	17014
858.731	17067
858.864	16987
858.997	16965
859.13	17075
859.263	17056
859.396	17132
859.529	16965
859.662	16965
859.795	16961
859.928	16923
860.061	17113
860.194	17162
860.327	17048
860.46	17014
860.592	17018
860.725	17071
860.858	17128
860.99	16980
861.123	16862
861.256	16980
861.388	17006
861.521	17627
861.653	16965
861.786	16850
861.918	16778
862.05	16938
862.183	16873
862.315	16987
862.447	16980
862.58	16991
862.712	16694
862.844	16588
862.976	16866
863.108	16782
863.24	17090
863.372	16607
863.504	16622
863.636	16767
863.768	16664
863.9	16702
864.032	16596
864.164	16516
864.296	16713
864.428	16824
864.559	16733
864.691	16713
864.823	16721
864.954	16672
865.086	16752
865.217	16675
865.349	16611
865.48	16622
865.612	16675
865.743	16790
865.875	16736
866.006	16649
866.137	16672
866.269	16710
866.4	16561
866.531	16580
866.662	16592
866.793	16588
866.924	16618
867.055	16668
867.186	16531
867.317	16611
867.448	16637
867.579	16630
867.71	16421
867.841	16531
867.972	16611
868.103	16569
868.233	16634
868.364	16584
868.495	16831
868.625	16839
868.756	16927
868.886	16885
869.017	16774
869.147	16968
869.278	16942
869.408	16908
869.539	16774
869.669	16911
869.799	16904
869.929	16961
870.06	16904
870.19	17212
870.32	17273
870.45	17155
870.58	17337
870.71	17349
870.84	17387
870.97	17261
871.1	17143
871.23	17509
871.36	17509
871.489	17448
871.619	17436
871.749	17417
871.879	17505
872.008	17516
872.138	17615
872.267	17596
872.397	17372
872.526	17261
872.656	17273
872.785	17395
872.915	17528
873.044	17619
873.173	17539
873.303	17634
873.432	17638
873.561	17779
873.69	17634
873.819	17623
873.948	17745
874.077	17619
874.206	17638
874.335	17665
874.464	17729
874.593	18015
874.722	17828
874.851	18057
874.979	17931
875.108	18106
875.237	18110
875.365	17961
875.494	17977
875.623	18232
875.751	18019
875.88	18079
876.008	18376
876.136	18376
876.265	18498
876.393	18715
876.521	18722
876.65	18639
876.778	18635
876.906	18570
877.034	18604
877.162	18635
877.29	18688
877.418	18783
877.546	18795
877.674	18901
877.802	18939
877.93	18802
878.058	18962
878.185	18989
878.313	19251
878.441	19312
878.568	19327
878.696	19655
878.824	19875
878.951	20549
879.079	21108
879.206	21888
879.333	22774
879.461	23376
879.588	23695
879.715	23828
879.842	23493
879.97	22736
880.097	21690
880.224	20975
880.351	20617
880.478	20210
880.605	19887
880.732	19845
880.859	19959
880.986	19613
881.112	19765
881.239	19567
881.366	19464
881.493	19266
881.619	19331
881.746	19350
881.872	19343
881.999	19308
882.125	19228
882.252	19304
882.378	19422
882.505	19487
882.631	19289
882.757	19126
882.883	19213
883.01	19145
883.136	19122
883.262	19057
883.388	19076
883.514	19171
883.64	19266
883.766	19152
883.892	19000
884.018	18901
884.143	19088
884.269	19206
884.395	18901
884.52	18806
884.646	18897
884.772	18817
884.897	18700
885.023	18791
885.148	18958
885.274	18970
885.399	18886
885.524	18722
885.65	18745
885.775	18620
885.9	18547
886.025	18707
886.15	18578
886.275	18422
886.4	18266
886.525	18254
886.65	18273
886.775	18087
886.9	18270
887.025	18433
887.149	18117
887.274	17889
887.399	17878
887.523	17977
887.648	17756
887.773	17714
887.897	17767
888.021	17908
888.146	17786
888.27	17794
888.395	17687
888.519	17794
888.643	17722
888.767	17676
888.891	17615
889.015	17497
889.139	17493
889.263	17376
889.387	17570
889.511	17589
889.635	17532
889.759	17391
889.883	17410
890.006	17349
890.13	17414
890.254	17280
890.377	17277
890.501	17083
890.624	17037
890.748	17121
890.871	16968
890.995	16847
891.118	16831
891.241	16915
891.364	16854
891.488	16953
891.611	16835
891.734	16881
891.857	16949
891.98	16866
892.103	16881
892.226	16847
892.349	16702
892.471	16698
892.594	16767
892.717	16736
892.839	16744
892.962	16626
893.085	16755
893.207	16683
893.33	16622
893.452	16588
893.575	16672
893.697	16660
893.819	16850
893.941	16862
894.064	16717
894.186	16516
894.308	16580
894.43	16748
894.552	16843
894.674	16710
894.796	16478
894.918	16634
895.04	16584
895.161	16691
895.283	16698
895.405	16538
895.526	16592
895.648	16653
895.769	16535
895.891	16630
896.012	16592
896.134	16767
896.255	16634
896.376	16599
896.498	16577
896.619	16725
896.74	16763
896.861	16713
896.982	17025
897.103	17071
897.224	16877
897.345	16923
897.466	16847
897.587	16915
897.708	16949
897.828	16949
897.949	16778
898.07	16675
898.19	16744
898.311	17029
898.431	16889
898.552	17006
898.672	17079
898.792	16965
898.913	16915
899.033	16850
899.153	16721
899.273	16702
899.393	16683
899.513	16694
899.633	16778
899.753	16797
899.873	16710
899.993	16786
900.113	16733
900.232	16820
900.352	16603
900.472	16675
900.591	16607
900.711	16702
900.83	16500
900.95	16664
901.069	16660
901.189	16508
901.308	16314
901.427	16131
901.546	16211
901.665	16280
901.784	16261
901.904	16048
902.023	16013
902.141	15785
902.26	15762
902.379	15793
902.498	15698
902.617	15675
902.735	15622
902.854	15698
902.973	15641
903.091	15401
903.21	15416
903.328	15386
903.446	15298
903.565	15214
903.683	15222
903.801	15138
903.919	15157
904.038	15066
904.156	14975
904.274	15055
904.392	14933
904.51	14948
904.627	14944
904.745	14990
904.863	14956
904.981	14758
905.098	14613
905.216	14678
905.334	14594
905.451	14632
905.569	14549
905.686	14697
905.803	14613
905.921	14389
906.038	14507
906.155	14465
906.272	14347
906.389	14332
906.506	14153
906.623	14161
906.74	14096
906.857	13936
906.974	14024
907.091	14267
907.208	14317
907.324	14103
907.441	14096
907.557	13795
907.674	13841
907.79	13868
907.907	13883
908.023	13826
908.139	13803
908.256	13765
908.372	13856
908.488	13719
908.604	13601
908.72	13544
908.836	13624
908.952	13483
909.068	13582
909.184	13620
909.3	13601
909.415	13628
909.531	13537
909.647	13335
909.762	13358
909.878	13293
909.993	13331
910.108	13297
910.224	13270
910.339	13289
910.454	13149
910.57	13149
910.685	13110
910.8	13297
910.915	13217
911.03	13156
911.145	12951
911.259	12916
911.374	13080
911.489	12844
911.604	12867
911.718	12741
911.833	12738
911.947	12582
912.062	12570
912.176	12597
912.291	12692
912.405	12734
912.519	12833
912.633	12909
912.748	12722
912.862	12662
912.976	12536
913.09	12414
913.204	12555
913.318	12582
913.431	12677
913.545	12696
913.659	12623
913.772	12525
913.886	12346
914	12445
914.113	12498
914.226	12585
914.34	12452
914.453	12350
914.566	12429
914.68	12308
914.793	12338
914.906	12155
915.019	12171
915.132	11999
915.245	12133
915.358	12148
915.47	12125
915.583	12159
915.696	12133
915.809	12266
915.921	12224
916.034	11988
916.146	12041
916.259	12038
916.371	12201
916.483	12148
916.595	12057
916.708	12079
916.82	12110
916.932	12022
917.044	11980
917.156	11996
917.268	11882
917.38	11897
917.491	11870
917.603	11958
917.715	11973
917.826	11954
917.938	11870
918.049	11741
918.161	11847
918.272	11958
918.384	11920
918.495	11996
918.606	11737
918.717	11676
918.828	11733
918.939	11779
919.05	11551
919.161	11726
919.272	11440
919.383	11589
919.494	11828
919.604	11847
919.715	11767
919.826	11581
919.936	11634
920.047	11767
920.157	11760
920.267	11927
920.378	11752
920.488	11630
920.598	11859
920.708	12007
920.818	11771
920.928	11973
921.038	11950
921.148	11954
921.258	11699
921.368	11497
921.477	11551
921.587	11547
921.697	11448
921.806	11478
921.916	11349
922.025	11220
922.134	11208
922.244	11117
922.353	11235
922.462	11124
922.571	11006
922.68	10858
922.789	10831
922.898	10812
923.007	10774
923.116	10881
923.224	10774
923.333	10805
923.442	10740
923.55	10641
923.659	10759
923.767	10782
923.876	10634
923.984	10858
924.092	10641
924.201	10645
924.309	10664
924.417	10679
924.525	10618
924.633	10615
924.741	11562
924.849	10497
924.956	10596
925.064	10333
925.172	10421
925.279	10375
925.387	10402
925.494	10478
925.602	10599
925.709	10459
925.816	10371
925.924	10352
926.031	10504
926.138	10386
926.245	10440
926.352	10352
926.459	10451
926.566	10550
926.673	10432
926.779	10303
926.886	10272
926.993	10158
927.099	10135
927.206	10093
927.312	10067
927.419	10120
927.525	10097
927.631	10135
927.737	9964
927.843	9907
927.95	9903
928.056	9987
928.162	9915
928.267	10010
928.373	10592
928.479	10124
928.585	9854
928.69	9945
928.796	9907
928.901	9827
929.007	9732
929.112	9892
929.218	9934
929.323	9838
929.428	9751
929.533	9903
929.638	9736
929.743	9755
929.848	9808
929.953	9690
930.058	9625
930.163	9545
930.267	9511
930.372	9747
930.477	9450
930.581	9724
930.685	9618
930.79	9485
930.894	9473
930.998	9439
931.103	9538
931.207	9268
931.311	9253
931.415	9192
931.519	8880
931.623	8830
