Data from test_V78500241_1637.txt Node
Date: Fri Mar 25 14:45:06 CST 2022
User: usil
Spectrometer: V785-0024
Trigger mode: 0
Integration Time (sec): 4.000000E-1
Scans to average: 1
Nonlinearity correction enabled: false
Boxcar width: 0
Storing dark spectrum: false
XAxis mode: Wavelengths
Number of Pixels in Spectrum: 1024
>>>>>Begin Spectral Data<<<<<
801.071	22287
801.214	22105
801.356	21827
801.499	21812
801.641	21751
801.783	21633
801.926	21785
802.068	21663
802.211	21488
802.353	21435
802.496	21241
802.638	21184
802.78	21100
802.923	20956
803.065	20975
803.208	21005
803.35	21043
803.492	21165
803.635	21013
803.777	21062
803.919	21039
804.061	21336
804.204	21047
804.346	20887
804.488	20830
804.63	20998
804.773	20781
804.915	20979
805.057	21009
805.199	20853
805.341	20971
805.483	21070
805.626	20933
805.768	20861
805.91	21036
806.052	20880
806.194	20830
806.336	21039
806.478	20986
806.62	20941
806.762	20990
806.904	21123
807.046	21367
807.188	21268
807.33	21192
807.472	21291
807.614	21184
807.756	21275
807.898	21192
808.04	20982
808.182	21017
808.324	21074
808.465	21058
808.607	21241
808.749	21313
808.891	21473
809.033	21564
809.174	21428
809.316	21332
809.458	21424
809.6	21211
809.741	21317
809.883	21534
810.025	21496
810.166	21549
810.308	21515
810.45	21431
810.591	21329
810.733	21199
810.875	21173
811.016	21024
811.158	21001
811.299	21192
811.441	21230
811.582	21245
811.724	21260
811.865	21169
812.007	21001
812.148	21074
812.29	21199
812.431	21226
812.573	21351
812.714	21374
812.855	21633
812.997	21595
813.138	21835
813.279	21804
813.421	21583
813.562	21549
813.703	21283
813.845	21165
813.986	20899
814.127	20891
814.268	20785
814.41	20769
814.551	20678
814.692	20697
814.833	20560
814.974	20488
815.115	20712
815.256	20438
815.397	20583
815.539	20511
815.68	20419
815.821	20343
815.962	20446
816.103	20298
816.244	20218
816.385	20115
816.526	20031
816.666	19982
816.807	19791
816.948	19970
817.089	19879
817.23	19742
817.371	19879
817.512	19788
817.653	19746
817.793	19715
817.934	19803
818.075	19799
818.216	19761
818.356	19643
818.497	19643
818.638	19510
818.778	19388
818.919	19476
819.06	19559
819.2	19605
819.341	19597
819.481	19719
819.622	19849
819.762	19951
819.903	19955
820.043	19818
820.184	19822
820.324	19715
820.465	19712
820.605	19845
820.746	19723
820.886	19601
821.026	19712
821.167	19696
821.307	19807
821.447	19731
821.588	19575
821.728	19426
821.868	19263
822.008	19217
822.149	19091
822.289	19099
822.429	18981
822.569	18981
822.709	18882
822.849	18654
822.99	18631
823.13	18639
823.27	18551
823.41	18460
823.55	18467
823.69	18456
823.83	18517
823.97	18391
824.11	18308
824.25	18129
824.389	18285
824.529	18262
824.669	18243
824.809	18209
824.949	18292
825.089	18277
825.228	18117
825.368	18121
825.508	18034
825.648	18060
825.787	18155
825.927	18041
826.067	17961
826.206	17946
826.346	18011
826.485	18064
826.625	17897
826.765	18087
826.904	18030
827.044	17760
827.183	17726
827.323	17585
827.462	17783
827.601	17699
827.741	17733
827.88	17726
828.02	17604
828.159	17638
828.298	17634
828.437	17756
828.577	17684
828.716	17840
828.855	17589
828.994	17474
829.134	17410
829.273	17493
829.412	17417
829.551	17360
829.69	17387
829.829	17429
829.968	17509
830.107	17532
830.246	17493
830.385	17360
830.524	17330
830.663	17307
830.802	17140
830.941	17117
831.08	17056
831.219	17181
831.357	17052
831.496	17269
831.635	17048
831.774	16919
831.913	16972
832.051	16767
832.19	16843
832.329	16862
832.467	16786
832.606	16580
832.744	16721
832.883	16744
833.022	16763
833.16	16717
833.299	16694
833.437	16752
833.576	16759
833.714	16786
833.852	16835
833.991	16869
834.129	16850
834.267	16942
834.406	16740
834.544	16854
834.682	16771
834.821	16809
834.959	16972
835.097	16702
835.235	16858
835.373	16801
835.511	16927
835.65	16691
835.788	16729
835.926	16687
836.064	16554
836.202	16538
836.34	16763
836.478	16691
836.615	16729
836.753	16706
836.891	16713
837.029	16733
837.167	16637
837.305	16660
837.443	16558
837.58	16489
837.718	16653
837.856	16611
837.993	16474
838.131	16618
838.269	16466
838.406	16599
838.544	16459
838.681	16192
838.819	16169
838.956	16147
839.094	16071
839.231	16124
839.369	16257
839.506	16523
839.643	16341
839.781	16116
839.918	16006
840.055	16074
840.193	16048
840.33	16055
840.467	16169
840.604	16032
840.742	16303
840.879	15953
841.016	16059
841.153	16002
841.29	16135
841.427	16131
841.564	16158
841.701	16101
841.838	15975
841.975	16055
842.112	15998
842.249	15979
842.385	15827
842.522	15968
842.659	15884
842.796	15930
842.933	15930
843.069	15831
843.206	15975
843.343	15785
843.479	15926
843.616	15865
843.752	15804
843.889	15599
844.025	15808
844.162	15572
844.298	15861
844.435	15595
844.571	15568
844.708	15728
844.844	15793
844.98	15823
845.117	15762
845.253	15584
845.389	15656
845.525	15584
845.661	15534
845.798	15564
845.934	15542
846.07	15412
846.206	15648
846.342	15576
846.478	15496
846.614	15291
846.75	15176
846.886	15157
847.022	15408
847.158	15340
847.294	15283
847.429	15260
847.565	15127
847.701	15401
847.837	14899
847.972	15001
848.108	15070
848.244	15062
848.379	14830
848.515	14872
848.65	14823
848.786	14849
848.921	14933
849.057	14910
849.192	14849
849.328	14868
849.463	14845
849.598	14804
849.734	14720
849.869	14663
850.004	14629
850.14	14640
850.275	14606
850.41	14556
850.545	14537
850.68	14514
850.815	14621
850.95	14549
851.085	14773
851.22	14621
851.355	14644
851.49	14651
851.625	14621
851.76	14537
851.895	14507
852.03	14488
852.165	14522
852.299	14705
852.434	14636
852.569	14655
852.703	14552
852.838	14663
852.973	14777
853.107	14697
853.242	14526
853.376	14556
853.511	14404
853.645	14419
853.78	14594
853.914	14442
854.048	14484
854.183	14328
854.317	14412
854.451	14663
854.585	14457
854.72	14377
854.854	14545
854.988	14282
855.122	14393
855.256	14366
855.39	14442
855.524	14659
855.658	14412
855.792	14560
855.926	14560
856.06	14469
856.194	14606
856.327	14484
856.461	14465
856.595	14465
856.729	14404
856.862	14579
856.996	14499
857.13	14507
857.263	14541
857.397	14518
857.53	14396
857.664	14537
857.797	14575
857.931	14568
858.064	14594
858.197	14530
858.331	14431
858.464	14438
858.597	14248
858.731	14503
858.864	14450
858.997	14469
859.13	14446
859.263	14537
859.396	14594
859.529	14381
859.662	14400
859.795	14370
859.928	14507
860.061	14621
860.194	14640
860.327	14571
860.46	14461
860.592	14556
860.725	14583
860.858	14530
860.99	14488
861.123	14400
861.256	14454
861.388	14499
861.521	15218
861.653	14339
861.786	14237
861.918	14263
862.05	14381
862.183	14461
862.315	14476
862.447	14469
862.58	14450
862.712	14172
862.844	14225
862.976	14317
863.108	14259
863.24	14686
863.372	14088
863.504	14214
863.636	14199
863.768	14271
863.9	14164
864.032	14183
864.164	14195
864.296	14320
864.428	14263
864.559	14298
864.691	14385
864.823	14229
864.954	14328
865.086	14233
865.217	14157
865.349	14195
865.48	14149
865.612	14183
865.743	14358
865.875	14248
866.006	14202
866.137	14214
866.269	14187
866.4	14252
866.531	14149
866.662	14153
866.793	14199
866.924	14145
867.055	14221
867.186	14210
867.317	14176
867.448	14111
867.579	14180
867.71	14012
867.841	14119
867.972	14191
868.103	14248
868.233	14271
868.364	14183
868.495	14278
868.625	14446
868.756	14518
868.886	14396
869.017	14434
869.147	14511
869.278	14541
869.408	14415
869.539	14457
869.669	14587
869.799	14461
869.929	14636
870.06	14549
870.19	14765
870.32	14807
870.45	14872
870.58	14891
870.71	14937
870.84	14906
870.97	14807
871.1	14929
871.23	14990
871.36	15116
871.489	14891
871.619	14998
871.749	15043
871.879	14994
872.008	15226
872.138	15020
872.267	15051
872.397	14887
872.526	14861
872.656	14842
872.785	14956
872.915	15001
873.044	15184
873.173	15089
873.303	15131
873.432	15085
873.561	15275
873.69	15150
873.819	15017
873.948	15222
874.077	15070
874.206	15154
874.335	15230
874.464	15199
874.593	15313
874.722	15287
874.851	15454
874.979	15557
875.108	15496
875.237	15408
875.365	15370
875.494	15439
875.623	15447
875.751	15393
875.88	15405
876.008	15500
876.136	15526
876.265	15854
876.393	16074
876.521	15907
876.65	15903
876.778	15865
876.906	15747
877.034	15728
877.162	15930
877.29	15747
877.418	15759
877.546	15701
877.674	15827
877.802	15797
877.93	15804
878.058	15884
878.185	15667
878.313	15770
878.441	15846
878.568	15709
878.696	15785
878.824	15918
878.951	15895
879.079	16063
879.206	16192
879.333	16055
879.461	15926
879.588	15941
879.715	16086
879.842	16097
879.97	15956
880.097	15652
880.224	15732
880.351	15720
880.478	15739
880.605	15644
880.732	15686
880.859	15865
880.986	15679
881.112	15637
881.239	15557
881.366	15477
881.493	15424
881.619	15374
881.746	15401
881.872	15329
881.999	15313
882.125	15306
882.252	15435
882.378	15401
882.505	15401
882.631	15294
882.757	15150
882.883	15211
883.01	15104
883.136	15089
883.262	15017
883.388	15093
883.514	15230
883.64	15112
883.766	15089
883.892	14941
884.018	14967
884.143	15100
884.269	15184
884.395	14963
884.52	14849
884.646	14902
884.772	14754
884.897	14864
885.023	14880
885.148	14906
885.274	14960
885.399	14902
885.524	14872
885.65	14823
885.775	14902
885.9	14842
886.025	14963
886.15	14971
886.275	14826
886.4	14754
886.525	14880
886.65	14773
886.775	14754
886.9	14906
887.025	15138
887.149	14937
887.274	14762
887.399	14545
887.523	14746
887.648	14648
887.773	14511
887.897	14773
888.021	14716
888.146	14686
888.27	14773
888.395	14883
888.519	14640
888.643	14735
888.767	14754
888.891	14583
889.015	14533
889.139	14575
889.263	14537
889.387	14648
889.511	14857
889.635	14621
889.759	14507
889.883	14503
890.006	14632
890.13	14602
890.254	14442
890.377	14476
890.501	14396
890.624	14389
890.748	14351
890.871	14252
890.995	14248
891.118	14172
891.241	14202
891.364	14252
891.488	14324
891.611	14336
891.734	14290
891.857	14324
891.98	14324
892.103	14298
892.226	14176
892.349	14149
892.471	14168
892.594	14157
892.717	14221
892.839	14233
892.962	14229
893.085	14381
893.207	14298
893.33	14126
893.452	14221
893.575	14240
893.697	14252
893.819	14377
893.941	14377
894.064	14374
894.186	14134
894.308	14225
894.43	14385
894.552	14412
894.674	14419
894.796	14237
894.918	14309
895.04	14263
895.161	14374
895.283	14278
895.405	14263
895.526	14412
895.648	14317
895.769	14309
895.891	14469
896.012	14488
896.134	14396
896.255	14465
896.376	14434
896.498	14332
896.619	14415
896.74	14476
896.861	14507
896.982	14826
897.103	14830
897.224	14670
897.345	14632
897.466	14613
897.587	14712
897.708	14724
897.828	14762
897.949	14632
898.07	14465
898.19	14613
898.311	14842
898.431	14663
898.552	14720
898.672	14876
898.792	14788
898.913	14819
899.033	14743
899.153	14625
899.273	14594
899.393	14575
899.513	14613
899.633	14632
899.753	14678
899.873	14640
899.993	14689
900.113	14533
900.232	14613
900.352	14499
900.472	14476
900.591	14434
900.711	14560
900.83	14480
900.95	14610
901.069	14564
901.189	14438
901.308	14206
901.427	14195
901.546	14172
901.665	14229
901.784	14153
901.904	14046
902.023	13864
902.141	13772
902.26	13723
902.379	13723
902.498	13708
902.617	13643
902.735	13757
902.854	13708
902.973	13696
903.091	13483
903.21	13464
903.328	13381
903.446	13373
903.565	13285
903.683	13362
903.801	13088
903.919	13183
904.038	13308
904.156	13103
904.274	13202
904.392	13179
904.51	12996
904.627	13004
904.745	13160
904.863	13217
904.981	12890
905.098	12719
905.216	12745
905.334	12901
905.451	12913
905.569	12760
905.686	12810
905.803	12806
905.921	12646
906.038	12665
906.155	12673
906.272	12471
906.389	12547
906.506	12353
906.623	12418
906.74	12308
906.857	12262
906.974	12289
907.091	12407
907.208	12513
907.324	12372
907.441	12330
907.557	12136
907.674	12159
907.79	12072
907.907	12045
908.023	12148
908.139	12121
908.256	12057
908.372	11958
908.488	12057
908.604	11973
908.72	11870
908.836	11836
908.952	11851
909.068	11901
909.184	11885
909.3	11843
909.415	11942
909.531	11863
909.647	11684
909.762	11615
909.878	11585
909.993	11722
910.108	11649
910.224	11554
910.339	11653
910.454	11554
910.57	11459
910.685	11421
910.8	11642
910.915	11688
911.03	11600
911.145	11307
911.259	11353
911.374	11292
911.489	11235
911.604	11269
911.718	10999
911.833	11090
911.947	10972
912.062	11041
912.176	11037
912.291	11102
912.405	11071
912.519	11315
912.633	11235
912.748	11212
912.862	11136
912.976	10961
913.09	10908
913.204	10858
913.318	10953
913.431	11067
913.545	11113
913.659	11067
913.772	11010
913.886	10839
914	10767
914.113	10858
914.226	10927
914.34	10927
914.453	10805
914.566	10892
914.68	10790
914.793	10793
914.906	10656
915.019	10599
915.132	10493
915.245	10531
915.358	10580
915.47	10580
915.583	10630
915.696	10599
915.809	10755
915.921	10736
916.034	10546
916.146	10565
916.259	10474
916.371	10634
916.483	10618
916.595	10474
916.708	10504
916.82	10588
916.932	10565
917.044	10512
917.156	10481
917.268	10390
917.38	10424
917.491	10386
917.603	10402
917.715	10535
917.826	10470
917.938	10413
918.049	10215
918.161	10421
918.272	10519
918.384	10538
918.495	10466
918.606	10421
918.717	10329
918.828	10386
918.939	10272
919.05	10223
919.161	10238
919.272	10071
919.383	10147
919.494	10390
919.604	10485
919.715	10329
919.826	10249
919.936	10306
920.047	10390
920.157	10295
920.267	10497
920.378	10314
920.488	10246
920.598	10466
920.708	10687
920.818	10561
920.928	10516
921.038	10691
921.148	10611
921.258	10280
921.368	10272
921.477	10131
921.587	10097
921.697	10116
921.806	10257
921.916	9998
922.025	9907
922.134	9861
922.244	9865
922.353	9876
922.462	9728
922.571	9671
922.68	9538
922.789	9606
922.898	9610
923.007	9526
923.116	9561
923.224	9545
923.333	9504
923.442	9477
923.55	9424
923.659	9481
923.767	9507
923.876	9454
923.984	9534
924.092	9397
924.201	9405
924.309	9378
924.417	9428
924.525	9340
924.633	9405
924.741	10120
924.849	9184
924.956	9363
925.064	9226
925.172	9146
925.279	9199
925.387	9214
925.494	9211
925.602	9367
925.709	9173
925.816	9180
925.924	9211
926.031	9287
926.138	9180
926.245	9237
926.352	9036
926.459	9275
926.566	9367
926.673	9097
926.779	9112
926.886	9051
926.993	8925
927.099	8982
927.206	8872
927.312	8861
927.419	8960
927.525	8899
927.631	8979
927.737	8807
927.843	8857
927.95	8697
928.056	8769
928.162	8750
928.267	8918
928.373	9389
928.479	8937
928.585	8663
928.69	8823
928.796	8861
928.901	8712
929.007	8640
929.112	8769
929.218	8724
929.323	8648
929.428	8716
929.533	8773
929.638	8583
929.743	8689
929.848	8613
929.953	8552
930.058	8503
930.163	8362
930.267	8415
930.372	8541
930.477	8385
930.581	8507
930.685	8454
930.79	8324
930.894	8419
930.998	8358
931.103	8408
931.207	8225
931.311	8073
931.415	8046
931.519	7860
931.623	7902
