Data from test_V78500241_2759.txt Node
Date: Fri Mar 25 14:52:55 CST 2022
User: usil
Spectrometer: V785-0024
Trigger mode: 0
Integration Time (sec): 4.000000E-1
Scans to average: 1
Nonlinearity correction enabled: false
Boxcar width: 0
Storing dark spectrum: false
XAxis mode: Wavelengths
Number of Pixels in Spectrum: 1024
>>>>>Begin Spectral Data<<<<<
801.071	22006
801.214	21998
801.356	21709
801.499	21549
801.641	21393
801.783	21530
801.926	21340
802.068	21241
802.211	21325
802.353	21237
802.496	21017
802.638	20842
802.78	20948
802.923	20857
803.065	20727
803.208	20659
803.35	20556
803.492	20804
803.635	20910
803.777	20575
803.919	20792
804.061	21055
804.204	20739
804.346	20663
804.488	20689
804.63	20632
804.773	20587
804.915	20598
805.057	20788
805.199	20621
805.341	20655
805.483	20537
805.626	20693
805.768	20549
805.91	20720
806.052	20556
806.194	20522
806.336	20720
806.478	20530
806.62	20632
806.762	20743
806.904	20902
807.046	20944
807.188	20872
807.33	20998
807.472	20986
807.614	20842
807.756	20910
807.898	20758
808.04	20644
808.182	20648
808.324	20716
808.465	20735
808.607	20868
808.749	20842
808.891	21039
809.033	21195
809.174	21074
809.316	21055
809.458	20857
809.6	20979
809.741	21036
809.883	20994
810.025	21055
810.166	21165
810.308	21222
810.45	21184
810.591	20929
810.733	20876
810.875	20762
811.016	20739
811.158	20686
811.299	20773
811.441	20838
811.582	20990
811.724	20758
811.865	20651
812.007	20712
812.148	20739
812.29	20876
812.431	20971
812.573	21119
812.714	21184
812.855	21245
812.997	21386
813.138	21477
813.279	21237
813.421	21249
813.562	21131
813.703	20918
813.845	20887
813.986	20579
814.127	20423
814.268	20408
814.41	20400
814.551	20180
814.692	20427
814.833	20317
814.974	20187
815.115	20294
815.256	20149
815.397	20092
815.539	20168
815.68	20065
815.821	19997
815.962	20062
816.103	19959
816.244	19856
816.385	19750
816.526	19715
816.666	19552
816.807	19495
816.948	19544
817.089	19575
817.23	19449
817.371	19540
817.512	19499
817.653	19468
817.793	19403
817.934	19324
818.075	19464
818.216	19472
818.356	19457
818.497	19179
818.638	19050
818.778	19168
818.919	19091
819.06	19206
819.2	19339
819.341	19266
819.481	19339
819.622	19415
819.762	19544
819.903	19487
820.043	19502
820.184	19362
820.324	19430
820.465	19514
820.605	19343
820.746	19308
820.886	19327
821.026	19335
821.167	19331
821.307	19430
821.447	19274
821.588	19225
821.728	19099
821.868	18920
822.008	18791
822.149	18875
822.289	18886
822.429	18631
822.569	18464
822.709	18471
822.849	18388
822.99	18281
823.13	18388
823.27	18353
823.41	18079
823.55	18098
823.69	18163
823.83	18072
823.97	18057
824.11	17882
824.25	17866
824.389	17832
824.529	17939
824.669	17882
824.809	17973
824.949	17931
825.089	17980
825.228	17824
825.368	17783
825.508	17684
825.648	17817
825.787	17691
825.927	17695
826.067	17695
826.206	17604
826.346	17824
826.485	17672
826.625	17646
826.765	17687
826.904	17745
827.044	17619
827.183	17490
827.323	17318
827.462	17410
827.601	17292
827.741	17425
827.88	17395
828.02	17273
828.159	17337
828.298	17364
828.437	17414
828.577	17318
828.716	17368
828.855	17379
828.994	17155
829.134	17071
829.273	17151
829.412	16946
829.551	16957
829.69	17071
829.829	17075
829.968	17216
830.107	17140
830.246	17113
830.385	17109
830.524	17098
830.663	16877
830.802	16854
830.941	16774
831.08	16782
831.219	16858
831.357	16767
831.496	16946
831.635	16721
831.774	16691
831.913	16691
832.051	16561
832.19	16508
832.329	16710
832.467	16428
832.606	16519
832.744	16409
832.883	16485
833.022	16375
833.16	16348
833.299	16466
833.437	16485
833.576	16455
833.714	16455
833.852	16447
833.991	16538
834.129	16577
834.267	16626
834.406	16519
834.544	16630
834.682	16550
834.821	16546
834.959	16687
835.097	16478
835.235	16702
835.373	16603
835.511	16565
835.65	16375
835.788	16409
835.926	16352
836.064	16196
836.202	16360
836.34	16432
836.478	16538
836.615	16356
836.753	16569
836.891	16478
837.029	16504
837.167	16466
837.305	16341
837.443	16341
837.58	16276
837.718	16436
837.856	16318
837.993	16310
838.131	16299
838.269	16257
838.406	16226
838.544	16154
838.681	16082
838.819	16048
838.956	15899
839.094	15865
839.231	15926
839.369	16017
839.506	16306
839.643	16166
839.781	15861
839.918	15846
840.055	15922
840.193	15804
840.33	15873
840.467	15842
840.604	15956
840.742	16234
840.879	15800
841.016	15857
841.153	15770
841.29	16010
841.427	15953
841.564	15918
841.701	15949
841.838	15804
841.975	15797
842.112	15857
842.249	15804
842.385	15610
842.522	15808
842.659	15660
842.796	15618
842.933	15629
843.069	15728
843.206	15625
843.343	15663
843.479	15610
843.616	15622
843.752	15618
843.889	15466
844.025	15682
844.162	15393
844.298	15492
844.435	15435
844.571	15348
844.708	15549
844.844	15473
844.98	15625
845.117	15523
845.253	15363
845.389	15287
845.525	15310
845.661	15329
845.798	15180
845.934	15340
846.07	15104
846.206	15264
846.342	15268
846.478	15157
846.614	15039
846.75	15001
846.886	15013
847.022	14952
847.158	15024
847.294	15005
847.429	14986
847.565	15047
847.701	15207
847.837	14796
847.972	14765
848.108	14819
848.244	14720
848.379	14758
848.515	14682
848.65	14621
848.786	14648
848.921	14549
849.057	14682
849.192	14785
849.328	14621
849.463	14686
849.598	14617
849.734	14632
849.869	14465
850.004	14396
850.14	14404
850.275	14343
850.41	14252
850.545	14248
850.68	14267
850.815	14454
850.95	14374
851.085	14427
851.22	14465
851.355	14362
851.49	14404
851.625	14305
851.76	14317
851.895	14275
852.03	14244
852.165	14347
852.299	14431
852.434	14484
852.569	14339
852.703	14320
852.838	14484
852.973	14469
853.107	14389
853.242	14347
853.376	14176
853.511	14168
853.645	14176
853.78	14366
853.914	14381
854.048	14168
854.183	14214
854.317	14263
854.451	14408
854.585	14229
854.72	14191
854.854	14336
854.988	14100
855.122	14244
855.256	14119
855.39	14282
855.524	14336
855.658	14252
855.792	14259
855.926	14286
856.06	14275
856.194	14347
856.327	14271
856.461	14073
856.595	14267
856.729	14225
856.862	14343
856.996	14336
857.13	14317
857.263	14362
857.397	14290
857.53	14298
857.664	14332
857.797	14294
857.931	14408
858.064	14309
858.197	14355
858.331	14218
858.464	14161
858.597	14107
858.731	14191
858.864	14278
858.997	14244
859.13	14229
859.263	14328
859.396	14294
859.529	14301
859.662	14225
859.795	14282
859.928	14164
860.061	14355
860.194	14400
860.327	14381
860.46	14267
860.592	14385
860.725	14259
860.858	14347
860.99	14161
861.123	14107
861.256	14191
861.388	14309
861.521	14921
861.653	14096
861.786	14138
861.918	14084
862.05	14229
862.183	14263
862.315	14259
862.447	14278
862.58	14195
862.712	14050
862.844	14054
862.976	14081
863.108	14183
863.24	14514
863.372	13932
863.504	14043
863.636	14027
863.768	14195
863.9	14039
864.032	14100
864.164	14020
864.296	14073
864.428	14145
864.559	14130
864.691	14130
864.823	14020
864.954	14065
865.086	14054
865.217	14008
865.349	13947
865.48	13974
865.612	14050
865.743	14153
865.875	14020
866.006	14073
866.137	13997
866.269	14043
866.4	14107
866.531	13894
866.662	13932
866.793	13951
866.924	13986
867.055	14054
867.186	14001
867.317	13955
867.448	13898
867.579	14020
867.71	13898
867.841	13963
867.972	14031
868.103	13967
868.233	13967
868.364	14016
868.495	14126
868.625	14221
868.756	14396
868.886	14069
869.017	14225
869.147	14332
869.278	14488
869.408	14225
869.539	14157
869.669	14317
869.799	14221
869.929	14374
870.06	14412
870.19	14598
870.32	14511
870.45	14476
870.58	14777
870.71	14716
870.84	14773
870.97	14617
871.1	14507
871.23	14906
871.36	14864
871.489	14754
871.619	14739
871.749	14788
871.879	14765
872.008	15051
872.138	14861
872.267	14842
872.397	14807
872.526	14693
872.656	14655
872.785	14663
872.915	14967
873.044	15024
873.173	14880
873.303	14967
873.432	14883
873.561	14986
873.69	14948
873.819	14910
873.948	14975
874.077	14921
874.206	14830
874.335	14887
874.464	15039
874.593	15165
874.722	15119
874.851	15260
874.979	15268
875.108	15264
875.237	15169
875.365	15142
875.494	15211
875.623	15348
875.751	15146
875.88	15294
876.008	15340
876.136	15389
876.265	15599
876.393	15713
876.521	15743
876.65	15835
876.778	15625
876.906	15679
877.034	15523
877.162	15618
877.29	15553
877.418	15663
877.546	15652
877.674	15614
877.802	15530
877.93	15713
878.058	15515
878.185	15485
878.313	15545
878.441	15663
878.568	15496
878.696	15584
878.824	15633
878.951	15682
879.079	15846
879.206	15956
879.333	15785
879.461	15755
879.588	15774
879.715	15831
879.842	15926
879.97	15698
880.097	15462
880.224	15477
880.351	15458
880.478	15576
880.605	15405
880.732	15431
880.859	15736
880.986	15492
881.112	15511
881.239	15485
881.366	15272
881.493	15157
881.619	15100
881.746	15135
881.872	15138
881.999	15146
882.125	15047
882.252	15180
882.378	15119
882.505	15256
882.631	15093
882.757	14963
882.883	15039
883.01	14929
883.136	14918
883.262	14796
883.388	14891
883.514	15009
883.64	15005
883.766	14876
883.892	14754
884.018	14891
884.143	14948
884.269	15043
884.395	14625
884.52	14594
884.646	14686
884.772	14568
884.897	14644
885.023	14670
885.148	14880
885.274	14788
885.399	14727
885.524	14735
885.65	14610
885.775	14644
885.9	14629
886.025	14868
886.15	14838
886.275	14598
886.4	14594
886.525	14712
886.65	14663
886.775	14617
886.9	14746
887.025	14994
887.149	14686
887.274	14492
887.399	14442
887.523	14469
887.648	14400
887.773	14309
887.897	14522
888.021	14556
888.146	14514
888.27	14606
888.395	14617
888.519	14606
888.643	14492
888.767	14537
888.891	14465
889.015	14377
889.139	14263
889.263	14374
889.387	14526
889.511	14518
889.635	14442
889.759	14362
889.883	14282
890.006	14415
890.13	14518
890.254	14252
890.377	14347
890.501	14172
890.624	14168
890.748	14214
890.871	14065
890.995	14111
891.118	14065
891.241	14065
891.364	14134
891.488	14149
891.611	14111
891.734	14077
891.857	14142
891.98	14164
892.103	14145
892.226	14058
892.349	13970
892.471	13887
892.594	14039
892.717	14081
892.839	14027
892.962	14081
893.085	14176
893.207	13970
893.33	13955
893.452	13951
893.575	14111
893.697	14119
893.819	14225
893.941	14157
894.064	14153
894.186	14084
894.308	14008
894.43	14278
894.552	14305
894.674	14088
894.796	14111
894.918	14031
895.04	14092
895.161	14191
895.283	14263
895.405	14088
895.526	14183
895.648	14206
895.769	14256
895.891	14298
896.012	14244
896.134	14339
896.255	14256
896.376	14180
896.498	14210
896.619	14206
896.74	14248
896.861	14237
896.982	14495
897.103	14807
897.224	14522
897.345	14469
897.466	14438
897.587	14514
897.708	14674
897.828	14488
897.949	14442
898.07	14377
898.19	14526
898.311	14564
898.431	14530
898.552	14518
898.672	14667
898.792	14655
898.913	14720
899.033	14587
899.153	14366
899.273	14317
899.393	14419
899.513	14423
899.633	14408
899.753	14488
899.873	14381
899.993	14419
900.113	14408
900.232	14507
900.352	14412
900.472	14419
900.591	14324
900.711	14298
900.83	14347
900.95	14381
901.069	14259
901.189	14275
901.308	14043
901.427	13852
901.546	14001
901.665	14031
901.784	13982
901.904	13856
902.023	13780
902.141	13647
902.26	13540
902.379	13620
902.498	13468
902.617	13468
902.735	13537
902.854	13556
902.973	13483
903.091	13346
903.21	13183
903.328	13282
903.446	13187
903.565	13160
903.683	13114
903.801	13012
903.919	13053
904.038	13126
904.156	12867
904.274	12977
904.392	12817
904.51	12878
904.627	12951
904.745	12939
904.863	13008
904.981	12692
905.098	12662
905.216	12525
905.334	12631
905.451	12612
905.569	12563
905.686	12673
905.803	12627
905.921	12448
906.038	12528
906.155	12433
906.272	12346
906.389	12304
906.506	12251
906.623	12167
906.74	12152
906.857	12163
906.974	12171
907.091	12251
907.208	12365
907.324	12346
907.441	12148
907.557	12003
907.674	12003
907.79	11851
907.907	12015
908.023	12060
908.139	11942
908.256	11950
908.372	11866
908.488	11874
908.604	11783
908.72	11680
908.836	11764
908.952	11737
909.068	11786
909.184	11870
909.3	11707
909.415	11786
909.531	11722
909.647	11493
909.762	11520
909.878	11486
909.993	11497
910.108	11543
910.224	11497
910.339	11448
910.454	11436
910.57	11368
910.685	11341
910.8	11585
910.915	11592
911.03	11433
911.145	11254
911.259	11151
911.374	11220
911.489	11105
911.604	11086
911.718	10946
911.833	11048
911.947	10892
912.062	10812
912.176	10930
912.291	11075
912.405	11060
912.519	11124
912.633	11208
912.748	11045
912.862	10976
912.976	10900
913.09	10702
913.204	10854
913.318	10858
913.431	10942
913.545	10961
913.659	10927
913.772	10889
913.886	10763
914	10687
914.113	10774
914.226	10839
914.34	10824
914.453	10626
914.566	10820
914.68	10698
914.793	10672
914.906	10592
915.019	10508
915.132	10390
915.245	10367
915.358	10447
915.47	10481
915.583	10478
915.696	10558
915.809	10558
915.921	10630
916.034	10462
916.146	10417
916.259	10447
916.371	10542
916.483	10481
916.595	10432
916.708	10424
916.82	10402
916.932	10436
917.044	10375
917.156	10375
917.268	10318
917.38	10272
917.491	10310
917.603	10310
917.715	10424
917.826	10421
917.938	10310
918.049	10196
918.161	10382
918.272	10413
918.384	10497
918.495	10337
918.606	10158
918.717	10109
918.828	10211
918.939	10196
919.05	10059
919.161	10215
919.272	9991
919.383	10101
919.494	10215
919.604	10402
919.715	10227
919.826	10166
919.936	10181
920.047	10188
920.157	10147
920.267	10421
920.378	10291
920.488	10287
920.598	10436
920.708	10565
920.818	10424
920.928	10417
921.038	10622
921.148	10558
921.258	10215
921.368	10188
921.477	10112
921.587	10010
921.697	9945
921.806	10105
921.916	9937
922.025	9838
922.134	9789
922.244	9732
922.353	9751
922.462	9747
922.571	9637
922.68	9435
922.789	9428
922.898	9515
923.007	9450
923.116	9591
923.224	9473
923.333	9408
923.442	9393
923.55	9336
923.659	9416
923.767	9420
923.876	9370
923.984	9386
924.092	9294
924.201	9310
924.309	9355
924.417	9378
924.525	9321
924.633	9386
924.741	10036
924.849	9146
924.956	9294
925.064	9157
925.172	9009
925.279	9024
925.387	9180
925.494	9157
925.602	9199
925.709	9199
925.816	9077
925.924	9047
926.031	9199
926.138	9188
926.245	9173
926.352	9081
926.459	9176
926.566	9260
926.673	9135
926.779	9051
926.886	8963
926.993	8861
927.099	8800
927.206	8807
927.312	8804
927.419	8891
927.525	8849
927.631	8937
927.737	8811
927.843	8811
927.95	8583
928.056	8758
928.162	8739
928.267	8754
928.373	9374
928.479	8834
928.585	8651
928.69	8720
928.796	8724
928.901	8659
929.007	8514
929.112	8625
929.218	8606
929.323	8552
929.428	8568
929.533	8663
929.638	8526
929.743	8533
929.848	8545
929.953	8552
930.058	8480
930.163	8332
930.267	8374
930.372	8434
930.477	8301
930.581	8606
930.685	8461
930.79	8305
930.894	8286
930.998	8324
931.103	8351
931.207	8046
931.311	8062
931.415	7959
931.519	7822
931.623	7746
