Data from test_V78500241_356.txt Node
Date: Fri Mar 25 14:36:12 CST 2022
User: usil
Spectrometer: V785-0024
Trigger mode: 0
Integration Time (sec): 4.000000E-1
Scans to average: 1
Nonlinearity correction enabled: false
Boxcar width: 0
Storing dark spectrum: false
XAxis mode: Wavelengths
Number of Pixels in Spectrum: 1024
>>>>>Begin Spectral Data<<<<<
801.071	26906
801.214	26708
801.356	26473
801.499	26419
801.641	26199
801.783	26263
801.926	26396
802.068	26176
802.211	26149
802.353	26221
802.496	25940
802.638	25887
802.78	25814
802.923	25769
803.065	25780
803.208	25704
803.35	25670
803.492	25807
803.635	25807
803.777	25879
803.919	25970
804.061	26252
804.204	25788
804.346	25655
804.488	25613
804.63	25887
804.773	25567
804.915	25826
805.057	25955
805.199	25906
805.341	25826
805.483	25738
805.626	25674
805.768	25738
805.91	25727
806.052	25841
806.194	25681
806.336	26031
806.478	25868
806.62	25753
806.762	25978
806.904	25989
807.046	26221
807.188	26103
807.33	26214
807.472	26320
807.614	26214
807.756	26263
807.898	26020
808.04	25875
808.182	25868
808.324	25936
808.465	26100
808.607	26183
808.749	26298
808.891	26286
809.033	26598
809.174	26351
809.316	26358
809.458	26301
809.6	26301
809.741	26267
809.883	26195
810.025	26587
810.166	26431
810.308	26606
810.45	26393
810.591	26320
810.733	26305
810.875	26278
811.016	26199
811.158	26069
811.299	26172
811.441	26301
811.582	26317
811.724	26218
811.865	26016
812.007	25917
812.148	26100
812.29	26263
812.431	26457
812.573	26248
812.714	26400
812.855	26590
812.997	26727
813.138	26765
813.279	26765
813.421	26606
813.562	26648
813.703	26427
813.845	26324
813.986	25997
814.127	25883
814.268	25715
814.41	25803
814.551	25795
814.692	25799
814.833	25613
814.974	25681
815.115	25689
815.256	25457
815.397	25613
815.539	25575
815.68	25350
815.821	25616
815.962	25483
816.103	25525
816.244	25320
816.385	25171
816.526	25152
816.666	24970
816.807	24863
816.948	25027
817.089	24875
817.23	24753
817.371	24840
817.512	24897
817.653	24749
817.793	24730
817.934	24711
818.075	24776
818.216	24814
818.356	24715
818.497	24620
818.638	24483
818.778	24593
818.919	24513
819.06	24509
819.2	24551
819.341	24856
819.481	24741
819.622	24848
819.762	25061
819.903	24973
820.043	24844
820.184	24806
820.324	24878
820.465	24817
820.605	24886
820.746	24703
820.886	24669
821.026	24711
821.167	24791
821.307	24688
821.447	24722
821.588	24639
821.728	24418
821.868	24384
822.008	24270
822.149	24129
822.289	24209
822.429	23931
822.569	23790
822.709	23885
822.849	23657
822.99	23634
823.13	23600
823.27	23516
823.41	23505
823.55	23292
823.69	23258
823.83	23364
823.97	23288
824.11	23170
824.25	23136
824.389	23212
824.529	23220
824.669	23189
824.809	23185
824.949	23200
825.089	23254
825.228	23174
825.368	23018
825.508	23041
825.648	23014
825.787	22991
825.927	23208
826.067	22984
826.206	23006
826.346	23006
826.485	22972
826.625	22965
826.765	23060
826.904	22991
827.044	22683
827.183	22744
827.323	22717
827.462	22710
827.601	22603
827.741	22672
827.88	22596
828.02	22519
828.159	22611
828.298	22687
828.437	22748
828.577	22687
828.716	22725
828.855	22599
828.994	22371
829.134	22360
829.273	22424
829.412	22382
829.551	22295
829.69	22333
829.829	22447
829.968	22379
830.107	22455
830.246	22382
830.385	22363
830.524	22162
830.663	22173
830.802	21941
830.941	21960
831.08	21949
831.219	22002
831.357	22059
831.496	22139
831.635	21899
831.774	21892
831.913	21789
832.051	21766
832.19	21667
832.329	21625
832.467	21504
832.606	21595
832.744	21523
832.883	21538
833.022	21553
833.16	21652
833.299	21591
833.437	21663
833.576	21705
833.714	21561
833.852	21606
833.991	21652
834.129	21648
834.267	21682
834.406	21405
834.544	21530
834.682	21511
834.821	21462
834.959	21690
835.097	21515
835.235	21496
835.373	21557
835.511	21557
835.65	21473
835.788	21458
835.926	21230
836.064	21146
836.202	21291
836.34	21469
836.478	21530
836.615	21466
836.753	21408
836.891	21447
837.029	21450
837.167	21397
837.305	21363
837.443	21355
837.58	21294
837.718	21370
837.856	21237
837.993	21131
838.131	21214
838.269	21173
838.406	21176
838.544	21165
838.681	20876
838.819	20876
838.956	20716
839.094	20682
839.231	20823
839.369	20830
839.506	21138
839.643	20941
839.781	20609
839.918	20533
840.055	20712
840.193	20781
840.33	20663
840.467	20667
840.604	20667
840.742	20762
840.879	20454
841.016	20415
841.153	20480
841.29	20678
841.427	20674
841.564	20602
841.701	20541
841.838	20609
841.975	20533
842.112	20560
842.249	20381
842.385	20286
842.522	20552
842.659	20434
842.796	20309
842.933	20278
843.069	20336
843.206	20301
843.343	20320
843.479	20309
843.616	20317
843.752	20096
843.889	20134
844.025	20271
844.162	20107
844.298	20240
844.435	19982
844.571	20115
844.708	20111
844.844	20240
844.98	20149
845.117	20187
845.253	20050
845.389	19993
845.525	20062
845.661	20020
845.798	19856
845.934	20024
846.07	19909
846.206	19955
846.342	20100
846.478	19936
846.614	19712
846.75	19491
846.886	19609
847.022	19689
847.158	19586
847.294	19719
847.429	19525
847.565	19510
847.701	19624
847.837	19304
847.972	19282
848.108	19392
848.244	19331
848.379	19145
848.515	19118
848.65	19080
848.786	19160
848.921	19129
849.057	19206
849.192	19148
849.328	19107
849.463	19065
849.598	19019
849.734	19053
849.869	19019
850.004	18840
850.14	18935
850.275	18882
850.41	18890
850.545	18829
850.68	18882
850.815	18783
850.95	18753
851.085	19027
851.22	18856
851.355	18943
851.49	18791
851.625	18890
851.76	18817
851.895	18661
852.03	18753
852.165	18802
852.299	18867
852.434	18859
852.569	18878
852.703	18791
852.838	18875
852.973	18878
853.107	18951
853.242	18738
853.376	18661
853.511	18616
853.645	18734
853.78	18856
853.914	18703
854.048	18631
854.183	18620
854.317	18608
854.451	18772
854.585	18627
854.72	18585
854.854	18677
854.988	18620
855.122	18612
855.256	18601
855.39	18528
855.524	18703
855.658	18741
855.792	18654
855.926	18604
856.06	18703
856.194	18684
856.327	18722
856.461	18627
856.595	18509
856.729	18661
856.862	18798
856.996	18692
857.13	18669
857.263	18760
857.397	18707
857.53	18551
857.664	18650
857.797	18665
857.931	18779
858.064	18677
858.197	18707
858.331	18620
858.464	18528
858.597	18528
858.731	18566
858.864	18574
858.997	18536
859.13	18608
859.263	18658
859.396	18719
859.529	18506
859.662	18494
859.795	18483
859.928	18608
860.061	18757
860.194	18753
860.327	18627
860.46	18525
860.592	18661
860.725	18764
860.858	18635
860.99	18547
861.123	18509
861.256	18544
861.388	18635
861.521	19350
861.653	18403
861.786	18426
861.918	18494
862.05	18578
862.183	18726
862.315	18681
862.447	18650
862.58	18601
862.712	18452
862.844	18369
862.976	18479
863.108	18460
863.24	18719
863.372	18296
863.504	18300
863.636	18319
863.768	18433
863.9	18323
864.032	18304
864.164	18311
864.296	18422
864.428	18395
864.559	18369
864.691	18418
864.823	18292
864.954	18319
865.086	18273
865.217	18239
865.349	18163
865.48	18357
865.612	18159
865.743	18353
865.875	18258
866.006	18266
866.137	18247
866.269	18224
866.4	18239
866.531	18201
866.662	18098
866.793	18213
866.924	18209
867.055	18190
867.186	18273
867.317	18098
867.448	18110
867.579	18110
867.71	18133
867.841	17999
867.972	18201
868.103	18224
868.233	18186
868.364	18178
868.495	18209
868.625	18479
868.756	18498
868.886	18289
869.017	18319
869.147	18574
869.278	18467
869.408	18506
869.539	18357
869.669	18467
869.799	18479
869.929	18471
870.06	18517
870.19	18623
870.32	18665
870.45	18741
870.58	18802
870.71	18825
870.84	18977
870.97	18734
871.1	18791
871.23	19000
871.36	18966
871.489	18916
871.619	18787
871.749	18954
871.879	19004
872.008	19061
872.138	19000
872.267	19031
872.397	18913
872.526	18840
872.656	18894
872.785	18856
872.915	18932
873.044	19126
873.173	19118
873.303	19061
873.432	18993
873.561	19164
873.69	19160
873.819	19069
873.948	19114
874.077	19107
874.206	19057
874.335	19072
874.464	19183
874.593	19240
874.722	19168
874.851	19365
874.979	19354
875.108	19434
875.237	19324
875.365	19202
875.494	19293
875.623	19297
875.751	19335
875.88	19327
876.008	19434
876.136	19556
876.265	19689
876.393	19833
876.521	19791
876.65	19826
876.778	19734
876.906	19651
877.034	19601
877.162	19830
877.29	19601
877.418	19624
877.546	19746
877.674	19662
877.802	19723
877.93	19811
878.058	19666
878.185	19499
878.313	19727
878.441	19594
878.568	19571
878.696	19594
878.824	19784
878.951	19860
879.079	19856
879.206	19982
879.333	19769
879.461	19807
879.588	19826
879.715	19936
879.842	19970
879.97	19643
880.097	19548
880.224	19616
880.351	19651
880.478	19537
880.605	19548
880.732	19559
880.859	19845
880.986	19434
881.112	19453
881.239	19502
881.366	19415
881.493	19202
881.619	19160
881.746	19179
881.872	19179
881.999	19034
882.125	19057
882.252	19122
882.378	19202
882.505	19244
882.631	18977
882.757	19065
882.883	18973
883.01	18928
883.136	18875
883.262	18848
883.388	18852
883.514	18882
883.64	18932
883.766	18935
883.892	18798
884.018	18677
884.143	18772
884.269	18909
884.395	18703
884.52	18593
884.646	18471
884.772	18555
884.897	18486
885.023	18563
885.148	18730
885.274	18700
885.399	18684
885.524	18486
885.65	18620
885.775	18608
885.9	18635
886.025	18608
886.15	18654
886.275	18467
886.4	18570
886.525	18559
886.65	18566
886.775	18437
886.9	18684
887.025	18844
887.149	18494
887.274	18391
887.399	18289
887.523	18323
887.648	18289
887.773	18285
887.897	18433
888.021	18323
888.146	18251
888.27	18467
888.395	18403
888.519	18388
888.643	18426
888.767	18319
888.891	18296
889.015	18174
889.139	18197
889.263	18007
889.387	18239
889.511	18407
889.635	18251
889.759	18057
889.883	18049
890.006	18091
890.13	18186
890.254	18030
890.377	18057
890.501	17874
890.624	17843
890.748	17901
890.871	17821
890.995	17805
891.118	17714
891.241	17729
891.364	17836
891.488	17893
891.611	17798
891.734	17809
891.857	17851
891.98	17805
892.103	17836
892.226	17824
892.349	17596
892.471	17554
892.594	17665
892.717	17638
892.839	17619
892.962	17668
893.085	17756
893.207	17695
893.33	17547
893.452	17676
893.575	17718
893.697	17714
893.819	17893
893.941	17954
894.064	17726
894.186	17589
894.308	17657
894.43	17737
894.552	17824
894.674	17809
894.796	17630
894.918	17752
895.04	17699
895.161	17756
895.283	17718
895.405	17722
895.526	17851
895.648	17661
895.769	17824
895.891	17878
896.012	17786
896.134	17760
896.255	17851
896.376	17764
896.498	17805
896.619	17942
896.74	17874
896.861	17950
896.982	18133
897.103	18205
897.224	18098
897.345	18060
897.466	17977
897.587	18022
897.708	18140
897.828	18045
897.949	18045
898.07	17893
898.19	17984
898.311	18060
898.431	17923
898.552	18019
898.672	18095
898.792	18057
898.913	18007
899.033	17908
899.153	17737
899.273	17661
899.393	17691
899.513	17824
899.633	17805
899.753	17882
899.873	17729
899.993	17805
900.113	17710
900.232	17863
900.352	17718
900.472	17729
900.591	17581
900.711	17718
900.83	17501
900.95	17783
901.069	17710
901.189	17566
901.308	17326
901.427	17292
901.546	17341
901.665	17372
901.784	17288
901.904	17162
902.023	17086
902.141	16892
902.26	16831
902.379	16774
902.498	16774
902.617	16752
902.735	16797
902.854	16687
902.973	16694
903.091	16504
903.21	16500
903.328	16538
903.446	16436
903.565	16196
903.683	16276
903.801	16177
903.919	16303
904.038	16272
904.156	16021
904.274	16188
904.392	16059
904.51	16112
904.627	16078
904.745	16139
904.863	16082
904.981	15827
905.098	15808
905.216	15701
905.334	15709
905.451	15622
905.569	15766
905.686	15694
905.803	15587
905.921	15530
906.038	15557
906.155	15428
906.272	15431
906.389	15431
906.506	15325
906.623	15264
906.74	15363
906.857	15195
906.974	15081
907.091	15294
907.208	15336
907.324	15195
907.441	15260
907.557	15062
907.674	14967
907.79	14933
907.907	14921
908.023	15036
908.139	14971
908.256	14895
908.372	14868
908.488	14777
908.604	14773
908.72	14697
908.836	14674
908.952	14689
909.068	14594
909.184	14731
909.3	14617
909.415	14708
909.531	14678
909.647	14499
909.762	14476
909.878	14389
909.993	14423
910.108	14488
910.224	14396
910.339	14415
910.454	14301
910.57	14229
910.685	14084
910.8	14385
910.915	14358
911.03	14298
911.145	14043
911.259	14062
911.374	14062
911.489	13940
911.604	13826
911.718	13875
911.833	13791
911.947	13708
912.062	13712
912.176	13696
912.291	13799
912.405	13723
912.519	13959
912.633	13947
912.748	13860
912.862	13712
912.976	13529
913.09	13521
913.204	13632
913.318	13491
913.431	13685
913.545	13651
913.659	13670
913.772	13575
913.886	13407
914	13487
914.113	13552
914.226	13529
914.34	13510
914.453	13384
914.566	13499
914.68	13365
914.793	13304
914.906	13160
915.019	13175
915.132	13103
915.245	13179
915.358	13088
915.47	13133
915.583	13061
915.696	13088
915.809	13240
915.921	13160
916.034	13053
916.146	12996
916.259	12973
916.371	13069
916.483	13061
916.595	13042
916.708	12973
916.82	13008
916.932	12981
917.044	13042
917.156	12871
917.268	12821
917.38	12825
917.491	12764
917.603	12833
917.715	12909
917.826	12939
917.938	12711
918.049	12722
918.161	12738
918.272	12939
918.384	12924
918.495	12837
918.606	12650
918.717	12582
918.828	12753
918.939	12696
919.05	12441
919.161	12635
919.272	12464
919.383	12494
919.494	12703
919.604	12757
919.715	12608
919.826	12555
919.936	12467
920.047	12574
920.157	12601
920.267	12757
920.378	12612
920.488	12540
920.598	12787
920.708	12909
920.818	12760
920.928	12730
921.038	12833
921.148	12920
921.258	12483
921.368	12506
921.477	12437
921.587	12327
921.697	12247
921.806	12315
921.916	12186
922.025	12083
922.134	12057
922.244	12003
922.353	12133
922.462	11897
922.571	11821
922.68	11775
922.789	11733
922.898	11703
923.007	11691
923.116	11710
923.224	11680
923.333	11657
923.442	11558
923.55	11543
923.659	11558
923.767	11585
923.876	11471
923.984	11627
924.092	11501
924.201	11512
924.309	11490
924.417	11512
924.525	11376
924.633	11467
924.741	12091
924.849	11299
924.956	11345
925.064	11284
925.172	11174
925.279	11155
925.387	11250
925.494	11201
925.602	11383
925.709	11303
925.816	11147
925.924	11258
926.031	11311
926.138	11170
926.245	11280
926.352	11086
926.459	11261
926.566	11277
926.673	11117
926.779	11014
926.886	11003
926.993	10938
927.099	10889
927.206	10816
927.312	10793
927.419	10881
927.525	10869
927.631	10831
927.737	10824
927.843	10721
927.95	10675
928.056	10698
928.162	10736
928.267	10748
928.373	11387
928.479	10839
928.585	10584
928.69	10626
928.796	10717
928.901	10615
929.007	10481
929.112	10588
929.218	10611
929.323	10592
929.428	10523
929.533	10622
929.638	10447
929.743	10508
929.848	10516
929.953	10478
930.058	10318
930.163	10200
930.267	10257
930.372	10310
930.477	10211
930.581	10447
930.685	10196
930.79	10101
930.894	10101
930.998	10112
931.103	10204
931.207	9895
931.311	9740
931.415	9720
931.519	9523
931.623	9599
