Data from test_V78500241_3511.txt Node
Date: Fri Mar 25 14:58:09 CST 2022
User: usil
Spectrometer: V785-0024
Trigger mode: 0
Integration Time (sec): 4.000000E-1
Scans to average: 1
Nonlinearity correction enabled: false
Boxcar width: 0
Storing dark spectrum: false
XAxis mode: Wavelengths
Number of Pixels in Spectrum: 1024
>>>>>Begin Spectral Data<<<<<
801.071	21972
801.214	21846
801.356	21614
801.499	21656
801.641	21450
801.783	21245
801.926	21378
802.068	21161
802.211	21074
802.353	21100
802.496	20864
802.638	20902
802.78	20720
802.923	20613
803.065	20708
803.208	20632
803.35	20556
803.492	20746
803.635	20716
803.777	20564
803.919	20602
804.061	20960
804.204	20712
804.346	20537
804.488	20568
804.63	20625
804.773	20434
804.915	20457
805.057	20754
805.199	20415
805.341	20625
805.483	20663
805.626	20617
805.768	20431
805.91	20549
806.052	20583
806.194	20488
806.336	20750
806.478	20461
806.62	20396
806.762	20617
806.904	20727
807.046	20872
807.188	20872
807.33	20826
807.472	20853
807.614	20724
807.756	20754
807.898	20689
808.04	20495
808.182	20594
808.324	20617
808.465	20678
808.607	20834
808.749	20868
808.891	20979
809.033	21005
809.174	20941
809.316	20758
809.458	20815
809.6	20769
809.741	20948
809.883	20937
810.025	21020
810.166	21032
810.308	21032
810.45	20982
810.591	20868
810.733	20731
810.875	20674
811.016	20503
811.158	20461
811.299	20648
811.441	20762
811.582	20746
811.724	20564
811.865	20590
812.007	20537
812.148	20678
812.29	20682
812.431	20872
812.573	20971
812.714	20956
812.855	21108
812.997	21131
813.138	21306
813.279	21100
813.421	21176
813.562	21001
813.703	20842
813.845	20792
813.986	20606
814.127	20518
814.268	20259
814.41	20187
814.551	20138
814.692	20275
814.833	20153
814.974	20168
815.115	20107
815.256	19982
815.397	20115
815.539	19978
815.68	19940
815.821	19772
815.962	19997
816.103	19989
816.244	19696
816.385	19601
816.526	19552
816.666	19472
816.807	19346
816.948	19388
817.089	19411
817.23	19335
817.371	19331
817.512	19156
817.653	19365
817.793	19293
817.934	19289
818.075	19339
818.216	19236
818.356	19247
818.497	19095
818.638	18973
818.778	19065
818.919	18905
819.06	18993
819.2	18966
819.341	19164
819.481	19285
819.622	19327
819.762	19449
819.903	19377
820.043	19377
820.184	19392
820.324	19293
820.465	19415
820.605	19350
820.746	19255
820.886	19202
821.026	19259
821.167	19168
821.307	19365
821.447	19263
821.588	19107
821.728	18996
821.868	18829
822.008	18631
822.149	18696
822.289	18665
822.429	18319
822.569	18342
822.709	18479
822.849	18251
822.99	18110
823.13	18140
823.27	18140
823.41	18125
823.55	18019
823.69	17996
823.83	18015
823.97	17931
824.11	17786
824.25	17794
824.389	17760
824.529	17775
824.669	17722
824.809	17813
824.949	17760
825.089	17840
825.228	17817
825.368	17703
825.508	17448
825.648	17570
825.787	17573
825.927	17653
826.067	17608
826.206	17490
826.346	17611
826.485	17501
826.625	17596
826.765	17714
826.904	17653
827.044	17395
827.183	17322
827.323	17185
827.462	17387
827.601	17341
827.741	17318
827.88	17208
828.02	17193
828.159	17296
828.298	17269
828.437	17376
828.577	17185
828.716	17360
828.855	17273
828.994	17117
829.134	17170
829.273	17045
829.412	17010
829.551	16976
829.69	17033
829.829	16961
829.968	17132
830.107	17052
830.246	17075
830.385	17094
830.524	16934
830.663	16972
830.802	16805
830.941	16736
831.08	16698
831.219	16755
831.357	16683
831.496	17056
831.635	16580
831.774	16675
831.913	16596
832.051	16417
832.19	16523
832.329	16550
832.467	16390
832.606	16314
832.744	16287
832.883	16318
833.022	16280
833.16	16299
833.299	16459
833.437	16390
833.576	16363
833.714	16398
833.852	16462
833.991	16436
834.129	16546
834.267	16512
834.406	16474
834.544	16409
834.682	16573
834.821	16474
834.959	16573
835.097	16394
835.235	16519
835.373	16421
835.511	16421
835.65	16318
835.788	16246
835.926	16185
836.064	16109
836.202	16154
836.34	16417
836.478	16440
836.615	16268
836.753	16265
836.891	16542
837.029	16382
837.167	16230
837.305	16219
837.443	16242
837.58	16120
837.718	16280
837.856	16188
837.993	16086
838.131	16314
838.269	16032
838.406	16051
838.544	16090
838.681	15949
838.819	15926
838.956	15751
839.094	15793
839.231	15884
839.369	15949
839.506	16196
839.643	16040
839.781	15842
839.918	15770
840.055	15747
840.193	15724
840.33	15747
840.467	15663
840.604	15838
840.742	16032
840.879	15614
841.016	15648
841.153	15778
841.29	15808
841.427	15781
841.564	15720
841.701	15660
841.838	15720
841.975	15690
842.112	15679
842.249	15622
842.385	15568
842.522	15823
842.659	15641
842.796	15485
842.933	15682
843.069	15481
843.206	15549
843.343	15690
843.479	15584
843.616	15500
843.752	15344
843.889	15275
844.025	15534
844.162	15325
844.298	15439
844.435	15397
844.571	15272
844.708	15351
844.844	15553
844.98	15515
845.117	15469
845.253	15325
845.389	15188
845.525	15252
845.661	15199
845.798	15188
845.934	15188
846.07	15112
846.206	15199
846.342	15256
846.478	15112
846.614	15055
846.75	14872
846.886	14925
847.022	14960
847.158	14933
847.294	14906
847.429	14929
847.565	14876
847.701	15207
847.837	14720
847.972	14720
848.108	14754
848.244	14762
848.379	14579
848.515	14461
848.65	14374
848.786	14499
848.921	14575
849.057	14511
849.192	14621
849.328	14583
849.463	14587
849.598	14423
849.734	14465
849.869	14385
850.004	14305
850.14	14298
850.275	14229
850.41	14317
850.545	14294
850.68	14229
850.815	14298
850.95	14294
851.085	14419
851.22	14355
851.355	14294
851.49	14351
851.625	14199
851.76	14229
851.895	14229
852.03	14176
852.165	14317
852.299	14355
852.434	14339
852.569	14408
852.703	14294
852.838	14320
852.973	14404
853.107	14415
853.242	14218
853.376	14229
853.511	13970
853.645	14172
853.78	14278
853.914	14084
854.048	14138
854.183	14123
854.317	14214
854.451	14370
854.585	14206
854.72	14168
854.854	14252
854.988	14088
855.122	14130
855.256	13997
855.39	14145
855.524	14214
855.658	14123
855.792	14157
855.926	14123
856.06	14229
856.194	14290
856.327	14229
856.461	14142
856.595	14115
856.729	14202
856.862	14290
856.996	14180
857.13	14157
857.263	14347
857.397	14214
857.53	14100
857.664	14218
857.797	14191
857.931	14244
858.064	14195
858.197	14317
858.331	14119
858.464	14183
858.597	14062
858.731	14305
858.864	14119
858.997	14069
859.13	14233
859.263	14199
859.396	14214
859.529	14199
859.662	14210
859.795	14100
859.928	14111
860.061	14320
860.194	14282
860.327	14214
860.46	14138
860.592	14221
860.725	14244
860.858	14256
860.99	14176
861.123	14073
861.256	14130
861.388	14157
861.521	14861
861.653	14077
861.786	14031
861.918	13909
862.05	14012
862.183	14168
862.315	14180
862.447	14111
862.58	14012
862.712	14039
862.844	13970
862.976	13890
863.108	14039
863.24	14351
863.372	13898
863.504	13913
863.636	13860
863.768	13982
863.9	13883
864.032	13890
864.164	13849
864.296	14024
864.428	14092
864.559	13967
864.691	14024
864.823	14050
864.954	14081
865.086	13986
865.217	13951
865.349	13902
865.48	14027
865.612	13879
865.743	14039
865.875	13921
866.006	13830
866.137	14016
866.269	13837
866.4	13902
866.531	13833
866.662	13826
866.793	13864
866.924	13887
867.055	13917
867.186	13925
867.317	13890
867.448	13738
867.579	13871
867.71	13784
867.841	13795
867.972	13902
868.103	13883
868.233	13909
868.364	13947
868.495	13997
868.625	14180
868.756	14229
868.886	13978
869.017	14107
869.147	14267
869.278	14290
869.408	14191
869.539	14164
869.669	14267
869.799	14199
869.929	14263
870.06	14396
870.19	14511
870.32	14396
870.45	14518
870.58	14503
870.71	14621
870.84	14705
870.97	14457
871.1	14480
871.23	14712
871.36	14735
871.489	14590
871.619	14811
871.749	14697
871.879	14750
872.008	14895
872.138	14811
872.267	14659
872.397	14636
872.526	14689
872.656	14644
872.785	14610
872.915	14845
873.044	14990
873.173	14739
873.303	14823
873.432	14857
873.561	14868
873.69	14864
873.819	14762
873.948	14906
874.077	14845
874.206	14785
874.335	14834
874.464	14963
874.593	15146
874.722	15032
874.851	15279
874.979	15135
875.108	15176
875.237	15119
875.365	15036
875.494	15131
875.623	15260
875.751	15100
875.88	15116
876.008	15226
876.136	15355
876.265	15515
876.393	15694
876.521	15701
876.65	15610
876.778	15523
876.906	15564
877.034	15538
877.162	15511
877.29	15538
877.418	15530
877.546	15530
877.674	15561
877.802	15466
877.93	15561
878.058	15557
878.185	15500
878.313	15538
878.441	15500
878.568	15332
878.696	15538
878.824	15637
878.951	15545
879.079	15793
879.206	15838
879.333	15717
879.461	15553
879.588	15675
879.715	15622
879.842	15827
879.97	15568
880.097	15408
880.224	15401
880.351	15431
880.478	15500
880.605	15439
880.732	15424
880.859	15614
880.986	15389
881.112	15515
881.239	15310
881.366	15203
881.493	15112
881.619	15097
881.746	15150
881.872	15005
881.999	14998
882.125	14998
882.252	15119
882.378	15104
882.505	15233
882.631	14906
882.757	14941
882.883	15005
883.01	14990
883.136	14845
883.262	14796
883.388	14720
883.514	14910
883.64	14956
883.766	14815
883.892	14701
884.018	14708
884.143	14815
884.269	14963
884.395	14682
884.52	14495
884.646	14590
884.772	14568
884.897	14480
885.023	14514
885.148	14689
885.274	14777
885.399	14773
885.524	14590
885.65	14682
885.775	14667
885.9	14549
886.025	14750
886.15	14693
886.275	14606
886.4	14492
886.525	14446
886.65	14518
886.775	14374
886.9	14659
887.025	14880
887.149	14583
887.274	14537
887.399	14389
887.523	14351
887.648	14415
887.773	14419
887.897	14450
888.021	14484
888.146	14404
888.27	14499
888.395	14434
888.519	14469
888.643	14499
888.767	14438
888.891	14305
889.015	14176
889.139	14351
889.263	14218
889.387	14381
889.511	14484
889.635	14415
889.759	14244
889.883	14259
890.006	14362
890.13	14366
890.254	14229
890.377	14221
890.501	14031
890.624	14043
890.748	14134
890.871	14020
890.995	13944
891.118	13883
891.241	14024
891.364	14046
891.488	14035
891.611	14008
891.734	13959
891.857	14149
891.98	13997
892.103	14058
892.226	14008
892.349	13993
892.471	13902
892.594	13978
892.717	14020
892.839	13982
892.962	13955
893.085	14020
893.207	13913
893.33	13898
893.452	13879
893.575	14035
893.697	14005
893.819	14103
893.941	14286
894.064	14130
894.186	14050
894.308	14043
894.43	14092
894.552	14126
894.674	14084
894.796	13986
894.918	13986
895.04	14031
895.161	14065
895.283	14062
895.405	14115
895.526	14077
895.648	14043
895.769	14164
895.891	14237
896.012	14218
896.134	14191
896.255	14138
896.376	14050
896.498	14225
896.619	14199
896.74	14244
896.861	14229
896.982	14537
897.103	14606
897.224	14434
897.345	14358
897.466	14339
897.587	14408
897.708	14587
897.828	14476
897.949	14389
898.07	14343
898.19	14412
898.311	14579
898.431	14526
898.552	14568
898.672	14587
898.792	14587
898.913	14507
899.033	14473
899.153	14332
899.273	14244
899.393	14301
899.513	14362
899.633	14301
899.753	14298
899.873	14256
899.993	14412
900.113	14275
900.232	14412
900.352	14252
900.472	14275
900.591	14138
900.711	14229
900.83	14202
900.95	14301
901.069	14412
901.189	14172
901.308	13917
901.427	13849
901.546	13921
901.665	13932
901.784	13932
901.904	13818
902.023	13693
902.141	13449
902.26	13521
902.379	13548
902.498	13426
902.617	13415
902.735	13457
902.854	13495
902.973	13324
903.091	13217
903.21	13152
903.328	13133
903.446	13080
903.565	13076
903.683	13053
903.801	12951
903.919	13000
904.038	13015
904.156	12894
904.274	12909
904.392	12787
904.51	12810
904.627	12779
904.745	12909
904.863	12886
904.981	12749
905.098	12589
905.216	12490
905.334	12574
905.451	12525
905.569	12532
905.686	12547
905.803	12585
905.921	12376
906.038	12509
906.155	12376
906.272	12273
906.389	12277
906.506	12163
906.623	12148
906.74	12171
906.857	11969
906.974	12038
907.091	12228
907.208	12319
907.324	12220
907.441	12030
907.557	11999
907.674	11874
907.79	11882
907.907	11836
908.023	11954
908.139	11863
908.256	11771
908.372	11847
908.488	11745
908.604	11710
908.72	11688
908.836	11573
908.952	11623
909.068	11661
909.184	11760
909.3	11691
909.415	11688
909.531	11684
909.647	11471
909.762	11406
909.878	11410
909.993	11455
910.108	11402
910.224	11383
910.339	11364
910.454	11311
910.57	11280
910.685	11189
910.8	11577
910.915	11444
911.03	11307
911.145	11204
911.259	11086
911.374	11189
911.489	11083
911.604	10972
911.718	10866
911.833	10927
911.947	10793
912.062	10725
912.176	10797
912.291	10858
912.405	10889
912.519	11109
912.633	11025
912.748	10946
912.862	10919
912.976	10717
913.09	10664
913.204	10733
913.318	10782
913.431	10896
913.545	10843
913.659	10866
913.772	10748
913.886	10603
914	10607
914.113	10752
914.226	10767
914.34	10782
914.453	10599
914.566	10691
914.68	10603
914.793	10634
914.906	10436
915.019	10356
915.132	10371
915.245	10367
915.358	10386
915.47	10428
915.583	10466
915.696	10421
915.809	10523
915.921	10550
916.034	10379
916.146	10379
916.259	10329
916.371	10485
916.483	10405
916.595	10409
916.708	10413
916.82	10356
916.932	10284
917.044	10268
917.156	10272
917.268	10200
917.38	10257
917.491	10192
917.603	10265
917.715	10322
917.826	10322
917.938	10173
918.049	10131
918.161	10150
918.272	10325
918.384	10363
918.495	10261
918.606	10090
918.717	10040
918.828	10154
918.939	10162
919.05	10032
919.161	10124
919.272	9968
919.383	9998
919.494	10135
919.604	10413
919.715	10158
919.826	10116
919.936	10131
920.047	10112
920.157	10185
920.267	10394
920.378	10131
920.488	10078
920.598	10257
920.708	10485
920.818	10360
920.928	10318
921.038	10500
921.148	10474
921.258	10154
921.368	10154
921.477	10036
921.587	10010
921.697	9846
921.806	9964
921.916	9789
922.025	9728
922.134	9705
922.244	9641
922.353	9755
922.462	9515
922.571	9538
922.68	9348
922.789	9382
922.898	9420
923.007	9283
923.116	9435
923.224	9408
923.333	9374
923.442	9359
923.55	9249
923.659	9317
923.767	9382
923.876	9222
923.984	9329
924.092	9161
924.201	9253
924.309	9272
924.417	9241
924.525	9127
924.633	9253
924.741	9983
924.849	9024
924.956	9199
925.064	8994
925.172	8963
925.279	8937
925.387	9085
925.494	9093
925.602	9146
925.709	9188
925.816	9001
925.924	9066
926.031	9085
926.138	9127
926.245	9116
926.352	8918
926.459	9066
926.566	9157
926.673	8994
926.779	8883
926.886	8887
926.993	8792
927.099	8800
927.206	8659
927.312	8773
927.419	8800
927.525	8743
927.631	8826
927.737	8750
927.843	8659
927.95	8606
928.056	8602
928.162	8727
928.267	8716
928.373	9367
928.479	8823
928.585	8518
928.69	8644
928.796	8697
928.901	8488
929.007	8465
929.112	8667
929.218	8530
929.323	8499
929.428	8461
929.533	8651
929.638	8408
929.743	8438
929.848	8484
929.953	8427
930.058	8313
930.163	8294
930.267	8267
930.372	8415
930.477	8237
930.581	8457
930.685	8412
930.79	8324
930.894	8256
930.998	8161
931.103	8328
931.207	7986
931.311	7951
931.415	7940
931.519	7696
931.623	7700
