Data from test_V78500241_577.txt Node
Date: Fri Mar 25 14:37:44 CST 2022
User: usil
Spectrometer: V785-0024
Trigger mode: 0
Integration Time (sec): 4.000000E-1
Scans to average: 1
Nonlinearity correction enabled: false
Boxcar width: 0
Storing dark spectrum: false
XAxis mode: Wavelengths
Number of Pixels in Spectrum: 1024
>>>>>Begin Spectral Data<<<<<
801.071	27774
801.214	27724
801.356	27374
801.499	27408
801.641	27336
801.783	27298
801.926	27119
802.068	27104
802.211	27077
802.353	26975
802.496	26796
802.638	26937
802.78	26785
802.923	26727
803.065	26697
803.208	26655
803.35	26746
803.492	26800
803.635	26796
803.777	26655
803.919	26796
804.061	27096
804.204	27043
804.346	26754
804.488	26697
804.63	26857
804.773	26769
804.915	26960
805.057	27173
805.199	27062
805.341	27066
805.483	27138
805.626	27039
805.768	27108
805.91	27241
806.052	27412
806.194	27355
806.336	27660
806.478	27690
806.62	27591
806.762	27937
806.904	28169
807.046	28679
807.188	28820
807.33	28896
807.472	29334
807.614	29695
807.756	30232
807.898	30836
808.04	31845
808.182	32845
808.324	34390
808.465	36167
808.607	38065
808.749	39914
808.891	40888
809.033	40961
809.174	39774
809.316	38111
809.458	36136
809.6	34116
809.741	32606
809.883	31327
810.025	30673
810.166	30026
810.308	29642
810.45	29140
810.591	28888
810.733	28584
810.875	28344
811.016	27953
811.158	27857
811.299	27774
811.441	27895
811.582	27869
811.724	27504
811.865	27450
812.007	27332
812.148	27420
812.29	27469
812.431	27405
812.573	27610
812.714	27629
812.855	27759
812.997	27835
813.138	27869
813.279	27751
813.421	27717
813.562	27485
813.703	27310
813.845	27188
813.986	26948
814.127	26735
814.268	26663
814.41	26632
814.551	26564
814.692	26678
814.833	26446
814.974	26457
815.115	26408
815.256	26370
815.397	26328
815.539	26294
815.68	26278
815.821	26107
815.962	26130
816.103	26096
816.244	25966
816.385	25955
816.526	25830
816.666	25757
816.807	25537
816.948	25586
817.089	25643
817.23	25525
817.371	25468
817.512	25483
817.653	25419
817.793	25460
817.934	25407
818.075	25369
818.216	25400
818.356	25373
818.497	25278
818.638	25076
818.778	25232
818.919	25023
819.06	25145
819.2	25168
819.341	25396
819.481	25384
819.622	25403
819.762	25597
819.903	25556
820.043	25438
820.184	25438
820.324	25403
820.465	25339
820.605	25331
820.746	25247
820.886	25221
821.026	25179
821.167	25346
821.307	25403
821.447	25141
821.588	25091
821.728	24992
821.868	24798
822.008	24627
822.149	24540
822.289	24616
822.429	24426
822.569	24273
822.709	24239
822.849	24186
822.99	23992
823.13	24194
823.27	23935
823.41	23882
823.55	23672
823.69	23786
823.83	23931
823.97	23767
824.11	23596
824.25	23661
824.389	23531
824.529	23668
824.669	23646
824.809	23653
824.949	23722
825.089	23649
825.228	23535
825.368	23349
825.508	23414
825.648	23410
825.787	23459
825.927	23421
826.067	23322
826.206	23376
826.346	23448
826.485	23433
826.625	23330
826.765	23421
826.904	23459
827.044	23136
827.183	23136
827.323	23010
827.462	23071
827.601	23064
827.741	23056
827.88	23003
828.02	23006
828.159	22949
828.298	22984
828.437	23003
828.577	22854
828.716	23083
828.855	23018
828.994	22816
829.134	22767
829.273	22812
829.412	22675
829.551	22702
829.69	22615
829.829	22759
829.968	22763
830.107	22790
830.246	22786
830.385	22687
830.524	22504
830.663	22596
830.802	22409
830.941	22325
831.08	22325
831.219	22295
831.357	22295
831.496	22481
831.635	22363
831.774	22124
831.913	22135
832.051	22192
832.19	22063
832.329	22139
832.467	21918
832.606	21987
832.744	22002
832.883	22124
833.022	22150
833.16	22177
833.299	22265
833.437	22211
833.576	22459
833.714	22580
833.852	22557
833.991	22565
834.129	22694
834.267	22725
834.406	22702
834.544	22618
834.682	22451
834.821	22428
834.959	22538
835.097	22215
835.235	22207
835.373	22093
835.511	22154
835.65	21941
835.788	21808
835.926	21808
836.064	21660
836.202	21648
836.34	21797
836.478	21956
836.615	21785
836.753	21770
836.891	21778
837.029	21774
837.167	21720
837.305	21690
837.443	21739
837.58	21644
837.718	21720
837.856	21644
837.993	21469
838.131	21572
838.269	21458
838.406	21568
838.544	21306
838.681	21332
838.819	21256
838.956	21161
839.094	21085
839.231	21074
839.369	21249
839.506	21416
839.643	21340
839.781	21127
839.918	20975
840.055	21119
840.193	21058
840.33	20876
840.467	21005
840.604	20857
840.742	21260
840.879	20769
841.016	20834
841.153	20750
841.29	21119
841.427	20933
841.564	20971
841.701	20929
841.838	20872
841.975	20788
842.112	20872
842.249	20849
842.385	20834
842.522	20967
842.659	20697
842.796	20667
842.933	20735
843.069	20678
843.206	20781
843.343	20891
843.479	20796
843.616	20716
843.752	20644
843.889	20678
844.025	20838
844.162	20735
844.298	20883
844.435	20804
844.571	20952
844.708	21199
844.844	21401
844.98	21568
845.117	22063
845.253	22527
845.389	23482
845.525	25400
845.661	28535
845.798	32598
845.934	35851
846.07	37065
846.206	36213
846.342	33800
846.478	29726
846.614	26122
846.75	23874
846.886	22489
847.022	21709
847.158	21180
847.294	20982
847.429	20796
847.565	20526
847.701	20549
847.837	20107
847.972	19974
848.108	19959
848.244	19986
848.379	19784
848.515	19662
848.65	19620
848.786	19693
848.921	19712
849.057	19700
849.192	19586
849.328	19590
849.463	19525
849.598	19556
849.734	19495
849.869	19445
850.004	19285
850.14	19434
850.275	19331
850.41	19228
850.545	19331
850.68	19247
850.815	19282
850.95	19221
851.085	19316
851.22	19350
851.355	19255
851.49	19247
851.625	19183
851.76	19217
851.895	19160
852.03	19255
852.165	19244
852.299	19240
852.434	19316
852.569	19400
852.703	19422
852.838	19369
852.973	19426
853.107	19422
853.242	19362
853.376	19316
853.511	19137
853.645	19232
853.78	19441
853.914	19259
854.048	19190
854.183	19232
854.317	19312
854.451	19407
854.585	19316
854.72	19331
854.854	19339
854.988	19244
855.122	19240
855.256	19183
855.39	19198
855.524	19308
855.658	19198
855.792	19168
855.926	19217
856.06	19133
856.194	19236
856.327	19118
856.461	18928
856.595	19065
856.729	19019
856.862	19118
856.996	19080
857.13	19164
857.263	19148
857.397	19107
857.53	19080
857.664	19065
857.797	19069
857.931	19148
858.064	19080
858.197	19141
858.331	18977
858.464	18958
858.597	18920
858.731	19000
858.864	18958
858.997	19019
859.13	18894
859.263	18962
859.396	18993
859.529	18821
859.662	18795
859.795	18947
859.928	18947
860.061	19099
860.194	19190
860.327	19038
860.46	18943
860.592	19141
860.725	19031
860.858	19031
860.99	18894
861.123	18852
861.256	18837
861.388	18890
861.521	19594
861.653	18848
861.786	18681
861.918	18829
862.05	18920
862.183	18947
862.315	18894
862.447	19000
862.58	18913
862.712	18745
862.844	18631
862.976	18757
863.108	18700
863.24	19065
863.372	18570
863.504	18597
863.636	18578
863.768	18753
863.9	18696
864.032	18525
864.164	18544
864.296	18566
864.428	18741
864.559	18825
864.691	18608
864.823	18650
864.954	18669
865.086	18498
865.217	18620
865.349	18570
865.48	18608
865.612	18578
865.743	18639
865.875	18646
866.006	18582
866.137	18646
866.269	18506
866.4	18513
866.531	18513
866.662	18646
866.793	18460
866.924	18551
867.055	18536
867.186	18494
867.317	18433
867.448	18437
867.579	18490
867.71	18372
867.841	18414
867.972	18521
868.103	18597
868.233	18536
868.364	18502
868.495	18650
868.625	18707
868.756	18867
868.886	18570
869.017	18760
869.147	18859
869.278	18833
869.408	18787
869.539	18654
869.669	18867
869.799	18791
869.929	18856
870.06	18852
870.19	19091
870.32	19148
870.45	19137
870.58	19240
870.71	19160
870.84	19251
870.97	19148
871.1	19168
871.23	19331
871.36	19362
871.489	19343
871.619	19358
871.749	19381
871.879	19441
872.008	19571
872.138	19597
872.267	19502
872.397	19282
872.526	19362
872.656	19244
872.785	19285
872.915	19441
873.044	19525
873.173	19624
873.303	19651
873.432	19662
873.561	19674
873.69	19628
873.819	19616
873.948	19605
874.077	19529
874.206	19586
874.335	19719
874.464	19811
874.593	19944
874.722	19936
874.851	20092
874.979	19959
875.108	19989
875.237	19951
875.365	19890
875.494	20065
875.623	20069
875.751	20077
875.88	20237
876.008	20233
876.136	20412
876.265	20674
876.393	20781
876.521	20765
876.65	20781
876.778	20682
876.906	20739
877.034	20811
877.162	20880
877.29	20739
877.418	21017
877.546	21013
877.674	20994
877.802	21112
877.93	21123
878.058	21230
878.185	21329
878.313	21542
878.441	21781
878.568	21743
878.696	22276
878.824	22831
878.951	23364
879.079	24323
879.206	25696
879.333	26693
879.461	27690
879.588	28413
879.715	28440
879.842	28021
879.97	26887
880.097	25544
880.224	24479
880.351	24007
880.478	23315
880.605	22984
880.732	22736
880.859	22847
880.986	22504
881.112	22421
881.239	22276
881.366	22116
881.493	22139
881.619	21964
881.746	22070
881.872	21987
881.999	22029
882.125	22063
882.252	22147
882.378	22162
882.505	22318
882.631	22044
882.757	21937
882.883	22051
883.01	21953
883.136	21926
883.262	21766
883.388	21785
883.514	21922
883.64	21846
883.766	21812
883.892	21599
884.018	21694
884.143	21892
884.269	21998
884.395	21652
884.52	21625
884.646	21599
884.772	21576
884.897	21542
885.023	21591
885.148	21622
885.274	21656
885.399	21542
885.524	21401
885.65	21412
885.775	21408
885.9	21256
886.025	21306
886.15	20975
886.275	20876
886.4	20727
886.525	20849
886.65	20556
886.775	20549
886.9	20746
887.025	20769
887.149	20594
887.274	20313
887.399	20275
887.523	20134
887.648	20103
887.773	19913
887.897	20001
888.021	20008
888.146	19963
888.27	20031
888.395	19997
888.519	19917
888.643	19833
888.767	19822
888.891	19715
889.015	19533
889.139	19533
889.263	19525
889.387	19537
889.511	19708
889.635	19624
889.759	19499
889.883	19377
890.006	19411
890.13	19460
890.254	19301
890.377	19225
890.501	19107
890.624	19057
890.748	19038
890.871	18996
890.995	18810
891.118	18829
891.241	18817
891.364	18722
891.488	18894
891.611	18848
891.734	18730
891.857	18806
891.98	18760
892.103	18684
892.226	18688
892.349	18658
892.471	18384
892.594	18692
892.717	18563
892.839	18677
892.962	18661
893.085	18479
893.207	18559
893.33	18410
893.452	18418
893.575	18608
893.697	18448
893.819	18544
893.941	18696
894.064	18563
894.186	18327
894.308	18289
894.43	18475
894.552	18547
894.674	18433
894.796	18304
894.918	18292
895.04	18483
895.161	18525
895.283	18376
895.405	18266
895.526	18197
895.648	18350
895.769	18319
895.891	18323
896.012	18323
896.134	18357
896.255	18350
896.376	18270
896.498	18330
896.619	18353
896.74	18308
896.861	18410
896.982	18536
897.103	18817
897.224	18601
897.345	18528
897.466	18502
897.587	18479
897.708	18597
897.828	18547
897.949	18544
898.07	18429
898.19	18399
898.311	18471
898.431	18452
898.552	18528
898.672	18513
898.792	18540
898.913	18544
899.033	18372
899.153	18289
899.273	18239
899.393	18167
899.513	18258
899.633	18300
899.753	18315
899.873	18289
899.993	18380
900.113	18262
900.232	18216
900.352	18209
900.472	18121
900.591	17992
900.711	18060
900.83	18095
900.95	18216
901.069	18152
901.189	17958
901.308	17821
901.427	17634
901.546	17684
901.665	17707
901.784	17813
901.904	17581
902.023	17425
902.141	17372
902.26	17200
902.379	17307
902.498	17231
902.617	17060
902.735	17208
902.854	17113
902.973	16995
903.091	16816
903.21	16748
903.328	16793
903.446	16634
903.565	16561
903.683	16592
903.801	16424
903.919	16542
904.038	16474
904.156	16325
904.274	16447
904.392	16367
904.51	16261
904.627	16360
904.745	16337
904.863	16363
904.981	16063
905.098	15941
905.216	15854
905.334	15983
905.451	16010
905.569	15930
905.686	16048
905.803	16082
905.921	15808
906.038	15941
906.155	15812
906.272	15713
906.389	15675
906.506	15515
906.623	15599
906.74	15431
906.857	15405
906.974	15355
907.091	15549
907.208	15625
907.324	15572
907.441	15370
907.557	15268
907.674	15233
907.79	15161
907.907	15058
908.023	15348
908.139	15230
908.256	15165
908.372	15074
908.488	15100
908.604	14948
908.72	14944
908.836	14979
908.952	14792
909.068	14906
909.184	15028
909.3	14937
909.415	14952
909.531	14899
909.647	14712
909.762	14651
909.878	14545
909.993	14533
910.108	14663
910.224	14575
910.339	14587
910.454	14492
910.57	14434
910.685	14404
910.8	14682
910.915	14610
911.03	14366
911.145	14259
911.259	14309
911.374	14278
911.489	14210
911.604	14164
911.718	13970
911.833	13936
911.947	13906
912.062	13845
912.176	13963
912.291	14001
912.405	14043
912.519	14142
912.633	14142
912.748	14073
912.862	13944
912.976	13753
913.09	13731
913.204	13788
913.318	13902
913.431	13909
913.545	13902
913.659	13921
913.772	13849
913.886	13708
914	13704
914.113	13738
914.226	13746
914.34	13685
914.453	13514
914.566	13677
914.68	13658
914.793	13518
914.906	13426
915.019	13312
915.132	13274
915.245	13388
915.358	13403
915.47	13430
915.583	13354
915.696	13468
915.809	13476
915.921	13415
916.034	13335
916.146	13244
916.259	13206
916.371	13388
916.483	13339
916.595	13244
916.708	13282
916.82	13327
916.932	13293
917.044	13213
917.156	13179
917.268	13076
917.38	13114
917.491	13046
917.603	13171
917.715	13137
917.826	13171
917.938	13019
918.049	12901
918.161	13065
918.272	13202
918.384	13095
918.495	13023
918.606	12905
918.717	12764
918.828	12928
918.939	12795
919.05	12707
919.161	12806
919.272	12631
919.383	12711
919.494	12798
919.604	13046
919.715	12791
919.826	12684
919.936	12810
920.047	12821
920.157	12806
920.267	13004
920.378	12817
920.488	12738
920.598	13023
920.708	12977
920.818	13061
920.928	12977
921.038	13122
921.148	13133
921.258	12791
921.368	12642
921.477	12616
921.587	12464
921.697	12418
921.806	12627
921.916	12464
922.025	12327
922.134	12277
922.244	12148
922.353	12308
922.462	12087
922.571	12049
922.68	11901
922.789	11885
922.898	11908
923.007	11851
923.116	11927
923.224	11836
923.333	11798
923.442	11828
923.55	11684
923.659	11691
923.767	11783
923.876	11699
923.984	11802
924.092	11581
924.201	11703
924.309	11726
924.417	11707
924.525	11657
924.633	11600
924.741	12437
924.849	11444
924.956	11608
925.064	11482
925.172	11364
925.279	11360
925.387	11490
925.494	11478
925.602	11611
925.709	11547
925.816	11349
925.924	11501
926.031	11516
926.138	11444
926.245	11395
926.352	11303
926.459	11486
926.566	11417
926.673	11330
926.779	11162
926.886	11204
926.993	11102
927.099	11075
927.206	10984
927.312	11025
927.419	11140
927.525	11025
927.631	11071
927.737	11006
927.843	10968
927.95	10877
928.056	10908
928.162	10942
928.267	11018
928.373	11493
928.479	10972
928.585	10748
928.69	10835
928.796	10919
928.901	10812
929.007	10675
929.112	10812
929.218	10759
929.323	10622
929.428	10675
929.533	10801
929.638	10679
929.743	10675
929.848	10714
929.953	10630
930.058	10527
930.163	10382
930.267	10386
930.372	10470
930.477	10314
930.581	10523
930.685	10394
930.79	10265
930.894	10382
930.998	10276
931.103	10440
931.207	10013
931.311	9926
931.415	9888
931.519	9736
931.623	9652
