Data from test_V78500241_2064.txt Node
Date: Fri Mar 25 14:48:05 CST 2022
User: usil
Spectrometer: V785-0024
Trigger mode: 0
Integration Time (sec): 4.000000E-1
Scans to average: 1
Nonlinearity correction enabled: false
Boxcar width: 0
Storing dark spectrum: false
XAxis mode: Wavelengths
Number of Pixels in Spectrum: 1024
>>>>>Begin Spectral Data<<<<<
801.071	22086
801.214	21922
801.356	21781
801.499	21610
801.641	21466
801.783	21473
801.926	21462
802.068	21450
802.211	21351
802.353	21207
802.496	21066
802.638	20986
802.78	20998
802.923	20800
803.065	20845
803.208	20754
803.35	20788
803.492	20864
803.635	21028
803.777	20823
803.919	20800
804.061	21138
804.204	20887
804.346	20773
804.488	20674
804.63	20811
804.773	20636
804.915	20712
805.057	20906
805.199	20648
805.341	20724
805.483	20929
805.626	20838
805.768	20735
805.91	20731
806.052	20853
806.194	20651
806.336	20811
806.478	20693
806.62	20773
806.762	20792
806.904	20925
807.046	21116
807.188	21062
807.33	21024
807.472	21138
807.614	20956
807.756	21039
807.898	20781
808.04	20727
808.182	20754
808.324	20773
808.465	20918
808.607	21039
808.749	21135
808.891	21249
809.033	21260
809.174	21211
809.316	21051
809.458	21161
809.6	21070
809.741	21180
809.883	21214
810.025	21382
810.166	21195
810.308	21104
810.45	21176
810.591	21188
810.733	20838
810.875	20971
811.016	20861
811.158	20804
811.299	20864
811.441	20929
811.582	21024
811.724	20746
811.865	20720
812.007	20842
812.148	20975
812.29	20861
812.431	21116
812.573	21176
812.714	21249
812.855	21344
812.997	21473
813.138	21717
813.279	21515
813.421	21317
813.562	21260
813.703	21116
813.845	20994
813.986	20777
814.127	20617
814.268	20556
814.41	20583
814.551	20415
814.692	20301
814.833	20381
814.974	20347
815.115	20404
815.256	20256
815.397	20267
815.539	20202
815.68	20107
815.821	20020
815.962	20263
816.103	20187
816.244	19982
816.385	19852
816.526	19928
816.666	19666
816.807	19578
816.948	19674
817.089	19814
817.23	19556
817.371	19502
817.512	19460
817.653	19480
817.793	19502
817.934	19609
818.075	19571
818.216	19635
818.356	19499
818.497	19304
818.638	19114
818.778	19270
818.919	19266
819.06	19236
819.2	19381
819.341	19377
819.481	19487
819.622	19605
819.762	19662
819.903	19514
820.043	19666
820.184	19529
820.324	19590
820.465	19518
820.605	19483
820.746	19544
820.886	19362
821.026	19575
821.167	19514
821.307	19506
821.447	19445
821.588	19400
821.728	19274
821.868	19015
822.008	18871
822.149	19042
822.289	18875
822.429	18684
822.569	18642
822.709	18582
822.849	18483
822.99	18456
823.13	18464
823.27	18311
823.41	18190
823.55	18155
823.69	18220
823.83	18216
823.97	18106
824.11	17954
824.25	17973
824.389	18079
824.529	18140
824.669	18049
824.809	18125
824.949	18022
825.089	17946
825.228	17954
825.368	17893
825.508	17843
825.648	17824
825.787	17817
825.927	17851
826.067	17790
826.206	17745
826.346	17805
826.485	17863
826.625	17817
826.765	17912
826.904	17805
827.044	17642
827.183	17440
827.323	17398
827.462	17547
827.601	17356
827.741	17448
827.88	17448
828.02	17452
828.159	17562
828.298	17554
828.437	17471
828.577	17459
828.716	17577
828.855	17493
828.994	17349
829.134	17356
829.273	17296
829.412	17258
829.551	17147
829.69	17159
829.829	17356
829.968	17330
830.107	17292
830.246	17258
830.385	17151
830.524	17102
830.663	17083
830.802	17006
830.941	16831
831.08	16862
831.219	16869
831.357	17060
831.496	17216
831.635	16831
831.774	16843
831.913	16831
832.051	16698
832.19	16607
832.329	16752
832.467	16634
832.606	16584
832.744	16466
832.883	16538
833.022	16573
833.16	16599
833.299	16641
833.437	16634
833.576	16679
833.714	16706
833.852	16782
833.991	16713
834.129	16698
834.267	16721
834.406	16736
834.544	16611
834.682	16634
834.821	16637
834.959	16782
835.097	16649
835.235	16729
835.373	16626
835.511	16672
835.65	16538
835.788	16584
835.926	16398
836.064	16306
836.202	16443
836.34	16664
836.478	16691
836.615	16462
836.753	16611
836.891	16713
837.029	16637
837.167	16542
837.305	16455
837.443	16390
837.58	16272
837.718	16523
837.856	16550
837.993	16318
838.131	16409
838.269	16322
838.406	16356
838.544	16322
838.681	16131
838.819	16074
838.956	15930
839.094	15945
839.231	16010
839.369	16082
839.506	16348
839.643	16223
839.781	15918
839.918	15907
840.055	15991
840.193	15922
840.33	15941
840.467	15918
840.604	15991
840.742	16158
840.879	15861
841.016	15816
841.153	15903
841.29	16109
841.427	15983
841.564	15972
841.701	16013
841.838	15941
841.975	15827
842.112	15903
842.249	15732
842.385	15679
842.522	15937
842.659	15743
842.796	15785
842.933	15720
843.069	15724
843.206	15682
843.343	15785
843.479	15774
843.616	15698
843.752	15595
843.889	15545
844.025	15686
844.162	15564
844.298	15584
844.435	15511
844.571	15500
844.708	15580
844.844	15747
844.98	15728
845.117	15648
845.253	15454
845.389	15367
845.525	15511
845.661	15363
845.798	15310
845.934	15321
846.07	15313
846.206	15329
846.342	15351
846.478	15412
846.614	15161
846.75	15005
846.886	15066
847.022	15150
847.158	15001
847.294	15116
847.429	15116
847.565	15192
847.701	15283
847.837	14902
847.972	14765
848.108	14929
848.244	14948
848.379	14678
848.515	14712
848.65	14606
848.786	14697
848.921	14762
849.057	14727
849.192	14830
849.328	14765
849.463	14678
849.598	14610
849.734	14625
849.869	14537
850.004	14552
850.14	14552
850.275	14495
850.41	14347
850.545	14446
850.68	14419
850.815	14431
850.95	14450
851.085	14754
851.22	14552
851.355	14530
851.49	14381
851.625	14339
851.76	14457
851.895	14355
852.03	14415
852.165	14492
852.299	14450
852.434	14503
852.569	14511
852.703	14484
852.838	14545
852.973	14594
853.107	14598
853.242	14454
853.376	14355
853.511	14252
853.645	14275
853.78	14442
853.914	14423
854.048	14240
854.183	14267
854.317	14385
854.451	14465
854.585	14332
854.72	14324
854.854	14370
854.988	14202
855.122	14301
855.256	14195
855.39	14290
855.524	14393
855.658	14465
855.792	14412
855.926	14336
856.06	14434
856.194	14385
856.327	14336
856.461	14229
856.595	14237
856.729	14298
856.862	14492
856.996	14415
857.13	14339
857.263	14362
857.397	14408
857.53	14393
857.664	14366
857.797	14446
857.931	14518
858.064	14362
858.197	14385
858.331	14328
858.464	14290
858.597	14271
858.731	14476
858.864	14294
858.997	14434
859.13	14339
859.263	14423
859.396	14389
859.529	14343
859.662	14271
859.795	14256
859.928	14347
860.061	14571
860.194	14560
860.327	14320
860.46	14374
860.592	14400
860.725	14438
860.858	14454
860.99	14278
861.123	14282
861.256	14282
861.388	14328
861.521	14956
861.653	14172
861.786	14191
861.918	14210
862.05	14244
862.183	14298
862.315	14362
862.447	14377
862.58	14339
862.712	14172
862.844	14069
862.976	14187
863.108	14172
863.24	14495
863.372	14012
863.504	14035
863.636	14115
863.768	14256
863.9	14065
864.032	14046
864.164	14161
864.296	14119
864.428	14244
864.559	14214
864.691	14176
864.823	14202
864.954	14088
865.086	14096
865.217	14130
865.349	14005
865.48	14073
865.612	14096
865.743	14233
865.875	14043
866.006	13986
866.137	14024
866.269	14073
866.4	14145
866.531	14062
866.662	13963
866.793	14084
866.924	14058
867.055	14138
867.186	14100
867.317	14020
867.448	13963
867.579	14107
867.71	14008
867.841	14096
867.972	14130
868.103	14077
868.233	14142
868.364	14043
868.495	14183
868.625	14320
868.756	14412
868.886	14267
869.017	14317
869.147	14511
869.278	14419
869.408	14385
869.539	14358
869.669	14492
869.799	14358
869.929	14507
870.06	14442
870.19	14697
870.32	14571
870.45	14678
870.58	14785
870.71	14830
870.84	14937
870.97	14708
871.1	14754
871.23	14998
871.36	14929
871.489	14815
871.619	14864
871.749	14880
871.879	14948
872.008	15047
872.138	14872
872.267	14963
872.397	14823
872.526	14765
872.656	14678
872.785	14743
872.915	14994
873.044	15077
873.173	14975
873.303	14986
873.432	15017
873.561	15131
873.69	14971
873.819	15020
873.948	15093
874.077	15104
874.206	14868
874.335	14963
874.464	15154
874.593	15230
874.722	15218
874.851	15359
874.979	15378
875.108	15237
875.237	15165
875.365	15214
875.494	15230
875.623	15363
875.751	15214
875.88	15275
876.008	15397
876.136	15507
876.265	15705
876.393	15857
876.521	15728
876.65	15739
876.778	15694
876.906	15720
877.034	15682
877.162	15747
877.29	15637
877.418	15774
877.546	15720
877.674	15739
877.802	15686
877.93	15667
878.058	15698
878.185	15553
878.313	15660
878.441	15679
878.568	15523
878.696	15587
878.824	15720
878.951	15797
879.079	15865
879.206	16044
879.333	15941
879.461	15861
879.588	15865
879.715	15888
879.842	16059
879.97	15774
880.097	15496
880.224	15584
880.351	15660
880.478	15561
880.605	15511
880.732	15504
880.859	15816
880.986	15568
881.112	15606
881.239	15477
881.366	15298
881.493	15195
881.619	15298
881.746	15195
881.872	15218
881.999	15131
882.125	15161
882.252	15279
882.378	15237
882.505	15458
882.631	15093
882.757	15039
882.883	15066
883.01	15142
883.136	15005
883.262	14906
883.388	14853
883.514	15066
883.64	15150
883.766	14918
883.892	14842
884.018	14944
884.143	14994
884.269	15123
884.395	14788
884.52	14773
884.646	14663
884.772	14830
884.897	14629
885.023	14826
885.148	14834
885.274	14872
885.399	14785
885.524	14663
885.65	14758
885.775	14689
885.9	14739
886.025	14906
886.15	14819
886.275	14705
886.4	14583
886.525	14579
886.65	14659
886.775	14739
886.9	14872
887.025	14948
887.149	14788
887.274	14606
887.399	14522
887.523	14484
887.648	14495
887.773	14571
887.897	14590
888.021	14705
888.146	14480
888.27	14606
888.395	14697
888.519	14617
888.643	14724
888.767	14602
888.891	14507
889.015	14294
889.139	14427
889.263	14400
889.387	14484
889.511	14617
889.635	14503
889.759	14518
889.883	14362
890.006	14476
890.13	14552
890.254	14393
890.377	14427
890.501	14180
890.624	14237
890.748	14389
890.871	14168
890.995	14225
891.118	13982
891.241	14111
891.364	14100
891.488	14267
891.611	14183
891.734	14111
891.857	14149
891.98	14183
892.103	14225
892.226	14157
892.349	14130
892.471	14065
892.594	14107
892.717	14164
892.839	14069
892.962	14157
893.085	14161
893.207	14134
893.33	14130
893.452	14031
893.575	14088
893.697	14142
893.819	14263
893.941	14347
894.064	14229
894.186	14107
894.308	14111
894.43	14244
894.552	14271
894.674	14305
894.796	14107
894.918	14172
895.04	14161
895.161	14180
895.283	14263
895.405	14138
895.526	14183
895.648	14229
895.769	14172
895.891	14320
896.012	14336
896.134	14286
896.255	14320
896.376	14332
896.498	14256
896.619	14294
896.74	14298
896.861	14488
896.982	14568
897.103	14750
897.224	14552
897.345	14545
897.466	14530
897.587	14522
897.708	14617
897.828	14571
897.949	14507
898.07	14461
898.19	14590
898.311	14705
898.431	14518
898.552	14674
898.672	14796
898.792	14796
898.913	14708
899.033	14541
899.153	14465
899.273	14393
899.393	14457
899.513	14454
899.633	14476
899.753	14610
899.873	14560
899.993	14579
900.113	14507
900.232	14587
900.352	14469
900.472	14336
900.591	14320
900.711	14396
900.83	14358
900.95	14457
901.069	14438
901.189	14320
901.308	14043
901.427	14020
901.546	14092
901.665	14073
901.784	14103
901.904	13978
902.023	13845
902.141	13620
902.26	13495
902.379	13696
902.498	13620
902.617	13552
902.735	13681
902.854	13537
902.973	13441
903.091	13339
903.21	13228
903.328	13384
903.446	13259
903.565	13065
903.683	13110
903.801	13114
903.919	13156
904.038	13149
904.156	12951
904.274	13023
904.392	12943
904.51	12981
904.627	13046
904.745	13061
904.863	13084
904.981	12741
905.098	12563
905.216	12688
905.334	12722
905.451	12673
905.569	12741
905.686	12715
905.803	12650
905.921	12452
906.038	12589
906.155	12555
906.272	12498
906.389	12464
906.506	12304
906.623	12372
906.74	12205
906.857	12209
906.974	12254
907.091	12437
907.208	12479
907.324	12391
907.441	12194
907.557	12102
907.674	12026
907.79	12003
907.907	12083
908.023	12125
908.139	12102
908.256	11935
908.372	12019
908.488	11980
908.604	11893
908.72	11764
908.836	11802
908.952	11786
909.068	11866
909.184	11893
909.3	11794
909.415	11901
909.531	11847
909.647	11596
909.762	11577
909.878	11627
909.993	11619
910.108	11608
910.224	11539
910.339	11528
910.454	11391
910.57	11379
910.685	11376
910.8	11547
910.915	11512
911.03	11467
911.145	11345
911.259	11231
911.374	11318
911.489	11235
911.604	11181
911.718	11041
911.833	11045
911.947	10930
912.062	10828
912.176	11018
912.291	11060
912.405	11033
912.519	11261
912.633	11356
912.748	11090
912.862	11067
912.976	10911
913.09	10801
913.204	10816
913.318	10946
913.431	11010
913.545	11003
913.659	11083
913.772	10919
913.886	10778
914	10767
914.113	10919
914.226	10946
914.34	10961
914.453	10771
914.566	10850
914.68	10809
914.793	10748
914.906	10596
915.019	10550
915.132	10436
915.245	10459
915.358	10569
915.47	10531
915.583	10546
915.696	10626
915.809	10733
915.921	10714
916.034	10466
916.146	10409
916.259	10424
916.371	10580
916.483	10546
916.595	10436
916.708	10489
916.82	10523
916.932	10470
917.044	10504
917.156	10447
917.268	10306
917.38	10413
917.491	10379
917.603	10424
917.715	10436
917.826	10470
917.938	10371
918.049	10234
918.161	10352
918.272	10489
918.384	10500
918.495	10440
918.606	10291
918.717	10196
918.828	10265
918.939	10382
919.05	10116
919.161	10257
919.272	10025
919.383	10086
919.494	10348
919.604	10485
919.715	10341
919.826	10143
919.936	10234
920.047	10344
920.157	10246
920.267	10519
920.378	10291
920.488	10257
920.598	10398
920.708	10630
920.818	10500
920.928	10478
921.038	10660
921.148	10637
921.258	10299
921.368	10242
921.477	10139
921.587	10029
921.697	9975
921.806	10063
921.916	10006
922.025	9774
922.134	9892
922.244	9770
922.353	9781
922.462	9709
922.571	9660
922.68	9591
922.789	9523
922.898	9580
923.007	9386
923.116	9523
923.224	9500
923.333	9545
923.442	9424
923.55	9443
923.659	9355
923.767	9488
923.876	9424
923.984	9386
924.092	9310
924.201	9389
924.309	9294
924.417	9336
924.525	9294
924.633	9363
924.741	10196
924.849	9116
924.956	9287
925.064	9176
925.172	9036
925.279	9119
925.387	9233
925.494	9119
925.602	9298
925.709	9203
925.816	9154
925.924	9230
926.031	9268
926.138	9188
926.245	9233
926.352	9173
926.459	9253
926.566	9272
926.673	9089
926.779	9100
926.886	9028
926.993	8925
927.099	8762
927.206	8895
927.312	8853
927.419	8925
927.525	8918
927.631	8933
927.737	8834
927.843	8792
927.95	8651
928.056	8796
928.162	8815
928.267	8807
928.373	9435
928.479	8811
928.585	8663
928.69	8724
928.796	8781
928.901	8716
929.007	8533
929.112	8701
929.218	8758
929.323	8556
929.428	8651
929.533	8800
929.638	8476
929.743	8610
929.848	8644
929.953	8629
930.058	8446
930.163	8408
930.267	8393
930.372	8545
930.477	8385
930.581	8587
930.685	8400
930.79	8328
930.894	8328
930.998	8275
931.103	8476
931.207	8126
931.311	8054
931.415	7932
931.519	7875
931.623	7803
