Data from test_V78500241_3358.txt Node
Date: Fri Mar 25 14:57:05 CST 2022
User: usil
Spectrometer: V785-0024
Trigger mode: 0
Integration Time (sec): 4.000000E-1
Scans to average: 1
Nonlinearity correction enabled: false
Boxcar width: 0
Storing dark spectrum: false
XAxis mode: Wavelengths
Number of Pixels in Spectrum: 1024
>>>>>Begin Spectral Data<<<<<
801.071	21998
801.214	21800
801.356	21606
801.499	21511
801.641	21473
801.783	21332
801.926	21268
802.068	21195
802.211	21116
802.353	21089
802.496	20933
802.638	20880
802.78	20743
802.923	20606
803.065	20552
803.208	20511
803.35	20651
803.492	20678
803.635	20674
803.777	20560
803.919	20705
804.061	21017
804.204	20636
804.346	20640
804.488	20389
804.63	20621
804.773	20511
804.915	20560
805.057	20743
805.199	20450
805.341	20613
805.483	20712
805.626	20590
805.768	20438
805.91	20552
806.052	20530
806.194	20442
806.336	20686
806.478	20522
806.62	20431
806.762	20644
806.904	20758
807.046	21051
807.188	20910
807.33	20727
807.472	20960
807.614	20754
807.756	20731
807.898	20682
808.04	20526
808.182	20606
808.324	20503
808.465	20689
808.607	20724
808.749	20986
808.891	20956
809.033	21039
809.174	21127
809.316	20842
809.458	20975
809.6	20769
809.741	20971
809.883	20910
810.025	21142
810.166	20994
810.308	21081
810.45	20902
810.591	20891
810.733	20765
810.875	20735
811.016	20571
811.158	20594
811.299	20697
811.441	20891
811.582	20731
811.724	20632
811.865	20686
812.007	20511
812.148	20594
812.29	20636
812.431	20754
812.573	20906
812.714	20986
812.855	21252
812.997	21226
813.138	21382
813.279	21214
813.421	21241
813.562	21123
813.703	20887
813.845	20788
813.986	20579
814.127	20415
814.268	20206
814.41	20275
814.551	20119
814.692	20180
814.833	20157
814.974	20229
815.115	20263
815.256	19963
815.397	19982
815.539	19974
815.68	19944
815.821	19807
815.962	19932
816.103	19811
816.244	19738
816.385	19647
816.526	19616
816.666	19403
816.807	19438
816.948	19453
817.089	19419
817.23	19468
817.371	19331
817.512	19320
817.653	19259
817.793	19202
817.934	19266
818.075	19225
818.216	19282
818.356	19244
818.497	19160
818.638	18951
818.778	18970
818.919	18947
819.06	19031
819.2	19072
819.341	19103
819.481	19274
819.622	19377
819.762	19438
819.903	19480
820.043	19403
820.184	19320
820.324	19206
820.465	19236
820.605	19308
820.746	19331
820.886	19076
821.026	19251
821.167	19168
821.307	19278
821.447	19164
821.588	19202
821.728	18871
821.868	18878
822.008	18688
822.149	18798
822.289	18669
822.429	18452
822.569	18403
822.709	18330
822.849	18254
822.99	18266
823.13	18201
823.27	18205
823.41	17935
823.55	17954
823.69	18045
823.83	18041
823.97	17999
824.11	17828
824.25	17657
824.389	17748
824.529	17813
824.669	17760
824.809	17855
824.949	17870
825.089	17840
825.228	17760
825.368	17623
825.508	17566
825.648	17505
825.787	17539
825.927	17668
826.067	17551
826.206	17539
826.346	17558
826.485	17512
826.625	17501
826.765	17703
826.904	17471
827.044	17334
827.183	17280
827.323	17185
827.462	17387
827.601	17280
827.741	17193
827.88	17235
828.02	17124
828.159	17212
828.298	17216
828.437	17452
828.577	17189
828.716	17421
828.855	17113
828.994	17102
829.134	17014
829.273	17071
829.412	17037
829.551	16927
829.69	16873
829.829	17117
829.968	17083
830.107	17121
830.246	17067
830.385	16881
830.524	16881
830.663	16778
830.802	16866
830.941	16668
831.08	16615
831.219	16736
831.357	16767
831.496	16869
831.635	16664
831.774	16596
831.913	16573
832.051	16398
832.19	16421
832.329	16474
832.467	16322
832.606	16382
832.744	16295
832.883	16363
833.022	16280
833.16	16386
833.299	16474
833.437	16455
833.576	16398
833.714	16344
833.852	16421
833.991	16462
834.129	16481
834.267	16424
834.406	16424
834.544	16394
834.682	16405
834.821	16379
834.959	16596
835.097	16310
835.235	16527
835.373	16341
835.511	16348
835.65	16261
835.788	16303
835.926	16166
836.064	16097
836.202	16147
836.34	16352
836.478	16417
836.615	16341
836.753	16268
836.891	16375
837.029	16280
837.167	16363
837.305	16158
837.443	16200
837.58	16230
837.718	16257
837.856	16223
837.993	16139
838.131	16158
838.269	16150
838.406	16074
838.544	16017
838.681	15949
838.819	15842
838.956	15732
839.094	15819
839.231	15785
839.369	15850
839.506	16143
839.643	15972
839.781	15770
839.918	15679
840.055	15774
840.193	15766
840.33	15743
840.467	15690
840.604	15705
840.742	16006
840.879	15538
841.016	15694
841.153	15614
841.29	15842
841.427	15720
841.564	15778
841.701	15831
841.838	15656
841.975	15576
842.112	15603
842.249	15633
842.385	15458
842.522	15667
842.659	15526
842.796	15462
842.933	15511
843.069	15587
843.206	15485
843.343	15599
843.479	15523
843.616	15549
843.752	15435
843.889	15378
844.025	15458
844.162	15279
844.298	15363
844.435	15241
844.571	15329
844.708	15321
844.844	15412
844.98	15519
845.117	15458
845.253	15283
845.389	15093
845.525	15264
845.661	15233
845.798	14986
845.934	15077
846.07	15097
846.206	15192
846.342	15214
846.478	15123
846.614	14921
846.75	14800
846.886	14864
847.022	15024
847.158	14990
847.294	14929
847.429	14963
847.565	14845
847.701	15036
847.837	14667
847.972	14674
848.108	14667
848.244	14659
848.379	14644
848.515	14533
848.65	14282
848.786	14438
848.921	14541
849.057	14636
849.192	14575
849.328	14514
849.463	14583
849.598	14484
849.734	14442
849.869	14415
850.004	14339
850.14	14366
850.275	14309
850.41	14275
850.545	14218
850.68	14199
850.815	14240
850.95	14282
851.085	14351
851.22	14396
851.355	14256
851.49	14271
851.625	14180
851.76	14309
851.895	14164
852.03	14153
852.165	14240
852.299	14202
852.434	14347
852.569	14294
852.703	14309
852.838	14393
852.973	14396
853.107	14423
853.242	14218
853.376	14176
853.511	14088
853.645	14065
853.78	14275
853.914	14271
854.048	14183
854.183	14088
854.317	14142
854.451	14370
854.585	14191
854.72	14088
854.854	14199
854.988	14043
855.122	14092
855.256	14062
855.39	14123
855.524	14286
855.658	14149
855.792	14206
855.926	14149
856.06	14183
856.194	14347
856.327	14069
856.461	14043
856.595	14096
856.729	14115
856.862	14248
856.996	14229
857.13	14187
857.263	14294
857.397	14244
857.53	14172
857.664	14214
857.797	14240
857.931	14290
858.064	14240
858.197	14244
858.331	14187
858.464	14134
858.597	14058
858.731	14199
858.864	14161
858.997	14096
859.13	14199
859.263	14195
859.396	14180
859.529	14164
859.662	14180
859.795	14111
859.928	14107
860.061	14218
860.194	14244
860.327	14145
860.46	14168
860.592	14267
860.725	14233
860.858	14275
860.99	14054
861.123	14123
861.256	14001
861.388	14111
861.521	14982
861.653	14012
861.786	14008
861.918	13944
862.05	13993
862.183	14092
862.315	14164
862.447	14115
862.58	14202
862.712	13841
862.844	13894
862.976	13947
863.108	13940
863.24	14351
863.372	13871
863.504	13947
863.636	13887
863.768	13951
863.9	13913
864.032	13917
864.164	13967
864.296	14058
864.428	13906
864.559	14043
864.691	13986
864.823	13997
864.954	13868
865.086	13928
865.217	13909
865.349	13887
865.48	13852
865.612	14016
865.743	14054
865.875	13769
866.006	13890
866.137	13887
866.269	13932
866.4	13849
866.531	13871
866.662	13841
866.793	13837
866.924	13951
867.055	13974
867.186	13887
867.317	13974
867.448	13868
867.579	13913
867.71	13830
867.841	13769
867.972	13955
868.103	14005
868.233	13860
868.364	13940
868.495	13967
868.625	14191
868.756	14225
868.886	14077
869.017	14187
869.147	14282
869.278	14229
869.408	14244
869.539	14119
869.669	14259
869.799	14286
869.929	14339
870.06	14263
870.19	14427
870.32	14484
870.45	14473
870.58	14587
870.71	14693
870.84	14590
870.97	14575
871.1	14560
871.23	14727
871.36	14686
871.489	14629
871.619	14731
871.749	14826
871.879	14883
872.008	14880
872.138	14724
872.267	14636
872.397	14674
872.526	14541
872.656	14549
872.785	14743
872.915	14838
873.044	14929
873.173	14781
873.303	14811
873.432	14880
873.561	14883
873.69	14804
873.819	14773
873.948	14895
874.077	14830
874.206	14796
874.335	14830
874.464	14960
874.593	15051
874.722	15062
874.851	15169
874.979	15077
875.108	15230
875.237	15005
875.365	15047
875.494	15043
875.623	15237
875.751	15074
875.88	15131
876.008	15340
876.136	15374
876.265	15549
876.393	15618
876.521	15682
876.65	15576
876.778	15515
876.906	15534
877.034	15488
877.162	15481
877.29	15500
877.418	15481
877.546	15572
877.674	15488
877.802	15530
877.93	15542
878.058	15504
878.185	15382
878.313	15431
878.441	15633
878.568	15450
878.696	15431
878.824	15572
878.951	15580
879.079	15705
879.206	15797
879.333	15671
879.461	15545
879.588	15652
879.715	15671
879.842	15850
879.97	15641
880.097	15378
880.224	15447
880.351	15405
880.478	15408
880.605	15386
880.732	15329
880.859	15629
880.986	15420
881.112	15473
881.239	15287
881.366	15184
881.493	15154
881.619	15013
881.746	15051
881.872	15017
881.999	15032
882.125	15085
882.252	15127
882.378	15108
882.505	15226
882.631	15055
882.757	14769
882.883	14933
883.01	14895
883.136	14861
883.262	14830
883.388	14735
883.514	14910
883.64	14941
883.766	14750
883.892	14781
884.018	14602
884.143	14876
884.269	15036
884.395	14629
884.52	14499
884.646	14499
884.772	14526
884.897	14419
885.023	14541
885.148	14606
885.274	14735
885.399	14594
885.524	14503
885.65	14556
885.775	14579
885.9	14598
886.025	14686
886.15	14674
886.275	14492
886.4	14583
886.525	14552
886.65	14598
886.775	14438
886.9	14735
887.025	14883
887.149	14636
887.274	14313
887.399	14362
887.523	14301
887.648	14355
887.773	14317
887.897	14442
888.021	14400
888.146	14362
888.27	14575
888.395	14621
888.519	14423
888.643	14541
888.767	14541
888.891	14324
889.015	14252
889.139	14259
889.263	14210
889.387	14351
889.511	14537
889.635	14370
889.759	14271
889.883	14244
890.006	14248
890.13	14381
890.254	14157
890.377	14309
890.501	14050
890.624	14043
890.748	14111
890.871	14050
890.995	13894
891.118	13841
891.241	13932
891.364	13997
891.488	14103
891.611	13982
891.734	13955
891.857	14031
891.98	14081
892.103	14096
892.226	14008
892.349	13944
892.471	13925
892.594	13917
892.717	13879
892.839	13997
892.962	14043
893.085	14096
893.207	14035
893.33	13868
893.452	13887
893.575	13978
893.697	14012
893.819	14134
893.941	14202
894.064	14100
894.186	13982
894.308	13940
894.43	14088
894.552	14244
894.674	14138
894.796	13974
894.918	13967
895.04	14043
895.161	14084
895.283	14046
895.405	14054
895.526	14119
895.648	14077
895.769	14134
895.891	14206
896.012	14199
896.134	14195
896.255	14157
896.376	14103
896.498	14183
896.619	14107
896.74	14210
896.861	14351
896.982	14507
897.103	14659
897.224	14522
897.345	14457
897.466	14404
897.587	14434
897.708	14526
897.828	14492
897.949	14374
898.07	14343
898.19	14476
898.311	14507
898.431	14423
898.552	14476
898.672	14632
898.792	14552
898.913	14533
899.033	14431
899.153	14328
899.273	14275
899.393	14298
899.513	14355
899.633	14473
899.753	14400
899.873	14396
899.993	14393
900.113	14282
900.232	14328
900.352	14294
900.472	14199
900.591	14176
900.711	14271
900.83	14126
900.95	14305
901.069	14393
901.189	14176
901.308	13967
901.427	13845
901.546	13769
901.665	13890
901.784	13978
901.904	13719
902.023	13753
902.141	13506
902.26	13464
902.379	13544
902.498	13556
902.617	13426
902.735	13518
902.854	13403
902.973	13354
903.091	13179
903.21	13179
903.328	13179
903.446	13137
903.565	13069
903.683	13053
903.801	12970
903.919	13164
904.038	13031
904.156	12852
904.274	12943
904.392	12779
904.51	12943
904.627	12856
904.745	12951
904.863	12875
904.981	12684
905.098	12483
905.216	12540
905.334	12642
905.451	12597
905.569	12467
905.686	12559
905.803	12623
905.921	12399
906.038	12494
906.155	12315
906.272	12289
906.389	12258
906.506	12144
906.623	12205
906.74	12209
906.857	12064
906.974	12091
907.091	12182
907.208	12296
907.324	12136
907.441	12064
907.557	11885
907.674	11821
907.79	11870
907.907	11889
908.023	11866
908.139	11927
908.256	11920
908.372	11885
908.488	11714
908.604	11714
908.72	11672
908.836	11554
908.952	11528
909.068	11611
909.184	11805
909.3	11634
909.415	11672
909.531	11771
909.647	11490
909.762	11493
909.878	11372
909.993	11490
910.108	11455
910.224	11467
910.339	11406
910.454	11318
910.57	11299
910.685	11220
910.8	11600
910.915	11452
911.03	11269
911.145	11178
911.259	11166
911.374	11155
911.489	10984
911.604	11003
911.718	11022
911.833	10858
911.947	10820
912.062	10710
912.176	10854
912.291	10915
912.405	10873
912.519	11128
912.633	11132
912.748	10953
912.862	10866
912.976	10812
913.09	10649
913.204	10740
913.318	10763
913.431	10866
913.545	10896
913.659	10927
913.772	10778
913.886	10660
914	10660
914.113	10744
914.226	10736
914.34	10729
914.453	10565
914.566	10702
914.68	10603
914.793	10645
914.906	10432
915.019	10363
915.132	10344
915.245	10375
915.358	10413
915.47	10371
915.583	10382
915.696	10447
915.809	10561
915.921	10519
916.034	10322
916.146	10333
916.259	10333
916.371	10424
916.483	10409
916.595	10280
916.708	10341
916.82	10272
916.932	10253
917.044	10314
917.156	10337
917.268	10261
917.38	10295
917.491	10158
917.603	10200
917.715	10344
917.826	10386
917.938	10204
918.049	10128
918.161	10188
918.272	10417
918.384	10455
918.495	10280
918.606	10192
918.717	10002
918.828	10086
918.939	10128
919.05	10097
919.161	10116
919.272	9876
919.383	9937
919.494	10169
919.604	10329
919.715	10059
919.826	10021
919.936	10124
920.047	10185
920.157	10093
920.267	10356
920.378	10211
920.488	10166
920.598	10341
920.708	10500
920.818	10379
920.928	10322
921.038	10466
921.148	10451
921.258	10105
921.368	10071
921.477	10006
921.587	10017
921.697	9838
921.806	9945
921.916	9903
922.025	9690
922.134	9663
922.244	9591
922.353	9728
922.462	9603
922.571	9549
922.68	9386
922.789	9378
922.898	9428
923.007	9279
923.116	9382
923.224	9416
923.333	9389
923.442	9329
923.55	9291
923.659	9272
923.767	9447
923.876	9287
923.984	9313
924.092	9230
924.201	9230
924.309	9237
924.417	9321
924.525	9203
924.633	9256
924.741	10154
924.849	9066
924.956	9154
925.064	8960
925.172	8998
925.279	9043
925.387	9013
925.494	9070
925.602	9169
925.709	9077
925.816	8944
925.924	9051
926.031	9169
926.138	9028
926.245	9013
926.352	8979
926.459	9146
926.566	9169
926.673	9009
926.779	8864
926.886	8906
926.993	8842
927.099	8716
927.206	8670
927.312	8758
927.419	8830
927.525	8762
927.631	8746
927.737	8663
927.843	8617
927.95	8606
928.056	8682
928.162	8712
928.267	8724
928.373	9351
928.479	8754
928.585	8511
928.69	8674
928.796	8746
928.901	8476
929.007	8415
929.112	8526
929.218	8571
929.323	8492
929.428	8427
929.533	8613
929.638	8450
929.743	8457
929.848	8507
929.953	8473
930.058	8404
930.163	8237
930.267	8263
930.372	8400
930.477	8237
930.581	8488
930.685	8275
930.79	8229
930.894	8225
930.998	8248
931.103	8320
931.207	8046
931.311	7993
931.415	7970
931.519	7757
931.623	7677
