Data from test_V78500241_3417.txt Node
Date: Fri Mar 25 14:57:30 CST 2022
User: usil
Spectrometer: V785-0024
Trigger mode: 0
Integration Time (sec): 4.000000E-1
Scans to average: 1
Nonlinearity correction enabled: false
Boxcar width: 0
Storing dark spectrum: false
XAxis mode: Wavelengths
Number of Pixels in Spectrum: 1024
>>>>>Begin Spectral Data<<<<<
801.071	21907
801.214	21827
801.356	21553
801.499	21488
801.641	21374
801.783	21279
801.926	21252
802.068	21268
802.211	21199
802.353	21112
802.496	20899
802.638	20864
802.78	20762
802.923	20720
803.065	20583
803.208	20636
803.35	20648
803.492	20785
803.635	20727
803.777	20731
803.919	20731
804.061	21013
804.204	20651
804.346	20579
804.488	20404
804.63	20564
804.773	20446
804.915	20571
805.057	20659
805.199	20434
805.341	20609
805.483	20705
805.626	20579
805.768	20419
805.91	20564
806.052	20636
806.194	20492
806.336	20678
806.478	20438
806.62	20389
806.762	20575
806.904	20739
807.046	20990
807.188	20727
807.33	20811
807.472	20895
807.614	20663
807.756	20773
807.898	20663
808.04	20579
808.182	20514
808.324	20674
808.465	20682
808.607	20804
808.749	20842
808.891	21013
809.033	20998
809.174	20963
809.316	20834
809.458	20891
809.6	20701
809.741	20979
809.883	21058
810.025	21009
810.166	21062
810.308	21085
810.45	20876
810.591	20921
810.733	20693
810.875	20648
811.016	20541
811.158	20488
811.299	20667
811.441	20777
811.582	20708
811.724	20678
811.865	20587
812.007	20507
812.148	20602
812.29	20602
812.431	20796
812.573	20941
812.714	20982
812.855	21009
812.997	21264
813.138	21431
813.279	21207
813.421	21211
813.562	21009
813.703	20826
813.845	20823
813.986	20473
814.127	20313
814.268	20256
814.41	20290
814.551	20145
814.692	20176
814.833	20172
814.974	20180
815.115	20176
815.256	19982
815.397	20096
815.539	19982
815.68	19864
815.821	19940
815.962	19986
816.103	19871
816.244	19822
816.385	19742
816.526	19616
816.666	19487
816.807	19365
816.948	19400
817.089	19453
817.23	19327
817.371	19225
817.512	19316
817.653	19263
817.793	19304
817.934	19320
818.075	19381
818.216	19293
818.356	19206
818.497	19137
818.638	19031
818.778	18970
818.919	18886
819.06	18947
819.2	19129
819.341	19160
819.481	19164
819.622	19324
819.762	19571
819.903	19400
820.043	19312
820.184	19392
820.324	19221
820.465	19316
820.605	19331
820.746	19190
820.886	19133
821.026	19194
821.167	19255
821.307	19278
821.447	19236
821.588	19141
821.728	18996
821.868	18768
822.008	18741
822.149	18650
822.289	18692
822.429	18384
822.569	18403
822.709	18388
822.849	18197
822.99	18258
823.13	18243
823.27	18159
823.41	18079
823.55	17996
823.69	18106
823.83	17988
823.97	18019
824.11	17794
824.25	17851
824.389	17760
824.529	17843
824.669	17760
824.809	17893
824.949	17916
825.089	17965
825.228	17726
825.368	17573
825.508	17604
825.648	17592
825.787	17573
825.927	17501
826.067	17482
826.206	17520
826.346	17543
826.485	17604
826.625	17638
826.765	17687
826.904	17638
827.044	17311
827.183	17311
827.323	17246
827.462	17265
827.601	17246
827.741	17151
827.88	17307
828.02	17159
828.159	17159
828.298	17269
828.437	17208
828.577	17246
828.716	17364
828.855	17136
828.994	16957
829.134	17056
829.273	16942
829.412	17056
829.551	16949
829.69	17086
829.829	17060
829.968	17132
830.107	17079
830.246	17083
830.385	17037
830.524	16911
830.663	16816
830.802	16702
830.941	16660
831.08	16599
831.219	16683
831.357	16774
831.496	16843
831.635	16504
831.774	16523
831.913	16546
832.051	16375
832.19	16470
832.329	16478
832.467	16375
832.606	16268
832.744	16318
832.883	16249
833.022	16268
833.16	16280
833.299	16447
833.437	16371
833.576	16352
833.714	16390
833.852	16352
833.991	16379
834.129	16455
834.267	16390
834.406	16318
834.544	16360
834.682	16489
834.821	16470
834.959	16519
835.097	16295
835.235	16485
835.373	16599
835.511	16402
835.65	16276
835.788	16314
835.926	16257
836.064	16185
836.202	16154
836.34	16291
836.478	16451
836.615	16265
836.753	16253
836.891	16481
837.029	16428
837.167	16352
837.305	16196
837.443	16234
837.58	16059
837.718	16158
837.856	16226
837.993	16204
838.131	16143
838.269	16131
838.406	16063
838.544	16025
838.681	15994
838.819	15762
838.956	15709
839.094	15705
839.231	15743
839.369	15937
839.506	16207
839.643	15922
839.781	15724
839.918	15789
840.055	15797
840.193	15667
840.33	15675
840.467	15797
840.604	15804
840.742	15918
840.879	15625
841.016	15633
841.153	15679
841.29	15762
841.427	15732
841.564	15812
841.701	15755
841.838	15720
841.975	15637
842.112	15660
842.249	15526
842.385	15466
842.522	15728
842.659	15534
842.796	15523
842.933	15530
843.069	15576
843.206	15485
843.343	15618
843.479	15538
843.616	15572
843.752	15367
843.889	15287
844.025	15519
844.162	15241
844.298	15523
844.435	15329
844.571	15237
844.708	15386
844.844	15504
844.98	15515
845.117	15359
845.253	15233
845.389	15237
845.525	15176
845.661	15283
845.798	15119
845.934	15195
846.07	15066
846.206	15142
846.342	15226
846.478	15180
846.614	15020
846.75	14918
846.886	14929
847.022	14952
847.158	14941
847.294	14887
847.429	14887
847.565	14857
847.701	15100
847.837	14560
847.972	14583
848.108	14682
848.244	14693
848.379	14530
848.515	14549
848.65	14454
848.786	14427
848.921	14499
849.057	14640
849.192	14564
849.328	14503
849.463	14446
849.598	14530
849.734	14415
849.869	14271
850.004	14336
850.14	14374
850.275	14237
850.41	14191
850.545	14259
850.68	14176
850.815	14343
850.95	14229
851.085	14438
851.22	14355
851.355	14256
851.49	14237
851.625	14263
851.76	14206
851.895	14107
852.03	14096
852.165	14191
852.299	14248
852.434	14328
852.569	14259
852.703	14225
852.838	14237
852.973	14259
853.107	14332
853.242	14282
853.376	14142
853.511	13944
853.645	13993
853.78	14191
853.914	14180
854.048	14157
854.183	14016
854.317	14187
854.451	14309
854.585	14218
854.72	14062
854.854	14252
854.988	14058
855.122	14084
855.256	14084
855.39	14210
855.524	14275
855.658	14191
855.792	14218
855.926	14199
856.06	14233
856.194	14240
856.327	14149
856.461	14119
856.595	14050
856.729	14130
856.862	14237
856.996	14111
857.13	14237
857.263	14366
857.397	14294
857.53	14161
857.664	14180
857.797	14103
857.931	14332
858.064	14183
858.197	14210
858.331	14081
858.464	14130
858.597	14039
858.731	14123
858.864	14096
858.997	14172
859.13	14210
859.263	14168
859.396	14248
859.529	14157
859.662	14088
859.795	14031
859.928	14183
860.061	14183
860.194	14320
860.327	14088
860.46	14195
860.592	14199
860.725	14294
860.858	14240
860.99	14111
861.123	13932
861.256	14187
861.388	14081
861.521	14937
861.653	14020
861.786	13986
861.918	14005
862.05	14035
862.183	14088
862.315	14183
862.447	14195
862.58	14077
862.712	13879
862.844	13799
862.976	14020
863.108	13978
863.24	14415
863.372	13807
863.504	13944
863.636	13887
863.768	13978
863.9	13898
864.032	13845
864.164	13913
864.296	13974
864.428	13978
864.559	14031
864.691	14016
864.823	13970
864.954	13917
865.086	14024
865.217	13947
865.349	13898
865.48	13909
865.612	13879
865.743	13997
865.875	13841
866.006	13947
866.137	13974
866.269	13894
866.4	13928
866.531	13894
866.662	13845
866.793	13902
866.924	13830
867.055	13997
867.186	13860
867.317	13803
867.448	13845
867.579	13845
867.71	13791
867.841	13830
867.972	13890
868.103	13883
868.233	13902
868.364	13845
868.495	14043
868.625	14107
868.756	14233
868.886	14100
869.017	14180
869.147	14282
869.278	14309
869.408	14149
869.539	14199
869.669	14237
869.799	14119
869.929	14294
870.06	14202
870.19	14469
870.32	14385
870.45	14438
870.58	14476
870.71	14670
870.84	14678
870.97	14537
871.1	14533
871.23	14716
871.36	14845
871.489	14762
871.619	14788
871.749	14724
871.879	14746
872.008	14853
872.138	14735
872.267	14739
872.397	14636
872.526	14579
872.656	14579
872.785	14549
872.915	14785
873.044	14811
873.173	14769
873.303	14910
873.432	14849
873.561	14883
873.69	14902
873.819	14785
873.948	14853
874.077	14838
874.206	14769
874.335	14800
874.464	14998
874.593	15081
874.722	14975
874.851	15138
874.979	15051
875.108	15199
875.237	15043
875.365	15058
875.494	15116
875.623	15256
875.751	15203
875.88	15127
876.008	15123
876.136	15294
876.265	15534
876.393	15644
876.521	15576
876.65	15682
876.778	15561
876.906	15454
877.034	15477
877.162	15420
877.29	15526
877.418	15443
877.546	15473
877.674	15568
877.802	15466
877.93	15709
878.058	15454
878.185	15374
878.313	15473
878.441	15511
878.568	15348
878.696	15481
878.824	15507
878.951	15686
879.079	15701
879.206	15751
879.333	15762
879.461	15682
879.588	15656
879.715	15770
879.842	15778
879.97	15587
880.097	15329
880.224	15344
880.351	15428
880.478	15428
880.605	15367
880.732	15294
880.859	15675
880.986	15363
881.112	15443
881.239	15275
881.366	15252
881.493	15112
881.619	14986
881.746	15070
881.872	15093
881.999	14918
882.125	15020
882.252	15070
882.378	15062
882.505	15245
882.631	15009
882.757	14899
882.883	14891
883.01	14842
883.136	14807
883.262	14712
883.388	14811
883.514	14838
883.64	14918
883.766	14785
883.892	14625
884.018	14731
884.143	14868
884.269	14891
884.395	14590
884.52	14552
884.646	14499
884.772	14427
884.897	14473
885.023	14682
885.148	14754
885.274	14705
885.399	14598
885.524	14556
885.65	14575
885.775	14606
885.9	14503
886.025	14617
886.15	14689
886.275	14522
886.4	14507
886.525	14564
886.65	14560
886.775	14533
886.9	14632
887.025	14845
887.149	14583
887.274	14336
887.399	14313
887.523	14419
887.648	14317
887.773	14256
887.897	14404
888.021	14495
888.146	14374
888.27	14503
888.395	14511
888.519	14514
888.643	14427
888.767	14541
888.891	14332
889.015	14161
889.139	14282
889.263	14294
889.387	14362
889.511	14393
889.635	14324
889.759	14267
889.883	14256
890.006	14366
890.13	14328
890.254	14225
890.377	14202
890.501	14077
890.624	14054
890.748	14199
890.871	14096
890.995	14012
891.118	13856
891.241	13978
891.364	13894
891.488	14115
891.611	13936
891.734	14092
891.857	14103
891.98	14005
892.103	14065
892.226	14008
892.349	14046
892.471	13894
892.594	13894
892.717	13967
892.839	13921
892.962	13913
893.085	14008
893.207	13997
893.33	13811
893.452	13967
893.575	14119
893.697	13944
893.819	14157
893.941	14229
894.064	14107
894.186	13967
894.308	13955
894.43	14142
894.552	14164
894.674	14103
894.796	13936
894.918	13967
895.04	14046
895.161	14172
895.283	14111
895.405	14084
895.526	14123
895.648	14058
895.769	14168
895.891	14100
896.012	14180
896.134	14164
896.255	14126
896.376	14157
896.498	14176
896.619	14195
896.74	14172
896.861	14286
896.982	14461
897.103	14629
897.224	14431
897.345	14374
897.466	14267
897.587	14438
897.708	14606
897.828	14469
897.949	14446
898.07	14324
898.19	14423
898.311	14465
898.431	14499
898.552	14556
898.672	14575
898.792	14526
898.913	14503
899.033	14385
899.153	14339
899.273	14202
899.393	14278
899.513	14358
899.633	14336
899.753	14419
899.873	14237
899.993	14461
900.113	14301
900.232	14446
900.352	14336
900.472	14301
900.591	14191
900.711	14195
900.83	14138
900.95	14313
901.069	14400
901.189	14229
901.308	13944
901.427	13875
901.546	13822
901.665	13883
901.784	13925
901.904	13761
902.023	13696
902.141	13533
902.26	13472
902.379	13521
902.498	13453
902.617	13381
902.735	13495
902.854	13445
902.973	13388
903.091	13251
903.21	13202
903.328	13179
903.446	13126
903.565	13012
903.683	13072
903.801	12951
903.919	12985
904.038	13023
904.156	12897
904.274	12863
904.392	12833
904.51	12924
904.627	12856
904.745	12989
904.863	12901
904.981	12669
905.098	12620
905.216	12604
905.334	12544
905.451	12574
905.569	12483
905.686	12528
905.803	12544
905.921	12361
906.038	12494
906.155	12334
906.272	12285
906.389	12289
906.506	12110
906.623	12140
906.74	12053
906.857	12038
906.974	12087
907.091	12220
907.208	12258
907.324	12144
907.441	12049
907.557	11863
907.674	11969
907.79	11836
907.907	11821
908.023	11897
908.139	11824
908.256	11775
908.372	11813
908.488	11809
908.604	11703
908.72	11649
908.836	11581
908.952	11668
909.068	11699
909.184	11733
909.3	11665
909.415	11676
909.531	11699
909.647	11387
909.762	11417
909.878	11425
909.993	11406
910.108	11353
910.224	11326
910.339	11459
910.454	11356
910.57	11250
910.685	11170
910.8	11455
910.915	11474
911.03	11292
911.145	11117
911.259	11136
911.374	11208
911.489	11056
911.604	11025
911.718	10847
911.833	10873
911.947	10748
912.062	10729
912.176	10752
912.291	10885
912.405	10889
912.519	11067
912.633	11052
912.748	10908
912.862	10881
912.976	10714
913.09	10637
913.204	10687
913.318	10850
913.431	10843
913.545	10873
913.659	10869
913.772	10790
913.886	10653
914	10615
914.113	10786
914.226	10847
914.34	10675
914.453	10523
914.566	10786
914.68	10706
914.793	10580
914.906	10413
915.019	10356
915.132	10253
915.245	10379
915.358	10440
915.47	10382
915.583	10405
915.696	10455
915.809	10542
915.921	10538
916.034	10379
916.146	10398
916.259	10337
916.371	10462
916.483	10382
916.595	10352
916.708	10390
916.82	10272
916.932	10310
917.044	10413
917.156	10265
917.268	10173
917.38	10242
917.491	10173
917.603	10253
917.715	10314
917.826	10367
917.938	10200
918.049	10120
918.161	10287
918.272	10375
918.384	10306
918.495	10280
918.606	10078
918.717	10044
918.828	10112
918.939	10051
919.05	10071
919.161	10055
919.272	9846
919.383	9994
919.494	10109
919.604	10344
919.715	10090
919.826	10055
919.936	10109
920.047	10196
920.157	10249
920.267	10325
920.378	10097
920.488	10105
920.598	10303
920.708	10466
920.818	10360
920.928	10303
921.038	10527
921.148	10519
921.258	10147
921.368	10109
921.477	10010
921.587	9964
921.697	9865
921.806	10044
921.916	9926
922.025	9766
922.134	9656
922.244	9705
922.353	9728
922.462	9584
922.571	9538
922.68	9393
922.789	9351
922.898	9428
923.007	9359
923.116	9507
923.224	9298
923.333	9329
923.442	9336
923.55	9249
923.659	9355
923.767	9294
923.876	9165
923.984	9332
924.092	9150
924.201	9237
924.309	9218
924.417	9283
924.525	9264
924.633	9188
924.741	10101
924.849	9097
924.956	9199
925.064	9070
925.172	8990
925.279	9032
925.387	9157
925.494	9036
925.602	9184
925.709	9074
925.816	9028
925.924	9032
926.031	9142
926.138	9097
926.245	9081
926.352	8975
926.459	9180
926.566	9199
926.673	8979
926.779	8925
926.886	8815
926.993	8807
927.099	8697
927.206	8762
927.312	8724
927.419	8861
927.525	8727
927.631	8842
927.737	8705
927.843	8663
927.95	8606
928.056	8716
928.162	8655
928.267	8670
928.373	9298
928.479	8781
928.585	8579
928.69	8705
928.796	8727
928.901	8613
929.007	8484
929.112	8636
929.218	8579
929.323	8503
929.428	8438
929.533	8636
929.638	8374
929.743	8457
929.848	8507
929.953	8473
930.058	8400
930.163	8271
930.267	8320
930.372	8442
930.477	8206
930.581	8465
930.685	8244
930.79	8149
930.894	8164
930.998	8180
931.103	8263
931.207	8001
931.311	7913
931.415	7864
931.519	7700
931.623	7750
