Data from test_V78500241_1692.txt Node
Date: Fri Mar 25 14:45:29 CST 2022
User: usil
Spectrometer: V785-0024
Trigger mode: 0
Integration Time (sec): 4.000000E-1
Scans to average: 1
Nonlinearity correction enabled: false
Boxcar width: 0
Storing dark spectrum: false
XAxis mode: Wavelengths
Number of Pixels in Spectrum: 1024
>>>>>Begin Spectral Data<<<<<
801.071	22257
801.214	22078
801.356	21960
801.499	21766
801.641	21671
801.783	21606
801.926	21667
802.068	21519
802.211	21466
802.353	21481
802.496	21104
802.638	21226
802.78	21051
802.923	21001
803.065	20895
803.208	20921
803.35	21013
803.492	20963
803.635	21013
803.777	21020
803.919	21039
804.061	21203
804.204	20994
804.346	20948
804.488	20807
804.63	20849
804.773	20819
804.915	20902
805.057	21108
805.199	20826
805.341	21058
805.483	21123
805.626	20918
805.768	20811
805.91	20929
806.052	20979
806.194	20762
806.336	21112
806.478	20895
806.62	20819
806.762	20838
806.904	21104
807.046	21252
807.188	21275
807.33	21287
807.472	21241
807.614	21230
807.756	21157
807.898	21100
808.04	20857
808.182	20998
808.324	21108
808.465	20982
808.607	21077
808.749	21268
808.891	21428
809.033	21523
809.174	21317
809.316	21268
809.458	21401
809.6	21184
809.741	21226
809.883	21485
810.025	21420
810.166	21496
810.308	21439
810.45	21439
810.591	21283
810.733	21077
810.875	21135
811.016	20864
811.158	20979
811.299	21077
811.441	21211
811.582	21207
811.724	21036
811.865	21039
812.007	20956
812.148	21089
812.29	21009
812.431	21245
812.573	21378
812.714	21408
812.855	21534
812.997	21564
813.138	21850
813.279	21614
813.421	21545
813.562	21401
813.703	21279
813.845	21329
813.986	21039
814.127	20716
814.268	20598
814.41	20560
814.551	20545
814.692	20655
814.833	20552
814.974	20590
815.115	20575
815.256	20400
815.397	20423
815.539	20461
815.68	20389
815.821	20320
815.962	20343
816.103	20298
816.244	20084
816.385	20001
816.526	20069
816.666	19894
816.807	19799
816.948	19757
817.089	19894
817.23	19811
817.371	19772
817.512	19677
817.653	19693
817.793	19643
817.934	19719
818.075	19746
818.216	19845
818.356	19750
818.497	19578
818.638	19483
818.778	19362
818.919	19453
819.06	19308
819.2	19552
819.341	19601
819.481	19693
819.622	19757
819.762	19986
819.903	19681
820.043	19807
820.184	19662
820.324	19677
820.465	19826
820.605	19677
820.746	19681
820.886	19620
821.026	19658
821.167	19712
821.307	19742
821.447	19597
821.588	19540
821.728	19354
821.868	19270
822.008	19107
822.149	19179
822.289	19137
822.429	18954
822.569	18795
822.709	18783
822.849	18669
822.99	18551
823.13	18608
823.27	18585
823.41	18376
823.55	18300
823.69	18441
823.83	18399
823.97	18422
824.11	18235
824.25	18133
824.389	18243
824.529	18296
824.669	18129
824.809	18300
824.949	18311
825.089	18216
825.228	18159
825.368	18064
825.508	18011
825.648	18060
825.787	17977
825.927	18015
826.067	17931
826.206	17950
826.346	18053
826.485	17901
826.625	17855
826.765	18053
826.904	17977
827.044	17885
827.183	17680
827.323	17638
827.462	17752
827.601	17589
827.741	17627
827.88	17687
828.02	17551
828.159	17710
828.298	17619
828.437	17710
828.577	17619
828.716	17760
828.855	17642
828.994	17383
829.134	17356
829.273	17421
829.412	17292
829.551	17345
829.69	17398
829.829	17436
829.968	17402
830.107	17490
830.246	17433
830.385	17398
830.524	17299
830.663	17246
830.802	17079
830.941	17003
831.08	16995
831.219	17033
831.357	17086
831.496	17147
831.635	16987
831.774	16915
831.913	16835
832.051	16763
832.19	16790
832.329	16896
832.467	16691
832.606	16767
832.744	16801
832.883	16637
833.022	16710
833.16	16649
833.299	16717
833.437	16672
833.576	16801
833.714	16649
833.852	16824
833.991	16843
834.129	16858
834.267	16839
834.406	16706
834.544	16828
834.682	16839
834.821	16744
834.959	16949
835.097	16687
835.235	16873
835.373	16767
835.511	16786
835.65	16588
835.788	16759
835.926	16558
836.064	16443
836.202	16462
836.34	16656
836.478	16733
836.615	16611
836.753	16713
836.891	16611
837.029	16691
837.167	16637
837.305	16573
837.443	16649
837.58	16493
837.718	16630
837.856	16500
837.993	16417
838.131	16577
838.269	16363
838.406	16451
838.544	16432
838.681	16291
838.819	16074
838.956	15941
839.094	16055
839.231	16086
839.369	16173
839.506	16367
839.643	16265
839.781	16048
839.918	15941
840.055	16086
840.193	16048
840.33	16090
840.467	15998
840.604	16139
840.742	16398
840.879	15884
841.016	15907
841.153	15975
841.29	16158
841.427	16025
841.564	16112
841.701	16093
841.838	16040
841.975	16044
842.112	15979
842.249	15865
842.385	15728
842.522	16055
842.659	15857
842.796	15762
842.933	15835
843.069	15857
843.206	15827
843.343	15865
843.479	15793
843.616	15854
843.752	15656
843.889	15724
844.025	15778
844.162	15747
844.298	15724
844.435	15637
844.571	15557
844.708	15641
844.844	15778
844.98	15819
845.117	15728
845.253	15614
845.389	15538
845.525	15599
845.661	15523
845.798	15439
845.934	15443
846.07	15355
846.206	15492
846.342	15553
846.478	15321
846.614	15192
846.75	15123
846.886	15192
847.022	15291
847.158	15157
847.294	15275
847.429	15195
847.565	15142
847.701	15477
847.837	14963
847.972	15017
848.108	15085
848.244	14956
848.379	14895
848.515	14735
848.65	14777
848.786	14731
848.921	14823
849.057	14910
849.192	14864
849.328	14701
849.463	14724
849.598	14754
849.734	14743
849.869	14731
850.004	14594
850.14	14724
850.275	14575
850.41	14400
850.545	14533
850.68	14514
850.815	14590
850.95	14621
851.085	14678
851.22	14598
851.355	14579
851.49	14526
851.625	14488
851.76	14670
851.895	14423
852.03	14396
852.165	14480
852.299	14541
852.434	14655
852.569	14587
852.703	14556
852.838	14640
852.973	14769
853.107	14670
853.242	14560
853.376	14526
853.511	14256
853.645	14415
853.78	14511
853.914	14469
854.048	14442
854.183	14396
854.317	14396
854.451	14598
854.585	14374
854.72	14400
854.854	14484
854.988	14309
855.122	14431
855.256	14142
855.39	14366
855.524	14495
855.658	14514
855.792	14488
855.926	14522
856.06	14598
856.194	14568
856.327	14415
856.461	14332
856.595	14393
856.729	14423
856.862	14549
856.996	14400
857.13	14571
857.263	14476
857.397	14549
857.53	14404
857.664	14514
857.797	14473
857.931	14583
858.064	14511
858.197	14564
858.331	14412
858.464	14404
858.597	14358
858.731	14408
858.864	14317
858.997	14389
859.13	14495
859.263	14385
859.396	14461
859.529	14320
859.662	14385
859.795	14309
859.928	14450
860.061	14549
860.194	14613
860.327	14446
860.46	14480
860.592	14579
860.725	14473
860.858	14492
860.99	14374
861.123	14442
861.256	14431
861.388	14423
861.521	14960
861.653	14339
861.786	14229
861.918	14290
862.05	14244
862.183	14400
862.315	14473
862.447	14393
862.58	14427
862.712	14214
862.844	14183
862.976	14267
863.108	14233
863.24	14682
863.372	14191
863.504	14103
863.636	14278
863.768	14221
863.9	14183
864.032	14149
864.164	14206
864.296	14259
864.428	14290
864.559	14324
864.691	14248
864.823	14237
864.954	14256
865.086	14237
865.217	14237
865.349	14142
865.48	14263
865.612	14229
865.743	14404
865.875	14164
866.006	14168
866.137	14206
866.269	14240
866.4	14206
866.531	14183
866.662	14088
866.793	14145
866.924	14145
867.055	14115
867.186	14221
867.317	14065
867.448	14084
867.579	14138
867.71	14050
867.841	14134
867.972	14275
868.103	14237
868.233	14233
868.364	14240
868.495	14267
868.625	14488
868.756	14552
868.886	14370
869.017	14431
869.147	14499
869.278	14552
869.408	14423
869.539	14442
869.669	14522
869.799	14465
869.929	14492
870.06	14541
870.19	14800
870.32	14743
870.45	14788
870.58	14788
870.71	14830
870.84	14918
870.97	14872
871.1	14800
871.23	15089
871.36	15062
871.489	14990
871.619	15036
871.749	15154
871.879	15001
872.008	15100
872.138	15089
872.267	15173
872.397	14975
872.526	14819
872.656	14918
872.785	14937
872.915	14971
873.044	15237
873.173	15100
873.303	15051
873.432	15188
873.561	15131
873.69	15150
873.819	15070
873.948	15100
874.077	15154
874.206	14982
874.335	15142
874.464	15260
874.593	15435
874.722	15275
874.851	15454
874.979	15462
875.108	15466
875.237	15329
875.365	15260
875.494	15408
875.623	15538
875.751	15424
875.88	15382
876.008	15519
876.136	15686
876.265	15743
876.393	15975
876.521	15964
876.65	15926
876.778	15816
876.906	15842
877.034	15854
877.162	15895
877.29	15819
877.418	15873
877.546	15888
877.674	15804
877.802	15895
877.93	15838
878.058	15732
878.185	15739
878.313	15812
878.441	15755
878.568	15629
878.696	15854
878.824	15800
878.951	15869
879.079	16006
879.206	16215
879.333	16055
879.461	15964
879.588	15922
879.715	16017
879.842	16185
879.97	15918
880.097	15808
880.224	15553
880.351	15705
880.478	15766
880.605	15747
880.732	15675
880.859	15937
880.986	15667
881.112	15679
881.239	15439
881.366	15572
881.493	15378
881.619	15336
881.746	15310
881.872	15306
881.999	15306
882.125	15302
882.252	15214
882.378	15389
882.505	15420
882.631	15245
882.757	15051
882.883	15336
883.01	15180
883.136	15077
883.262	14967
883.388	15001
883.514	15100
883.64	15291
883.766	15112
883.892	14918
884.018	14948
884.143	15154
884.269	15241
884.395	14941
884.52	14842
884.646	14906
884.772	14686
884.897	14788
885.023	14800
885.148	14960
885.274	14891
885.399	15077
885.524	14933
885.65	14868
885.775	14887
885.9	14792
886.025	15013
886.15	14956
886.275	14739
886.4	14750
886.525	14811
886.65	14823
886.775	14701
886.9	14963
887.025	15104
887.149	14838
887.274	14750
887.399	14743
887.523	14632
887.648	14587
887.773	14587
887.897	14712
888.021	14724
888.146	14670
888.27	14712
888.395	14796
888.519	14731
888.643	14773
888.767	14800
888.891	14530
889.015	14552
889.139	14621
889.263	14469
889.387	14610
889.511	14731
889.635	14716
889.759	14545
889.883	14537
890.006	14648
890.13	14678
890.254	14438
890.377	14499
890.501	14336
890.624	14305
890.748	14408
890.871	14286
890.995	14183
891.118	14134
891.241	14252
891.364	14320
891.488	14267
891.611	14229
891.734	14267
891.857	14248
891.98	14210
892.103	14301
892.226	14282
892.349	14282
892.471	14126
892.594	14187
892.717	14240
892.839	14130
892.962	14237
893.085	14328
893.207	14263
893.33	14206
893.452	14172
893.575	14267
893.697	14168
893.819	14408
893.941	14571
894.064	14381
894.186	14130
894.308	14183
894.43	14339
894.552	14434
894.674	14389
894.796	14286
894.918	14275
895.04	14248
895.161	14393
895.283	14347
895.405	14244
895.526	14431
895.648	14339
895.769	14336
895.891	14457
896.012	14450
896.134	14503
896.255	14377
896.376	14290
896.498	14400
896.619	14492
896.74	14339
896.861	14492
896.982	14743
897.103	14872
897.224	14727
897.345	14651
897.466	14655
897.587	14731
897.708	14819
897.828	14625
897.949	14594
898.07	14602
898.19	14632
898.311	14773
898.431	14754
898.552	14781
898.672	14853
898.792	14895
898.913	14781
899.033	14724
899.153	14667
899.273	14587
899.393	14579
899.513	14606
899.633	14663
899.753	14731
899.873	14594
899.993	14640
900.113	14587
900.232	14625
900.352	14621
900.472	14511
900.591	14438
900.711	14564
900.83	14339
900.95	14552
901.069	14503
901.189	14320
901.308	14237
901.427	14187
901.546	14100
901.665	14183
901.784	14191
901.904	14054
902.023	13982
902.141	13784
902.26	13681
902.379	13708
902.498	13674
902.617	13647
902.735	13856
902.854	13693
902.973	13704
903.091	13457
903.21	13464
903.328	13426
903.446	13449
903.565	13240
903.683	13297
903.801	13198
903.919	13259
904.038	13247
904.156	13065
904.274	13080
904.392	13088
904.51	13019
904.627	12996
904.745	13129
904.863	13061
904.981	12932
905.098	12783
905.216	12844
905.334	12886
905.451	12810
905.569	12753
905.686	12760
905.803	12814
905.921	12623
906.038	12688
906.155	12681
906.272	12547
906.389	12498
906.506	12315
906.623	12467
906.74	12376
906.857	12163
906.974	12338
907.091	12414
907.208	12479
907.324	12403
907.441	12319
907.557	12068
907.674	12205
907.79	12114
907.907	12133
908.023	12159
908.139	12057
908.256	11969
908.372	12007
908.488	11996
908.604	11851
908.72	11923
908.836	11901
908.952	11840
909.068	11927
909.184	12068
909.3	11840
909.415	11942
909.531	11885
909.647	11729
909.762	11707
909.878	11532
909.993	11646
910.108	11562
910.224	11684
910.339	11642
910.454	11516
910.57	11547
910.685	11391
910.8	11638
910.915	11604
911.03	11478
911.145	11364
911.259	11341
911.374	11364
911.489	11322
911.604	11258
911.718	11079
911.833	11132
911.947	10984
912.062	10927
912.176	11128
912.291	11170
912.405	11079
912.519	11303
912.633	11299
912.748	11208
912.862	11090
912.976	11014
913.09	10885
913.204	10881
913.318	10968
913.431	11003
913.545	10980
913.659	11105
913.772	10942
913.886	10908
914	10835
914.113	10889
914.226	10999
914.34	10896
914.453	10763
914.566	10908
914.68	10824
914.793	10767
914.906	10637
915.019	10637
915.132	10478
915.245	10634
915.358	10637
915.47	10679
915.583	10656
915.696	10618
915.809	10668
915.921	10778
916.034	10569
916.146	10462
916.259	10542
916.371	10615
916.483	10569
916.595	10478
916.708	10546
916.82	10493
916.932	10440
917.044	10459
917.156	10474
917.268	10329
917.38	10341
917.491	10356
917.603	10462
917.715	10485
917.826	10474
917.938	10409
918.049	10344
918.161	10424
918.272	10542
918.384	10550
918.495	10447
918.606	10295
918.717	10284
918.828	10310
918.939	10261
919.05	10215
919.161	10306
919.272	10025
919.383	10200
919.494	10367
919.604	10443
919.715	10322
919.826	10299
919.936	10295
920.047	10459
920.157	10249
920.267	10462
920.378	10329
920.488	10348
920.598	10538
920.708	10618
920.818	10535
920.928	10451
921.038	10725
921.148	10615
921.258	10352
921.368	10314
921.477	10230
921.587	10154
921.697	10059
921.806	10200
921.916	10063
922.025	9861
922.134	9975
922.244	9770
922.353	9926
922.462	9755
922.571	9698
922.68	9564
922.789	9591
922.898	9576
923.007	9507
923.116	9667
923.224	9580
923.333	9515
923.442	9416
923.55	9397
923.659	9466
923.767	9462
923.876	9408
923.984	9564
924.092	9298
924.201	9405
924.309	9389
924.417	9507
924.525	9363
924.633	9367
924.741	10333
924.849	9230
924.956	9408
925.064	9264
925.172	9093
925.279	9169
925.387	9253
925.494	9230
925.602	9310
925.709	9306
925.816	9142
925.924	9249
926.031	9272
926.138	9169
926.245	9275
926.352	9127
926.459	9298
926.566	9279
926.673	9218
926.779	9100
926.886	9085
926.993	9005
927.099	8868
927.206	8899
927.312	8895
927.419	8918
927.525	8937
927.631	8933
927.737	8872
927.843	8861
927.95	8705
928.056	8807
928.162	8826
928.267	8819
928.373	9386
928.479	8872
928.585	8705
928.69	8838
928.796	8834
928.901	8750
929.007	8613
929.112	8731
929.218	8796
929.323	8629
929.428	8678
929.533	8693
929.638	8602
929.743	8587
929.848	8678
929.953	8564
930.058	8488
930.163	8396
930.267	8438
930.372	8552
930.477	8393
930.581	8564
930.685	8389
930.79	8328
930.894	8351
930.998	8248
931.103	8431
931.207	8119
931.311	8130
931.415	7989
931.519	7852
931.623	7814
