Data from test_V78500241_353.txt Node
Date: Fri Mar 25 14:36:10 CST 2022
User: usil
Spectrometer: V785-0024
Trigger mode: 0
Integration Time (sec): 4.000000E-1
Scans to average: 1
Nonlinearity correction enabled: false
Boxcar width: 0
Storing dark spectrum: false
XAxis mode: Wavelengths
Number of Pixels in Spectrum: 1024
>>>>>Begin Spectral Data<<<<<
801.071	26960
801.214	26807
801.356	26473
801.499	26507
801.641	26393
801.783	26278
801.926	26389
802.068	26298
802.211	26161
802.353	26073
802.496	25902
802.638	25909
802.78	25814
802.923	25784
803.065	25803
803.208	25761
803.35	25818
803.492	25879
803.635	25799
803.777	25826
803.919	25928
804.061	26161
804.204	25864
804.346	25788
804.488	25719
804.63	25628
804.773	25647
804.915	25807
805.057	25883
805.199	25898
805.341	25772
805.483	25849
805.626	25898
805.768	25666
805.91	25913
806.052	25913
806.194	25685
806.336	26039
806.478	25932
806.62	25833
806.762	25925
806.904	26240
807.046	26339
807.188	26221
807.33	26210
807.472	26317
807.614	26191
807.756	26210
807.898	26081
808.04	25906
808.182	25906
808.324	25982
808.465	26016
808.607	26199
808.749	26381
808.891	26381
809.033	26492
809.174	26355
809.316	26438
809.458	26320
809.6	26244
809.741	26320
809.883	26320
810.025	26594
810.166	26484
810.308	26408
810.45	26442
810.591	26412
810.733	26259
810.875	26221
811.016	26103
811.158	25993
811.299	26100
811.441	26305
811.582	26362
811.724	26206
811.865	26142
812.007	26180
812.148	26218
812.29	26298
812.431	26358
812.573	26480
812.714	26499
812.855	26594
812.997	26819
813.138	26902
813.279	26823
813.421	26815
813.562	26689
813.703	26579
813.845	26358
813.986	26126
814.127	25875
814.268	25871
814.41	25662
814.551	25658
814.692	25879
814.833	25761
814.974	25647
815.115	25651
815.256	25510
815.397	25506
815.539	25552
815.68	25552
815.821	25460
815.962	25358
816.103	25620
816.244	25327
816.385	25228
816.526	25194
816.666	24989
816.807	24886
816.948	25000
817.089	25027
817.23	24772
817.371	24875
817.512	24871
817.653	24833
817.793	24779
817.934	24882
818.075	24863
818.216	24878
818.356	24711
818.497	24631
818.638	24452
818.778	24669
818.919	24547
819.06	24559
819.2	24639
819.341	24669
819.481	24646
819.622	24977
819.762	25065
819.903	25095
820.043	24951
820.184	24890
820.324	24996
820.465	24894
820.605	24848
820.746	24840
820.886	24585
821.026	24894
821.167	24650
821.307	24886
821.447	24585
821.588	24532
821.728	24578
821.868	24292
822.008	24251
822.149	24258
822.289	24064
822.429	23878
822.569	23954
822.709	23931
822.849	23676
822.99	23653
823.13	23520
823.27	23642
823.41	23528
823.55	23296
823.69	23448
823.83	23570
823.97	23433
824.11	23265
824.25	23239
824.389	23273
824.529	23242
824.669	23208
824.809	23455
824.949	23227
825.089	23208
825.228	23334
825.368	22991
825.508	22987
825.648	23041
825.787	23048
825.927	23109
826.067	22915
826.206	23067
826.346	22972
826.485	22980
826.625	23022
826.765	23056
826.904	23041
827.044	22755
827.183	22611
827.323	22573
827.462	22656
827.601	22759
827.741	22675
827.88	22729
828.02	22462
828.159	22694
828.298	22660
828.437	22615
828.577	22607
828.716	22793
828.855	22554
828.994	22440
829.134	22405
829.273	22451
829.412	22310
829.551	22253
829.69	22352
829.829	22413
829.968	22360
830.107	22402
830.246	22417
830.385	22257
830.524	22348
830.663	22124
830.802	22097
830.941	22021
831.08	21903
831.219	22051
831.357	21949
831.496	22135
831.635	21899
831.774	21797
831.913	21838
832.051	21762
832.19	21542
832.329	21656
832.467	21599
832.606	21507
832.744	21610
832.883	21618
833.022	21492
833.16	21671
833.299	21542
833.437	21610
833.576	21629
833.714	21485
833.852	21751
833.991	21542
834.129	21622
834.267	21667
834.406	21629
834.544	21625
834.682	21629
834.821	21557
834.959	21793
835.097	21545
835.235	21618
835.373	21530
835.511	21641
835.65	21454
835.788	21370
835.926	21313
836.064	21298
836.202	21310
836.34	21420
836.478	21386
836.615	21408
836.753	21348
836.891	21458
837.029	21523
837.167	21332
837.305	21317
837.443	21370
837.58	21275
837.718	21359
837.856	21241
837.993	21131
838.131	21332
838.269	21074
838.406	21127
838.544	21112
838.681	20868
838.819	20933
838.956	20754
839.094	20785
839.231	20708
839.369	20925
839.506	21089
839.643	20883
839.781	20663
839.918	20526
840.055	20701
840.193	20701
840.33	20731
840.467	20568
840.604	20663
840.742	20982
840.879	20499
841.016	20598
841.153	20454
841.29	20712
841.427	20693
841.564	20708
841.701	20663
841.838	20518
841.975	20454
842.112	20533
842.249	20393
842.385	20290
842.522	20537
842.659	20370
842.796	20381
842.933	20320
843.069	20237
843.206	20351
843.343	20415
843.479	20317
843.616	20358
843.752	20031
843.889	20130
844.025	20218
844.162	20107
844.298	20298
844.435	20103
844.571	20065
844.708	20031
844.844	20202
844.98	20195
845.117	20199
845.253	20050
845.389	20103
845.525	19974
845.661	19925
845.798	19826
845.934	20005
846.07	19978
846.206	19986
846.342	19989
846.478	19917
846.614	19700
846.75	19525
846.886	19514
847.022	19624
847.158	19567
847.294	19613
847.429	19559
847.565	19540
847.701	19757
847.837	19282
847.972	19259
848.108	19346
848.244	19445
848.379	19164
848.515	19122
848.65	19209
848.786	19175
848.921	19031
849.057	19358
849.192	19289
849.328	19274
849.463	19053
849.598	19156
849.734	19084
849.869	18924
850.004	18894
850.14	18901
850.275	18837
850.41	18814
850.545	18829
850.68	18837
850.815	18840
850.95	18768
851.085	18935
851.22	19034
851.355	18886
851.49	18825
851.625	18798
851.76	18722
851.895	18901
852.03	18677
852.165	18844
852.299	18897
852.434	18928
852.569	18920
852.703	18802
852.838	18985
852.973	18924
853.107	18985
853.242	18734
853.376	18745
853.511	18661
853.645	18654
853.78	18692
853.914	18719
854.048	18608
854.183	18665
854.317	18878
854.451	18741
854.585	18715
854.72	18654
854.854	18684
854.988	18631
855.122	18745
855.256	18620
855.39	18715
855.524	18768
855.658	18669
855.792	18745
855.926	18669
856.06	18707
856.194	18783
856.327	18707
856.461	18692
856.595	18642
856.729	18749
856.862	18776
856.996	18779
857.13	18669
857.263	18844
857.397	18719
857.53	18681
857.664	18768
857.797	18551
857.931	18772
858.064	18642
858.197	18722
858.331	18642
858.464	18559
858.597	18597
858.731	18673
858.864	18677
858.997	18658
859.13	18604
859.263	18551
859.396	18578
859.529	18566
859.662	18574
859.795	18551
859.928	18574
860.061	18764
860.194	18730
860.327	18646
860.46	18578
860.592	18722
860.725	18760
860.858	18707
860.99	18688
861.123	18525
861.256	18486
861.388	18616
861.521	19392
861.653	18460
861.786	18486
861.918	18414
862.05	18566
862.183	18719
862.315	18730
862.447	18738
862.58	18722
862.712	18513
862.844	18353
862.976	18460
863.108	18384
863.24	18646
863.372	18273
863.504	18308
863.636	18327
863.768	18464
863.9	18285
864.032	18357
864.164	18414
864.296	18369
864.428	18513
864.559	18532
864.691	18429
864.823	18342
864.954	18315
865.086	18319
865.217	18239
865.349	18292
865.48	18277
865.612	18247
865.743	18403
865.875	18239
866.006	18292
866.137	18357
866.269	18311
866.4	18304
866.531	18197
866.662	18228
866.793	18266
866.924	18334
867.055	18266
867.186	18285
867.317	18205
867.448	18163
867.579	18239
867.71	18152
867.841	18205
867.972	18308
868.103	18285
868.233	18304
868.364	18311
868.495	18319
868.625	18475
868.756	18517
868.886	18467
869.017	18361
869.147	18570
869.278	18513
869.408	18597
869.539	18376
869.669	18650
869.799	18589
869.929	18498
870.06	18532
870.19	18749
870.32	18741
870.45	18760
870.58	18878
870.71	19038
870.84	18890
870.97	18787
871.1	18928
871.23	19015
871.36	19129
871.489	18996
871.619	18962
871.749	19107
871.879	19061
872.008	19034
872.138	18970
872.267	18996
872.397	18916
872.526	18848
872.656	18871
872.785	18886
872.915	19129
873.044	19107
873.173	19023
873.303	19137
873.432	19076
873.561	19225
873.69	19190
873.819	19110
873.948	19095
874.077	19072
874.206	18954
874.335	19114
874.464	19259
874.593	19339
874.722	19289
874.851	19312
874.979	19381
875.108	19445
875.237	19339
875.365	19335
875.494	19278
875.623	19331
875.751	19289
875.88	19426
876.008	19563
876.136	19548
876.265	19818
876.393	19856
876.521	19769
876.65	19696
876.778	19734
876.906	19719
877.034	19681
877.162	19769
877.29	19727
877.418	19609
877.546	19746
877.674	19738
877.802	19761
877.93	19795
878.058	19719
878.185	19704
878.313	19712
878.441	19693
878.568	19605
878.696	19696
878.824	19738
878.951	19875
879.079	19898
879.206	20130
879.333	19951
879.461	19769
879.588	19811
879.715	20027
879.842	20077
879.97	19788
880.097	19616
880.224	19666
880.351	19685
880.478	19632
880.605	19552
880.732	19597
880.859	19742
880.986	19696
881.112	19521
881.239	19487
881.366	19495
881.493	19324
881.619	19217
881.746	19343
881.872	19263
881.999	19190
882.125	19084
882.252	19137
882.378	19228
882.505	19335
882.631	19099
882.757	18981
882.883	19046
883.01	19008
883.136	18852
883.262	18905
883.388	18863
883.514	18947
883.64	18935
883.766	18867
883.892	18791
884.018	18745
884.143	18924
884.269	19019
884.395	18681
884.52	18692
884.646	18684
884.772	18597
884.897	18642
885.023	18665
885.148	18833
885.274	18837
885.399	18783
885.524	18673
885.65	18627
885.775	18623
885.9	18616
886.025	18738
886.15	18661
886.275	18452
886.4	18486
886.525	18483
886.65	18448
886.775	18563
886.9	18798
887.025	18829
887.149	18677
887.274	18414
887.399	18369
887.523	18334
887.648	18327
887.773	18281
887.897	18464
888.021	18475
888.146	18311
888.27	18467
888.395	18544
888.519	18486
888.643	18395
888.767	18338
888.891	18308
889.015	18144
889.139	18167
889.263	18224
889.387	18296
889.511	18414
889.635	18308
889.759	18254
889.883	18140
890.006	18178
890.13	18289
890.254	18235
890.377	18060
890.501	17969
890.624	17912
890.748	17992
890.871	17752
890.995	17843
891.118	17695
891.241	17798
891.364	17786
891.488	17927
891.611	17870
891.734	17832
891.857	17927
891.98	17722
892.103	17954
892.226	17821
892.349	17794
892.471	17634
892.594	17790
892.717	17737
892.839	17649
892.962	17714
893.085	17882
893.207	17745
893.33	17722
893.452	17661
893.575	17882
893.697	17714
893.819	18003
893.941	17984
894.064	17965
894.186	17672
894.308	17619
894.43	17813
894.552	17901
894.674	17771
894.796	17695
894.918	17695
895.04	17790
895.161	17935
895.283	17783
895.405	17646
895.526	17783
895.648	17790
895.769	17741
895.891	17824
896.012	17882
896.134	17939
896.255	17821
896.376	17798
896.498	17843
896.619	17935
896.74	17874
896.861	17996
896.982	18152
897.103	18239
897.224	18152
897.345	18159
897.466	17973
897.587	17980
897.708	18110
897.828	18159
897.949	18102
898.07	17885
898.19	18064
898.311	18174
898.431	18038
898.552	18091
898.672	18133
898.792	18133
898.913	18064
899.033	17916
899.153	17824
899.273	17615
899.393	17847
899.513	17908
899.633	17790
899.753	17923
899.873	17718
899.993	17923
900.113	17840
900.232	17923
900.352	17649
900.472	17733
900.591	17668
900.711	17627
900.83	17577
900.95	17752
901.069	17703
901.189	17566
901.308	17360
901.427	17318
901.546	17364
901.665	17318
901.784	17341
901.904	17212
902.023	17083
902.141	16919
902.26	16889
902.379	16908
902.498	16869
902.617	16675
902.735	16889
902.854	16774
902.973	16778
903.091	16538
903.21	16497
903.328	16523
903.446	16421
903.565	16230
903.683	16341
903.801	16211
903.919	16268
904.038	16265
904.156	16177
904.274	16124
904.392	16131
904.51	16067
904.627	16082
904.745	16078
904.863	16147
904.981	15865
905.098	15800
905.216	15762
905.334	15751
905.451	15819
905.569	15823
905.686	15800
905.803	15732
905.921	15625
906.038	15743
906.155	15549
906.272	15545
906.389	15504
906.506	15279
906.623	15389
906.74	15310
906.857	15302
906.974	15241
907.091	15260
907.208	15355
907.324	15306
907.441	15256
907.557	15112
907.674	15032
907.79	15024
907.907	14967
908.023	15058
908.139	15058
908.256	14956
908.372	14948
908.488	14857
908.604	14788
908.72	14746
908.836	14716
908.952	14686
909.068	14697
909.184	14750
909.3	14640
909.415	14743
909.531	14758
909.647	14393
909.762	14488
909.878	14351
909.993	14469
910.108	14423
910.224	14400
910.339	14473
910.454	14282
910.57	14309
910.685	14153
910.8	14476
910.915	14339
911.03	14149
911.145	14164
911.259	14092
911.374	14058
911.489	14012
911.604	13989
911.718	13845
911.833	13765
911.947	13708
912.062	13605
912.176	13765
912.291	13898
912.405	13750
912.519	13936
912.633	14031
912.748	13871
912.862	13784
912.976	13746
913.09	13480
913.204	13616
913.318	13723
913.431	13677
913.545	13769
913.659	13761
913.772	13727
913.886	13480
914	13407
914.113	13487
914.226	13616
914.34	13537
914.453	13388
914.566	13514
914.68	13400
914.793	13343
914.906	13270
915.019	13194
915.132	13072
915.245	13053
915.358	13149
915.47	13183
915.583	13168
915.696	13202
915.809	13255
915.921	13259
916.034	13145
916.146	13076
916.259	13000
916.371	13141
916.483	13065
916.595	12954
916.708	12924
916.82	12989
916.932	12985
917.044	13004
917.156	13008
917.268	12943
917.38	12901
917.491	12825
917.603	12859
917.715	12981
917.826	12871
917.938	12817
918.049	12715
918.161	12810
918.272	12985
918.384	12977
918.495	12779
918.606	12681
918.717	12593
918.828	12700
918.939	12753
919.05	12517
919.161	12597
919.272	12471
919.383	12544
919.494	12650
919.604	12856
919.715	12726
919.826	12475
919.936	12601
920.047	12726
920.157	12597
920.267	12787
920.378	12627
920.488	12593
920.598	12711
920.708	12993
920.818	12669
920.928	12700
921.038	12932
921.148	12890
921.258	12639
921.368	12483
921.477	12369
921.587	12330
921.697	12228
921.806	12486
921.916	12273
922.025	12011
922.134	12011
922.244	12110
922.353	12045
922.462	11973
922.571	11866
922.68	11783
922.789	11688
922.898	11707
923.007	11649
923.116	11741
923.224	11649
923.333	11611
923.442	11543
923.55	11566
923.659	11532
923.767	11570
923.876	11600
923.984	11623
924.092	11455
924.201	11558
924.309	11532
924.417	11539
924.525	11398
924.633	11459
924.741	12228
924.849	11239
924.956	11444
925.064	11235
925.172	11124
925.279	11239
925.387	11307
925.494	11284
925.602	11376
925.709	11315
925.816	11235
925.924	11208
926.031	11284
926.138	11212
926.245	11258
926.352	11060
926.459	11208
926.566	11166
926.673	11113
926.779	11037
926.886	11025
926.993	10942
927.099	10858
927.206	10797
927.312	10809
927.419	10824
927.525	10900
927.631	10889
927.737	10736
927.843	10733
927.95	10599
928.056	10683
928.162	10839
928.267	10729
928.373	11372
928.479	10824
928.585	10508
928.69	10740
928.796	10736
928.901	10607
929.007	10462
929.112	10637
929.218	10542
929.323	10523
929.428	10497
929.533	10622
929.638	10466
929.743	10523
929.848	10382
929.953	10474
930.058	10348
930.163	10147
930.267	10253
930.372	10329
930.477	10249
930.581	10470
930.685	10306
930.79	10128
930.894	10109
930.998	10032
931.103	10268
931.207	9861
931.311	9804
931.415	9694
931.519	9584
931.623	9580
