Data from test_V78500241_1055.txt Node
Date: Fri Mar 25 14:41:03 CST 2022
User: usil
Spectrometer: V785-0024
Trigger mode: 0
Integration Time (sec): 4.000000E-1
Scans to average: 1
Nonlinearity correction enabled: false
Boxcar width: 0
Storing dark spectrum: false
XAxis mode: Wavelengths
Number of Pixels in Spectrum: 1024
>>>>>Begin Spectral Data<<<<<
801.071	22824
801.214	22736
801.356	22409
801.499	22287
801.641	22131
801.783	22215
801.926	22265
802.068	22139
802.211	21892
802.353	21854
802.496	21690
802.638	21587
802.78	21443
802.923	21485
803.065	21542
803.208	21481
803.35	21485
803.492	21526
803.635	21591
803.777	21431
803.919	21572
804.061	21930
804.204	21519
804.346	21393
804.488	21424
804.63	21431
804.773	21359
804.915	21561
805.057	21564
805.199	21462
805.341	21542
805.483	21629
805.626	21523
805.768	21325
805.91	21408
806.052	21458
806.194	21443
806.336	21545
806.478	21443
806.62	21500
806.762	21682
806.904	21641
807.046	22017
807.188	21880
807.33	21895
807.472	21918
807.614	21869
807.756	21907
807.898	21781
808.04	21785
808.182	21663
808.324	21911
808.465	22006
808.607	22207
808.749	22497
808.891	22637
809.033	22584
809.174	22493
809.316	22333
809.458	22360
809.6	22162
809.741	22162
809.883	22147
810.025	22207
810.166	22074
810.308	22143
810.45	21998
810.591	21953
810.733	21895
810.875	21800
811.016	21660
811.158	21614
811.299	21861
811.441	21778
811.582	21751
811.724	21717
811.865	21519
812.007	21686
812.148	21701
812.29	21713
812.431	21751
812.573	22097
812.714	22101
812.855	22139
812.997	22131
813.138	22295
813.279	22177
813.421	22257
813.562	22230
813.703	21972
813.845	21884
813.986	21519
814.127	21405
814.268	21317
814.41	21287
814.551	21218
814.692	21363
814.833	21203
814.974	21226
815.115	21127
815.256	21039
815.397	20929
815.539	21032
815.68	21020
815.821	20853
815.962	21142
816.103	20979
816.244	20868
816.385	20731
816.526	20636
816.666	20602
816.807	20351
816.948	20484
817.089	20480
817.23	20370
817.371	20370
817.512	20419
817.653	20465
817.793	20275
817.934	20465
818.075	20393
818.216	20385
818.356	20248
818.497	20134
818.638	20043
818.778	20027
818.919	20016
819.06	20126
819.2	20069
819.341	20161
819.481	20218
819.622	20332
819.762	20499
819.903	20541
820.043	20423
820.184	20343
820.324	20294
820.465	20419
820.605	20324
820.746	20263
820.886	20252
821.026	20317
821.167	20138
821.307	20374
821.447	20275
821.588	20100
821.728	20062
821.868	19902
822.008	19719
822.149	19700
822.289	19658
822.429	19567
822.569	19449
822.709	19483
822.849	19259
822.99	19270
823.13	19228
823.27	19183
823.41	19050
823.55	19008
823.69	19046
823.83	19069
823.97	18916
824.11	18745
824.25	18760
824.389	18875
824.529	18897
824.669	18802
824.809	18875
824.949	18947
825.089	18867
825.228	18833
825.368	18635
825.508	18623
825.648	18635
825.787	18688
825.927	18650
826.067	18521
826.206	18574
826.346	18642
826.485	18650
826.625	18486
826.765	18719
826.904	18623
827.044	18338
827.183	18296
827.323	18311
827.462	18429
827.601	18266
827.741	18266
827.88	18232
828.02	18159
828.159	18205
828.298	18410
828.437	18323
828.577	18239
828.716	18338
828.855	18163
828.994	17965
829.134	18079
829.273	18087
829.412	17988
829.551	18079
829.69	17988
829.829	18106
829.968	18163
830.107	18053
830.246	17992
830.385	17996
830.524	18026
830.663	17874
830.802	17741
830.941	17634
831.08	17642
831.219	17680
831.357	17707
831.496	17904
831.635	17661
831.774	17547
831.913	17710
832.051	17463
832.19	17406
832.329	17566
832.467	17364
832.606	17288
832.744	17387
832.883	17478
833.022	17391
833.16	17364
833.299	17486
833.437	17429
833.576	17463
833.714	17402
833.852	17433
833.991	17482
834.129	17562
834.267	17512
834.406	17406
834.544	17429
834.682	17516
834.821	17376
834.959	17573
835.097	17417
835.235	17543
835.373	17414
835.511	17414
835.65	17322
835.788	17246
835.926	17185
836.064	17056
836.202	17178
836.34	17315
836.478	17345
836.615	17239
836.753	17296
836.891	17509
837.029	17349
837.167	17269
837.305	17250
837.443	17185
837.58	17155
837.718	17227
837.856	17250
837.993	17151
838.131	17174
838.269	17132
838.406	17010
838.544	17064
838.681	16793
838.819	16858
838.956	16710
839.094	16675
839.231	16835
839.369	16923
839.506	17060
839.643	16881
839.781	16721
839.918	16656
840.055	16790
840.193	16599
840.33	16687
840.467	16748
840.604	16694
840.742	16942
840.879	16622
841.016	16592
841.153	16702
841.29	16793
841.427	16649
841.564	16763
841.701	16660
841.838	16736
841.975	16622
842.112	16569
842.249	16462
842.385	16390
842.522	16687
842.659	16523
842.796	16413
842.933	16390
843.069	16485
843.206	16531
843.343	16577
843.479	16497
843.616	16508
843.752	16318
843.889	16230
844.025	16265
844.162	16188
844.298	16261
844.435	16215
844.571	16200
844.708	16268
844.844	16455
844.98	16382
845.117	16497
845.253	16253
845.389	16234
845.525	16424
845.661	16607
845.798	16554
845.934	16733
846.07	16763
846.206	16889
846.342	16782
846.478	16504
846.614	16230
846.75	16010
846.886	15831
847.022	15975
847.158	15899
847.294	15903
847.429	15915
847.565	15850
847.701	16021
847.837	15595
847.972	15568
848.108	15587
848.244	15625
848.379	15477
848.515	15332
848.65	15397
848.786	15317
848.921	15443
849.057	15542
849.192	15538
849.328	15519
849.463	15416
849.598	15374
849.734	15332
849.869	15321
850.004	15165
850.14	15310
850.275	15176
850.41	15085
850.545	15055
850.68	15093
850.815	15127
850.95	15256
851.085	15344
851.22	15252
851.355	15154
851.49	15100
851.625	15116
851.76	15154
851.895	15009
852.03	14944
852.165	15161
852.299	15214
852.434	15230
852.569	15233
852.703	15180
852.838	15298
852.973	15351
853.107	15275
853.242	15150
853.376	15116
853.511	14883
853.645	15051
853.78	15184
853.914	15028
854.048	15020
854.183	14994
854.317	15036
854.451	15169
854.585	14994
854.72	15032
854.854	15146
854.988	14956
855.122	14986
855.256	14910
855.39	15112
855.524	15123
855.658	15062
855.792	15119
855.926	15104
856.06	15009
856.194	15165
856.327	15009
856.461	14952
856.595	15043
856.729	14944
856.862	15218
856.996	15100
857.13	15112
857.263	15150
857.397	15233
857.53	15043
857.664	15089
857.797	15142
857.931	15237
858.064	15119
858.197	15230
858.331	14921
858.464	15032
858.597	14868
858.731	15123
858.864	15066
858.997	15036
859.13	15093
859.263	15058
859.396	15142
859.529	15047
859.662	15127
859.795	14902
859.928	15062
860.061	15131
860.194	15252
860.327	15089
860.46	15089
860.592	15013
860.725	15188
860.858	15203
860.99	15062
861.123	14899
861.256	14944
861.388	15039
861.521	15682
861.653	14948
861.786	14944
861.918	14876
862.05	14933
862.183	15043
862.315	15039
862.447	15028
862.58	14975
862.712	14925
862.844	14686
862.976	14918
863.108	14826
863.24	15294
863.372	14788
863.504	14800
863.636	14834
863.768	14899
863.9	14845
864.032	14750
864.164	14834
864.296	14785
864.428	14948
864.559	15017
864.691	14944
864.823	14864
864.954	14853
865.086	14883
865.217	14857
865.349	14781
865.48	14857
865.612	14887
865.743	14941
865.875	14868
866.006	14750
866.137	14743
866.269	14720
866.4	14876
866.531	14792
866.662	14720
866.793	14785
866.924	14804
867.055	14777
867.186	14773
867.317	14743
867.448	14773
867.579	14724
867.71	14708
867.841	14758
867.972	14720
868.103	14724
868.233	14750
868.364	14788
868.495	14929
868.625	15062
868.756	15203
868.886	14956
869.017	15047
869.147	15074
869.278	15150
869.408	15104
869.539	15009
869.669	15127
869.799	15089
869.929	15161
870.06	15173
870.19	15408
870.32	15306
870.45	15416
870.58	15507
870.71	15500
870.84	15549
870.97	15401
871.1	15447
871.23	15633
871.36	15644
871.489	15610
871.619	15614
871.749	15606
871.879	15667
872.008	15770
872.138	15652
872.267	15690
872.397	15557
872.526	15454
872.656	15435
872.785	15549
872.915	15595
873.044	15679
873.173	15656
873.303	15724
873.432	15717
873.561	15774
873.69	15675
873.819	15720
873.948	15667
874.077	15622
874.206	15580
874.335	15713
874.464	15819
874.593	15949
874.722	15892
874.851	15991
874.979	15960
875.108	16116
875.237	15956
875.365	15915
875.494	15915
875.623	16128
875.751	15987
875.88	16086
876.008	16097
876.136	16177
876.265	16291
876.393	16493
876.521	16569
876.65	16622
876.778	16352
876.906	16348
877.034	16344
877.162	16363
877.29	16291
877.418	16443
877.546	16337
877.674	16417
877.802	16360
877.93	16474
878.058	16421
878.185	16325
878.313	16447
878.441	16371
878.568	16386
878.696	16478
878.824	16519
878.951	16535
879.079	16706
879.206	16923
879.333	16889
879.461	16809
879.588	16938
879.715	16930
879.842	17090
879.97	16778
880.097	16500
880.224	16440
880.351	16474
880.478	16424
880.605	16314
880.732	16417
880.859	16489
880.986	16390
881.112	16360
881.239	16215
881.366	16124
881.493	16048
881.619	15911
881.746	15987
881.872	15941
881.999	15991
882.125	15903
882.252	16021
882.378	16059
882.505	16166
882.631	15937
882.757	15778
882.883	15937
883.01	15869
883.136	15797
883.262	15751
883.388	15663
883.514	15778
883.64	15922
883.766	15789
883.892	15713
884.018	15614
884.143	15747
884.269	15876
884.395	15637
884.52	15424
884.646	15473
884.772	15466
884.897	15443
885.023	15557
885.148	15686
885.274	15538
885.399	15553
885.524	15507
885.65	15504
885.775	15458
885.9	15523
886.025	15622
886.15	15576
886.275	15420
886.4	15382
886.525	15443
886.65	15447
886.775	15488
886.9	15663
887.025	15656
887.149	15496
887.274	15321
887.399	15176
887.523	15405
887.648	15211
887.773	15135
887.897	15454
888.021	15310
888.146	15131
888.27	15408
888.395	15408
888.519	15355
888.643	15313
888.767	15336
888.891	15119
889.015	15169
889.139	15245
889.263	15154
889.387	15298
889.511	15298
889.635	15256
889.759	15070
889.883	15020
890.006	15222
890.13	15184
890.254	15062
890.377	15188
890.501	14990
890.624	14864
890.748	14994
890.871	14777
890.995	14796
891.118	14773
891.241	14800
891.364	14864
891.488	14906
891.611	14811
891.734	14823
891.857	14861
891.98	14788
892.103	14880
892.226	14891
892.349	14716
892.471	14655
892.594	14819
892.717	14705
892.839	14686
892.962	14811
893.085	14845
893.207	14804
893.33	14632
893.452	14625
893.575	14883
893.697	14769
893.819	14998
893.941	15070
894.064	14891
894.186	14689
894.308	14777
894.43	14861
894.552	14910
894.674	14944
894.796	14765
894.918	14823
895.04	14807
895.161	14823
895.283	14868
895.405	14800
895.526	14815
895.648	14857
895.769	14876
895.891	14925
896.012	15074
896.134	14921
896.255	14967
896.376	14807
896.498	14853
896.619	14944
896.74	14948
896.861	14948
896.982	15173
897.103	15519
897.224	15283
897.345	15142
897.466	15112
897.587	15138
897.708	15291
897.828	15176
897.949	15184
898.07	14998
898.19	15207
898.311	15294
898.431	15199
898.552	15188
898.672	15329
898.792	15325
898.913	15211
899.033	15237
899.153	15127
899.273	15051
899.393	15077
899.513	15108
899.633	15058
899.753	15081
899.873	15119
899.993	15214
900.113	14986
900.232	15165
900.352	15055
900.472	15017
900.591	14918
900.711	15017
900.83	14941
900.95	15070
901.069	15093
901.189	14819
901.308	14712
901.427	14556
901.546	14629
901.665	14579
901.784	14678
901.904	14526
902.023	14434
902.141	14256
902.26	14210
902.379	14221
902.498	14084
902.617	14130
902.735	14263
902.854	14096
902.973	14115
903.091	13978
903.21	13989
903.328	13799
903.446	13841
903.565	13757
903.683	13734
903.801	13708
903.919	13689
904.038	13719
904.156	13506
904.274	13681
904.392	13556
904.51	13533
904.627	13529
904.745	13594
904.863	13571
904.981	13415
905.098	13293
905.216	13247
905.334	13282
905.451	13266
905.569	13183
905.686	13187
905.803	13259
905.921	13000
906.038	13206
906.155	13069
906.272	13019
906.389	12973
906.506	12859
906.623	12814
906.74	12787
906.857	12703
906.974	12753
907.091	12890
907.208	12924
907.324	12871
907.441	12703
907.557	12521
907.674	12563
907.79	12555
907.907	12498
908.023	12585
908.139	12574
908.256	12570
908.372	12544
908.488	12479
908.604	12353
908.72	12296
908.836	12315
908.952	12140
909.068	12216
909.184	12429
909.3	12258
909.415	12346
909.531	12304
909.647	12011
909.762	12045
909.878	12110
909.993	12022
910.108	12083
910.224	11996
910.339	12038
910.454	11958
910.57	11897
910.685	11851
910.8	12213
910.915	12072
911.03	11927
911.145	11710
911.259	11752
911.374	11756
911.489	11695
911.604	11512
911.718	11444
911.833	11463
911.947	11482
912.062	11280
912.176	11368
912.291	11524
912.405	11406
912.519	11699
912.633	11676
912.748	11528
912.862	11520
912.976	11360
913.09	11170
913.204	11345
913.318	11433
913.431	11493
913.545	11440
913.659	11573
913.772	11353
913.886	11280
914	11227
914.113	11303
914.226	11341
914.34	11273
914.453	11174
914.566	11231
914.68	11162
914.793	11185
914.906	10938
915.019	11014
915.132	10923
915.245	10938
915.358	10972
915.47	11018
915.583	11041
915.696	11060
915.809	11132
915.921	11124
916.034	10976
916.146	10957
916.259	10900
916.371	11045
916.483	10984
916.595	10843
916.708	10946
916.82	10949
916.932	10854
917.044	10930
917.156	10805
917.268	10797
917.38	10793
917.491	10733
917.603	10805
917.715	10763
917.826	10877
917.938	10816
918.049	10618
918.161	10793
918.272	10991
918.384	10915
918.495	10801
918.606	10702
918.717	10584
918.828	10645
918.939	10656
919.05	10615
919.161	10641
919.272	10474
919.383	10569
919.494	10698
919.604	10790
919.715	10702
919.826	10603
919.936	10637
920.047	10793
920.157	10656
920.267	10843
920.378	10626
920.488	10710
920.598	10862
920.708	10999
920.818	10862
920.928	10786
921.038	11048
921.148	10991
921.258	10653
921.368	10664
921.477	10558
921.587	10493
921.697	10459
921.806	10519
921.916	10348
922.025	10215
922.134	10261
922.244	10093
922.353	10215
922.462	10055
922.571	10021
922.68	9983
922.789	9888
922.898	9842
923.007	9816
923.116	9895
923.224	9869
923.333	9873
923.442	9831
923.55	9732
923.659	9831
923.767	9816
923.876	9698
923.984	9800
924.092	9709
924.201	9762
924.309	9762
924.417	9793
924.525	9648
924.633	9690
924.741	10733
924.849	9523
924.956	9648
925.064	9500
925.172	9481
925.279	9576
925.387	9557
925.494	9526
925.602	9694
925.709	9641
925.816	9485
925.924	9507
926.031	9652
926.138	9572
926.245	9591
926.352	9393
926.459	9622
926.566	9663
926.673	9534
926.779	9374
926.886	9370
926.993	9268
927.099	9325
927.206	9253
927.312	9249
927.419	9359
927.525	9214
927.631	9230
927.737	9127
927.843	9211
927.95	9017
928.056	9123
928.162	9207
928.267	9260
928.373	9778
928.479	9245
928.585	9028
928.69	9131
928.796	9192
928.901	9058
929.007	8910
929.112	9070
929.218	9047
929.323	8975
929.428	8925
929.533	9093
929.638	8819
929.743	8933
929.848	9017
929.953	8941
930.058	8823
930.163	8781
930.267	8746
930.372	8883
930.477	8682
930.581	8979
930.685	8883
930.79	8632
930.894	8682
930.998	8606
931.103	8830
931.207	8492
931.311	8393
931.415	8320
931.519	8157
931.623	8153
