Data from test_V78500241_2750.txt Node
Date: Fri Mar 25 14:52:51 CST 2022
User: usil
Spectrometer: V785-0024
Trigger mode: 0
Integration Time (sec): 4.000000E-1
Scans to average: 1
Nonlinearity correction enabled: false
Boxcar width: 0
Storing dark spectrum: false
XAxis mode: Wavelengths
Number of Pixels in Spectrum: 1024
>>>>>Begin Spectral Data<<<<<
801.071	21991
801.214	21972
801.356	21713
801.499	21587
801.641	21359
801.783	21275
801.926	21321
802.068	21351
802.211	21169
802.353	21180
802.496	21013
802.638	20811
802.78	20864
802.923	20819
803.065	20613
803.208	20583
803.35	20686
803.492	20906
803.635	20823
803.777	20727
803.919	20853
804.061	21024
804.204	20834
804.346	20682
804.488	20484
804.63	20629
804.773	20579
804.915	20667
805.057	20659
805.199	20492
805.341	20765
805.483	20773
805.626	20659
805.768	20632
805.91	20758
806.052	20819
806.194	20552
806.336	20708
806.478	20514
806.62	20511
806.762	20724
806.904	20769
807.046	21028
807.188	20963
807.33	21005
807.472	20929
807.614	20876
807.756	20891
807.898	20785
808.04	20549
808.182	20678
808.324	20701
808.465	20663
808.607	20895
808.749	21058
808.891	21020
809.033	21112
809.174	21051
809.316	20960
809.458	21123
809.6	21070
809.741	21058
809.883	21123
810.025	21093
810.166	21089
810.308	21017
810.45	21070
810.591	20982
810.733	20781
810.875	20861
811.016	20777
811.158	20636
811.299	20823
811.441	20815
811.582	20842
811.724	20678
811.865	20796
812.007	20750
812.148	20758
812.29	20769
812.431	21017
812.573	21020
812.714	21119
812.855	21218
812.997	21405
813.138	21644
813.279	21412
813.421	21241
813.562	21268
813.703	21055
813.845	20887
813.986	20644
814.127	20412
814.268	20355
814.41	20412
814.551	20240
814.692	20328
814.833	20233
814.974	20122
815.115	20248
815.256	20183
815.397	20275
815.539	20073
815.68	20096
815.821	20001
815.962	20054
816.103	19986
816.244	19757
816.385	19715
816.526	19681
816.666	19620
816.807	19422
816.948	19662
817.089	19590
817.23	19594
817.371	19445
817.512	19388
817.653	19540
817.793	19453
817.934	19426
818.075	19354
818.216	19464
818.356	19377
818.497	19274
818.638	19069
818.778	19084
818.919	19099
819.06	19198
819.2	19217
819.341	19228
819.481	19373
819.622	19453
819.762	19666
819.903	19567
820.043	19620
820.184	19499
820.324	19381
820.465	19525
820.605	19384
820.746	19415
820.886	19274
821.026	19381
821.167	19396
821.307	19533
821.447	19282
821.588	19202
821.728	19061
821.868	18886
822.008	18806
822.149	18875
822.289	18798
822.429	18608
822.569	18426
822.709	18597
822.849	18289
822.99	18266
823.13	18254
823.27	18357
823.41	18197
823.55	18098
823.69	18186
823.83	18152
823.97	17999
824.11	17863
824.25	17923
824.389	17866
824.529	17931
824.669	17904
824.809	18022
824.949	17999
825.089	18026
825.228	17901
825.368	17672
825.508	17543
825.648	17707
825.787	17691
825.927	17748
826.067	17585
826.206	17630
826.346	17752
826.485	17691
826.625	17604
826.765	17813
826.904	17665
827.044	17547
827.183	17600
827.323	17395
827.462	17417
827.601	17334
827.741	17322
827.88	17356
828.02	17174
828.159	17349
828.298	17334
828.437	17478
828.577	17307
828.716	17414
828.855	17227
828.994	17102
829.134	17181
829.273	17200
829.412	17071
829.551	17090
829.69	17071
829.829	17143
829.968	17246
830.107	17155
830.246	17094
830.385	17071
830.524	17075
830.663	16953
830.802	16786
830.941	16721
831.08	16645
831.219	16896
831.357	16843
831.496	16900
831.635	16744
831.774	16733
831.913	16691
832.051	16584
832.19	16466
832.329	16538
832.467	16478
832.606	16371
832.744	16466
832.883	16478
833.022	16462
833.16	16371
833.299	16497
833.437	16500
833.576	16485
833.714	16405
833.852	16565
833.991	16516
834.129	16603
834.267	16504
834.406	16363
834.544	16565
834.682	16451
834.821	16466
834.959	16626
835.097	16440
835.235	16424
835.373	16504
835.511	16565
835.65	16352
835.788	16360
835.926	16333
836.064	16329
836.202	16219
836.34	16432
836.478	16481
836.615	16440
836.753	16466
836.891	16489
837.029	16417
837.167	16497
837.305	16386
837.443	16344
837.58	16360
837.718	16402
837.856	16318
837.993	16272
838.131	16314
838.269	16131
838.406	16249
838.544	16207
838.681	16002
838.819	15934
838.956	15827
839.094	15804
839.231	15918
839.369	16086
839.506	16253
839.643	16173
839.781	15949
839.918	15930
840.055	15930
840.193	15865
840.33	15888
840.467	15800
840.604	15892
840.742	16109
840.879	15762
841.016	15800
841.153	15739
841.29	16029
841.427	15846
841.564	15975
841.701	15835
841.838	15869
841.975	15766
842.112	15808
842.249	15701
842.385	15606
842.522	15953
842.659	15618
842.796	15652
842.933	15652
843.069	15686
843.206	15625
843.343	15732
843.479	15648
843.616	15644
843.752	15485
843.889	15348
844.025	15637
844.162	15408
844.298	15515
844.435	15325
844.571	15496
844.708	15504
844.844	15610
844.98	15648
845.117	15530
845.253	15450
845.389	15283
845.525	15374
845.661	15420
845.798	15169
845.934	15344
846.07	15211
846.206	15317
846.342	15416
846.478	15199
846.614	15043
846.75	14994
846.886	14948
847.022	15112
847.158	15036
847.294	15081
847.429	15028
847.565	15032
847.701	15283
847.837	14781
847.972	14705
848.108	14834
848.244	14838
848.379	14590
848.515	14610
848.65	14651
848.786	14644
848.921	14651
849.057	14644
849.192	14754
849.328	14621
849.463	14636
849.598	14590
849.734	14530
849.869	14530
850.004	14351
850.14	14522
850.275	14415
850.41	14343
850.545	14282
850.68	14366
850.815	14396
850.95	14408
851.085	14415
851.22	14480
851.355	14492
851.49	14362
851.625	14214
851.76	14324
851.895	14180
852.03	14183
852.165	14275
852.299	14389
852.434	14518
852.569	14412
852.703	14343
852.838	14377
852.973	14594
853.107	14537
853.242	14328
853.376	14294
853.511	14115
853.645	14225
853.78	14328
853.914	14225
854.048	14210
854.183	14161
854.317	14244
854.451	14480
854.585	14225
854.72	14187
854.854	14252
854.988	14256
855.122	14256
855.256	14062
855.39	14263
855.524	14332
855.658	14351
855.792	14210
855.926	14282
856.06	14294
856.194	14362
856.327	14233
856.461	14218
856.595	14168
856.729	14271
856.862	14358
856.996	14305
857.13	14309
857.263	14377
857.397	14366
857.53	14199
857.664	14248
857.797	14317
857.931	14351
858.064	14252
858.197	14355
858.331	14183
858.464	14229
858.597	14145
858.731	14233
858.864	14317
858.997	14229
859.13	14256
859.263	14351
859.396	14240
859.529	14252
859.662	14290
859.795	14168
859.928	14305
860.061	14434
860.194	14355
860.327	14343
860.46	14278
860.592	14278
860.725	14480
860.858	14290
860.99	14199
861.123	14172
861.256	14145
861.388	14187
861.521	14990
861.653	14149
861.786	14039
861.918	14119
862.05	14164
862.183	14119
862.315	14214
862.447	14278
862.58	14294
862.712	13967
862.844	13993
862.976	14149
863.108	14092
863.24	14431
863.372	13970
863.504	14031
863.636	13963
863.768	14065
863.9	14020
864.032	14001
864.164	14001
864.296	14020
864.428	14126
864.559	14119
864.691	14088
864.823	14142
864.954	14058
865.086	14027
865.217	13986
865.349	13978
865.48	14027
865.612	13974
865.743	14218
865.875	13989
866.006	13963
866.137	14050
866.269	14084
866.4	13940
866.531	13974
866.662	13913
866.793	13993
866.924	13955
867.055	14062
867.186	14031
867.317	13906
867.448	13940
867.579	13928
867.71	13967
867.841	13879
867.972	13970
868.103	13947
868.233	14035
868.364	14081
868.495	14054
868.625	14252
868.756	14385
868.886	14183
869.017	14218
869.147	14393
869.278	14317
869.408	14328
869.539	14290
869.669	14351
869.799	14339
869.929	14400
870.06	14393
870.19	14594
870.32	14613
870.45	14507
870.58	14640
870.71	14758
870.84	14716
870.97	14678
871.1	14598
871.23	14785
871.36	14834
871.489	14823
871.619	14804
871.749	14792
871.879	14910
872.008	14899
872.138	14804
872.267	14762
872.397	14823
872.526	14686
872.656	14670
872.785	14651
872.915	14933
873.044	15032
873.173	14891
873.303	14975
873.432	14979
873.561	14937
873.69	14830
873.819	14887
873.948	15028
874.077	14963
874.206	14895
874.335	15100
874.464	15112
874.593	15222
874.722	15161
874.851	15230
874.979	15279
875.108	15233
875.237	15207
875.365	15241
875.494	15275
875.623	15294
875.751	15176
875.88	15291
876.008	15515
876.136	15416
876.265	15667
876.393	15766
876.521	15739
876.65	15755
876.778	15618
876.906	15515
877.034	15485
877.162	15614
877.29	15557
877.418	15618
877.546	15732
877.674	15667
877.802	15618
877.93	15614
878.058	15504
878.185	15610
878.313	15587
878.441	15713
878.568	15462
878.696	15587
878.824	15705
878.951	15709
879.079	15804
879.206	16002
879.333	15800
879.461	15644
879.588	15766
879.715	15819
879.842	15846
879.97	15732
880.097	15428
880.224	15412
880.351	15504
880.478	15549
880.605	15408
880.732	15473
880.859	15698
880.986	15526
881.112	15580
881.239	15431
881.366	15317
881.493	15192
881.619	15089
881.746	15146
881.872	15127
881.999	15108
882.125	15043
882.252	15146
882.378	15192
882.505	15256
882.631	15165
882.757	15009
882.883	15020
883.01	14921
883.136	14944
883.262	14868
883.388	14807
883.514	14925
883.64	14979
883.766	14960
883.892	14724
884.018	14781
884.143	15032
884.269	15119
884.395	14606
884.52	14621
884.646	14743
884.772	14590
884.897	14659
885.023	14636
885.148	14701
885.274	14804
885.399	14773
885.524	14727
885.65	14655
885.775	14636
885.9	14712
886.025	14777
886.15	14743
886.275	14629
886.4	14518
886.525	14682
886.65	14560
886.775	14667
886.9	14743
887.025	14944
887.149	14697
887.274	14393
887.399	14427
887.523	14423
887.648	14336
887.773	14366
887.897	14640
888.021	14663
888.146	14473
888.27	14640
888.395	14545
888.519	14480
888.643	14594
888.767	14507
888.891	14423
889.015	14336
889.139	14522
889.263	14313
889.387	14465
889.511	14583
889.635	14541
889.759	14309
889.883	14320
890.006	14320
890.13	14511
890.254	14305
890.377	14244
890.501	14214
890.624	14161
890.748	14336
890.871	14161
890.995	13997
891.118	13989
891.241	14020
891.364	14027
891.488	14157
891.611	14088
891.734	14005
891.857	14001
891.98	14050
892.103	14172
892.226	14050
892.349	14054
892.471	13887
892.594	13944
892.717	14077
892.839	14024
892.962	14100
893.085	14100
893.207	14008
893.33	13921
893.452	14058
893.575	14225
893.697	14123
893.819	14271
893.941	14221
894.064	14187
894.186	14050
894.308	14001
894.43	14096
894.552	14317
894.674	14218
894.796	14050
894.918	14073
895.04	14119
895.161	14092
895.283	14180
895.405	14164
895.526	14111
895.648	14199
895.769	14301
895.891	14225
896.012	14240
896.134	14267
896.255	14149
896.376	14183
896.498	14233
896.619	14336
896.74	14240
896.861	14336
896.982	14560
897.103	14727
897.224	14533
897.345	14446
897.466	14457
897.587	14499
897.708	14670
897.828	14465
897.949	14473
898.07	14305
898.19	14503
898.311	14632
898.431	14518
898.552	14530
898.672	14705
898.792	14678
898.913	14610
899.033	14560
899.153	14476
899.273	14351
899.393	14377
899.513	14461
899.633	14530
899.753	14370
899.873	14396
899.993	14484
900.113	14438
900.232	14469
900.352	14431
900.472	14332
900.591	14195
900.711	14381
900.83	14202
900.95	14461
901.069	14461
901.189	14221
901.308	14012
901.427	13986
901.546	13986
901.665	14031
901.784	13940
901.904	13818
902.023	13769
902.141	13537
902.26	13597
902.379	13651
902.498	13483
902.617	13510
902.735	13620
902.854	13548
902.973	13430
903.091	13297
903.21	13274
903.328	13274
903.446	13198
903.565	13156
903.683	13187
903.801	13015
903.919	12970
904.038	13065
904.156	12962
904.274	13042
904.392	12825
904.51	12909
904.627	12909
904.745	12951
904.863	12958
904.981	12688
905.098	12665
905.216	12673
905.334	12646
905.451	12677
905.569	12654
905.686	12639
905.803	12593
905.921	12441
906.038	12601
906.155	12483
906.272	12300
906.389	12426
906.506	12300
906.623	12197
906.74	12273
906.857	12106
906.974	12057
907.091	12334
907.208	12338
907.324	12273
907.441	12163
907.557	11939
907.674	11961
907.79	11878
907.907	11950
908.023	12026
908.139	11984
908.256	11954
908.372	11798
908.488	11927
908.604	11710
908.72	11726
908.836	11707
908.952	11668
909.068	11710
909.184	11817
909.3	11760
909.415	11798
909.531	11726
909.647	11482
909.762	11512
909.878	11528
909.993	11547
910.108	11562
910.224	11440
910.339	11478
910.454	11345
910.57	11311
910.685	11246
910.8	11528
910.915	11547
911.03	11337
911.145	11204
911.259	11212
911.374	11277
911.489	11113
911.604	11006
911.718	10961
911.833	11029
911.947	10847
912.062	10809
912.176	11048
912.291	10927
912.405	10869
912.519	11105
912.633	11136
912.748	11140
912.862	10968
912.976	10873
913.09	10755
913.204	10797
913.318	10850
913.431	10908
913.545	10942
913.659	10919
913.772	10854
913.886	10801
914	10702
914.113	10915
914.226	10820
914.34	10824
914.453	10691
914.566	10839
914.68	10664
914.793	10702
914.906	10523
915.019	10531
915.132	10436
915.245	10512
915.358	10535
915.47	10462
915.583	10535
915.696	10603
915.809	10649
915.921	10641
916.034	10504
916.146	10489
916.259	10459
916.371	10569
916.483	10558
916.595	10443
916.708	10485
916.82	10474
916.932	10432
917.044	10440
917.156	10405
917.268	10310
917.38	10318
917.491	10280
917.603	10322
917.715	10382
917.826	10421
917.938	10409
918.049	10276
918.161	10402
918.272	10443
918.384	10489
918.495	10295
918.606	10280
918.717	10265
918.828	10227
918.939	10223
919.05	10105
919.161	10188
919.272	10032
919.383	10044
919.494	10318
919.604	10462
919.715	10261
919.826	10143
919.936	10169
920.047	10284
920.157	10204
920.267	10558
920.378	10211
920.488	10219
920.598	10405
920.708	10550
920.818	10417
920.928	10398
921.038	10618
921.148	10630
921.258	10204
921.368	10234
921.477	10109
921.587	10124
921.697	9903
921.806	10074
921.916	9979
922.025	9785
922.134	9812
922.244	9747
922.353	9838
922.462	9629
922.571	9641
922.68	9507
922.789	9454
922.898	9462
923.007	9405
923.116	9469
923.224	9450
923.333	9454
923.442	9355
923.55	9317
923.659	9389
923.767	9473
923.876	9367
923.984	9397
924.092	9310
924.201	9222
924.309	9332
924.417	9439
924.525	9272
924.633	9294
924.741	10101
924.849	9089
924.956	9294
925.064	9116
925.172	9081
925.279	9066
925.387	9180
925.494	9131
925.602	9279
925.709	9203
925.816	9085
925.924	9104
926.031	9173
926.138	9138
926.245	9138
926.352	9055
926.459	9184
926.566	9226
926.673	9036
926.779	9100
926.886	8998
926.993	8902
927.099	8811
927.206	8826
927.312	8834
927.419	8990
927.525	8861
927.631	8929
927.737	8800
927.843	8716
927.95	8644
928.056	8693
928.162	8739
928.267	8769
928.373	9374
928.479	8868
928.585	8579
928.69	8781
928.796	8705
928.901	8735
929.007	8560
929.112	8693
929.218	8712
929.323	8632
929.428	8575
929.533	8716
929.638	8507
929.743	8526
929.848	8625
929.953	8518
930.058	8488
930.163	8305
930.267	8408
930.372	8454
930.477	8259
930.581	8484
930.685	8461
930.79	8206
930.894	8221
930.998	8206
931.103	8415
931.207	8043
931.311	8031
931.415	7940
931.519	7799
931.623	7772
