Data from test_V78500241_696.txt Node
Date: Fri Mar 25 14:38:33 CST 2022
User: usil
Spectrometer: V785-0024
Trigger mode: 0
Integration Time (sec): 4.000000E-1
Scans to average: 1
Nonlinearity correction enabled: false
Boxcar width: 0
Storing dark spectrum: false
XAxis mode: Wavelengths
Number of Pixels in Spectrum: 1024
>>>>>Begin Spectral Data<<<<<
801.071	27865
801.214	27888
801.356	27542
801.499	27496
801.641	27523
801.783	27283
801.926	27363
802.068	27214
802.211	27157
802.353	27047
802.496	26830
802.638	26887
802.78	26982
802.923	26686
803.065	26739
803.208	26838
803.35	26682
803.492	26940
803.635	26891
803.777	27005
803.919	27085
804.061	27252
804.204	27093
804.346	27005
804.488	27032
804.63	27043
804.773	27001
804.915	27173
805.057	27336
805.199	27169
805.341	27310
805.483	27572
805.626	27549
805.768	27580
805.91	27747
806.052	27911
806.194	27998
806.336	28322
806.478	28409
806.62	28497
806.762	28782
806.904	29216
807.046	29775
807.188	30003
807.33	30525
807.472	31206
807.614	31731
807.756	32712
807.898	33778
808.04	35467
808.182	37289
808.324	39941
808.465	42814
808.607	46169
808.749	49225
808.891	50918
809.033	51138
809.174	49491
809.316	46626
809.458	43011
809.6	39728
809.741	36833
809.883	34577
810.025	33313
810.166	32145
810.308	31331
810.45	30791
810.591	30167
810.733	29531
810.875	29185
811.016	28919
811.158	28706
811.299	28603
811.441	28546
811.582	28371
811.724	27979
811.865	28051
812.007	27960
812.148	27827
812.29	27774
812.431	27766
812.573	27956
812.714	27895
812.855	28010
812.997	27972
813.138	27888
813.279	28051
813.421	27789
813.562	27671
813.703	27492
813.845	27401
813.986	27009
814.127	26864
814.268	26716
814.41	26758
814.551	26629
814.692	26621
814.833	26461
814.974	26522
815.115	26552
815.256	26362
815.397	26336
815.539	26343
815.68	26168
815.821	26161
815.962	26096
816.103	26024
816.244	25826
816.385	25826
816.526	25830
816.666	25578
816.807	25453
816.948	25499
817.089	25514
817.23	25529
817.371	25384
817.512	25304
817.653	25266
817.793	25460
817.934	25343
818.075	25369
818.216	25331
818.356	25396
818.497	25350
818.638	24981
818.778	25057
818.919	25110
819.06	25050
819.2	25156
819.341	25213
819.481	25270
819.622	25266
819.762	25567
819.903	25445
820.043	25415
820.184	25251
820.324	25190
820.465	25327
820.605	25152
820.746	25255
820.886	25072
821.026	25198
821.167	25126
821.307	25141
821.447	25053
821.588	24878
821.728	24764
821.868	24646
822.008	24407
822.149	24426
822.289	24483
822.429	24072
822.569	24129
822.709	24068
822.849	24003
822.99	23809
823.13	23893
823.27	23805
823.41	23714
823.55	23589
823.69	23665
823.83	23676
823.97	23634
824.11	23417
824.25	23478
824.389	23398
824.529	23459
824.669	23364
824.809	23516
824.949	23387
825.089	23543
825.228	23452
825.368	23200
825.508	23273
825.648	23315
825.787	23220
825.927	23277
826.067	23235
826.206	23223
826.346	23337
826.485	23178
826.625	23128
826.765	23391
826.904	23296
827.044	22957
827.183	23006
827.323	22892
827.462	22877
827.601	22839
827.741	22896
827.88	22961
828.02	22854
828.159	22896
828.298	22881
828.437	22961
828.577	22904
828.716	22957
828.855	22820
828.994	22596
829.134	22626
829.273	22645
829.412	22535
829.551	22493
829.69	22504
829.829	22493
829.968	22721
830.107	22550
830.246	22500
830.385	22413
830.524	22512
830.663	22440
830.802	22363
830.941	22147
831.08	22097
831.219	22268
831.357	22207
831.496	22329
831.635	22211
831.774	21975
831.913	22017
832.051	21945
832.19	21956
832.329	22177
832.467	21876
832.606	22036
832.744	21926
832.883	22097
833.022	22139
833.16	22284
833.299	22409
833.437	22519
833.576	22599
833.714	22839
833.852	22934
833.991	22987
834.129	23128
834.267	23124
834.406	23060
834.544	22953
834.682	22801
834.821	22721
834.959	22744
835.097	22417
835.235	22405
835.373	22257
835.511	22192
835.65	22051
835.788	22082
835.926	21823
836.064	21644
836.202	21660
836.34	21682
836.478	21808
836.615	21682
836.753	21701
836.891	21774
837.029	21770
837.167	21587
837.305	21462
837.443	21557
837.58	21477
837.718	21507
837.856	21583
837.993	21443
838.131	21351
838.269	21283
838.406	21412
838.544	21340
838.681	21001
838.819	20994
838.956	20887
839.094	20933
839.231	21020
839.369	21127
839.506	21245
839.643	21123
839.781	20826
839.918	20838
840.055	20781
840.193	20880
840.33	20670
840.467	20800
840.604	20883
840.742	21180
840.879	20693
841.016	20697
841.153	20727
841.29	20857
841.427	20765
841.564	20933
841.701	20899
841.838	20739
841.975	20815
842.112	20754
842.249	20731
842.385	20507
842.522	20834
842.659	20724
842.796	20667
842.933	20788
843.069	20743
843.206	20746
843.343	20807
843.479	20910
843.616	20792
843.752	20716
843.889	20602
844.025	20906
844.162	20853
844.298	21074
844.435	21176
844.571	21310
844.708	21583
844.844	22040
844.98	22538
845.117	23155
845.253	23992
845.389	25860
845.525	29707
845.661	35566
845.798	42384
845.934	47512
846.07	49567
846.206	48018
846.342	43103
846.478	36235
846.614	30334
846.75	26404
846.886	24144
847.022	22915
847.158	21926
847.294	21294
847.429	21085
847.565	20697
847.701	20872
847.837	20187
847.972	20130
848.108	20142
848.244	20058
848.379	19830
848.515	19856
848.65	19651
848.786	19750
848.921	19655
849.057	19807
849.192	19639
849.328	19578
849.463	19575
849.598	19521
849.734	19491
849.869	19411
850.004	19327
850.14	19384
850.275	19270
850.41	19183
850.545	19244
850.68	19194
850.815	19168
850.95	19282
851.085	19392
851.22	19335
851.355	19198
851.49	19312
851.625	19346
851.76	19187
851.895	19156
852.03	19099
852.165	19308
852.299	19327
852.434	19285
852.569	19304
852.703	19365
852.838	19301
852.973	19506
853.107	19533
853.242	19350
853.376	19301
853.511	19198
853.645	19255
853.78	19480
853.914	19373
854.048	19430
854.183	19392
854.317	19422
854.451	19696
854.585	19468
854.72	19514
854.854	19525
854.988	19304
855.122	19308
855.256	19274
855.39	19244
855.524	19293
855.658	19206
855.792	19289
855.926	19274
856.06	19152
856.194	19198
856.327	19088
856.461	19133
856.595	19080
856.729	18954
856.862	19221
856.996	19088
857.13	19133
857.263	19057
857.397	19110
857.53	18962
857.664	19015
857.797	19076
857.931	19122
858.064	18966
858.197	19034
858.331	19099
858.464	18947
858.597	18886
858.731	18958
858.864	18958
858.997	18848
859.13	18924
859.263	18935
859.396	19046
859.529	18779
859.662	18909
859.795	18882
859.928	19000
860.061	18989
860.194	19019
860.327	18932
860.46	18920
860.592	19042
860.725	19038
860.858	19000
860.99	18943
861.123	18764
861.256	18719
861.388	18867
861.521	19567
861.653	18719
861.786	18700
861.918	18604
862.05	18802
862.183	18787
862.315	18962
862.447	18795
862.58	18856
862.712	18627
862.844	18642
862.976	18563
863.108	18589
863.24	18916
863.372	18509
863.504	18540
863.636	18502
863.768	18601
863.9	18483
864.032	18502
864.164	18479
864.296	18551
864.428	18559
864.559	18673
864.691	18582
864.823	18525
864.954	18403
865.086	18433
865.217	18467
865.349	18464
865.48	18422
865.612	18464
865.743	18528
865.875	18498
866.006	18467
866.137	18388
866.269	18456
866.4	18399
866.531	18388
866.662	18353
866.793	18304
866.924	18365
867.055	18380
867.186	18372
867.317	18300
867.448	18346
867.579	18334
867.71	18346
867.841	18327
867.972	18429
868.103	18319
868.233	18509
868.364	18429
868.495	18498
868.625	18544
868.756	18867
868.886	18631
869.017	18608
869.147	18753
869.278	18783
869.408	18726
869.539	18707
869.669	18817
869.799	18757
869.929	18749
870.06	18741
870.19	18905
870.32	18932
870.45	19061
870.58	19202
870.71	19179
870.84	19259
870.97	19012
871.1	19175
871.23	19301
871.36	19270
871.489	19221
871.619	19270
871.749	19339
871.879	19377
872.008	19518
872.138	19453
872.267	19422
872.397	19396
872.526	19324
872.656	19278
872.785	19251
872.915	19643
873.044	19567
873.173	19662
873.303	19556
873.432	19662
873.561	19677
873.69	19689
873.819	19624
873.948	19772
874.077	19734
874.206	19738
874.335	19719
874.464	19902
874.593	20145
874.722	19974
874.851	20134
874.979	20267
875.108	20233
875.237	20176
875.365	20088
875.494	20328
875.623	20240
875.751	20377
875.88	20518
876.008	20625
876.136	20705
876.265	20971
876.393	21218
876.521	21077
876.65	21093
876.778	21203
876.906	21089
877.034	21306
877.162	21241
877.29	21363
877.418	21515
877.546	21606
877.674	21743
877.802	21762
877.93	22036
878.058	22147
878.185	22238
878.313	22569
878.441	22854
878.568	23193
878.696	23847
878.824	24684
878.951	25784
879.079	27332
879.206	29471
879.333	31609
879.461	33302
879.588	34481
879.715	34516
879.842	33447
879.97	31658
880.097	29444
880.224	27717
880.351	26556
880.478	25731
880.605	25160
880.732	24658
880.859	24711
880.986	24273
881.112	24266
881.239	23931
881.366	23912
881.493	23748
881.619	23771
881.746	23718
881.872	23828
881.999	23840
882.125	23832
882.252	23984
882.378	23996
882.505	23973
882.631	23847
882.757	23855
882.883	23851
883.01	23847
883.136	23821
883.262	23657
883.388	23729
883.514	23832
883.64	23748
883.766	23695
883.892	23619
884.018	23528
884.143	23786
884.269	23832
884.395	23592
884.52	23573
884.646	23619
884.772	23482
884.897	23478
885.023	23482
885.148	23718
885.274	23676
885.399	23402
885.524	23261
885.65	23185
885.775	23098
885.9	22911
886.025	22824
886.15	22710
886.275	22459
886.4	22166
886.525	22318
886.65	21964
886.775	21934
886.9	21831
887.025	21960
887.149	21610
887.274	21511
887.399	21173
887.523	21157
887.648	21005
887.773	20872
887.897	21070
888.021	20864
888.146	20769
888.27	20811
888.395	20720
888.519	20640
888.643	20583
888.767	20556
888.891	20366
889.015	20339
889.139	20206
889.263	20149
889.387	20305
889.511	20305
889.635	20210
889.759	19989
889.883	20020
890.006	19978
890.13	20039
890.254	19803
890.377	19845
890.501	19620
890.624	19563
890.748	19575
890.871	19388
890.995	19350
891.118	19362
891.241	19301
891.364	19297
891.488	19335
891.611	19320
891.734	19278
891.857	19240
891.98	19152
892.103	19103
892.226	19095
892.349	18973
892.471	18867
892.594	18928
892.717	18970
892.839	18913
892.962	18745
893.085	18882
893.207	18696
893.33	18677
893.452	18665
893.575	18848
893.697	18642
893.819	18707
893.941	18749
894.064	18745
894.186	18525
894.308	18441
894.43	18570
894.552	18776
894.674	18589
894.796	18540
894.918	18429
895.04	18467
895.161	18437
895.283	18372
895.405	18353
895.526	18460
895.648	18388
895.769	18262
895.891	18346
896.012	18422
896.134	18391
896.255	18384
896.376	18334
896.498	18365
896.619	18285
896.74	18281
896.861	18330
896.982	18658
897.103	18741
897.224	18532
897.345	18445
897.466	18460
897.587	18479
897.708	18616
897.828	18452
897.949	18456
898.07	18304
898.19	18365
898.311	18585
898.431	18445
898.552	18490
898.672	18536
898.792	18536
898.913	18403
899.033	18353
899.153	18380
899.273	18292
899.393	18216
899.513	18342
899.633	18232
899.753	18213
899.873	18174
899.993	18262
900.113	18258
900.232	18190
900.352	18194
900.472	18152
900.591	18011
900.711	18019
900.83	17939
900.95	18152
901.069	18220
901.189	17863
901.308	17722
901.427	17649
901.546	17566
901.665	17604
901.784	17653
901.904	17444
902.023	17349
902.141	17185
902.26	17025
902.379	17345
902.498	17083
902.617	16911
902.735	17159
902.854	16999
902.973	16953
903.091	16649
903.21	16740
903.328	16577
903.446	16580
903.565	16500
903.683	16481
903.801	16348
903.919	16386
904.038	16466
904.156	16310
904.274	16382
904.392	16150
904.51	16162
904.627	16265
904.745	16158
904.863	16284
904.981	16006
905.098	15979
905.216	15812
905.334	15816
905.451	15949
905.569	15793
905.686	15880
905.803	15797
905.921	15614
906.038	15759
906.155	15701
906.272	15545
906.389	15553
906.506	15439
906.623	15408
906.74	15492
906.857	15268
906.974	15268
907.091	15378
907.208	15549
907.324	15367
907.441	15340
907.557	15169
907.674	15188
907.79	15081
907.907	15074
908.023	15017
908.139	15032
908.256	14967
908.372	14929
908.488	14990
908.604	14845
908.72	14800
908.836	14765
908.952	14792
909.068	14960
909.184	14929
909.3	14792
909.415	14773
909.531	14845
909.647	14598
909.762	14457
909.878	14492
909.993	14602
910.108	14518
910.224	14431
910.339	14545
910.454	14358
910.57	14454
910.685	14218
910.8	14568
910.915	14499
911.03	14343
911.145	14142
911.259	14168
911.374	14168
911.489	14202
911.604	14119
911.718	13932
911.833	13871
911.947	13856
912.062	13826
912.176	13925
912.291	13944
912.405	13940
912.519	14050
912.633	14069
912.748	13940
912.862	13868
912.976	13750
913.09	13544
913.204	13704
913.318	13746
913.431	13746
913.545	13833
913.659	13772
913.772	13681
913.886	13575
914	13521
914.113	13658
914.226	13681
914.34	13666
914.453	13480
914.566	13727
914.68	13438
914.793	13502
914.906	13373
915.019	13244
915.132	13221
915.245	13240
915.358	13221
915.47	13339
915.583	13308
915.696	13225
915.809	13441
915.921	13365
916.034	13236
916.146	13206
916.259	13126
916.371	13270
916.483	13320
916.595	13183
916.708	13232
916.82	13232
916.932	13183
917.044	13198
917.156	13194
917.268	13072
917.38	13080
917.491	13012
917.603	12996
917.715	13053
917.826	13057
917.938	12973
918.049	12837
918.161	12970
918.272	13126
918.384	13107
918.495	12878
918.606	12719
918.717	12711
918.828	12760
918.939	12783
919.05	12715
919.161	12749
919.272	12646
919.383	12726
919.494	12817
919.604	12970
919.715	12795
919.826	12631
919.936	12776
920.047	12783
920.157	12776
920.267	12920
920.378	12844
920.488	12650
920.598	12913
920.708	13015
920.818	12814
920.928	12909
921.038	12993
921.148	13008
921.258	12684
921.368	12612
921.477	12559
921.587	12490
921.697	12407
921.806	12418
921.916	12281
922.025	12167
922.134	12182
922.244	12133
922.353	12201
922.462	12091
922.571	11965
922.68	11809
922.789	11802
922.898	11779
923.007	11828
923.116	11836
923.224	11809
923.333	11843
923.442	11718
923.55	11649
923.659	11627
923.767	11672
923.876	11589
923.984	11665
924.092	11524
924.201	11672
924.309	11627
924.417	11623
924.525	11566
924.633	11570
924.741	12422
924.849	11376
924.956	11512
925.064	11376
925.172	11280
925.279	11334
925.387	11288
925.494	11280
925.602	11467
925.709	11364
925.816	11227
925.924	11330
926.031	11356
926.138	11299
926.245	11425
926.352	11235
926.459	11246
926.566	11448
926.673	11208
926.779	11109
926.886	11140
926.993	10984
927.099	10965
927.206	10919
927.312	10847
927.419	10984
927.525	10938
927.631	11003
927.737	10805
927.843	10850
927.95	10736
928.056	10786
928.162	10782
928.267	10828
928.373	11383
928.479	10854
928.585	10603
928.69	10748
928.796	10839
928.901	10744
929.007	10588
929.112	10672
929.218	10672
929.323	10626
929.428	10592
929.533	10691
929.638	10497
929.743	10569
929.848	10592
929.953	10538
930.058	10421
930.163	10280
930.267	10268
930.372	10390
930.477	10310
930.581	10550
930.685	10299
930.79	10227
930.894	10234
930.998	10173
931.103	10314
931.207	9960
931.311	9823
931.415	9800
931.519	9743
931.623	9667
