Data from test_V78500241_518.txt Node
Date: Fri Mar 25 14:37:19 CST 2022
User: usil
Spectrometer: V785-0024
Trigger mode: 0
Integration Time (sec): 4.000000E-1
Scans to average: 1
Nonlinearity correction enabled: false
Boxcar width: 0
Storing dark spectrum: false
XAxis mode: Wavelengths
Number of Pixels in Spectrum: 1024
>>>>>Begin Spectral Data<<<<<
801.071	26960
801.214	26762
801.356	26697
801.499	26450
801.641	26507
801.783	26400
801.926	26431
802.068	26347
802.211	26221
802.353	26157
802.496	26020
802.638	25913
802.78	25898
802.923	25849
803.065	25746
803.208	25780
803.35	25852
803.492	25940
803.635	26062
803.777	25887
803.919	25887
804.061	26343
804.204	26122
804.346	25883
804.488	25860
804.63	25845
804.773	25845
804.915	25875
805.057	26069
805.199	25883
805.341	25978
805.483	25974
805.626	26024
805.768	25837
805.91	25993
806.052	25909
806.194	25966
806.336	26191
806.478	26153
806.62	26058
806.762	26271
806.904	26556
807.046	26632
807.188	26682
807.33	26727
807.472	26975
807.614	26918
807.756	27112
807.898	27135
808.04	27363
808.182	27766
808.324	28044
808.465	28622
808.607	29216
808.749	29710
808.891	30087
809.033	30140
809.174	29893
809.316	29223
809.458	28607
809.6	28158
809.741	27739
809.883	27545
810.025	27321
810.166	27138
810.308	27138
810.45	27017
810.591	26838
810.733	26648
810.875	26530
811.016	26393
811.158	26419
811.299	26450
811.441	26590
811.582	26488
811.724	26374
811.865	26195
812.007	26259
812.148	26358
812.29	26058
812.431	26465
812.573	26473
812.714	26625
812.855	26682
812.997	26880
813.138	26948
813.279	26769
813.421	26796
813.562	26629
813.703	26545
813.845	26423
813.986	26081
814.127	25951
814.268	25871
814.41	25647
814.551	25780
814.692	25693
814.833	25772
814.974	25696
815.115	25632
815.256	25537
815.397	25441
815.539	25605
815.68	25445
815.821	25396
815.962	25518
816.103	25426
816.244	25350
816.385	25133
816.526	25198
816.666	24951
816.807	24852
816.948	25000
817.089	24905
817.23	24722
817.371	24768
817.512	24814
817.653	24681
817.793	24692
817.934	24802
818.075	24753
818.216	24749
818.356	24738
818.497	24604
818.638	24547
818.778	24437
818.919	24452
819.06	24517
819.2	24669
819.341	24692
819.481	24601
819.622	24909
819.762	25008
819.903	24901
820.043	24817
820.184	24726
820.324	24726
820.465	24722
820.605	24844
820.746	24696
820.886	24612
821.026	24711
821.167	24650
821.307	24848
821.447	24635
821.588	24498
821.728	24353
821.868	24201
822.008	24038
822.149	24140
822.289	23969
822.429	23737
822.569	23680
822.709	23672
822.849	23642
822.99	23577
823.13	23493
823.27	23433
823.41	23349
823.55	23227
823.69	23239
823.83	23269
823.97	23246
824.11	23025
824.25	23159
824.389	23056
824.529	23067
824.669	23022
824.809	23166
824.949	23231
825.089	23094
825.228	23075
825.368	22790
825.508	22896
825.648	22946
825.787	22866
825.927	23041
826.067	22805
826.206	22812
826.346	22919
826.485	22911
826.625	22873
826.765	22927
826.904	22877
827.044	22622
827.183	22573
827.323	22508
827.462	22561
827.601	22538
827.741	22485
827.88	22512
828.02	22337
828.159	22599
828.298	22557
828.437	22474
828.577	22451
828.716	22607
828.855	22428
828.994	22173
829.134	22253
829.273	22352
829.412	22219
829.551	22261
829.69	22219
829.829	22192
829.968	22287
830.107	22181
830.246	22249
830.385	22204
830.524	22135
830.663	22067
830.802	21953
830.941	21926
831.08	21835
831.219	21865
831.357	21850
831.496	21960
831.635	21812
831.774	21778
831.913	21682
832.051	21530
832.19	21557
832.329	21610
832.467	21644
832.606	21564
832.744	21610
832.883	21481
833.022	21439
833.16	21405
833.299	21686
833.437	21622
833.576	21717
833.714	21679
833.852	21694
833.991	21747
834.129	21789
834.267	21816
834.406	21682
834.544	21739
834.682	21648
834.821	21622
834.959	21789
835.097	21519
835.235	21660
835.373	21576
835.511	21481
835.65	21416
835.788	21367
835.926	21188
836.064	21131
836.202	21066
836.34	21405
836.478	21420
836.615	21211
836.753	21321
836.891	21393
837.029	21317
837.167	21344
837.305	21211
837.443	21119
837.58	21150
837.718	21291
837.856	21260
837.993	21157
838.131	21207
838.269	21070
838.406	21062
838.544	20990
838.681	20861
838.819	20921
838.956	20568
839.094	20571
839.231	20651
839.369	20765
839.506	21013
839.643	20792
839.781	20552
839.918	20571
840.055	20640
840.193	20613
840.33	20636
840.467	20564
840.604	20503
840.742	20689
840.879	20358
841.016	20442
841.153	20351
841.29	20644
841.427	20530
841.564	20446
841.701	20602
841.838	20473
841.975	20339
842.112	20309
842.249	20339
842.385	20275
842.522	20507
842.659	20305
842.796	20187
842.933	20218
843.069	20210
843.206	20248
843.343	20370
843.479	20263
843.616	20149
843.752	19932
843.889	20103
844.025	20157
844.162	20130
844.298	20126
844.435	20138
844.571	19955
844.708	20183
844.844	20339
844.98	20419
845.117	20404
845.253	20423
845.389	20678
845.525	21370
845.661	21949
845.798	23102
845.934	24102
846.07	24346
846.206	24270
846.342	23501
846.478	22527
846.614	21249
846.75	20454
846.886	20225
847.022	20153
847.158	19776
847.294	19772
847.429	19712
847.565	19670
847.701	19757
847.837	19354
847.972	19358
848.108	19426
848.244	19324
848.379	19095
848.515	19152
848.65	19061
848.786	19137
848.921	19038
849.057	19198
849.192	19244
849.328	19129
849.463	19145
849.598	19012
849.734	18958
849.869	18920
850.004	18882
850.14	18856
850.275	18783
850.41	18779
850.545	18730
850.68	18749
850.815	18753
850.95	18730
851.085	18935
851.22	18875
851.355	18791
851.49	18673
851.625	18757
851.76	18650
851.895	18631
852.03	18703
852.165	18703
852.299	18802
852.434	18829
852.569	18715
852.703	18795
852.838	18833
852.973	18901
853.107	18878
853.242	18821
853.376	18703
853.511	18525
853.645	18631
853.78	18715
853.914	18806
854.048	18681
854.183	18517
854.317	18597
854.451	18882
854.585	18620
854.72	18604
854.854	18684
854.988	18563
855.122	18681
855.256	18479
855.39	18627
855.524	18684
855.658	18692
855.792	18722
855.926	18585
856.06	18589
856.194	18639
856.327	18578
856.461	18490
856.595	18448
856.729	18475
856.862	18734
856.996	18582
857.13	18658
857.263	18528
857.397	18677
857.53	18544
857.664	18616
857.797	18593
857.931	18681
858.064	18528
858.197	18726
858.331	18646
858.464	18467
858.597	18418
858.731	18612
858.864	18513
858.997	18464
859.13	18513
859.263	18536
859.396	18650
859.529	18559
859.662	18475
859.795	18365
859.928	18536
860.061	18700
860.194	18673
860.327	18494
860.46	18506
860.592	18627
860.725	18684
860.858	18688
860.99	18456
861.123	18365
861.256	18437
861.388	18639
861.521	19316
861.653	18395
861.786	18391
861.918	18388
862.05	18475
862.183	18593
862.315	18646
862.447	18661
862.58	18521
862.712	18220
862.844	18155
862.976	18350
863.108	18270
863.24	18791
863.372	18110
863.504	18247
863.636	18224
863.768	18205
863.9	18174
864.032	18117
864.164	18148
864.296	18243
864.428	18338
864.559	18182
864.691	18182
864.823	18182
864.954	18308
865.086	18133
865.217	18197
865.349	18083
865.48	18129
865.612	18106
865.743	18258
865.875	18144
866.006	18045
866.137	18171
866.269	18171
866.4	18091
866.531	18167
866.662	18083
866.793	18102
866.924	18110
867.055	18114
867.186	18102
867.317	17973
867.448	18068
867.579	18026
867.71	17961
867.841	18049
867.972	18095
868.103	18106
868.233	18125
868.364	18182
868.495	18087
868.625	18304
868.756	18509
868.886	18239
869.017	18315
869.147	18494
869.278	18448
869.408	18270
869.539	18346
869.669	18346
869.799	18395
869.929	18532
870.06	18479
870.19	18631
870.32	18730
870.45	18700
870.58	18711
870.71	18795
870.84	18791
870.97	18711
871.1	18661
871.23	18863
871.36	18939
871.489	18954
871.619	18905
871.749	18951
871.879	18962
872.008	18996
872.138	19038
872.267	18977
872.397	18913
872.526	18798
872.656	18837
872.785	18696
872.915	18970
873.044	19046
873.173	18970
873.303	18996
873.432	18981
873.561	19061
873.69	19103
873.819	19034
873.948	19061
874.077	19099
874.206	18985
874.335	19069
874.464	19217
874.593	19362
874.722	19251
874.851	19392
874.979	19327
875.108	19316
875.237	19312
875.365	19225
875.494	19289
875.623	19441
875.751	19525
875.88	19419
876.008	19533
876.136	19597
876.265	19811
876.393	19898
876.521	19822
876.65	19860
876.778	19830
876.906	19784
877.034	19715
877.162	19845
877.29	19849
877.418	19856
877.546	19982
877.674	19871
877.802	19906
877.93	19936
878.058	19864
878.185	19830
878.313	20008
878.441	20096
878.568	19883
878.696	20172
878.824	20313
878.951	20488
879.079	20929
879.206	21416
879.333	21549
879.461	21789
879.588	22040
879.715	22150
879.842	22078
879.97	21496
880.097	20998
880.224	20655
880.351	20689
880.478	20404
880.605	20248
880.732	20256
880.859	20438
880.986	20225
881.112	20202
881.239	20031
881.366	19887
881.493	19860
881.619	19677
881.746	19753
881.872	19731
881.999	19696
882.125	19746
882.252	19845
882.378	19906
882.505	19753
882.631	19609
882.757	19575
882.883	19780
883.01	19639
883.136	19468
883.262	19506
883.388	19419
883.514	19632
883.64	19601
883.766	19453
883.892	19312
884.018	19403
884.143	19658
884.269	19445
884.395	19373
884.52	19259
884.646	19141
884.772	19232
884.897	19069
885.023	19240
885.148	19327
885.274	19343
885.399	19331
885.524	19148
885.65	19263
885.775	19133
885.9	19228
886.025	19213
886.15	19050
886.275	18905
886.4	18924
886.525	19000
886.65	18913
886.775	18894
886.9	19046
887.025	19175
887.149	18916
887.274	18760
887.399	18722
887.523	18578
887.648	18631
887.773	18532
887.897	18673
888.021	18673
888.146	18601
888.27	18642
888.395	18738
888.519	18597
888.643	18563
888.767	18574
888.891	18490
889.015	18334
889.139	18357
889.263	18350
889.387	18357
889.511	18502
889.635	18475
889.759	18365
889.883	18353
890.006	18315
890.13	18479
890.254	18194
890.377	18209
890.501	18041
890.624	18060
890.748	18083
890.871	18057
890.995	17999
891.118	17767
891.241	17912
891.364	17942
891.488	18041
891.611	17821
891.734	17836
891.857	17946
891.98	17931
892.103	17961
892.226	17889
892.349	17836
892.471	17604
892.594	17775
892.717	17855
892.839	17790
892.962	17817
893.085	17882
893.207	17855
893.33	17695
893.452	17714
893.575	17870
893.697	17771
893.819	17897
893.941	17904
894.064	17863
894.186	17668
894.308	17657
894.43	17710
894.552	17935
894.674	17821
894.796	17741
894.918	17699
895.04	17775
895.161	17813
895.283	17722
895.405	17642
895.526	17866
895.648	17756
895.769	17699
895.891	17767
896.012	17817
896.134	17805
896.255	17870
896.376	17657
896.498	17752
896.619	17771
896.74	17809
896.861	17916
896.982	18182
897.103	18186
897.224	18053
897.345	18076
897.466	17923
897.587	18057
897.708	18228
897.828	18034
897.949	18087
898.07	17920
898.19	17912
898.311	18079
898.431	18034
898.552	17992
898.672	17969
898.792	18041
898.913	17965
899.033	17866
899.153	17745
899.273	17847
899.393	17821
899.513	17851
899.633	17775
899.753	17821
899.873	17733
899.993	17771
900.113	17695
900.232	17783
900.352	17714
900.472	17687
900.591	17573
900.711	17703
900.83	17516
900.95	17741
901.069	17748
901.189	17520
901.308	17303
901.427	17220
901.546	17208
901.665	17288
901.784	17193
901.904	17075
902.023	16908
902.141	16927
902.26	16706
902.379	16873
902.498	16801
902.617	16626
902.735	16892
902.854	16755
902.973	16778
903.091	16584
903.21	16424
903.328	16417
903.446	16337
903.565	16219
903.683	16303
903.801	16166
903.919	16211
904.038	16211
904.156	16074
904.274	16131
904.392	15979
904.51	16025
904.627	16082
904.745	16071
904.863	16006
904.981	15835
905.098	15690
905.216	15576
905.334	15690
905.451	15701
905.569	15675
905.686	15675
905.803	15690
905.921	15462
906.038	15618
906.155	15553
906.272	15370
906.389	15382
906.506	15157
906.623	15260
906.74	15207
906.857	15043
906.974	15142
907.091	15287
907.208	15294
907.324	15184
907.441	14990
907.557	14941
907.674	14994
907.79	14895
907.907	14880
908.023	14838
908.139	14876
908.256	14792
908.372	14834
908.488	14796
908.604	14629
908.72	14632
908.836	14648
908.952	14575
909.068	14587
909.184	14800
909.3	14564
909.415	14636
909.531	14583
909.647	14343
909.762	14252
909.878	14259
909.993	14336
910.108	14252
910.224	14332
910.339	14389
910.454	14187
910.57	14221
910.685	14180
910.8	14362
910.915	14176
911.03	14259
911.145	14012
911.259	13947
911.374	13909
911.489	13902
911.604	13833
911.718	13723
911.833	13791
911.947	13674
912.062	13430
912.176	13693
912.291	13761
912.405	13586
912.519	13849
912.633	13772
912.748	13757
912.862	13670
912.976	13647
913.09	13422
913.204	13567
913.318	13605
913.431	13727
913.545	13582
913.659	13666
913.772	13514
913.886	13304
914	13354
914.113	13464
914.226	13419
914.34	13445
914.453	13339
914.566	13518
914.68	13255
914.793	13282
914.906	13114
915.019	13084
915.132	13012
915.245	13065
915.358	13156
915.47	13088
915.583	13107
915.696	13091
915.809	13164
915.921	13198
916.034	13050
916.146	13012
916.259	12943
916.371	13095
916.483	13046
916.595	12970
916.708	12890
916.82	12943
916.932	12932
917.044	12848
917.156	12886
917.268	12814
917.38	12734
917.491	12730
917.603	12764
917.715	12871
917.826	12852
917.938	12719
918.049	12650
918.161	12692
918.272	12947
918.384	12795
918.495	12669
918.606	12681
918.717	12509
918.828	12589
918.939	12700
919.05	12471
919.161	12551
919.272	12308
919.383	12418
919.494	12570
919.604	12749
919.715	12570
919.826	12578
919.936	12582
920.047	12658
920.157	12589
920.267	12738
920.378	12631
920.488	12456
920.598	12734
920.708	12905
920.818	12684
920.928	12753
921.038	12821
921.148	12787
921.258	12521
921.368	12391
921.477	12311
921.587	12292
921.697	12167
921.806	12289
921.916	12201
922.025	12076
922.134	12098
922.244	12007
922.353	12049
922.462	11859
922.571	11847
922.68	11707
922.789	11638
922.898	11661
923.007	11505
923.116	11562
923.224	11585
923.333	11623
923.442	11471
923.55	11490
923.659	11455
923.767	11627
923.876	11463
923.984	11509
924.092	11414
924.201	11425
924.309	11406
924.417	11471
924.525	11410
924.633	11463
924.741	12117
924.849	11189
924.956	11330
925.064	11193
925.172	11060
925.279	11193
925.387	11159
925.494	11227
925.602	11318
925.709	11296
925.816	11067
925.924	11181
926.031	11250
926.138	11090
926.245	11132
926.352	11067
926.459	11216
926.566	11250
926.673	11086
926.779	10957
926.886	10995
926.993	10809
927.099	10755
927.206	10763
927.312	10733
927.419	10778
927.525	10797
927.631	10847
927.737	10683
927.843	10683
927.95	10508
928.056	10603
928.162	10672
928.267	10790
928.373	11201
928.479	10679
928.585	10546
928.69	10618
928.796	10588
928.901	10493
929.007	10402
929.112	10546
929.218	10500
929.323	10402
929.428	10474
929.533	10599
929.638	10417
929.743	10440
929.848	10470
929.953	10348
930.058	10238
930.163	10177
930.267	10192
930.372	10234
930.477	10063
930.581	10314
930.685	10166
930.79	10044
930.894	10090
930.998	10010
931.103	10200
931.207	9770
931.311	9774
931.415	9663
931.519	9488
931.623	9504
