Data from test_V78500241_1288.txt Node
Date: Fri Mar 25 14:42:41 CST 2022
User: usil
Spectrometer: V785-0024
Trigger mode: 0
Integration Time (sec): 4.000000E-1
Scans to average: 1
Nonlinearity correction enabled: false
Boxcar width: 0
Storing dark spectrum: false
XAxis mode: Wavelengths
Number of Pixels in Spectrum: 1024
>>>>>Begin Spectral Data<<<<<
801.071	22485
801.214	22268
801.356	22074
801.499	21857
801.641	21800
801.783	21812
801.926	21793
802.068	21561
802.211	21679
802.353	21481
802.496	21256
802.638	21214
802.78	21325
802.923	21096
803.065	21096
803.208	21062
803.35	21100
803.492	21233
803.635	21264
803.777	21032
803.919	21199
804.061	21363
804.204	21127
804.346	21009
804.488	20925
804.63	21043
804.773	20933
804.915	21051
805.057	21207
805.199	20986
805.341	21074
805.483	21074
805.626	21001
805.768	20918
805.91	21024
806.052	21039
806.194	20986
806.336	21131
806.478	21062
806.62	20944
806.762	21081
806.904	21233
807.046	21329
807.188	21329
807.33	21325
807.472	21416
807.614	21226
807.756	21370
807.898	21180
808.04	20986
808.182	21036
808.324	21199
808.465	21169
808.607	21374
808.749	21580
808.891	21732
809.033	21682
809.174	21629
809.316	21416
809.458	21477
809.6	21500
809.741	21534
809.883	21504
810.025	21663
810.166	21652
810.308	21637
810.45	21504
810.591	21424
810.733	21386
810.875	21157
811.016	21154
811.158	21161
811.299	21226
811.441	21279
811.582	21401
811.724	21199
811.865	21123
812.007	21226
812.148	21275
812.29	21268
812.431	21447
812.573	21538
812.714	21622
812.855	21739
812.997	21774
813.138	21994
813.279	21865
813.421	21679
813.562	21587
813.703	21450
813.845	21420
813.986	21039
814.127	20960
814.268	20769
814.41	20796
814.551	20804
814.692	20769
814.833	20602
814.974	20640
815.115	20819
815.256	20644
815.397	20598
815.539	20598
815.68	20492
815.821	20389
815.962	20484
816.103	20488
816.244	20290
816.385	20142
816.526	20290
816.666	20012
816.807	19875
816.948	19940
817.089	20058
817.23	19982
817.371	19875
817.512	19974
817.653	19902
817.793	19845
817.934	19921
818.075	19955
818.216	19875
818.356	19803
818.497	19841
818.638	19521
818.778	19594
818.919	19624
819.06	19556
819.2	19670
819.341	19845
819.481	19852
819.622	19871
819.762	20126
819.903	20039
820.043	19845
820.184	20046
820.324	19765
820.465	19932
820.605	19894
820.746	19845
820.886	19738
821.026	19791
821.167	19814
821.307	19932
821.447	19799
821.588	19723
821.728	19594
821.868	19476
822.008	19225
822.149	19190
822.289	19362
822.429	19050
822.569	18958
822.709	19019
822.849	18859
822.99	18741
823.13	18692
823.27	18692
823.41	18608
823.55	18563
823.69	18540
823.83	18464
823.97	18517
824.11	18433
824.25	18338
824.389	18376
824.529	18380
824.669	18357
824.809	18475
824.949	18513
825.089	18403
825.228	18315
825.368	18102
825.508	18117
825.648	18194
825.787	18220
825.927	18140
826.067	18049
826.206	18129
826.346	18163
826.485	18190
826.625	18144
826.765	18209
826.904	18205
827.044	17916
827.183	17851
827.323	17802
827.462	17889
827.601	17927
827.741	17798
827.88	17771
828.02	17646
828.159	17874
828.298	17828
828.437	17813
828.577	17684
828.716	17984
828.855	17722
828.994	17581
829.134	17528
829.273	17646
829.412	17668
829.551	17478
829.69	17619
829.829	17585
829.968	17741
830.107	17649
830.246	17653
830.385	17497
830.524	17516
830.663	17398
830.802	17353
830.941	17166
831.08	17303
831.219	17254
831.357	17364
831.496	17448
831.635	17189
831.774	17189
831.913	17048
832.051	17033
832.19	17071
832.329	17147
832.467	16965
832.606	16786
832.744	16889
832.883	16904
833.022	16984
833.16	16904
833.299	16938
833.437	16930
833.576	16908
833.714	17086
833.852	16976
833.991	17037
834.129	16984
834.267	16987
834.406	16987
834.544	17098
834.682	17010
834.821	17025
834.959	17109
835.097	16995
835.235	17090
835.373	17086
835.511	17064
835.65	16866
835.788	16911
835.926	16755
836.064	16748
836.202	16755
836.34	16892
836.478	16930
836.615	16900
836.753	16991
836.891	17006
837.029	16835
837.167	16885
837.305	16889
837.443	16691
837.58	16812
837.718	16816
837.856	16774
837.993	16660
838.131	16797
838.269	16618
838.406	16702
838.544	16615
838.681	16432
838.819	16516
838.956	16356
839.094	16341
839.231	16306
839.369	16512
839.506	16679
839.643	16599
839.781	16325
839.918	16299
840.055	16284
840.193	16322
840.33	16280
840.467	16329
840.604	16390
840.742	16611
840.879	16154
841.016	16238
841.153	16166
841.29	16462
841.427	16375
841.564	16398
841.701	16398
841.838	16344
841.975	16150
842.112	16211
842.249	16078
842.385	16086
842.522	16325
842.659	16185
842.796	16128
842.933	16093
843.069	15994
843.206	16021
843.343	16215
843.479	16116
843.616	16169
843.752	15876
843.889	15956
844.025	16109
844.162	15838
844.298	15998
844.435	15911
844.571	15937
844.708	15915
844.844	16006
844.98	16071
845.117	16017
845.253	15922
845.389	15819
845.525	15953
845.661	15884
845.798	15907
845.934	15895
846.07	15785
846.206	15930
846.342	15975
846.478	15884
846.614	15603
846.75	15412
846.886	15530
847.022	15534
847.158	15469
847.294	15500
847.429	15401
847.565	15458
847.701	15637
847.837	15165
847.972	15150
848.108	15313
848.244	15203
848.379	15127
848.515	15093
848.65	14986
848.786	14944
848.921	15017
849.057	15116
849.192	15165
849.328	15085
849.463	15085
849.598	15020
849.734	14998
849.869	14963
850.004	14788
850.14	14872
850.275	14880
850.41	14727
850.545	14727
850.68	14689
850.815	14823
850.95	14830
851.085	14933
851.22	14906
851.355	14731
851.49	14701
851.625	14746
851.76	14815
851.895	14750
852.03	14716
852.165	14883
852.299	14872
852.434	14887
852.569	14910
852.703	14796
852.838	14845
852.973	15020
853.107	14967
853.242	14750
853.376	14796
853.511	14484
853.645	14594
853.78	14727
853.914	14682
854.048	14667
854.183	14621
854.317	14720
854.451	14823
854.585	14632
854.72	14575
854.854	14811
854.988	14560
855.122	14686
855.256	14594
855.39	14644
855.524	14762
855.658	14716
855.792	14682
855.926	14697
856.06	14629
856.194	14849
856.327	14636
856.461	14492
856.595	14716
856.729	14724
856.862	14785
856.996	14773
857.13	14746
857.263	14769
857.397	14781
857.53	14610
857.664	14648
857.797	14811
857.931	14800
858.064	14602
858.197	14883
858.331	14651
858.464	14678
858.597	14564
858.731	14678
858.864	14640
858.997	14659
859.13	14594
859.263	14739
859.396	14716
859.529	14705
859.662	14632
859.795	14560
859.928	14720
860.061	14906
860.194	14876
860.327	14689
860.46	14651
860.592	14823
860.725	14842
860.858	14857
860.99	14701
861.123	14564
861.256	14686
861.388	14560
861.521	15344
861.653	14583
861.786	14533
861.918	14571
862.05	14617
862.183	14564
862.315	14731
862.447	14800
862.58	14590
862.712	14442
862.844	14358
862.976	14484
863.108	14530
863.24	14876
863.372	14457
863.504	14461
863.636	14434
863.768	14495
863.9	14434
864.032	14434
864.164	14412
864.296	14385
864.428	14659
864.559	14568
864.691	14476
864.823	14442
864.954	14507
865.086	14560
865.217	14374
865.349	14408
865.48	14461
865.612	14473
865.743	14571
865.875	14427
866.006	14427
866.137	14537
866.269	14438
866.4	14488
866.531	14370
866.662	14389
866.793	14374
866.924	14473
867.055	14476
867.186	14374
867.317	14404
867.448	14313
867.579	14328
867.71	14415
867.841	14275
867.972	14393
868.103	14480
868.233	14450
868.364	14454
868.495	14499
868.625	14663
868.756	14746
868.886	14571
869.017	14587
869.147	14727
869.278	14823
869.408	14705
869.539	14667
869.669	14758
869.799	14804
869.929	14758
870.06	14781
870.19	15043
870.32	15032
870.45	14982
870.58	15173
870.71	15135
870.84	15180
870.97	15100
871.1	15055
871.23	15176
871.36	15241
871.489	15127
871.619	15214
871.749	15306
871.879	15241
872.008	15393
872.138	15237
872.267	15123
872.397	15062
872.526	15001
872.656	15093
872.785	15112
872.915	15226
873.044	15370
873.173	15279
873.303	15321
873.432	15283
873.561	15370
873.69	15359
873.819	15359
873.948	15351
874.077	15310
874.206	15370
874.335	15389
874.464	15443
874.593	15614
874.722	15618
874.851	15686
874.979	15720
875.108	15694
875.237	15610
875.365	15515
875.494	15648
875.623	15698
875.751	15496
875.88	15660
876.008	15774
876.136	15812
876.265	16071
876.393	16147
876.521	16120
876.65	16166
876.778	16177
876.906	16071
877.034	15895
877.162	16063
877.29	16013
877.418	16055
877.546	16128
877.674	15968
877.802	16120
877.93	16120
878.058	16029
878.185	15857
878.313	16025
878.441	16093
878.568	15838
878.696	16032
878.824	16116
878.951	16215
879.079	16238
879.206	16421
879.333	16405
879.461	16124
879.588	16295
879.715	16356
879.842	16417
879.97	16166
880.097	15998
880.224	15915
880.351	15869
880.478	16013
880.605	15816
880.732	15895
880.859	16135
880.986	15911
881.112	15892
881.239	15797
881.366	15656
881.493	15553
881.619	15511
881.746	15568
881.872	15545
881.999	15500
882.125	15454
882.252	15580
882.378	15526
882.505	15637
882.631	15488
882.757	15439
882.883	15450
883.01	15374
883.136	15363
883.262	15218
883.388	15180
883.514	15412
883.64	15439
883.766	15329
883.892	15275
884.018	15275
884.143	15389
884.269	15454
884.395	15051
884.52	15097
884.646	15097
884.772	15047
884.897	14986
885.023	15058
885.148	15207
885.274	15264
885.399	15150
885.524	15055
885.65	15017
885.775	15085
885.9	15146
886.025	15165
886.15	15138
886.275	15055
886.4	14975
886.525	15001
886.65	14967
886.775	14960
886.9	15237
887.025	15199
887.149	15104
887.274	14967
887.399	14918
887.523	14902
887.648	14788
887.773	14807
887.897	15005
888.021	14880
888.146	14762
888.27	14891
888.395	15005
888.519	14842
888.643	14986
888.767	15028
888.891	14876
889.015	14674
889.139	14739
889.263	14670
889.387	14811
889.511	14948
889.635	14914
889.759	14724
889.883	14762
890.006	14686
890.13	14792
890.254	14648
890.377	14689
890.501	14697
890.624	14476
890.748	14617
890.871	14492
890.995	14431
891.118	14347
891.241	14473
891.364	14454
891.488	14571
891.611	14400
891.734	14507
891.857	14575
891.98	14507
892.103	14461
892.226	14495
892.349	14454
892.471	14278
892.594	14377
892.717	14473
892.839	14495
892.962	14438
893.085	14533
893.207	14484
893.33	14393
893.452	14305
893.575	14442
893.697	14362
893.819	14602
893.941	14575
894.064	14541
894.186	14446
894.308	14355
894.43	14587
894.552	14511
894.674	14648
894.796	14412
894.918	14431
895.04	14473
895.161	14629
895.283	14537
895.405	14457
895.526	14560
895.648	14484
895.769	14484
895.891	14636
896.012	14689
896.134	14594
896.255	14651
896.376	14598
896.498	14613
896.619	14602
896.74	14636
896.861	14640
896.982	14906
897.103	15028
897.224	14906
897.345	14823
897.466	14887
897.587	14876
897.708	14914
897.828	14872
897.949	14819
898.07	14781
898.19	14823
898.311	14967
898.431	14910
898.552	14998
898.672	14975
898.792	15047
898.913	15051
899.033	14921
899.153	14746
899.273	14598
899.393	14686
899.513	14830
899.633	14712
899.753	14796
899.873	14762
899.993	14834
900.113	14720
900.232	14834
900.352	14743
900.472	14587
900.591	14617
900.711	14590
900.83	14560
900.95	14705
901.069	14739
901.189	14552
901.308	14339
901.427	14324
901.546	14366
901.665	14347
901.784	14362
901.904	14229
902.023	14088
902.141	13925
902.26	13856
902.379	13917
902.498	13902
902.617	13772
902.735	13811
902.854	13776
902.973	13750
903.091	13590
903.21	13510
903.328	13571
903.446	13613
903.565	13381
903.683	13415
903.801	13270
903.919	13362
904.038	13422
904.156	13236
904.274	13221
904.392	13209
904.51	13274
904.627	13270
904.745	13285
904.863	13289
904.981	13084
905.098	12996
905.216	12958
905.334	12924
905.451	13015
905.569	12939
905.686	12993
905.803	12863
905.921	12764
906.038	12798
906.155	12798
906.272	12642
906.389	12741
906.506	12513
906.623	12578
906.74	12551
906.857	12365
906.974	12384
907.091	12597
907.208	12684
907.324	12551
907.441	12445
907.557	12323
907.674	12270
907.79	12213
907.907	12266
908.023	12273
908.139	12365
908.256	12209
908.372	12266
908.488	12254
908.604	12095
908.72	11988
908.836	12049
908.952	11988
909.068	11954
909.184	12171
909.3	12079
909.415	12083
909.531	12015
909.647	11790
909.762	11958
909.878	11767
909.993	11893
910.108	11802
910.224	11771
910.339	11794
910.454	11665
910.57	11707
910.685	11638
910.8	11847
910.915	11855
911.03	11688
911.145	11573
911.259	11520
911.374	11543
911.489	11459
911.604	11402
911.718	11356
911.833	11284
911.947	11162
912.062	11132
912.176	11231
912.291	11307
912.405	11284
912.519	11482
912.633	11558
912.748	11337
912.862	11337
912.976	11162
913.09	10991
913.204	11159
913.318	11140
913.431	11151
913.545	11174
913.659	11239
913.772	11201
913.886	11033
914	11052
914.113	11113
914.226	11136
914.34	11181
914.453	11018
914.566	11064
914.68	11041
914.793	10938
914.906	10831
915.019	10748
915.132	10672
915.245	10786
915.358	10759
915.47	10839
915.583	10801
915.696	10805
915.809	10866
915.921	10885
916.034	10687
916.146	10744
916.259	10645
916.371	10831
916.483	10797
916.595	10641
916.708	10839
916.82	10653
916.932	10649
917.044	10691
917.156	10660
917.268	10554
917.38	10618
917.491	10531
917.603	10584
917.715	10630
917.826	10653
917.938	10573
918.049	10573
918.161	10618
918.272	10736
918.384	10694
918.495	10664
918.606	10523
918.717	10303
918.828	10474
918.939	10580
919.05	10360
919.161	10470
919.272	10299
919.383	10333
919.494	10398
919.604	10668
919.715	10497
919.826	10428
919.936	10375
920.047	10493
920.157	10535
920.267	10649
920.378	10508
920.488	10440
920.598	10630
920.708	10767
920.818	10691
920.928	10736
921.038	10869
921.148	10835
921.258	10489
921.368	10405
921.477	10329
921.587	10261
921.697	10276
921.806	10299
921.916	10192
922.025	10067
922.134	10017
922.244	9956
922.353	10097
922.462	10048
922.571	9838
922.68	9690
922.789	9644
922.898	9720
923.007	9690
923.116	9762
923.224	9808
923.333	9740
923.442	9507
923.55	9629
923.659	9580
923.767	9717
923.876	9606
923.984	9637
924.092	9576
924.201	9466
924.309	9526
924.417	9599
924.525	9519
924.633	9553
924.741	10291
924.849	9351
924.956	9561
925.064	9340
925.172	9241
925.279	9336
925.387	9428
925.494	9351
925.602	9496
925.709	9363
925.816	9317
925.924	9348
926.031	9382
926.138	9321
926.245	9424
926.352	9283
926.459	9511
926.566	9473
926.673	9306
926.779	9165
926.886	9192
926.993	9047
927.099	9085
927.206	8990
927.312	8986
927.419	9116
927.525	9123
927.631	9150
927.737	8994
927.843	8956
927.95	8861
928.056	8918
928.162	8918
928.267	8975
928.373	9633
928.479	9070
928.585	8785
928.69	8921
928.796	8998
928.901	8864
929.007	8788
929.112	8887
929.218	8777
929.323	8785
929.428	8773
929.533	8914
929.638	8693
929.743	8758
929.848	8743
929.953	8712
930.058	8667
930.163	8465
930.267	8610
930.372	8640
930.477	8442
930.581	8689
930.685	8632
930.79	8484
930.894	8446
930.998	8518
931.103	8632
931.207	8263
931.311	8210
931.415	8157
931.519	7974
931.623	7947
