Data from test_V78500241_879.txt Node
Date: Fri Mar 25 14:39:50 CST 2022
User: usil
Spectrometer: V785-0024
Trigger mode: 0
Integration Time (sec): 4.000000E-1
Scans to average: 1
Nonlinearity correction enabled: false
Boxcar width: 0
Storing dark spectrum: false
XAxis mode: Wavelengths
Number of Pixels in Spectrum: 1024
>>>>>Begin Spectral Data<<<<<
801.071	25548
801.214	25312
801.356	25069
801.499	25000
801.641	24890
801.783	24844
801.926	24875
802.068	24684
802.211	24730
802.353	24578
802.496	24384
802.638	24338
802.78	24353
802.923	24220
803.065	24110
803.208	24239
803.35	24125
803.492	24353
803.635	24384
803.777	24296
803.919	24266
804.061	24639
804.204	24330
804.346	24334
804.488	24209
804.63	24163
804.773	24178
804.915	24304
805.057	24357
805.199	24174
805.341	24407
805.483	24509
805.626	24414
805.768	24266
805.91	24437
806.052	24563
806.194	24399
806.336	24802
806.478	24779
806.62	24741
806.762	24810
806.904	25126
807.046	25434
807.188	25487
807.33	25544
807.472	25871
807.614	26084
807.756	26286
807.898	26663
808.04	27077
808.182	27728
808.324	28683
808.465	29718
808.607	30848
808.749	31772
808.891	32374
809.033	32343
809.174	31810
809.316	30829
809.458	29756
809.6	28462
809.741	27637
809.883	26937
810.025	26754
810.166	26431
810.308	26035
810.45	25822
810.591	25575
810.733	25327
810.875	25244
811.016	24897
811.158	24897
811.299	24966
811.441	24954
811.582	24954
811.724	24840
811.865	24696
812.007	24635
812.148	24608
812.29	24669
812.431	24814
812.573	25069
812.714	25088
812.855	24985
812.997	25046
813.138	25289
813.279	25198
813.421	25023
813.562	24989
813.703	24798
813.845	24620
813.986	24380
814.127	24163
814.268	24083
814.41	24167
814.551	23931
814.692	24163
814.833	24064
814.974	23916
815.115	23961
815.256	23817
815.397	23741
815.539	23783
815.68	23707
815.821	23672
815.962	23786
816.103	23570
816.244	23516
816.385	23368
816.526	23273
816.666	23155
816.807	23102
816.948	23231
817.089	23239
817.23	23113
817.371	23079
817.512	23083
817.653	23064
817.793	22930
817.934	23033
818.075	23010
818.216	22953
818.356	22869
818.497	22824
818.638	22596
818.778	22740
818.919	22744
819.06	22615
819.2	22713
819.341	22847
819.481	22877
819.622	23052
819.762	23181
819.903	23178
820.043	23022
820.184	22930
820.324	22877
820.465	22965
820.605	22934
820.746	22946
820.886	22759
821.026	22824
821.167	22889
821.307	22854
821.447	22809
821.588	22607
821.728	22489
821.868	22478
822.008	22348
822.149	22261
822.289	22173
822.429	22025
822.569	21949
822.709	21918
822.849	21622
822.99	21701
823.13	21671
823.27	21622
823.41	21595
823.55	21378
823.69	21435
823.83	21458
823.97	21511
824.11	21298
824.25	21325
824.389	21108
824.529	21382
824.669	21264
824.809	21344
824.949	21424
825.089	21275
825.228	21363
825.368	21096
825.508	21104
825.648	21074
825.787	21058
825.927	21096
826.067	20948
826.206	20933
826.346	20975
826.485	21005
826.625	20921
826.765	21074
826.904	21089
827.044	20823
827.183	20785
827.323	20571
827.462	20739
827.601	20674
827.741	20693
827.88	20648
828.02	20552
828.159	20769
828.298	20579
828.437	20701
828.577	20663
828.716	20811
828.855	20640
828.994	20514
829.134	20434
829.273	20396
829.412	20271
829.551	20339
829.69	20355
829.829	20446
829.968	20590
830.107	20370
830.246	20309
830.385	20286
830.524	20256
830.663	20122
830.802	20103
830.941	20084
831.08	19947
831.219	20092
831.357	20024
831.496	20263
831.635	19947
831.774	19883
831.913	19860
832.051	19742
832.19	19814
832.329	19837
832.467	19811
832.606	19647
832.744	19609
832.883	19864
833.022	19742
833.16	19856
833.299	19875
833.437	19860
833.576	20058
833.714	19955
833.852	19982
833.991	20122
834.129	20122
834.267	20237
834.406	20092
834.544	20096
834.682	19967
834.821	19898
834.959	20062
835.097	19772
835.235	19894
835.373	19772
835.511	19677
835.65	19575
835.788	19609
835.926	19491
836.064	19407
836.202	19483
836.34	19510
836.478	19567
836.615	19457
836.753	19506
836.891	19460
837.029	19495
837.167	19464
837.305	19381
837.443	19308
837.58	19327
837.718	19445
837.856	19202
837.993	19255
838.131	19369
838.269	19187
838.406	19312
838.544	19206
838.681	19103
838.819	18970
838.956	18894
839.094	18779
839.231	18837
839.369	18935
839.506	19183
839.643	19084
839.781	18814
839.918	18688
840.055	18863
840.193	18760
840.33	18753
840.467	18810
840.604	18749
840.742	19023
840.879	18528
841.016	18684
841.153	18681
841.29	18776
841.427	18734
841.564	18848
841.701	18749
841.838	18703
841.975	18684
842.112	18669
842.249	18559
842.385	18528
842.522	18661
842.659	18604
842.796	18475
842.933	18532
843.069	18574
843.206	18441
843.343	18471
843.479	18528
843.616	18517
843.752	18426
843.889	18285
844.025	18388
844.162	18323
844.298	18509
844.435	18490
844.571	18563
844.708	18631
844.844	18962
844.98	19008
845.117	19141
845.253	19388
845.389	19837
845.525	20929
845.661	22740
845.798	24871
845.934	26781
846.07	27454
846.206	27055
846.342	25784
846.478	23478
846.614	21420
846.75	20153
846.886	19126
847.022	18928
847.158	18582
847.294	18289
847.429	18224
847.565	18053
847.701	18209
847.837	17764
847.972	17684
848.108	17710
848.244	17687
848.379	17577
848.515	17467
848.65	17387
848.786	17474
848.921	17452
849.057	17448
849.192	17535
849.328	17509
849.463	17474
849.598	17303
849.734	17372
849.869	17197
850.004	17208
850.14	17147
850.275	17185
850.41	16965
850.545	17113
850.68	17124
850.815	17136
850.95	17094
851.085	17231
851.22	17242
851.355	17117
851.49	17208
851.625	17162
851.76	17075
851.895	17006
852.03	16961
852.165	17094
852.299	17227
852.434	17231
852.569	17280
852.703	17223
852.838	17284
852.973	17299
853.107	17318
853.242	17132
853.376	16995
853.511	16919
853.645	17033
853.78	17231
853.914	17113
854.048	17136
854.183	17128
854.317	17102
854.451	17239
854.585	17071
854.72	16995
854.854	17155
854.988	16946
855.122	17029
855.256	16919
855.39	17079
855.524	16965
855.658	17102
855.792	17014
855.926	17090
856.06	17022
856.194	17060
856.327	16991
856.461	16976
856.595	16915
856.729	16908
856.862	17067
856.996	16987
857.13	17071
857.263	17181
857.397	17060
857.53	16889
857.664	17052
857.797	17033
857.931	17086
858.064	16980
858.197	17037
858.331	16896
858.464	16873
858.597	16858
858.731	16866
858.864	16900
858.997	16869
859.13	16908
859.263	16839
859.396	16930
859.529	17014
859.662	16831
859.795	16812
859.928	16942
860.061	17025
860.194	17029
860.327	16930
860.46	16847
860.592	17018
860.725	17060
860.858	16961
860.99	16900
861.123	16831
861.256	16782
861.388	16930
861.521	17509
861.653	16820
861.786	16755
861.918	16706
862.05	16786
862.183	16850
862.315	16748
862.447	16854
862.58	16831
862.712	16641
862.844	16630
862.976	16687
863.108	16752
863.24	17056
863.372	16512
863.504	16497
863.636	16679
863.768	16725
863.9	16675
864.032	16523
864.164	16432
864.296	16592
864.428	16653
864.559	16577
864.691	16710
864.823	16618
864.954	16618
865.086	16611
865.217	16565
865.349	16516
865.48	16584
865.612	16538
865.743	16679
865.875	16615
866.006	16447
866.137	16535
866.269	16531
866.4	16577
866.531	16516
866.662	16512
866.793	16512
866.924	16519
867.055	16558
867.186	16550
867.317	16451
867.448	16489
867.579	16493
867.71	16500
867.841	16440
867.972	16538
868.103	16596
868.233	16679
868.364	16607
868.495	16558
868.625	16706
868.756	16889
868.886	16782
869.017	16816
869.147	16904
869.278	16885
869.408	16885
869.539	16820
869.669	16843
869.799	16968
869.929	16915
870.06	16938
870.19	17124
870.32	17181
870.45	17071
870.58	17223
870.71	17402
870.84	17296
870.97	17261
871.1	17223
871.23	17326
871.36	17493
871.489	17322
871.619	17341
871.749	17391
871.879	17471
872.008	17455
872.138	17391
872.267	17444
872.397	17429
872.526	17223
872.656	17337
872.785	17356
872.915	17596
873.044	17539
873.173	17474
873.303	17611
873.432	17547
873.561	17691
873.69	17570
873.819	17535
873.948	17684
874.077	17524
874.206	17611
874.335	17634
874.464	17824
874.593	17931
874.722	17824
874.851	17950
874.979	17992
875.108	17912
875.237	17904
875.365	17828
875.494	18026
875.623	18098
875.751	17984
875.88	17965
876.008	18228
876.136	18194
876.265	18494
876.393	18555
876.521	18551
876.65	18608
876.778	18426
876.906	18445
877.034	18471
877.162	18635
877.29	18528
877.418	18547
877.546	18646
877.674	18703
877.802	18738
877.93	18692
878.058	18684
878.185	18798
878.313	18909
878.441	19152
878.568	19046
878.696	19266
878.824	19613
878.951	19989
879.079	20522
879.206	21332
879.333	21930
879.461	22516
879.588	22968
879.715	23006
879.842	22721
879.97	21983
880.097	21085
880.224	20446
880.351	20214
880.478	19894
880.605	19540
880.732	19518
880.859	19632
880.986	19304
881.112	19422
881.239	19240
881.366	19061
881.493	18985
881.619	18981
881.746	19053
881.872	18939
881.999	18901
882.125	18985
882.252	18973
882.378	19053
882.505	19118
882.631	18993
882.757	18757
882.883	18825
883.01	18837
883.136	18692
883.262	18688
883.388	18696
883.514	18916
883.64	18802
883.766	18787
883.892	18639
884.018	18566
884.143	18730
884.269	18996
884.395	18540
884.52	18589
884.646	18433
884.772	18494
884.897	18422
885.023	18513
885.148	18608
885.274	18772
885.399	18757
885.524	18521
885.65	18357
885.775	18330
885.9	18300
886.025	18433
886.15	18186
886.275	18129
886.4	18019
886.525	18087
886.65	18057
886.775	17969
886.9	18015
887.025	18251
887.149	17965
887.274	17790
887.399	17748
887.523	17691
887.648	17577
887.773	17585
887.897	17611
888.021	17661
888.146	17520
888.27	17726
888.395	17661
888.519	17619
888.643	17585
888.767	17589
888.891	17440
889.015	17265
889.139	17231
889.263	17299
889.387	17368
889.511	17474
889.635	17254
889.759	17273
889.883	17258
890.006	17185
890.13	17231
890.254	17212
890.377	17075
890.501	16949
890.624	16927
890.748	17003
890.871	16847
890.995	16740
891.118	16691
891.241	16763
891.364	16725
891.488	16816
891.611	16801
891.734	16748
891.857	16801
891.98	16740
892.103	16801
892.226	16763
892.349	16599
892.471	16493
892.594	16679
892.717	16672
892.839	16588
892.962	16641
893.085	16615
893.207	16538
893.33	16432
893.452	16375
893.575	16626
893.697	16455
893.819	16649
893.941	16782
894.064	16710
894.186	16428
894.308	16489
894.43	16588
894.552	16740
894.674	16599
894.796	16504
894.918	16523
895.04	16527
895.161	16554
895.283	16592
895.405	16481
895.526	16489
895.648	16554
895.769	16599
895.891	16565
896.012	16565
896.134	16584
896.255	16535
896.376	16580
896.498	16561
896.619	16470
896.74	16611
896.861	16687
896.982	16930
897.103	17064
897.224	16847
897.345	16843
897.466	16706
897.587	16782
897.708	16896
897.828	16831
897.949	16691
898.07	16702
898.19	16759
898.311	16869
898.431	16740
898.552	16786
898.672	16797
898.792	16843
898.913	16938
899.033	16790
899.153	16698
899.273	16702
899.393	16615
899.513	16672
899.633	16748
899.753	16691
899.873	16706
899.993	16721
900.113	16588
900.232	16721
900.352	16569
900.472	16580
900.591	16538
900.711	16489
900.83	16367
900.95	16615
901.069	16630
901.189	16447
901.308	16207
901.427	16177
901.546	16192
901.665	16154
901.784	16204
901.904	16044
902.023	16010
902.141	15717
902.26	15660
902.379	15865
902.498	15595
902.617	15675
902.735	15701
902.854	15671
902.973	15633
903.091	15367
903.21	15298
903.328	15310
903.446	15230
903.565	15233
903.683	15192
903.801	15070
903.919	15043
904.038	15138
904.156	14948
904.274	14982
904.392	14853
904.51	14967
904.627	14891
904.745	14967
904.863	14963
904.981	14670
905.098	14541
905.216	14545
905.334	14560
905.451	14571
905.569	14484
905.686	14594
905.803	14488
905.921	14305
906.038	14484
906.155	14339
906.272	14294
906.389	14229
906.506	14065
906.623	14077
906.74	14134
906.857	13944
906.974	14035
907.091	14092
907.208	14282
907.324	14164
907.441	13997
907.557	13742
907.674	13799
907.79	13776
907.907	13841
908.023	13833
908.139	13852
908.256	13723
908.372	13727
908.488	13575
908.604	13613
908.72	13514
908.836	13559
908.952	13472
909.068	13563
909.184	13613
909.3	13502
909.415	13575
909.531	13552
909.647	13415
909.762	13266
909.878	13217
909.993	13369
910.108	13232
910.224	13255
910.339	13244
910.454	13133
910.57	13091
910.685	13004
910.8	13304
910.915	13324
911.03	13133
911.145	12867
911.259	12928
911.374	12920
911.489	12787
911.604	12795
911.718	12677
911.833	12741
911.947	12582
912.062	12555
912.176	12768
912.291	12620
912.405	12631
912.519	12875
912.633	12939
912.748	12730
912.862	12635
912.976	12460
913.09	12460
913.204	12479
913.318	12486
913.431	12601
913.545	12597
913.659	12604
913.772	12502
913.886	12414
914	12391
914.113	12452
914.226	12582
914.34	12498
914.453	12235
914.566	12391
914.68	12327
914.793	12273
914.906	12175
915.019	12091
915.132	11931
915.245	12068
915.358	12213
915.47	12076
915.583	12182
915.696	12129
915.809	12186
915.921	12186
916.034	12030
916.146	11954
916.259	12003
916.371	12110
916.483	12129
916.595	11923
916.708	11958
916.82	11920
916.932	11977
917.044	11958
917.156	11946
917.268	11843
917.38	11866
917.491	11889
917.603	11836
917.715	11916
917.826	11984
917.938	11798
918.049	11760
918.161	11802
918.272	12003
918.384	11935
918.495	11863
918.606	11695
918.717	11592
918.828	11722
918.939	11699
919.05	11554
919.161	11684
919.272	11349
919.383	11532
919.494	11752
919.604	11821
919.715	11649
919.826	11562
919.936	11661
920.047	11695
920.157	11649
920.267	11843
920.378	11619
920.488	11699
920.598	11817
920.708	11958
920.818	11805
920.928	11840
921.038	11988
921.148	11999
921.258	11748
921.368	11653
921.477	11551
921.587	11410
921.697	11341
921.806	11440
921.916	11315
922.025	11193
922.134	11174
922.244	11037
922.353	11147
922.462	10995
922.571	10934
922.68	10809
922.789	10786
922.898	10858
923.007	10759
923.116	10847
923.224	10782
923.333	10847
923.442	10702
923.55	10679
923.659	10733
923.767	10816
923.876	10611
923.984	10771
924.092	10565
924.201	10622
924.309	10645
924.417	10694
924.525	10596
924.633	10550
924.741	11254
924.849	10367
924.956	10531
925.064	10390
925.172	10367
925.279	10363
925.387	10382
925.494	10409
925.602	10558
925.709	10481
925.816	10299
925.924	10333
926.031	10512
926.138	10379
926.245	10470
926.352	10337
926.459	10440
926.566	10497
926.673	10322
926.779	10284
926.886	10246
926.993	10078
927.099	10067
927.206	10055
927.312	9994
927.419	10120
927.525	10051
927.631	10128
927.737	9983
927.843	9987
927.95	9819
928.056	9918
928.162	9956
928.267	9934
928.373	10626
928.479	9983
928.585	9762
928.69	9846
928.796	9918
928.901	9869
929.007	9660
929.112	9816
929.218	9846
929.323	9694
929.428	9679
929.533	9823
929.638	9709
929.743	9728
929.848	9713
929.953	9682
930.058	9595
930.163	9576
930.267	9408
930.372	9633
930.477	9397
930.581	9720
930.685	9580
930.79	9393
930.894	9401
930.998	9405
931.103	9462
931.207	9169
931.311	9150
931.415	8982
931.519	8826
931.623	8861
