Data from test_V78500241_1929.txt Node
Date: Fri Mar 25 14:47:08 CST 2022
User: usil
Spectrometer: V785-0024
Trigger mode: 0
Integration Time (sec): 4.000000E-1
Scans to average: 1
Nonlinearity correction enabled: false
Boxcar width: 0
Storing dark spectrum: false
XAxis mode: Wavelengths
Number of Pixels in Spectrum: 1024
>>>>>Begin Spectral Data<<<<<
801.071	22139
801.214	21911
801.356	21694
801.499	21496
801.641	21412
801.783	21348
801.926	21458
802.068	21367
802.211	21272
802.353	21195
802.496	21093
802.638	20880
802.78	20845
802.923	20811
803.065	20781
803.208	20815
803.35	20773
803.492	20807
803.635	20868
803.777	20853
803.919	20785
804.061	21192
804.204	20895
804.346	20701
804.488	20636
804.63	20773
804.773	20640
804.915	20655
805.057	20743
805.199	20590
805.341	20750
805.483	20769
805.626	20758
805.768	20568
805.91	20727
806.052	20708
806.194	20579
806.336	20914
806.478	20716
806.62	20678
806.762	20743
806.904	20944
807.046	21093
807.188	20910
807.33	20967
807.472	20990
807.614	20963
807.756	20944
807.898	20872
808.04	20693
808.182	20632
808.324	20849
808.465	20735
808.607	20899
808.749	20998
808.891	21138
809.033	21237
809.174	21165
809.316	20990
809.458	21066
809.6	21058
809.741	21043
809.883	21203
810.025	21291
810.166	21135
810.308	21176
810.45	21173
810.591	21036
810.733	20910
810.875	20948
811.016	20720
811.158	20583
811.299	20887
811.441	20937
811.582	20960
811.724	20986
811.865	20857
812.007	20724
812.148	20845
812.29	20785
812.431	21081
812.573	21123
812.714	21249
812.855	21348
812.997	21355
813.138	21469
813.279	21367
813.421	21252
813.562	21165
813.703	21096
813.845	20975
813.986	20648
814.127	20450
814.268	20408
814.41	20301
814.551	20237
814.692	20495
814.833	20271
814.974	20256
815.115	20309
815.256	20244
815.397	20122
815.539	20271
815.68	20103
815.821	20050
815.962	20130
816.103	19947
816.244	19928
816.385	19811
816.526	19799
816.666	19712
816.807	19495
816.948	19628
817.089	19651
817.23	19525
817.371	19563
817.512	19460
817.653	19502
817.793	19422
817.934	19422
818.075	19472
818.216	19506
818.356	19521
818.497	19381
818.638	19129
818.778	19282
818.919	19278
819.06	19217
819.2	19403
819.341	19285
819.481	19293
819.622	19464
819.762	19807
819.903	19651
820.043	19483
820.184	19457
820.324	19495
820.465	19525
820.605	19483
820.746	19430
820.886	19301
821.026	19419
821.167	19476
821.307	19556
821.447	19445
821.588	19308
821.728	19198
821.868	18981
822.008	18920
822.149	18894
822.289	18882
822.429	18620
822.569	18445
822.709	18566
822.849	18296
822.99	18380
823.13	18372
823.27	18426
823.41	18254
823.55	18171
823.69	18201
823.83	18254
823.97	18019
824.11	18034
824.25	17863
824.389	17882
824.529	18079
824.669	17984
824.809	18003
824.949	18026
825.089	18030
825.228	17912
825.368	17866
825.508	17741
825.648	17779
825.787	17805
825.927	17790
826.067	17695
826.206	17741
826.346	17783
826.485	17836
826.625	17809
826.765	17824
826.904	17760
827.044	17547
827.183	17558
827.323	17398
827.462	17463
827.601	17471
827.741	17425
827.88	17436
828.02	17402
828.159	17395
828.298	17391
828.437	17528
828.577	17452
828.716	17608
828.855	17372
828.994	17121
829.134	17246
829.273	17227
829.412	17193
829.551	17288
829.69	17212
829.829	17315
829.968	17387
830.107	17326
830.246	17368
830.385	17140
830.524	17185
830.663	16980
830.802	16991
830.941	16782
831.08	16850
831.219	16869
831.357	16877
831.496	16976
831.635	16885
831.774	16774
831.913	16759
832.051	16527
832.19	16687
832.329	16710
832.467	16554
832.606	16493
832.744	16531
832.883	16550
833.022	16478
833.16	16584
833.299	16550
833.437	16630
833.576	16535
833.714	16622
833.852	16607
833.991	16668
834.129	16698
834.267	16645
834.406	16580
834.544	16584
834.682	16637
834.821	16546
834.959	16790
835.097	16561
835.235	16702
835.373	16630
835.511	16637
835.65	16432
835.788	16527
835.926	16341
836.064	16299
836.202	16337
836.34	16535
836.478	16721
836.615	16405
836.753	16485
836.891	16554
837.029	16542
837.167	16504
837.305	16257
837.443	16440
837.58	16303
837.718	16455
837.856	16276
837.993	16325
838.131	16436
838.269	16306
838.406	16352
838.544	16207
838.681	16154
838.819	15899
838.956	15983
839.094	16029
839.231	15941
839.369	16071
839.506	16337
839.643	16223
839.781	15941
839.918	15895
840.055	15991
840.193	15956
840.33	15892
840.467	15934
840.604	15873
840.742	16223
840.879	15800
841.016	15888
841.153	15846
841.29	16101
841.427	15953
841.564	16036
841.701	15915
841.838	15949
841.975	15899
842.112	15918
842.249	15755
842.385	15686
842.522	15945
842.659	15770
842.796	15728
842.933	15709
843.069	15652
843.206	15606
843.343	15660
843.479	15781
843.616	15584
843.752	15549
843.889	15488
844.025	15606
844.162	15477
844.298	15568
844.435	15564
844.571	15515
844.708	15538
844.844	15648
844.98	15675
845.117	15595
845.253	15443
845.389	15401
845.525	15435
845.661	15424
845.798	15199
845.934	15401
846.07	15268
846.206	15283
846.342	15439
846.478	15287
846.614	15199
846.75	15005
846.886	15097
847.022	15192
847.158	15081
847.294	15119
847.429	15036
847.565	15108
847.701	15355
847.837	14849
847.972	14777
848.108	14895
848.244	14944
848.379	14727
848.515	14724
848.65	14640
848.786	14621
848.921	14674
849.057	14708
849.192	14781
849.328	14689
849.463	14716
849.598	14716
849.734	14629
849.869	14617
850.004	14533
850.14	14507
850.275	14564
850.41	14427
850.545	14476
850.68	14400
850.815	14590
850.95	14450
851.085	14686
851.22	14514
851.355	14454
851.49	14434
851.625	14454
851.76	14404
851.895	14286
852.03	14301
852.165	14427
852.299	14488
852.434	14488
852.569	14442
852.703	14473
852.838	14556
852.973	14560
853.107	14499
853.242	14412
853.376	14309
853.511	14183
853.645	14183
853.78	14396
853.914	14313
854.048	14324
854.183	14324
854.317	14309
854.451	14530
854.585	14377
854.72	14252
854.854	14374
854.988	14244
855.122	14309
855.256	14149
855.39	14271
855.524	14423
855.658	14328
855.792	14278
855.926	14309
856.06	14377
856.194	14396
856.327	14400
856.461	14301
856.595	14275
856.729	14233
856.862	14457
856.996	14404
857.13	14332
857.263	14454
857.397	14446
857.53	14332
857.664	14381
857.797	14423
857.931	14476
858.064	14370
858.197	14381
858.331	14278
858.464	14278
858.597	14328
858.731	14240
858.864	14362
858.997	14320
859.13	14309
859.263	14377
859.396	14374
859.529	14256
859.662	14248
859.795	14358
859.928	14408
860.061	14454
860.194	14579
860.327	14393
860.46	14298
860.592	14408
860.725	14419
860.858	14419
860.99	14294
861.123	14172
861.256	14191
861.388	14267
861.521	15081
861.653	14119
861.786	14218
861.918	14206
862.05	14286
862.183	14298
862.315	14393
862.447	14393
862.58	14309
862.712	14119
862.844	14035
862.976	14180
863.108	14111
863.24	14499
863.372	14050
863.504	14065
863.636	14050
863.768	14221
863.9	14100
864.032	14130
864.164	14123
864.296	14138
864.428	14309
864.559	14256
864.691	14187
864.823	14187
864.954	14111
865.086	14130
865.217	14092
865.349	14065
865.48	14142
865.612	14164
865.743	14134
865.875	14092
866.006	14145
866.137	14107
866.269	14043
866.4	14111
866.531	14054
866.662	13997
866.793	14043
866.924	14077
867.055	14035
867.186	14134
867.317	13978
867.448	13959
867.579	14046
867.71	13986
867.841	14027
867.972	14092
868.103	14123
868.233	14130
868.364	14157
868.495	14119
868.625	14328
868.756	14442
868.886	14252
869.017	14286
869.147	14507
869.278	14492
869.408	14396
869.539	14374
869.669	14404
869.799	14339
869.929	14473
870.06	14480
870.19	14705
870.32	14617
870.45	14720
870.58	14693
870.71	14777
870.84	14838
870.97	14727
871.1	14663
871.23	14849
871.36	14868
871.489	14807
871.619	14910
871.749	14880
871.879	14880
872.008	15024
872.138	14914
872.267	14864
872.397	14834
872.526	14697
872.656	14800
872.785	14750
872.915	14883
873.044	14960
873.173	14990
873.303	14998
873.432	14963
873.561	15047
873.69	14944
873.819	14994
873.948	15188
874.077	14994
874.206	14960
874.335	14990
874.464	15116
874.593	15214
874.722	15207
874.851	15435
874.979	15310
875.108	15306
875.237	15211
875.365	15294
875.494	15230
875.623	15344
875.751	15283
875.88	15351
876.008	15462
876.136	15481
876.265	15816
876.393	15857
876.521	15869
876.65	15888
876.778	15751
876.906	15762
877.034	15625
877.162	15823
877.29	15568
877.418	15755
877.546	15660
877.674	15671
877.802	15774
877.93	15713
878.058	15709
878.185	15614
878.313	15629
878.441	15686
878.568	15526
878.696	15561
878.824	15770
878.951	15743
879.079	15915
879.206	16017
879.333	15941
879.461	15804
879.588	15762
879.715	15941
879.842	15869
879.97	15762
880.097	15530
880.224	15606
880.351	15622
880.478	15648
880.605	15515
880.732	15511
880.859	15827
880.986	15515
881.112	15644
881.239	15477
881.366	15340
881.493	15256
881.619	15214
881.746	15241
881.872	15150
881.999	15233
882.125	15161
882.252	15241
882.378	15260
882.505	15412
882.631	15214
882.757	14929
882.883	15275
883.01	15039
883.136	15070
883.262	14921
883.388	14895
883.514	15039
883.64	15085
883.766	14998
883.892	14872
884.018	14941
884.143	15051
884.269	15104
884.395	14830
884.52	14708
884.646	14724
884.772	14682
884.897	14537
885.023	14651
885.148	14902
885.274	14941
885.399	14716
885.524	14769
885.65	14739
885.775	14746
885.9	14712
886.025	14842
886.15	14857
886.275	14743
886.4	14617
886.525	14659
886.65	14716
886.775	14708
886.9	14796
887.025	14982
887.149	14796
887.274	14587
887.399	14552
887.523	14541
887.648	14465
887.773	14461
887.897	14708
888.021	14602
888.146	14602
888.27	14670
888.395	14701
888.519	14655
888.643	14564
888.767	14632
888.891	14560
889.015	14442
889.139	14518
889.263	14454
889.387	14606
889.511	14583
889.635	14579
889.759	14362
889.883	14461
890.006	14454
890.13	14450
890.254	14320
890.377	14385
890.501	14259
890.624	14256
890.748	14278
890.871	14210
890.995	14073
891.118	13947
891.241	14168
891.364	14130
891.488	14187
891.611	14111
891.734	14119
891.857	14214
891.98	14168
892.103	14172
892.226	14218
892.349	14172
892.471	14008
892.594	14092
892.717	14199
892.839	14054
892.962	14119
893.085	14256
893.207	14065
893.33	13928
893.452	14111
893.575	14252
893.697	14153
893.819	14286
893.941	14275
894.064	14259
894.186	14039
894.308	14103
894.43	14282
894.552	14320
894.674	14149
894.796	14084
894.918	14088
895.04	14210
895.161	14263
895.283	14256
895.405	14202
895.526	14164
895.648	14301
895.769	14252
895.891	14187
896.012	14320
896.134	14278
896.255	14218
896.376	14229
896.498	14305
896.619	14320
896.74	14244
896.861	14404
896.982	14689
897.103	14754
897.224	14575
897.345	14621
897.466	14457
897.587	14564
897.708	14659
897.828	14644
897.949	14522
898.07	14473
898.19	14621
898.311	14617
898.431	14537
898.552	14587
898.672	14712
898.792	14705
898.913	14667
899.033	14636
899.153	14545
899.273	14320
899.393	14480
899.513	14511
899.633	14511
899.753	14583
899.873	14503
899.993	14511
900.113	14492
900.232	14495
900.352	14503
900.472	14446
900.591	14385
900.711	14377
900.83	14324
900.95	14484
901.069	14480
901.189	14206
901.308	14100
901.427	14031
901.546	14115
901.665	14123
901.784	14008
901.904	13936
902.023	13784
902.141	13586
902.26	13601
902.379	13696
902.498	13559
902.617	13533
902.735	13727
902.854	13677
902.973	13426
903.091	13407
903.21	13339
903.328	13335
903.446	13236
903.565	13164
903.683	13129
903.801	13091
903.919	13126
904.038	13190
904.156	13015
904.274	13019
904.392	13004
904.51	13000
904.627	12943
904.745	13000
904.863	13095
904.981	12791
905.098	12688
905.216	12650
905.334	12719
905.451	12677
905.569	12585
905.686	12681
905.803	12684
905.921	12475
906.038	12616
906.155	12547
906.272	12502
906.389	12403
906.506	12262
906.623	12319
906.74	12327
906.857	12121
906.974	12186
907.091	12304
907.208	12391
907.324	12350
907.441	12133
907.557	12083
907.674	11969
907.79	11946
907.907	11965
908.023	12057
908.139	12076
908.256	11942
908.372	11992
908.488	11912
908.604	11859
908.72	11828
908.836	11767
908.952	11741
909.068	11840
909.184	11809
909.3	11741
909.415	11824
909.531	11805
909.647	11608
909.762	11497
909.878	11501
909.993	11611
910.108	11482
910.224	11474
910.339	11573
910.454	11497
910.57	11478
910.685	11318
910.8	11600
910.915	11653
911.03	11467
911.145	11322
911.259	11269
911.374	11330
911.489	11189
911.604	11162
911.718	11003
911.833	10980
911.947	10957
912.062	10889
912.176	10934
912.291	11041
912.405	10991
912.519	11159
912.633	11193
912.748	11117
912.862	10965
912.976	10881
913.09	10812
913.204	10892
913.318	10889
913.431	10987
913.545	10980
913.659	10987
913.772	10858
913.886	10755
914	10782
914.113	10854
914.226	10866
914.34	10927
914.453	10664
914.566	10843
914.68	10725
914.793	10603
914.906	10607
915.019	10512
915.132	10402
915.245	10413
915.358	10485
915.47	10542
915.583	10500
915.696	10615
915.809	10618
915.921	10664
916.034	10504
916.146	10466
916.259	10493
916.371	10588
916.483	10523
916.595	10371
916.708	10500
916.82	10424
916.932	10447
917.044	10417
917.156	10428
917.268	10246
917.38	10306
917.491	10318
917.603	10306
917.715	10504
917.826	10447
917.938	10379
918.049	10215
918.161	10314
918.272	10455
918.384	10443
918.495	10398
918.606	10207
918.717	10261
918.828	10173
918.939	10295
919.05	10074
919.161	10265
919.272	10013
919.383	10048
919.494	10265
919.604	10561
919.715	10242
919.826	10188
919.936	10227
920.047	10337
920.157	10265
920.267	10440
920.378	10261
920.488	10284
920.598	10443
920.708	10554
920.818	10527
920.928	10519
921.038	10584
921.148	10577
921.258	10265
921.368	10147
921.477	10044
921.587	10082
921.697	9937
921.806	10158
921.916	10002
922.025	9808
922.134	9728
922.244	9736
922.353	9823
922.462	9618
922.571	9652
922.68	9568
922.789	9408
922.898	9450
923.007	9450
923.116	9523
923.224	9485
923.333	9504
923.442	9367
923.55	9336
923.659	9370
923.767	9428
923.876	9336
923.984	9428
924.092	9351
924.201	9329
924.309	9359
924.417	9348
924.525	9279
924.633	9336
924.741	10291
924.849	9119
924.956	9279
925.064	9214
925.172	9058
925.279	9100
925.387	9203
925.494	9146
925.602	9249
925.709	9249
925.816	9039
925.924	9116
926.031	9165
926.138	9138
926.245	9123
926.352	9009
926.459	9180
926.566	9199
926.673	9157
926.779	8975
926.886	8963
926.993	8769
927.099	8815
927.206	8750
927.312	8830
927.419	8891
927.525	8876
927.631	8910
927.737	8746
927.843	8727
927.95	8708
928.056	8750
928.162	8716
928.267	8811
928.373	9443
928.479	8845
928.585	8556
928.69	8766
928.796	8773
928.901	8667
929.007	8533
929.112	8640
929.218	8587
929.323	8587
929.428	8575
929.533	8689
929.638	8545
929.743	8556
929.848	8644
929.953	8556
930.058	8507
930.163	8248
930.267	8419
930.372	8469
930.477	8259
930.581	8564
930.685	8408
930.79	8256
930.894	8286
930.998	8263
931.103	8404
931.207	8103
931.311	8005
931.415	8008
931.519	7738
931.623	7750
