Data from test_V78500241_2761.txt Node
Date: Fri Mar 25 14:52:56 CST 2022
User: usil
Spectrometer: V785-0024
Trigger mode: 0
Integration Time (sec): 4.000000E-1
Scans to average: 1
Nonlinearity correction enabled: false
Boxcar width: 0
Storing dark spectrum: false
XAxis mode: Wavelengths
Number of Pixels in Spectrum: 1024
>>>>>Begin Spectral Data<<<<<
801.071	22025
801.214	21865
801.356	21739
801.499	21694
801.641	21473
801.783	21412
801.926	21313
802.068	21317
802.211	21332
802.353	21096
802.496	20944
802.638	20876
802.78	20868
802.923	20735
803.065	20682
803.208	20670
803.35	20708
803.492	20845
803.635	20929
803.777	20697
803.919	20773
804.061	21055
804.204	20727
804.346	20720
804.488	20674
804.63	20716
804.773	20514
804.915	20754
805.057	20804
805.199	20606
805.341	20651
805.483	20724
805.626	20689
805.768	20629
805.91	20575
806.052	20644
806.194	20583
806.336	20815
806.478	20552
806.62	20598
806.762	20773
806.904	20830
807.046	21020
807.188	20948
807.33	21009
807.472	21013
807.614	20902
807.756	20895
807.898	20659
808.04	20769
808.182	20705
808.324	20750
808.465	20743
808.607	20830
808.749	21024
808.891	21058
809.033	21131
809.174	21051
809.316	20849
809.458	20891
809.6	20975
809.741	20971
809.883	21161
810.025	21085
810.166	21207
810.308	21074
810.45	21047
810.591	20948
810.733	20762
810.875	20811
811.016	20708
811.158	20659
811.299	20834
811.441	20895
811.582	20845
811.724	20845
811.865	20716
812.007	20773
812.148	20667
812.29	20788
812.431	20864
812.573	21138
812.714	21195
812.855	21268
812.997	21393
813.138	21500
813.279	21408
813.421	21211
813.562	21184
813.703	21020
813.845	20853
813.986	20629
814.127	20412
814.268	20343
814.41	20332
814.551	20275
814.692	20415
814.833	20126
814.974	20256
815.115	20286
815.256	20248
815.397	20237
815.539	20161
815.68	20107
815.821	19967
815.962	20103
816.103	19944
816.244	19887
816.385	19784
816.526	19738
816.666	19590
816.807	19422
816.948	19563
817.089	19582
817.23	19491
817.371	19480
817.512	19460
817.653	19362
817.793	19407
817.934	19430
818.075	19460
818.216	19514
818.356	19430
818.497	19274
818.638	19050
818.778	19118
818.919	19133
819.06	19232
819.2	19194
819.341	19263
819.481	19373
819.622	19514
819.762	19590
819.903	19491
820.043	19449
820.184	19445
820.324	19327
820.465	19491
820.605	19441
820.746	19434
820.886	19141
821.026	19350
821.167	19362
821.307	19483
821.447	19381
821.588	19293
821.728	19122
821.868	19084
822.008	18837
822.149	18954
822.289	18970
822.429	18722
822.569	18547
822.709	18422
822.849	18357
822.99	18296
823.13	18270
823.27	18224
823.41	18125
823.55	18102
823.69	18136
823.83	18079
823.97	18034
824.11	17935
824.25	17904
824.389	17874
824.529	18053
824.669	17946
824.809	18060
824.949	17939
825.089	17893
825.228	18022
825.368	17649
825.508	17668
825.648	17638
825.787	17767
825.927	17790
826.067	17665
826.206	17562
826.346	17657
826.485	17729
826.625	17699
826.765	17783
826.904	17707
827.044	17406
827.183	17398
827.323	17440
827.462	17497
827.601	17402
827.741	17337
827.88	17474
828.02	17170
828.159	17246
828.298	17372
828.437	17349
828.577	17383
828.716	17505
828.855	17360
828.994	17113
829.134	17109
829.273	17220
829.412	17052
829.551	17052
829.69	17151
829.829	17185
829.968	17200
830.107	17166
830.246	17147
830.385	17071
830.524	17018
830.663	17003
830.802	16869
830.941	16805
831.08	16752
831.219	16797
831.357	16881
831.496	16892
831.635	16675
831.774	16710
831.913	16500
832.051	16626
832.19	16542
832.329	16542
832.467	16325
832.606	16390
832.744	16356
832.883	16436
833.022	16352
833.16	16516
833.299	16485
833.437	16500
833.576	16432
833.714	16546
833.852	16523
833.991	16421
834.129	16542
834.267	16550
834.406	16504
834.544	16481
834.682	16527
834.821	16497
834.959	16675
835.097	16512
835.235	16523
835.373	16531
835.511	16493
835.65	16348
835.788	16432
835.926	16272
836.064	16101
836.202	16306
836.34	16500
836.478	16394
836.615	16360
836.753	16390
836.891	16592
837.029	16379
837.167	16382
837.305	16272
837.443	16249
837.58	16097
837.718	16299
837.856	16272
837.993	16173
838.131	16249
838.269	16169
838.406	16246
838.544	16181
838.681	15926
838.819	15937
838.956	15800
839.094	15663
839.231	15899
839.369	15983
839.506	16166
839.643	16173
839.781	15797
839.918	15766
840.055	15789
840.193	15827
840.33	15789
840.467	15835
840.604	15865
840.742	16116
840.879	15709
841.016	15717
841.153	15732
841.29	15918
841.427	15785
841.564	15846
841.701	15755
841.838	15701
841.975	15717
842.112	15842
842.249	15618
842.385	15595
842.522	15778
842.659	15564
842.796	15595
842.933	15622
843.069	15500
843.206	15561
843.343	15717
843.479	15572
843.616	15648
843.752	15488
843.889	15416
844.025	15473
844.162	15325
844.298	15504
844.435	15420
844.571	15389
844.708	15435
844.844	15572
844.98	15401
845.117	15424
845.253	15291
845.389	15203
845.525	15340
845.661	15317
845.798	15233
845.934	15245
846.07	15154
846.206	15268
846.342	15279
846.478	15245
846.614	15058
846.75	14952
846.886	14918
847.022	14986
847.158	14982
847.294	14941
847.429	14979
847.565	14929
847.701	15203
847.837	14727
847.972	14663
848.108	14788
848.244	14823
848.379	14587
848.515	14636
848.65	14549
848.786	14587
848.921	14507
849.057	14659
849.192	14716
849.328	14602
849.463	14625
849.598	14552
849.734	14438
849.869	14423
850.004	14324
850.14	14362
850.275	14332
850.41	14259
850.545	14351
850.68	14259
850.815	14419
850.95	14339
851.085	14415
851.22	14415
851.355	14351
851.49	14305
851.625	14282
851.76	14351
851.895	14225
852.03	14221
852.165	14229
852.299	14282
852.434	14495
852.569	14362
852.703	14412
852.838	14412
852.973	14438
853.107	14484
853.242	14275
853.376	14244
853.511	14062
853.645	14126
853.78	14324
853.914	14233
854.048	14145
854.183	14153
854.317	14256
854.451	14415
854.585	14221
854.72	14180
854.854	14282
854.988	14111
855.122	14199
855.256	14001
855.39	14161
855.524	14233
855.658	14240
855.792	14233
855.926	14278
856.06	14278
856.194	14393
856.327	14282
856.461	14153
856.595	14126
856.729	14138
856.862	14233
856.996	14282
857.13	14298
857.263	14267
857.397	14362
857.53	14199
857.664	14248
857.797	14202
857.931	14332
858.064	14199
858.197	14298
858.331	14248
858.464	14176
858.597	14081
858.731	14134
858.864	14084
858.997	14145
859.13	14149
859.263	14142
859.396	14358
859.529	14214
859.662	14164
859.795	14084
859.928	14237
860.061	14309
860.194	14320
860.327	14225
860.46	14134
860.592	14256
860.725	14381
860.858	14339
860.99	14195
861.123	14100
861.256	14130
861.388	14225
861.521	14842
861.653	14149
861.786	14008
861.918	14119
862.05	14142
862.183	14069
862.315	14248
862.447	14263
862.58	14157
862.712	14027
862.844	13940
862.976	14088
863.108	14008
863.24	14461
863.372	13913
863.504	14012
863.636	13986
863.768	13989
863.9	14054
864.032	14005
864.164	14016
864.296	13993
864.428	14134
864.559	14100
864.691	14100
864.823	14039
864.954	13944
865.086	14008
865.217	14005
865.349	13909
865.48	13913
865.612	13967
865.743	14001
865.875	14001
866.006	14035
866.137	14031
866.269	13967
866.4	13932
866.531	13894
866.662	13811
866.793	13890
866.924	13959
867.055	13917
867.186	13967
867.317	13951
867.448	13830
867.579	13871
867.71	13936
867.841	13925
867.972	14008
868.103	13936
868.233	14031
868.364	14005
868.495	14130
868.625	14126
868.756	14343
868.886	14084
869.017	14301
869.147	14347
869.278	14381
869.408	14214
869.539	14271
869.669	14305
869.799	14180
869.929	14396
870.06	14290
870.19	14571
870.32	14484
870.45	14617
870.58	14617
870.71	14701
870.84	14724
870.97	14594
871.1	14625
871.23	14857
871.36	14701
871.489	14724
871.619	14792
871.749	14800
871.879	14830
872.008	14876
872.138	14796
872.267	14743
872.397	14648
872.526	14708
872.656	14651
872.785	14617
872.915	14811
873.044	14883
873.173	14792
873.303	14750
873.432	14883
873.561	14956
873.69	14872
873.819	14880
873.948	14937
874.077	14853
874.206	14906
874.335	14982
874.464	15005
874.593	15169
874.722	15051
874.851	15222
874.979	15184
875.108	15214
875.237	15089
875.365	15097
875.494	15195
875.623	15245
875.751	15123
875.88	15203
876.008	15329
876.136	15443
876.265	15599
876.393	15686
876.521	15682
876.65	15762
876.778	15701
876.906	15660
877.034	15667
877.162	15644
877.29	15553
877.418	15641
877.546	15542
877.674	15675
877.802	15542
877.93	15610
878.058	15633
878.185	15473
878.313	15530
878.441	15656
878.568	15401
878.696	15511
878.824	15572
878.951	15610
879.079	15656
879.206	15994
879.333	15736
879.461	15644
879.588	15793
879.715	15865
879.842	15797
879.97	15656
880.097	15382
880.224	15561
880.351	15439
880.478	15355
880.605	15485
880.732	15576
880.859	15713
880.986	15549
881.112	15511
881.239	15355
881.366	15283
881.493	15207
881.619	15138
881.746	15150
881.872	15135
881.999	15093
882.125	15058
882.252	15116
882.378	15032
882.505	15298
882.631	15097
882.757	14998
882.883	15024
883.01	14868
883.136	14872
883.262	14739
883.388	14796
883.514	14975
883.64	14986
883.766	14906
883.892	14777
884.018	14807
884.143	14887
884.269	15081
884.395	14716
884.52	14716
884.646	14575
884.772	14613
884.897	14533
885.023	14701
885.148	14712
885.274	14648
885.399	14765
885.524	14758
885.65	14644
885.775	14644
885.9	14564
886.025	14750
886.15	14731
886.275	14617
886.4	14575
886.525	14552
886.65	14606
886.775	14537
886.9	14792
887.025	14899
887.149	14632
887.274	14473
887.399	14461
887.523	14408
887.648	14434
887.773	14332
887.897	14511
888.021	14514
888.146	14400
888.27	14545
888.395	14629
888.519	14518
888.643	14488
888.767	14583
888.891	14400
889.015	14351
889.139	14351
889.263	14355
889.387	14473
889.511	14606
889.635	14461
889.759	14275
889.883	14290
890.006	14415
890.13	14400
890.254	14221
890.377	14278
890.501	14130
890.624	14180
890.748	14195
890.871	14164
890.995	13902
891.118	13906
891.241	13967
891.364	14039
891.488	14202
891.611	14012
891.734	14024
891.857	14084
891.98	14050
892.103	13970
892.226	14119
892.349	14027
892.471	13921
892.594	13982
892.717	14020
892.839	14016
892.962	13959
893.085	14123
893.207	13989
893.33	13883
893.452	13944
893.575	14062
893.697	14012
893.819	14142
893.941	14301
894.064	14225
894.186	14008
894.308	13978
894.43	14126
894.552	14263
894.674	14206
894.796	14069
894.918	13986
895.04	14065
895.161	14195
895.283	14157
895.405	14012
895.526	14142
895.648	14145
895.769	14202
895.891	14130
896.012	14305
896.134	14286
896.255	14233
896.376	14164
896.498	14301
896.619	14275
896.74	14225
896.861	14317
896.982	14640
897.103	14819
897.224	14564
897.345	14473
897.466	14415
897.587	14488
897.708	14602
897.828	14495
897.949	14423
898.07	14358
898.19	14393
898.311	14613
898.431	14495
898.552	14537
898.672	14522
898.792	14640
898.913	14583
899.033	14507
899.153	14461
899.273	14313
899.393	14400
899.513	14404
899.633	14507
899.753	14434
899.873	14336
899.993	14446
900.113	14351
900.232	14461
900.352	14351
900.472	14332
900.591	14278
900.711	14298
900.83	14206
900.95	14336
901.069	14396
901.189	14191
901.308	13986
901.427	13967
901.546	13917
901.665	13959
901.784	13936
901.904	13852
902.023	13791
902.141	13613
902.26	13567
902.379	13674
902.498	13575
902.617	13521
902.735	13540
902.854	13521
902.973	13422
903.091	13297
903.21	13198
903.328	13308
903.446	13126
903.565	13107
903.683	13095
903.801	13023
903.919	13145
904.038	13031
904.156	12916
904.274	13019
904.392	12852
904.51	12837
904.627	13015
904.745	12970
904.863	13034
904.981	12707
905.098	12589
905.216	12627
905.334	12608
905.451	12700
905.569	12559
905.686	12585
905.803	12601
905.921	12391
906.038	12486
906.155	12418
906.272	12296
906.389	12346
906.506	12300
906.623	12194
906.74	12194
906.857	12125
906.974	12243
907.091	12277
907.208	12357
907.324	12155
907.441	12167
907.557	11923
907.674	11946
907.79	11885
907.907	11878
908.023	11996
908.139	12030
908.256	11931
908.372	11847
908.488	11805
908.604	11729
908.72	11623
908.836	11745
908.952	11661
909.068	11737
909.184	11779
909.3	11775
909.415	11752
909.531	11649
909.647	11547
909.762	11448
909.878	11410
909.993	11398
910.108	11471
910.224	11467
910.339	11493
910.454	11349
910.57	11364
910.685	11151
910.8	11585
910.915	11455
911.03	11356
911.145	11235
911.259	11189
911.374	11159
911.489	11041
911.604	11079
911.718	10976
911.833	11003
911.947	10885
912.062	10782
912.176	10831
912.291	10904
912.405	11041
912.519	11117
912.633	11086
912.748	11006
912.862	10885
912.976	10805
913.09	10702
913.204	10782
913.318	10869
913.431	10900
913.545	10862
913.659	10843
913.772	10774
913.886	10683
914	10653
914.113	10801
914.226	10831
914.34	10774
914.453	10519
914.566	10733
914.68	10683
914.793	10611
914.906	10497
915.019	10402
915.132	10306
915.245	10405
915.358	10470
915.47	10455
915.583	10565
915.696	10489
915.809	10634
915.921	10611
916.034	10535
916.146	10325
916.259	10409
916.371	10417
916.483	10440
916.595	10356
916.708	10379
916.82	10375
916.932	10367
917.044	10409
917.156	10360
917.268	10318
917.38	10318
917.491	10299
917.603	10322
917.715	10421
917.826	10356
917.938	10291
918.049	10131
918.161	10227
918.272	10363
918.384	10363
918.495	10265
918.606	10143
918.717	10135
918.828	10158
918.939	10192
919.05	10078
919.161	10128
919.272	9956
919.383	10131
919.494	10185
919.604	10417
919.715	10223
919.826	10150
919.936	10162
920.047	10284
920.157	10143
920.267	10409
920.378	10204
920.488	10207
920.598	10375
920.708	10481
920.818	10363
920.928	10341
921.038	10569
921.148	10424
921.258	10227
921.368	10143
921.477	10082
921.587	10067
921.697	9888
921.806	10086
921.916	9953
922.025	9747
922.134	9652
922.244	9656
922.353	9736
922.462	9618
922.571	9679
922.68	9401
922.789	9321
922.898	9523
923.007	9313
923.116	9504
923.224	9435
923.333	9443
923.442	9344
923.55	9272
923.659	9332
923.767	9374
923.876	9313
923.984	9401
924.092	9275
924.201	9336
924.309	9302
924.417	9405
924.525	9275
924.633	9211
924.741	10074
924.849	9070
924.956	9241
925.064	9074
925.172	8963
925.279	9146
925.387	9161
925.494	9123
925.602	9173
925.709	9176
925.816	9066
925.924	9097
926.031	9180
926.138	9043
926.245	9256
926.352	8967
926.459	9173
926.566	9097
926.673	9062
926.779	8944
926.886	9024
926.993	8781
927.099	8785
927.206	8708
927.312	8743
927.419	8872
927.525	8830
927.631	8815
927.737	8727
927.843	8705
927.95	8606
928.056	8686
928.162	8701
928.267	8708
928.373	9431
928.479	8762
928.585	8663
928.69	8697
928.796	8807
928.901	8625
929.007	8469
929.112	8598
929.218	8575
929.323	8514
929.428	8457
929.533	8701
929.638	8400
929.743	8446
929.848	8522
929.953	8446
930.058	8461
930.163	8267
930.267	8374
930.372	8431
930.477	8233
930.581	8522
930.685	8301
930.79	8294
930.894	8259
930.998	8157
931.103	8408
931.207	8012
931.311	7989
931.415	7940
931.519	7772
931.623	7769
