Data from test_V78500241_2625.txt Node
Date: Fri Mar 25 14:51:59 CST 2022
User: usil
Spectrometer: V785-0024
Trigger mode: 0
Integration Time (sec): 4.000000E-1
Scans to average: 1
Nonlinearity correction enabled: false
Boxcar width: 0
Storing dark spectrum: false
XAxis mode: Wavelengths
Number of Pixels in Spectrum: 1024
>>>>>Begin Spectral Data<<<<<
801.071	22044
801.214	21781
801.356	21637
801.499	21675
801.641	21542
801.783	21321
801.926	21447
802.068	21408
802.211	21214
802.353	21157
802.496	20986
802.638	21062
802.78	20944
802.923	20785
803.065	20743
803.208	20659
803.35	20773
803.492	20880
803.635	20815
803.777	20674
803.919	20762
804.061	21142
804.204	20735
804.346	20739
804.488	20602
804.63	20663
804.773	20659
804.915	20689
805.057	20659
805.199	20545
805.341	20651
805.483	20716
805.626	20594
805.768	20514
805.91	20663
806.052	20590
806.194	20514
806.336	20682
806.478	20564
806.62	20598
806.762	20674
806.904	20762
807.046	21020
807.188	20998
807.33	20918
807.472	20948
807.614	20872
807.756	20743
807.898	20758
808.04	20678
808.182	20708
808.324	20621
808.465	20781
808.607	20914
808.749	20899
808.891	21089
809.033	21146
809.174	20941
809.316	20967
809.458	20925
809.6	20910
809.741	21066
809.883	21077
810.025	21066
810.166	21207
810.308	21123
810.45	21096
810.591	20982
810.733	20937
810.875	20876
811.016	20705
811.158	20632
811.299	20777
811.441	20826
811.582	20876
811.724	20750
811.865	20575
812.007	20857
812.148	20769
812.29	20838
812.431	20918
812.573	21081
812.714	21142
812.855	21176
812.997	21321
813.138	21382
813.279	21340
813.421	21093
813.562	21135
813.703	20956
813.845	20921
813.986	20537
814.127	20514
814.268	20328
814.41	20252
814.551	20309
814.692	20408
814.833	20278
814.974	20282
815.115	20290
815.256	20081
815.397	20180
815.539	20225
815.68	20161
815.821	19921
815.962	19989
816.103	20024
816.244	19879
816.385	19814
816.526	19605
816.666	19620
816.807	19339
816.948	19537
817.089	19415
817.23	19567
817.371	19426
817.512	19377
817.653	19369
817.793	19362
817.934	19438
818.075	19400
818.216	19381
818.356	19304
818.497	19274
818.638	18989
818.778	19103
818.919	19069
819.06	18977
819.2	19259
819.341	19316
819.481	19373
819.622	19365
819.762	19556
819.903	19441
820.043	19445
820.184	19381
820.324	19343
820.465	19537
820.605	19358
820.746	19392
820.886	19263
821.026	19362
821.167	19297
821.307	19521
821.447	19346
821.588	19236
821.728	19240
821.868	19046
822.008	18890
822.149	18757
822.289	18749
822.429	18563
822.569	18445
822.709	18361
822.849	18334
822.99	18338
823.13	18350
823.27	18209
823.41	18106
823.55	18057
823.69	18114
823.83	18159
823.97	17996
824.11	17946
824.25	17847
824.389	17813
824.529	17996
824.669	17904
824.809	17969
824.949	17969
825.089	17920
825.228	17977
825.368	17687
825.508	17805
825.648	17665
825.787	17672
825.927	17752
826.067	17627
826.206	17627
826.346	17653
826.485	17653
826.625	17581
826.765	17748
826.904	17642
827.044	17349
827.183	17406
827.323	17200
827.462	17452
827.601	17364
827.741	17265
827.88	17436
828.02	17208
828.159	17368
828.298	17391
828.437	17562
828.577	17345
828.716	17444
828.855	17299
828.994	17113
829.134	17045
829.273	17143
829.412	17140
829.551	17060
829.69	17094
829.829	17151
829.968	17193
830.107	17223
830.246	17121
830.385	16957
830.524	17048
830.663	17006
830.802	16881
830.941	16778
831.08	16706
831.219	16748
831.357	16869
831.496	16843
831.635	16706
831.774	16641
831.913	16622
832.051	16417
832.19	16584
832.329	16542
832.467	16428
832.606	16440
832.744	16409
832.883	16466
833.022	16455
833.16	16443
833.299	16573
833.437	16443
833.576	16546
833.714	16497
833.852	16489
833.991	16424
834.129	16577
834.267	16451
834.406	16523
834.544	16584
834.682	16565
834.821	16363
834.959	16592
835.097	16577
835.235	16672
835.373	16455
835.511	16561
835.65	16527
835.788	16417
835.926	16124
836.064	16257
836.202	16284
836.34	16402
836.478	16500
836.615	16390
836.753	16440
836.891	16531
837.029	16402
837.167	16375
837.305	16382
837.443	16367
837.58	16215
837.718	16348
837.856	16348
837.993	16246
838.131	16314
838.269	16093
838.406	16242
838.544	16131
838.681	16063
838.819	15983
838.956	15838
839.094	15793
839.231	16006
839.369	16006
839.506	16166
839.643	16105
839.781	15785
839.918	15800
840.055	15949
840.193	15778
840.33	15865
840.467	15819
840.604	15880
840.742	16105
840.879	15747
841.016	15762
841.153	15663
841.29	15998
841.427	15918
841.564	15903
841.701	15869
841.838	15717
841.975	15701
842.112	15823
842.249	15660
842.385	15504
842.522	15789
842.659	15568
842.796	15709
842.933	15625
843.069	15572
843.206	15515
843.343	15652
843.479	15622
843.616	15675
843.752	15447
843.889	15412
844.025	15545
844.162	15439
844.298	15469
844.435	15405
844.571	15382
844.708	15439
844.844	15515
844.98	15557
845.117	15439
845.253	15313
845.389	15348
845.525	15340
845.661	15298
845.798	15203
845.934	15260
846.07	15161
846.206	15241
846.342	15321
846.478	15233
846.614	15017
846.75	14952
846.886	14880
847.022	15066
847.158	14921
847.294	15047
847.429	15036
847.565	14918
847.701	15211
847.837	14773
847.972	14632
848.108	14792
848.244	14804
848.379	14674
848.515	14552
848.65	14530
848.786	14583
848.921	14564
849.057	14629
849.192	14625
849.328	14625
849.463	14564
849.598	14575
849.734	14530
849.869	14564
850.004	14320
850.14	14404
850.275	14404
850.41	14294
850.545	14332
850.68	14370
850.815	14434
850.95	14396
851.085	14454
851.22	14389
851.355	14381
851.49	14351
851.625	14275
851.76	14290
851.895	14256
852.03	14278
852.165	14351
852.299	14324
852.434	14415
852.569	14358
852.703	14347
852.838	14362
852.973	14431
853.107	14434
853.242	14278
853.376	14286
853.511	14168
853.645	14115
853.78	14419
853.914	14244
854.048	14168
854.183	14305
854.317	14199
854.451	14469
854.585	14111
854.72	14252
854.854	14176
854.988	14138
855.122	14202
855.256	14016
855.39	14278
855.524	14320
855.658	14301
855.792	14187
855.926	14328
856.06	14259
856.194	14320
856.327	14252
856.461	14164
856.595	14282
856.729	14138
856.862	14320
856.996	14256
857.13	14275
857.263	14282
857.397	14355
857.53	14191
857.664	14244
857.797	14278
857.931	14256
858.064	14187
858.197	14381
858.331	14191
858.464	14233
858.597	14092
858.731	14244
858.864	14233
858.997	14157
859.13	14271
859.263	14305
859.396	14328
859.529	14229
859.662	14168
859.795	14157
859.928	14244
860.061	14396
860.194	14412
860.327	14221
860.46	14229
860.592	14259
860.725	14317
860.858	14286
860.99	14290
861.123	14168
861.256	14172
861.388	14237
861.521	14876
861.653	14180
861.786	14024
861.918	14058
862.05	14145
862.183	14153
862.315	14218
862.447	14298
862.58	14172
862.712	14024
862.844	14012
862.976	14005
863.108	14050
863.24	14404
863.372	13959
863.504	14012
863.636	13989
863.768	14027
863.9	14046
864.032	13868
864.164	14020
864.296	14024
864.428	14111
864.559	14145
864.691	14043
864.823	14031
864.954	14130
865.086	14073
865.217	13993
865.349	13887
865.48	14031
865.612	13997
865.743	14149
865.875	13959
866.006	14001
866.137	13989
866.269	13989
866.4	13947
866.531	13951
866.662	13906
866.793	13921
866.924	13879
867.055	13982
867.186	13970
867.317	13986
867.448	13875
867.579	13978
867.71	13906
867.841	13925
867.972	13909
868.103	13978
868.233	14065
868.364	13875
868.495	14081
868.625	14210
868.756	14317
868.886	14176
869.017	14187
869.147	14370
869.278	14362
869.408	14240
869.539	14259
869.669	14168
869.799	14240
869.929	14332
870.06	14362
870.19	14701
870.32	14476
870.45	14610
870.58	14575
870.71	14765
870.84	14731
870.97	14617
871.1	14640
871.23	14781
871.36	14754
871.489	14682
871.619	14823
871.749	14796
871.879	14887
872.008	14880
872.138	14845
872.267	14735
872.397	14739
872.526	14689
872.656	14701
872.785	14640
872.915	14914
873.044	14982
873.173	14849
873.303	14880
873.432	14998
873.561	14887
873.69	14948
873.819	14902
873.948	14979
874.077	14880
874.206	14853
874.335	14929
874.464	14967
874.593	15184
874.722	15199
874.851	15199
874.979	15264
875.108	15226
875.237	15135
875.365	15066
875.494	15123
875.623	15294
875.751	15161
875.88	15283
876.008	15325
876.136	15504
876.265	15606
876.393	15797
876.521	15774
876.65	15739
876.778	15641
876.906	15496
877.034	15557
877.162	15644
877.29	15511
877.418	15599
877.546	15686
877.674	15568
877.802	15576
877.93	15553
878.058	15614
878.185	15530
878.313	15625
878.441	15614
878.568	15450
878.696	15526
878.824	15542
878.951	15686
879.079	15781
879.206	15922
879.333	15846
879.461	15705
879.588	15633
879.715	15823
879.842	15854
879.97	15698
880.097	15530
880.224	15424
880.351	15469
880.478	15447
880.605	15553
880.732	15469
880.859	15724
880.986	15462
881.112	15572
881.239	15424
881.366	15241
881.493	15127
881.619	15070
881.746	15097
881.872	15127
881.999	15104
882.125	15176
882.252	15100
882.378	15154
882.505	15230
882.631	15104
882.757	15066
882.883	14944
883.01	14967
883.136	14876
883.262	14857
883.388	14853
883.514	14979
883.64	15074
883.766	14990
883.892	14785
884.018	14819
884.143	14944
884.269	15051
884.395	14640
884.52	14621
884.646	14655
884.772	14564
884.897	14541
885.023	14724
885.148	14792
885.274	14887
885.399	14746
885.524	14613
885.65	14670
885.775	14625
885.9	14568
886.025	14792
886.15	14758
886.275	14640
886.4	14560
886.525	14617
886.65	14530
886.775	14488
886.9	14746
887.025	14914
887.149	14667
887.274	14560
887.399	14450
887.523	14488
887.648	14381
887.773	14351
887.897	14571
888.021	14522
888.146	14438
888.27	14522
888.395	14610
888.519	14514
888.643	14499
888.767	14484
888.891	14419
889.015	14355
889.139	14347
889.263	14328
889.387	14400
889.511	14511
889.635	14503
889.759	14301
889.883	14328
890.006	14355
890.13	14473
890.254	14225
890.377	14248
890.501	14161
890.624	14005
890.748	14164
890.871	14164
890.995	13974
891.118	14065
891.241	14005
891.364	14062
891.488	14210
891.611	14088
891.734	13932
891.857	14081
891.98	14107
892.103	14149
892.226	14058
892.349	13944
892.471	13883
892.594	14020
892.717	14073
892.839	14065
892.962	14043
893.085	14172
893.207	14084
893.33	13936
893.452	13982
893.575	14096
893.697	14024
893.819	14244
893.941	14294
894.064	14233
894.186	14035
894.308	14039
894.43	14240
894.552	14278
894.674	14229
894.796	13925
894.918	14210
895.04	14073
895.161	14225
895.283	14214
895.405	14031
895.526	14149
895.648	14210
895.769	14195
895.891	14202
896.012	14298
896.134	14309
896.255	14309
896.376	14145
896.498	14225
896.619	14206
896.74	14187
896.861	14240
896.982	14560
897.103	14788
897.224	14568
897.345	14438
897.466	14427
897.587	14499
897.708	14640
897.828	14530
897.949	14461
898.07	14507
898.19	14431
898.311	14670
898.431	14560
898.552	14606
898.672	14644
898.792	14598
898.913	14708
899.033	14518
899.153	14412
899.273	14393
899.393	14355
899.513	14408
899.633	14492
899.753	14450
899.873	14389
899.993	14423
900.113	14385
900.232	14545
900.352	14385
900.472	14278
900.591	14313
900.711	14351
900.83	14240
900.95	14389
901.069	14377
901.189	14229
901.308	13970
901.427	13887
901.546	13932
901.665	13959
901.784	13982
901.904	13818
902.023	13791
902.141	13616
902.26	13643
902.379	13578
902.498	13514
902.617	13491
902.735	13567
902.854	13548
902.973	13499
903.091	13289
903.21	13164
903.328	13278
903.446	13126
903.565	13114
903.683	13095
903.801	13061
903.919	13110
904.038	13023
904.156	12863
904.274	13031
904.392	12817
904.51	12954
904.627	12878
904.745	12951
904.863	13015
904.981	12688
905.098	12654
905.216	12608
905.334	12650
905.451	12673
905.569	12673
905.686	12635
905.803	12627
905.921	12395
906.038	12498
906.155	12433
906.272	12338
906.389	12346
906.506	12186
906.623	12144
906.74	12258
906.857	12019
906.974	12125
907.091	12258
907.208	12330
907.324	12243
907.441	12220
907.557	11904
907.674	11923
907.79	11798
907.907	11840
908.023	11950
908.139	11973
908.256	11958
908.372	11931
908.488	11851
908.604	11726
908.72	11634
908.836	11741
908.952	11589
909.068	11828
909.184	11802
909.3	11756
909.415	11726
909.531	11802
909.647	11512
909.762	11512
909.878	11387
909.993	11497
910.108	11425
910.224	11532
910.339	11482
910.454	11406
910.57	11284
910.685	11299
910.8	11543
910.915	11417
911.03	11315
911.145	11212
911.259	11189
911.374	11166
911.489	11094
911.604	11067
911.718	10938
911.833	10881
911.947	10805
912.062	10725
912.176	10965
912.291	11014
912.405	10923
912.519	11121
912.633	11204
912.748	11022
912.862	10934
912.976	10824
913.09	10634
913.204	10725
913.318	10824
913.431	10881
913.545	10892
913.659	11003
913.772	10881
913.886	10721
914	10706
914.113	10767
914.226	10843
914.34	10755
914.453	10714
914.566	10797
914.68	10618
914.793	10687
914.906	10394
915.019	10363
915.132	10421
915.245	10497
915.358	10405
915.47	10421
915.583	10500
915.696	10542
915.809	10538
915.921	10649
916.034	10470
916.146	10485
916.259	10363
916.371	10436
916.483	10428
916.595	10447
916.708	10398
916.82	10310
916.932	10421
917.044	10402
917.156	10352
917.268	10299
917.38	10299
917.491	10227
917.603	10310
917.715	10371
917.826	10394
917.938	10227
918.049	10169
918.161	10234
918.272	10447
918.384	10527
918.495	10379
918.606	10120
918.717	10078
918.828	10234
918.939	10223
919.05	10120
919.161	10147
919.272	9934
919.383	10029
919.494	10253
919.604	10402
919.715	10272
919.826	10059
919.936	10162
920.047	10291
920.157	10227
920.267	10363
920.378	10284
920.488	10223
920.598	10367
920.708	10554
920.818	10413
920.928	10344
921.038	10470
921.148	10538
921.258	10173
921.368	10150
921.477	10025
921.587	10013
921.697	9930
921.806	10082
921.916	9880
922.025	9770
922.134	9770
922.244	9667
922.353	9759
922.462	9652
922.571	9595
922.68	9458
922.789	9447
922.898	9473
923.007	9367
923.116	9485
923.224	9397
923.333	9424
923.442	9378
923.55	9313
923.659	9317
923.767	9382
923.876	9245
923.984	9340
924.092	9260
924.201	9351
924.309	9256
924.417	9325
924.525	9332
924.633	9237
924.741	10006
924.849	9058
924.956	9237
925.064	9085
925.172	9036
925.279	9047
925.387	9154
925.494	9146
925.602	9279
925.709	9150
925.816	9013
925.924	9070
926.031	9226
926.138	9066
926.245	9146
926.352	8994
926.459	9226
926.566	9195
926.673	9085
926.779	8921
926.886	8895
926.993	8811
927.099	8891
927.206	8735
927.312	8754
927.419	8929
927.525	8819
927.631	8861
927.737	8785
927.843	8804
927.95	8541
928.056	8613
928.162	8701
928.267	8716
928.373	9386
928.479	8830
928.585	8541
928.69	8743
928.796	8777
928.901	8625
929.007	8507
929.112	8636
929.218	8629
929.323	8473
929.428	8568
929.533	8663
929.638	8507
929.743	8514
929.848	8594
929.953	8454
930.058	8480
930.163	8267
930.267	8294
930.372	8465
930.477	8267
930.581	8488
930.685	8393
930.79	8210
930.894	8248
930.998	8279
931.103	8404
931.207	8088
931.311	7936
931.415	7951
931.519	7742
931.623	7765
