Data from test_V78500241_2044.txt Node
Date: Fri Mar 25 14:47:56 CST 2022
User: usil
Spectrometer: V785-0024
Trigger mode: 0
Integration Time (sec): 4.000000E-1
Scans to average: 1
Nonlinearity correction enabled: false
Boxcar width: 0
Storing dark spectrum: false
XAxis mode: Wavelengths
Number of Pixels in Spectrum: 1024
>>>>>Begin Spectral Data<<<<<
801.071	22059
801.214	21968
801.356	21747
801.499	21637
801.641	21534
801.783	21473
801.926	21500
802.068	21332
802.211	21279
802.353	21317
802.496	21154
802.638	21043
802.78	20963
802.923	20876
803.065	20868
803.208	20731
803.35	20876
803.492	20861
803.635	20921
803.777	20762
803.919	20811
804.061	21237
804.204	20876
804.346	20750
804.488	20667
804.63	20773
804.773	20651
804.915	20617
805.057	20777
805.199	20636
805.341	20815
805.483	20887
805.626	20929
805.768	20663
805.91	20777
806.052	20731
806.194	20621
806.336	20800
806.478	20708
806.62	20788
806.762	20705
806.904	20883
807.046	21058
807.188	21001
807.33	21020
807.472	21066
807.614	20937
807.756	20883
807.898	20925
808.04	20731
808.182	20708
808.324	20853
808.465	21013
808.607	21039
808.749	21245
808.891	21100
809.033	21321
809.174	21199
809.316	21146
809.458	21009
809.6	20876
809.741	21112
809.883	21222
810.025	21310
810.166	21154
810.308	21287
810.45	21184
810.591	21055
810.733	21039
810.875	20933
811.016	20800
811.158	20823
811.299	20811
811.441	20971
811.582	21066
811.724	20933
811.865	20811
812.007	20880
812.148	20861
812.29	20910
812.431	21070
812.573	21207
812.714	21230
812.855	21355
812.997	21485
813.138	21561
813.279	21393
813.421	21431
813.562	21199
813.703	21074
813.845	21032
813.986	20845
814.127	20537
814.268	20400
814.41	20488
814.551	20442
814.692	20427
814.833	20347
814.974	20309
815.115	20450
815.256	20282
815.397	20317
815.539	20240
815.68	20187
815.821	20027
815.962	20168
816.103	20005
816.244	19993
816.385	19940
816.526	19811
816.666	19723
816.807	19616
816.948	19700
817.089	19658
817.23	19552
817.371	19540
817.512	19464
817.653	19590
817.793	19597
817.934	19567
818.075	19605
818.216	19449
818.356	19544
818.497	19396
818.638	19285
818.778	19225
818.919	19156
819.06	19274
819.2	19411
819.341	19445
819.481	19438
819.622	19590
819.762	19738
819.903	19727
820.043	19708
820.184	19594
820.324	19441
820.465	19590
820.605	19594
820.746	19422
820.886	19392
821.026	19582
821.167	19495
821.307	19556
821.447	19510
821.588	19419
821.728	19228
821.868	19107
822.008	19019
822.149	18951
822.289	18859
822.429	18734
822.569	18665
822.709	18578
822.849	18467
822.99	18483
823.13	18403
823.27	18551
823.41	18228
823.55	18186
823.69	18281
823.83	18319
823.97	18178
824.11	18053
824.25	17965
824.389	18038
824.529	18095
824.669	18049
824.809	18178
824.949	18079
825.089	18194
825.228	18034
825.368	17832
825.508	17817
825.648	17946
825.787	17916
825.927	17878
826.067	17695
826.206	17779
826.346	17904
826.485	17851
826.625	17786
826.765	17863
826.904	17859
827.044	17642
827.183	17455
827.323	17490
827.462	17668
827.601	17505
827.741	17474
827.88	17539
828.02	17417
828.159	17528
828.298	17512
828.437	17581
828.577	17539
828.716	17581
828.855	17509
828.994	17326
829.134	17307
829.273	17345
829.412	17231
829.551	17204
829.69	17231
829.829	17239
829.968	17277
830.107	17273
830.246	17231
830.385	17143
830.524	17155
830.663	17166
830.802	17056
830.941	16911
831.08	16900
831.219	17018
831.357	16965
831.496	17071
831.635	16854
831.774	16900
831.913	16839
832.051	16736
832.19	16698
832.329	16752
832.467	16649
832.606	16580
832.744	16615
832.883	16546
833.022	16592
833.16	16554
833.299	16672
833.437	16698
833.576	16554
833.714	16558
833.852	16812
833.991	16687
834.129	16816
834.267	16672
834.406	16668
834.544	16729
834.682	16694
834.821	16729
834.959	16759
835.097	16588
835.235	16805
835.373	16656
835.511	16672
835.65	16538
835.788	16588
835.926	16436
836.064	16272
836.202	16382
836.34	16535
836.478	16645
836.615	16459
836.753	16618
836.891	16618
837.029	16565
837.167	16481
837.305	16352
837.443	16519
837.58	16348
837.718	16375
837.856	16428
837.993	16394
838.131	16421
838.269	16375
838.406	16409
838.544	16371
838.681	16253
838.819	16143
838.956	15975
839.094	16093
839.231	15975
839.369	16059
839.506	16394
839.643	16204
839.781	15937
839.918	15895
840.055	15979
840.193	15975
840.33	15972
840.467	15953
840.604	16071
840.742	16295
840.879	15819
841.016	15857
841.153	15857
841.29	16051
841.427	15987
841.564	15964
841.701	16051
841.838	15903
841.975	15831
842.112	15873
842.249	15747
842.385	15778
842.522	15911
842.659	15865
842.796	15675
842.933	15705
843.069	15762
843.206	15720
843.343	15926
843.479	15728
843.616	15823
843.752	15515
843.889	15545
844.025	15675
844.162	15504
844.298	15587
844.435	15458
844.571	15462
844.708	15625
844.844	15663
844.98	15679
845.117	15637
845.253	15519
845.389	15515
845.525	15584
845.661	15428
845.798	15275
845.934	15450
846.07	15283
846.206	15351
846.342	15507
846.478	15359
846.614	15279
846.75	15043
846.886	15077
847.022	15207
847.158	15173
847.294	15169
847.429	15108
847.565	15093
847.701	15268
847.837	14891
847.972	14804
848.108	14948
848.244	14933
848.379	14804
848.515	14705
848.65	14739
848.786	14682
848.921	14765
849.057	14891
849.192	14781
849.328	14758
849.463	14758
849.598	14655
849.734	14602
849.869	14640
850.004	14457
850.14	14473
850.275	14427
850.41	14404
850.545	14446
850.68	14431
850.815	14492
850.95	14526
851.085	14667
851.22	14575
851.355	14511
851.49	14461
851.625	14484
851.76	14495
851.895	14362
852.03	14358
852.165	14404
852.299	14377
852.434	14552
852.569	14476
852.703	14545
852.838	14613
852.973	14625
853.107	14590
853.242	14404
853.376	14347
853.511	14240
853.645	14370
853.78	14499
853.914	14305
854.048	14355
854.183	14248
854.317	14351
854.451	14461
854.585	14412
854.72	14244
854.854	14423
854.988	14366
855.122	14332
855.256	14237
855.39	14347
855.524	14419
855.658	14419
855.792	14374
855.926	14427
856.06	14393
856.194	14602
856.327	14332
856.461	14317
856.595	14256
856.729	14351
856.862	14499
856.996	14404
857.13	14492
857.263	14480
857.397	14355
857.53	14324
857.664	14355
857.797	14404
857.931	14552
858.064	14377
858.197	14423
858.331	14347
858.464	14278
858.597	14195
858.731	14267
858.864	14240
858.997	14328
859.13	14385
859.263	14385
859.396	14450
859.529	14362
859.662	14305
859.795	14267
859.928	14423
860.061	14503
860.194	14556
860.327	14343
860.46	14343
860.592	14499
860.725	14476
860.858	14431
860.99	14412
861.123	14324
861.256	14290
861.388	14358
861.521	15104
861.653	14214
861.786	14142
861.918	14123
862.05	14278
862.183	14305
862.315	14259
862.447	14320
862.58	14290
862.712	14145
862.844	14081
862.976	14233
863.108	14126
863.24	14457
863.372	14058
863.504	14130
863.636	14130
863.768	14172
863.9	14123
864.032	14073
864.164	14077
864.296	14191
864.428	14275
864.559	14240
864.691	14123
864.823	14229
864.954	14237
865.086	14191
865.217	14157
865.349	14031
865.48	14065
865.612	14180
865.743	14134
865.875	14123
866.006	14069
866.137	14161
866.269	14149
866.4	14081
866.531	13997
866.662	14081
866.793	14039
866.924	14073
867.055	14164
867.186	14119
867.317	14100
867.448	14084
867.579	14069
867.71	13997
867.841	13947
867.972	14138
868.103	14180
868.233	14039
868.364	14001
868.495	14237
868.625	14282
868.756	14362
868.886	14275
869.017	14457
869.147	14385
869.278	14484
869.408	14366
869.539	14377
869.669	14469
869.799	14408
869.929	14473
870.06	14492
870.19	14743
870.32	14731
870.45	14712
870.58	14743
870.71	14826
870.84	14842
870.97	14769
871.1	14663
871.23	14880
871.36	14883
871.489	14868
871.619	14944
871.749	14952
871.879	14952
872.008	15055
872.138	14990
872.267	15005
872.397	14800
872.526	14781
872.656	14800
872.785	14834
872.915	14948
873.044	15150
873.173	14906
873.303	15097
873.432	15066
873.561	15097
873.69	14990
873.819	15009
873.948	15093
874.077	15081
874.206	14941
874.335	15062
874.464	15169
874.593	15252
874.722	15230
874.851	15424
874.979	15359
875.108	15294
875.237	15173
875.365	15214
875.494	15279
875.623	15355
875.751	15389
875.88	15336
876.008	15526
876.136	15591
876.265	15759
876.393	15861
876.521	15895
876.65	15838
876.778	15762
876.906	15766
877.034	15694
877.162	15709
877.29	15603
877.418	15808
877.546	15781
877.674	15736
877.802	15774
877.93	15625
878.058	15717
878.185	15656
878.313	15732
878.441	15614
878.568	15545
878.696	15614
878.824	15819
878.951	15755
879.079	15873
879.206	16029
879.333	15857
879.461	15812
879.588	15857
879.715	15823
879.842	15994
879.97	15808
880.097	15450
880.224	15572
880.351	15603
880.478	15561
880.605	15557
880.732	15591
880.859	15781
880.986	15553
881.112	15504
881.239	15492
881.366	15405
881.493	15249
881.619	15176
881.746	15127
881.872	15241
881.999	15226
882.125	15119
882.252	15272
882.378	15287
882.505	15260
882.631	15249
882.757	15138
882.883	15150
883.01	15074
883.136	14998
883.262	14914
883.388	14861
883.514	15214
883.64	15119
883.766	15070
883.892	14796
884.018	14887
884.143	15108
884.269	15100
884.395	14746
884.52	14644
884.646	14701
884.772	14697
884.897	14659
885.023	14773
885.148	14845
885.274	14937
885.399	14929
885.524	14769
885.65	14823
885.775	14796
885.9	14693
886.025	14800
886.15	14754
886.275	14804
886.4	14655
886.525	14735
886.65	14644
886.775	14720
886.9	14918
887.025	14971
887.149	14739
887.274	14587
887.399	14610
887.523	14602
887.648	14480
887.773	14503
887.897	14670
888.021	14705
888.146	14530
888.27	14648
888.395	14667
888.519	14655
888.643	14670
888.767	14648
888.891	14469
889.015	14423
889.139	14552
889.263	14419
889.387	14629
889.511	14632
889.635	14610
889.759	14301
889.883	14442
890.006	14484
890.13	14488
890.254	14400
890.377	14374
890.501	14157
890.624	14199
890.748	14355
890.871	14134
890.995	13982
891.118	14096
891.241	14145
891.364	14172
891.488	14324
891.611	14218
891.734	13963
891.857	14225
891.98	14157
892.103	14282
892.226	14210
892.349	14195
892.471	13936
892.594	14043
892.717	14153
892.839	14153
892.962	14183
893.085	14183
893.207	14130
893.33	14084
893.452	14024
893.575	14168
893.697	14138
893.819	14294
893.941	14454
894.064	14206
894.186	14138
894.308	14157
894.43	14294
894.552	14263
894.674	14294
894.796	14046
894.918	14115
895.04	14214
895.161	14256
895.283	14202
895.405	14115
895.526	14229
895.648	14324
895.769	14267
895.891	14400
896.012	14305
896.134	14278
896.255	14317
896.376	14191
896.498	14214
896.619	14332
896.74	14301
896.861	14309
896.982	14674
897.103	14788
897.224	14610
897.345	14552
897.466	14594
897.587	14564
897.708	14686
897.828	14621
897.949	14552
898.07	14454
898.19	14541
898.311	14826
898.431	14587
898.552	14636
898.672	14739
898.792	14743
898.913	14648
899.033	14583
899.153	14465
899.273	14495
899.393	14541
899.513	14583
899.633	14602
899.753	14571
899.873	14571
899.993	14598
900.113	14530
900.232	14503
900.352	14434
900.472	14442
900.591	14244
900.711	14320
900.83	14275
900.95	14476
901.069	14522
901.189	14385
901.308	14138
901.427	14073
901.546	14001
901.665	14130
901.784	14054
901.904	13978
902.023	13799
902.141	13624
902.26	13696
902.379	13742
902.498	13689
902.617	13483
902.735	13696
902.854	13594
902.973	13518
903.091	13343
903.21	13358
903.328	13339
903.446	13228
903.565	13221
903.683	13183
903.801	13149
903.919	13149
904.038	13156
904.156	13069
904.274	13072
904.392	12905
904.51	12951
904.627	12840
904.745	13000
904.863	13129
904.981	12825
905.098	12715
905.216	12722
905.334	12620
905.451	12711
905.569	12616
905.686	12749
905.803	12623
905.921	12498
906.038	12589
906.155	12563
906.272	12403
906.389	12346
906.506	12308
906.623	12277
906.74	12262
906.857	12213
906.974	12254
907.091	12308
907.208	12448
907.324	12407
907.441	12201
907.557	12167
907.674	12003
907.79	11946
907.907	12102
908.023	12015
908.139	11984
908.256	11916
908.372	12041
908.488	12011
908.604	11813
908.72	11783
908.836	11764
908.952	11748
909.068	11813
909.184	11863
909.3	11836
909.415	11874
909.531	11783
909.647	11551
909.762	11589
909.878	11528
909.993	11524
910.108	11482
910.224	11551
910.339	11524
910.454	11440
910.57	11406
910.685	11414
910.8	11589
910.915	11570
911.03	11493
911.145	11330
911.259	11223
911.374	11242
911.489	11105
911.604	11170
911.718	11037
911.833	11071
911.947	10824
912.062	10896
912.176	11098
912.291	11045
912.405	10938
912.519	11254
912.633	11170
912.748	11147
912.862	11033
912.976	10869
913.09	10801
913.204	10801
913.318	10885
913.431	11029
913.545	10976
913.659	11010
913.772	10908
913.886	10816
914	10763
914.113	10881
914.226	10908
914.34	10885
914.453	10771
914.566	10850
914.68	10694
914.793	10694
914.906	10470
915.019	10535
915.132	10478
915.245	10596
915.358	10618
915.47	10542
915.583	10637
915.696	10558
915.809	10653
915.921	10729
916.034	10516
916.146	10421
916.259	10421
916.371	10599
916.483	10462
916.595	10512
916.708	10508
916.82	10535
916.932	10500
917.044	10379
917.156	10447
917.268	10371
917.38	10310
917.491	10367
917.603	10356
917.715	10466
917.826	10398
917.938	10310
918.049	10284
918.161	10459
918.272	10379
918.384	10432
918.495	10432
918.606	10253
918.717	10177
918.828	10299
918.939	10314
919.05	10150
919.161	10207
919.272	10013
919.383	10074
919.494	10306
919.604	10459
919.715	10238
919.826	10215
919.936	10135
920.047	10325
920.157	10249
920.267	10447
920.378	10310
920.488	10344
920.598	10440
920.708	10615
920.818	10440
920.928	10443
921.038	10508
921.148	10546
921.258	10329
921.368	10246
921.477	10112
921.587	10063
921.697	9953
921.806	10169
921.916	9994
922.025	9759
922.134	9831
922.244	9762
922.353	9892
922.462	9652
922.571	9648
922.68	9523
922.789	9447
922.898	9485
923.007	9511
923.116	9496
923.224	9538
923.333	9515
923.442	9412
923.55	9416
923.659	9401
923.767	9458
923.876	9374
923.984	9504
924.092	9382
924.201	9389
924.309	9329
924.417	9336
924.525	9329
924.633	9344
924.741	10219
924.849	9047
924.956	9245
925.064	9093
925.172	9104
925.279	9097
925.387	9241
925.494	9058
925.602	9249
925.709	9256
925.816	9150
925.924	9081
926.031	9226
926.138	9161
926.245	9135
926.352	9089
926.459	9211
926.566	9260
926.673	9051
926.779	9043
926.886	9051
926.993	8864
927.099	8857
927.206	8857
927.312	8777
927.419	8895
927.525	8823
927.631	8933
927.737	8762
927.843	8773
927.95	8689
928.056	8724
928.162	8815
928.267	8788
928.373	9458
928.479	8883
928.585	8556
928.69	8727
928.796	8773
928.901	8682
929.007	8552
929.112	8693
929.218	8621
929.323	8678
929.428	8590
929.533	8712
929.638	8473
929.743	8541
929.848	8587
929.953	8670
930.058	8446
930.163	8355
930.267	8362
930.372	8533
930.477	8294
930.581	8560
930.685	8461
930.79	8298
930.894	8320
930.998	8301
931.103	8419
931.207	8100
931.311	8043
931.415	8008
931.519	7772
931.623	7780
