Data from test_V78500241_1793.txt Node
Date: Fri Mar 25 14:46:11 CST 2022
User: usil
Spectrometer: V785-0024
Trigger mode: 0
Integration Time (sec): 4.000000E-1
Scans to average: 1
Nonlinearity correction enabled: false
Boxcar width: 0
Storing dark spectrum: false
XAxis mode: Wavelengths
Number of Pixels in Spectrum: 1024
>>>>>Begin Spectral Data<<<<<
801.071	22219
801.214	22173
801.356	21850
801.499	21656
801.641	21561
801.783	21534
801.926	21675
802.068	21504
802.211	21416
802.353	21294
802.496	21116
802.638	21047
802.78	20918
802.923	20929
803.065	20872
803.208	20765
803.35	20902
803.492	20914
803.635	20883
803.777	20796
803.919	20960
804.061	21173
804.204	20952
804.346	20765
804.488	20800
804.63	20872
804.773	20785
804.915	20910
805.057	20868
805.199	20682
805.341	20823
805.483	20853
805.626	20788
805.768	20705
805.91	20864
806.052	20857
806.194	20632
806.336	21017
806.478	20769
806.62	20735
806.762	20823
806.904	20986
807.046	21154
807.188	21161
807.33	21146
807.472	21214
807.614	21074
807.756	21074
807.898	20868
808.04	20868
808.182	20769
808.324	20887
808.465	20994
808.607	21070
808.749	21268
808.891	21298
809.033	21310
809.174	21348
809.316	21146
809.458	21131
809.6	21211
809.741	21226
809.883	21260
810.025	21302
810.166	21294
810.308	21382
810.45	21355
810.591	21165
810.733	21104
810.875	21009
811.016	20944
811.158	20899
811.299	21119
811.441	21085
811.582	21028
811.724	21020
811.865	20864
812.007	20849
812.148	20864
812.29	21017
812.431	21135
812.573	21408
812.714	21374
812.855	21416
812.997	21534
813.138	21629
813.279	21534
813.421	21367
813.562	21344
813.703	21199
813.845	21077
813.986	20899
814.127	20644
814.268	20476
814.41	20636
814.551	20575
814.692	20606
814.833	20518
814.974	20423
815.115	20492
815.256	20294
815.397	20343
815.539	20381
815.68	20107
815.821	20240
815.962	20381
816.103	20145
816.244	20126
816.385	19944
816.526	20039
816.666	19799
816.807	19674
816.948	19772
817.089	19624
817.23	19655
817.371	19677
817.512	19575
817.653	19666
817.793	19510
817.934	19666
818.075	19715
818.216	19647
818.356	19521
818.497	19510
818.638	19354
818.778	19400
818.919	19335
819.06	19358
819.2	19388
819.341	19651
819.481	19529
819.622	19670
819.762	19883
819.903	19677
820.043	19609
820.184	19578
820.324	19556
820.465	19658
820.605	19685
820.746	19529
820.886	19575
821.026	19464
821.167	19700
821.307	19601
821.447	19445
821.588	19422
821.728	19400
821.868	19183
822.008	19050
822.149	19000
822.289	19050
822.429	18810
822.569	18669
822.709	18757
822.849	18570
822.99	18570
823.13	18483
823.27	18448
823.41	18281
823.55	18251
823.69	18334
823.83	18353
823.97	18201
824.11	18057
824.25	18091
824.389	18011
824.529	18182
824.669	18079
824.809	18159
824.949	18289
825.089	18102
825.228	18209
825.368	17916
825.508	17901
825.648	17920
825.787	17984
825.927	17897
826.067	17961
826.206	17870
826.346	17866
826.485	17840
826.625	17821
826.765	17977
826.904	17889
827.044	17646
827.183	17649
827.323	17524
827.462	17672
827.601	17535
827.741	17528
827.88	17501
828.02	17486
828.159	17535
828.298	17638
828.437	17695
828.577	17592
828.716	17703
828.855	17509
828.994	17284
829.134	17288
829.273	17425
829.412	17212
829.551	17337
829.69	17345
829.829	17383
829.968	17463
830.107	17372
830.246	17406
830.385	17303
830.524	17136
830.663	17159
830.802	17117
830.941	16942
831.08	16877
831.219	17029
831.357	17067
831.496	17143
831.635	16915
831.774	16843
831.913	16729
832.051	16630
832.19	16759
832.329	16744
832.467	16793
832.606	16683
832.744	16641
832.883	16584
833.022	16622
833.16	16679
833.299	16653
833.437	16698
833.576	16755
833.714	16694
833.852	16634
833.991	16691
834.129	16782
834.267	16740
834.406	16687
834.544	16706
834.682	16664
834.821	16626
834.959	16889
835.097	16698
835.235	16706
835.373	16656
835.511	16778
835.65	16550
835.788	16630
835.926	16409
836.064	16424
836.202	16329
836.34	16656
836.478	16736
836.615	16584
836.753	16626
836.891	16596
837.029	16622
837.167	16554
837.305	16550
837.443	16413
837.58	16428
837.718	16599
837.856	16516
837.993	16386
838.131	16443
838.269	16405
838.406	16428
838.544	16242
838.681	16139
838.819	16147
838.956	15892
839.094	15968
839.231	16025
839.369	16166
839.506	16413
839.643	16337
839.781	15964
839.918	15998
840.055	16086
840.193	16055
840.33	16051
840.467	15987
840.604	16036
840.742	16215
840.879	15880
841.016	15968
841.153	15941
841.29	16116
841.427	16074
841.564	16048
841.701	16040
841.838	15983
841.975	15865
842.112	15941
842.249	15781
842.385	15686
842.522	15895
842.659	15865
842.796	15728
842.933	15690
843.069	15675
843.206	15793
843.343	15873
843.479	15793
843.616	15850
843.752	15549
843.889	15660
844.025	15747
844.162	15584
844.298	15743
844.435	15644
844.571	15652
844.708	15667
844.844	15728
844.98	15781
845.117	15667
845.253	15511
845.389	15485
845.525	15568
845.661	15408
845.798	15386
845.934	15458
846.07	15325
846.206	15431
846.342	15485
846.478	15401
846.614	15230
846.75	15081
846.886	15112
847.022	15207
847.158	15173
847.294	15157
847.429	15165
847.565	15108
847.701	15226
847.837	14868
847.972	14804
848.108	14941
848.244	14937
848.379	14830
848.515	14648
848.65	14724
848.786	14754
848.921	14720
849.057	14902
849.192	14849
849.328	14781
849.463	14834
849.598	14804
849.734	14701
849.869	14568
850.004	14518
850.14	14533
850.275	14514
850.41	14419
850.545	14511
850.68	14522
850.815	14495
850.95	14431
851.085	14621
851.22	14541
851.355	14549
851.49	14404
851.625	14503
851.76	14503
851.895	14408
852.03	14362
852.165	14476
852.299	14450
852.434	14552
852.569	14526
852.703	14533
852.838	14571
852.973	14769
853.107	14762
853.242	14450
853.376	14385
853.511	14298
853.645	14324
853.78	14530
853.914	14389
854.048	14332
854.183	14278
854.317	14454
854.451	14564
854.585	14385
854.72	14374
854.854	14343
854.988	14301
855.122	14381
855.256	14271
855.39	14317
855.524	14454
855.658	14442
855.792	14412
855.926	14393
856.06	14484
856.194	14461
856.327	14328
856.461	14290
856.595	14317
856.729	14412
856.862	14469
856.996	14381
857.13	14404
857.263	14480
857.397	14461
857.53	14324
857.664	14393
857.797	14480
857.931	14469
858.064	14457
858.197	14412
858.331	14362
858.464	14362
858.597	14263
858.731	14438
858.864	14393
858.997	14332
859.13	14400
859.263	14362
859.396	14427
859.529	14313
859.662	14355
859.795	14332
859.928	14450
860.061	14606
860.194	14594
860.327	14366
860.46	14442
860.592	14522
860.725	14526
860.858	14503
860.99	14404
861.123	14202
861.256	14393
861.388	14457
861.521	15081
861.653	14172
861.786	14164
861.918	14221
862.05	14370
862.183	14339
862.315	14438
862.447	14389
862.58	14393
862.712	14164
862.844	14191
862.976	14149
863.108	14119
863.24	14514
863.372	14031
863.504	14123
863.636	14134
863.768	14317
863.9	14256
864.032	14005
864.164	14126
864.296	14164
864.428	14275
864.559	14195
864.691	14233
864.823	14259
864.954	14126
865.086	14153
865.217	14123
865.349	14119
865.48	14065
865.612	14142
865.743	14244
865.875	14130
866.006	14073
866.137	14187
866.269	14271
866.4	14092
866.531	14172
866.662	14126
866.793	14020
866.924	14119
867.055	14202
867.186	14115
867.317	14107
867.448	14012
867.579	14081
867.71	14142
867.841	14039
867.972	14168
868.103	14183
868.233	14103
868.364	14115
868.495	14252
868.625	14431
868.756	14495
868.886	14324
869.017	14282
869.147	14568
869.278	14492
869.408	14446
869.539	14434
869.669	14533
869.799	14362
869.929	14556
870.06	14492
870.19	14765
870.32	14697
870.45	14705
870.58	14788
870.71	14845
870.84	14857
870.97	14731
871.1	14792
871.23	14842
871.36	14971
871.489	14918
871.619	14944
871.749	14990
871.879	15066
872.008	15093
872.138	15017
872.267	14998
872.397	14872
872.526	14830
872.656	14845
872.785	14792
872.915	15036
873.044	15036
873.173	14933
873.303	15131
873.432	15119
873.561	15154
873.69	15093
873.819	15020
873.948	15127
874.077	15017
874.206	15062
874.335	15058
874.464	15199
874.593	15283
874.722	15230
874.851	15386
874.979	15382
875.108	15382
875.237	15294
875.365	15294
875.494	15340
875.623	15408
875.751	15401
875.88	15363
876.008	15469
876.136	15603
876.265	15633
876.393	15865
876.521	15850
876.65	15838
876.778	15816
876.906	15701
877.034	15728
877.162	15789
877.29	15705
877.418	15793
877.546	15751
877.674	15759
877.802	15663
877.93	15842
878.058	15679
878.185	15637
878.313	15755
878.441	15751
878.568	15637
878.696	15720
878.824	15770
878.951	15766
879.079	15979
879.206	16139
879.333	15945
879.461	15797
879.588	15838
879.715	16017
879.842	16101
879.97	15888
880.097	15568
880.224	15439
880.351	15629
880.478	15618
880.605	15717
880.732	15633
880.859	15808
880.986	15656
881.112	15656
881.239	15538
881.366	15393
881.493	15348
881.619	15268
881.746	15249
881.872	15287
881.999	15237
882.125	15264
882.252	15370
882.378	15294
882.505	15443
882.631	15214
882.757	15081
882.883	15138
883.01	15188
883.136	15085
883.262	15032
883.388	14941
883.514	15127
883.64	15173
883.766	15161
883.892	14948
884.018	14956
884.143	15112
884.269	15142
884.395	14830
884.52	14727
884.646	14807
884.772	14678
884.897	14750
885.023	14876
885.148	14788
885.274	14925
885.399	14876
885.524	14796
885.65	14765
885.775	14853
885.9	14815
886.025	14788
886.15	14880
886.275	14750
886.4	14602
886.525	14769
886.65	14739
886.775	14705
886.9	14960
887.025	15047
887.149	14845
887.274	14663
887.399	14587
887.523	14636
887.648	14518
887.773	14533
887.897	14758
888.021	14792
888.146	14640
888.27	14727
888.395	14796
888.519	14651
888.643	14708
888.767	14701
888.891	14400
889.015	14389
889.139	14469
889.263	14454
889.387	14613
889.511	14640
889.635	14564
889.759	14454
889.883	14499
890.006	14514
890.13	14564
890.254	14450
890.377	14408
890.501	14313
890.624	14305
890.748	14393
890.871	14172
890.995	14138
891.118	14054
891.241	14123
891.364	14202
891.488	14240
891.611	14183
891.734	14191
891.857	14157
891.98	14168
892.103	14275
892.226	14248
892.349	14168
892.471	14005
892.594	14172
892.717	14256
892.839	14214
892.962	14107
893.085	14240
893.207	14263
893.33	14077
893.452	14153
893.575	14214
893.697	14062
893.819	14343
893.941	14355
894.064	14294
894.186	14088
894.308	14172
894.43	14290
894.552	14400
894.674	14339
894.796	14191
894.918	14176
895.04	14248
895.161	14355
895.283	14358
895.405	14161
895.526	14339
895.648	14324
895.769	14305
895.891	14301
896.012	14332
896.134	14389
896.255	14370
896.376	14396
896.498	14309
896.619	14328
896.74	14339
896.861	14415
896.982	14697
897.103	14849
897.224	14610
897.345	14571
897.466	14488
897.587	14667
897.708	14716
897.828	14640
897.949	14522
898.07	14480
898.19	14590
898.311	14876
898.431	14602
898.552	14804
898.672	14743
898.792	14708
898.913	14788
899.033	14610
899.153	14522
899.273	14469
899.393	14575
899.513	14564
899.633	14423
899.753	14533
899.873	14434
899.993	14560
900.113	14533
900.232	14488
900.352	14465
900.472	14339
900.591	14343
900.711	14484
900.83	14419
900.95	14484
901.069	14499
901.189	14374
901.308	14225
901.427	14005
901.546	14092
901.665	14115
901.784	14092
901.904	14008
902.023	13932
902.141	13693
902.26	13628
902.379	13723
902.498	13704
902.617	13620
902.735	13753
902.854	13647
902.973	13670
903.091	13392
903.21	13327
903.328	13369
903.446	13232
903.565	13190
903.683	13228
903.801	13031
903.919	13274
904.038	13168
904.156	13015
904.274	13133
904.392	13061
904.51	12947
904.627	13000
904.745	13114
904.863	13042
904.981	12871
905.098	12772
905.216	12753
905.334	12757
905.451	12707
905.569	12719
905.686	12703
905.803	12768
905.921	12513
906.038	12616
906.155	12509
906.272	12464
906.389	12467
906.506	12292
906.623	12251
906.74	12388
906.857	12125
906.974	12232
907.091	12361
907.208	12559
907.324	12426
907.441	12281
907.557	12140
907.674	12117
907.79	12003
907.907	12060
908.023	12140
908.139	12060
908.256	12019
908.372	12072
908.488	11897
908.604	11874
908.72	11745
908.836	11882
908.952	11828
909.068	11851
909.184	11878
909.3	11809
909.415	11851
909.531	11901
909.647	11649
909.762	11600
909.878	11566
909.993	11573
910.108	11566
910.224	11634
910.339	11627
910.454	11573
910.57	11379
910.685	11360
910.8	11661
910.915	11600
911.03	11444
911.145	11360
911.259	11296
911.374	11345
911.489	11121
911.604	11159
911.718	11075
911.833	11075
911.947	10961
912.062	10892
912.176	11143
912.291	11006
912.405	11041
912.519	11258
912.633	11269
912.748	11124
912.862	11060
912.976	10968
913.09	10835
913.204	10915
913.318	11052
913.431	11067
913.545	11010
913.659	11102
913.772	10915
913.886	10759
914	10820
914.113	10831
914.226	10930
914.34	10873
914.453	10717
914.566	10938
914.68	10809
914.793	10771
914.906	10637
915.019	10538
915.132	10512
915.245	10558
915.358	10596
915.47	10565
915.583	10561
915.696	10675
915.809	10725
915.921	10660
916.034	10580
916.146	10497
916.259	10466
916.371	10630
916.483	10554
916.595	10462
916.708	10470
916.82	10497
916.932	10421
917.044	10440
917.156	10436
917.268	10253
917.38	10363
917.491	10421
917.603	10402
917.715	10440
917.826	10451
917.938	10382
918.049	10265
918.161	10306
918.272	10455
918.384	10508
918.495	10432
918.606	10238
918.717	10150
918.828	10234
918.939	10261
919.05	10192
919.161	10219
919.272	10006
919.383	10166
919.494	10295
919.604	10523
919.715	10295
919.826	10154
919.936	10257
920.047	10382
920.157	10268
920.267	10508
920.378	10295
920.488	10272
920.598	10443
920.708	10615
920.818	10474
920.928	10466
921.038	10653
921.148	10550
921.258	10344
921.368	10223
921.477	10169
921.587	10059
921.697	9979
921.806	10071
921.916	10063
922.025	9857
922.134	9861
922.244	9755
922.353	9888
922.462	9679
922.571	9637
922.68	9496
922.789	9580
922.898	9542
923.007	9447
923.116	9603
923.224	9549
923.333	9500
923.442	9424
923.55	9435
923.659	9420
923.767	9523
923.876	9351
923.984	9439
924.092	9363
924.201	9420
924.309	9382
924.417	9363
924.525	9310
924.633	9325
924.741	10303
924.849	9169
924.956	9321
925.064	9093
925.172	9093
925.279	9116
925.387	9089
925.494	9222
925.602	9313
925.709	9230
925.816	9104
925.924	9165
926.031	9264
926.138	9154
926.245	9230
926.352	9077
926.459	9218
926.566	9294
926.673	9127
926.779	8998
926.886	9005
926.993	8937
927.099	8857
927.206	8785
927.312	8845
927.419	8941
927.525	8918
927.631	8944
927.737	8807
927.843	8796
927.95	8735
928.056	8678
928.162	8773
928.267	8807
928.373	9389
928.479	8937
928.585	8617
928.69	8762
928.796	8819
928.901	8750
929.007	8560
929.112	8750
929.218	8648
929.323	8602
929.428	8598
929.533	8708
929.638	8575
929.743	8495
929.848	8667
929.953	8526
930.058	8461
930.163	8362
930.267	8370
930.372	8480
930.477	8358
930.581	8632
930.685	8347
930.79	8279
930.894	8374
930.998	8362
931.103	8404
931.207	8096
931.311	8035
931.415	8016
931.519	7841
931.623	7826
