Data from test_V78500241_1739.txt Node
Date: Fri Mar 25 14:45:49 CST 2022
User: usil
Spectrometer: V785-0024
Trigger mode: 0
Integration Time (sec): 4.000000E-1
Scans to average: 1
Nonlinearity correction enabled: false
Boxcar width: 0
Storing dark spectrum: false
XAxis mode: Wavelengths
Number of Pixels in Spectrum: 1024
>>>>>Begin Spectral Data<<<<<
801.071	22074
801.214	22192
801.356	21857
801.499	21789
801.641	21606
801.783	21568
801.926	21618
802.068	21557
802.211	21378
802.353	21287
802.496	21157
802.638	21058
802.78	21032
802.923	20982
803.065	20918
803.208	20883
803.35	20887
803.492	20906
803.635	21051
803.777	20864
803.919	21062
804.061	21161
804.204	20944
804.346	20838
804.488	20727
804.63	20815
804.773	20750
804.915	20937
805.057	21074
805.199	20781
805.341	20853
805.483	20986
805.626	21005
805.768	20880
805.91	20921
806.052	20845
806.194	20769
806.336	20944
806.478	20887
806.62	20838
806.762	20880
806.904	20963
807.046	21298
807.188	21116
807.33	21218
807.472	21169
807.614	21222
807.756	21116
807.898	20914
808.04	20868
808.182	20971
808.324	20944
808.465	20994
808.607	21062
808.749	21211
808.891	21344
809.033	21359
809.174	21226
809.316	21264
809.458	21119
809.6	21089
809.741	21389
809.883	21237
810.025	21431
810.166	21367
810.308	21367
810.45	21447
810.591	21233
810.733	21199
810.875	21081
811.016	21009
811.158	20960
811.299	21093
811.441	21112
811.582	21192
811.724	20982
811.865	21055
812.007	21062
812.148	21017
812.29	21074
812.431	21104
812.573	21447
812.714	21405
812.855	21504
812.997	21641
813.138	21701
813.279	21599
813.421	21492
813.562	21481
813.703	21313
813.845	21161
813.986	20921
814.127	20708
814.268	20720
814.41	20556
814.551	20484
814.692	20697
814.833	20556
814.974	20533
815.115	20374
815.256	20355
815.397	20328
815.539	20374
815.68	20248
815.821	20191
815.962	20309
816.103	20263
816.244	20142
816.385	20027
816.526	20039
816.666	19841
816.807	19750
816.948	19811
817.089	19700
817.23	19681
817.371	19681
817.512	19727
817.653	19563
817.793	19556
817.934	19727
818.075	19727
818.216	19769
818.356	19639
818.497	19590
818.638	19362
818.778	19358
818.919	19354
819.06	19438
819.2	19510
819.341	19597
819.481	19624
819.622	19590
819.762	20008
819.903	19753
820.043	19772
820.184	19647
820.324	19590
820.465	19765
820.605	19681
820.746	19670
820.886	19616
821.026	19689
821.167	19655
821.307	19784
821.447	19613
821.588	19616
821.728	19346
821.868	19217
822.008	19050
822.149	19103
822.289	19065
822.429	18829
822.569	18802
822.709	18795
822.849	18669
822.99	18513
823.13	18608
823.27	18627
823.41	18460
823.55	18273
823.69	18448
823.83	18361
823.97	18334
824.11	18091
824.25	18098
824.389	18095
824.529	18216
824.669	18216
824.809	18300
824.949	18323
825.089	18174
825.228	18159
825.368	18045
825.508	17927
825.648	18007
825.787	17885
825.927	18011
826.067	17866
826.206	17843
826.346	17897
826.485	17893
826.625	17965
826.765	18026
826.904	17942
827.044	17748
827.183	17638
827.323	17570
827.462	17657
827.601	17703
827.741	17581
827.88	17764
828.02	17455
828.159	17452
828.298	17611
828.437	17630
828.577	17585
828.716	17760
828.855	17638
828.994	17398
829.134	17406
829.273	17391
829.412	17330
829.551	17326
829.69	17318
829.829	17444
829.968	17493
830.107	17425
830.246	17433
830.385	17250
830.524	17265
830.663	17185
830.802	17117
830.941	16976
831.08	16915
831.219	17048
831.357	17060
831.496	17132
831.635	16942
831.774	16892
831.913	16736
832.051	16782
832.19	16744
832.329	16812
832.467	16626
832.606	16603
832.744	16596
832.883	16592
833.022	16592
833.16	16702
833.299	16771
833.437	16630
833.576	16736
833.714	16763
833.852	16710
833.991	16683
834.129	16793
834.267	16820
834.406	16649
834.544	16736
834.682	16744
834.821	16713
834.959	16900
835.097	16713
835.235	16755
835.373	16843
835.511	16771
835.65	16607
835.788	16630
835.926	16451
836.064	16394
836.202	16474
836.34	16637
836.478	16672
836.615	16603
836.753	16679
836.891	16797
837.029	16729
837.167	16512
837.305	16489
837.443	16607
837.58	16386
837.718	16413
837.856	16558
837.993	16481
838.131	16447
838.269	16436
838.406	16462
838.544	16329
838.681	16147
838.819	16143
838.956	16067
839.094	16162
839.231	16059
839.369	16147
839.506	16390
839.643	16356
839.781	16082
839.918	16002
840.055	15956
840.193	16010
840.33	15979
840.467	16086
840.604	16128
840.742	16337
840.879	15873
841.016	16010
841.153	15972
841.29	16097
841.427	16078
841.564	16029
841.701	16078
841.838	16006
841.975	15945
842.112	16010
842.249	15819
842.385	15819
842.522	15979
842.659	15854
842.796	15774
842.933	15888
843.069	15709
843.206	15781
843.343	15903
843.479	15739
843.616	15816
843.752	15641
843.889	15610
844.025	15789
844.162	15504
844.298	15698
844.435	15587
844.571	15618
844.708	15690
844.844	15671
844.98	15736
845.117	15717
845.253	15584
845.389	15549
845.525	15614
845.661	15557
845.798	15428
845.934	15439
846.07	15447
846.206	15519
846.342	15488
846.478	15382
846.614	15256
846.75	15062
846.886	15093
847.022	15283
847.158	15150
847.294	15249
847.429	15245
847.565	15154
847.701	15473
847.837	14960
847.972	14944
848.108	14960
848.244	14979
848.379	14845
848.515	14800
848.65	14773
848.786	14785
848.921	14773
849.057	14864
849.192	14823
849.328	14777
849.463	14773
849.598	14712
849.734	14739
849.869	14629
850.004	14629
850.14	14552
850.275	14518
850.41	14514
850.545	14457
850.68	14503
850.815	14564
850.95	14480
851.085	14701
851.22	14629
851.355	14587
851.49	14503
851.625	14473
851.76	14571
851.895	14495
852.03	14484
852.165	14431
852.299	14526
852.434	14587
852.569	14636
852.703	14454
852.838	14571
852.973	14716
853.107	14705
853.242	14522
853.376	14446
853.511	14294
853.645	14343
853.78	14511
853.914	14320
854.048	14400
854.183	14431
854.317	14423
854.451	14492
854.585	14351
854.72	14362
854.854	14514
854.988	14385
855.122	14343
855.256	14233
855.39	14400
855.524	14423
855.658	14556
855.792	14412
855.926	14454
856.06	14412
856.194	14492
856.327	14317
856.461	14336
856.595	14389
856.729	14412
856.862	14514
856.996	14476
857.13	14438
857.263	14575
857.397	14541
857.53	14465
857.664	14552
857.797	14541
857.931	14552
858.064	14522
858.197	14511
858.331	14404
858.464	14351
858.597	14278
858.731	14377
858.864	14381
858.997	14442
859.13	14385
859.263	14434
859.396	14434
859.529	14332
859.662	14419
859.795	14366
859.928	14336
860.061	14571
860.194	14499
860.327	14556
860.46	14324
860.592	14507
860.725	14594
860.858	14507
860.99	14427
861.123	14298
861.256	14351
861.388	14469
861.521	15077
861.653	14278
861.786	14187
861.918	14256
862.05	14309
862.183	14423
862.315	14469
862.447	14495
862.58	14415
862.712	14187
862.844	14027
862.976	14256
863.108	14256
863.24	14484
863.372	14145
863.504	14256
863.636	14103
863.768	14180
863.9	14180
864.032	14138
864.164	14164
864.296	14176
864.428	14324
864.559	14309
864.691	14172
864.823	14225
864.954	14275
865.086	14206
865.217	14183
865.349	14077
865.48	14206
865.612	14237
865.743	14389
865.875	14225
866.006	14065
866.137	14176
866.269	14195
866.4	14126
866.531	14126
866.662	14073
866.793	14183
866.924	14134
867.055	14058
867.186	14119
867.317	14092
867.448	14062
867.579	14046
867.71	14073
867.841	14130
867.972	14119
868.103	14149
868.233	14084
868.364	14100
868.495	14362
868.625	14434
868.756	14511
868.886	14328
869.017	14343
869.147	14476
869.278	14484
869.408	14431
869.539	14400
869.669	14552
869.799	14537
869.929	14461
870.06	14514
870.19	14686
870.32	14720
870.45	14781
870.58	14921
870.71	14895
870.84	14883
870.97	14804
871.1	14739
871.23	15032
871.36	15024
871.489	14864
871.619	14845
871.749	15062
871.879	15108
872.008	15199
872.138	15024
872.267	14967
872.397	14933
872.526	14788
872.656	14807
872.785	14906
872.915	14960
873.044	15116
873.173	15089
873.303	15089
873.432	15032
873.561	15154
873.69	15062
873.819	15089
873.948	15097
874.077	15127
874.206	15009
874.335	15108
874.464	15211
874.593	15416
874.722	15207
874.851	15405
874.979	15310
875.108	15431
875.237	15321
875.365	15351
875.494	15374
875.623	15496
875.751	15367
875.88	15370
876.008	15504
876.136	15561
876.265	15698
876.393	15884
876.521	15873
876.65	15869
876.778	15781
876.906	15770
877.034	15724
877.162	15762
877.29	15713
877.418	15823
877.546	15766
877.674	15812
877.802	15652
877.93	15819
878.058	15736
878.185	15701
878.313	15755
878.441	15812
878.568	15641
878.696	15717
878.824	15884
878.951	15895
879.079	15945
879.206	16128
879.333	15915
879.461	15880
879.588	16036
879.715	16044
879.842	16013
879.97	15911
880.097	15622
880.224	15633
880.351	15698
880.478	15633
880.605	15610
880.732	15656
880.859	16013
880.986	15724
881.112	15660
881.239	15610
881.366	15496
881.493	15344
881.619	15428
881.746	15405
881.872	15340
881.999	15321
882.125	15310
882.252	15435
882.378	15389
882.505	15477
882.631	15214
882.757	15203
882.883	15252
883.01	15093
883.136	15123
883.262	15028
883.388	15051
883.514	15237
883.64	15249
883.766	15085
883.892	15001
884.018	14982
884.143	15157
884.269	15180
884.395	14975
884.52	14739
884.646	14792
884.772	14800
884.897	14796
885.023	14864
885.148	14937
885.274	15058
885.399	14960
885.524	14864
885.65	14906
885.775	14929
885.9	14925
886.025	14899
886.15	14902
886.275	14830
886.4	14777
886.525	14758
886.65	14845
886.775	14773
886.9	14990
887.025	15043
887.149	14735
887.274	14731
887.399	14674
887.523	14693
887.648	14587
887.773	14549
887.897	14785
888.021	14682
888.146	14701
888.27	14735
888.395	14853
888.519	14705
888.643	14811
888.767	14765
888.891	14526
889.015	14571
889.139	14556
889.263	14454
889.387	14621
889.511	14750
889.635	14705
889.759	14446
889.883	14526
890.006	14446
890.13	14644
890.254	14438
890.377	14324
890.501	14320
890.624	14309
890.748	14450
890.871	14313
890.995	14172
891.118	14161
891.241	14225
891.364	14305
891.488	14271
891.611	14191
891.734	14282
891.857	14233
891.98	14324
892.103	14275
892.226	14286
892.349	14187
892.471	14024
892.594	14199
892.717	14244
892.839	14225
892.962	14252
893.085	14362
893.207	14157
893.33	14161
893.452	14229
893.575	14263
893.697	14126
893.819	14324
893.941	14389
894.064	14332
894.186	14176
894.308	14161
894.43	14313
894.552	14408
894.674	14313
894.796	14248
894.918	14233
895.04	14294
895.161	14427
895.283	14434
895.405	14267
895.526	14313
895.648	14389
895.769	14275
895.891	14427
896.012	14412
896.134	14541
896.255	14431
896.376	14419
896.498	14412
896.619	14396
896.74	14404
896.861	14381
896.982	14765
897.103	14838
897.224	14705
897.345	14514
897.466	14632
897.587	14644
897.708	14819
897.828	14739
897.949	14743
898.07	14533
898.19	14632
898.311	14834
898.431	14758
898.552	14670
898.672	14834
898.792	14731
898.913	14796
899.033	14632
899.153	14644
899.273	14530
899.393	14613
899.513	14670
899.633	14606
899.753	14617
899.873	14583
899.993	14598
900.113	14697
900.232	14594
900.352	14552
900.472	14488
900.591	14347
900.711	14473
900.83	14374
900.95	14518
901.069	14549
901.189	14396
901.308	14271
901.427	14123
901.546	14065
901.665	14199
901.784	14298
901.904	13989
902.023	14035
902.141	13704
902.26	13700
902.379	13833
902.498	13723
902.617	13567
902.735	13784
902.854	13750
902.973	13655
903.091	13411
903.21	13388
903.328	13518
903.446	13422
903.565	13194
903.683	13304
903.801	13099
903.919	13274
904.038	13190
904.156	13088
904.274	13168
904.392	13031
904.51	13053
904.627	13175
904.745	13171
904.863	13190
904.981	12844
905.098	12753
905.216	12730
905.334	12798
905.451	12859
905.569	12825
905.686	12848
905.803	12764
905.921	12525
906.038	12688
906.155	12578
906.272	12509
906.389	12486
906.506	12350
906.623	12365
906.74	12342
906.857	12232
906.974	12251
907.091	12437
907.208	12452
907.324	12353
907.441	12308
907.557	12163
907.674	12114
907.79	12095
907.907	11988
908.023	12163
908.139	12140
908.256	11999
908.372	12015
908.488	12030
908.604	11805
908.72	11840
908.836	11897
908.952	11737
909.068	11882
909.184	11980
909.3	11958
909.415	11927
909.531	11859
909.647	11691
909.762	11608
909.878	11577
909.993	11676
910.108	11611
910.224	11509
910.339	11657
910.454	11554
910.57	11482
910.685	11433
910.8	11783
910.915	11634
911.03	11524
911.145	11349
911.259	11315
911.374	11307
911.489	11292
911.604	11250
911.718	11121
911.833	11208
911.947	11022
912.062	10938
912.176	11033
912.291	11094
912.405	11083
912.519	11231
912.633	11292
912.748	11174
912.862	11124
912.976	10991
913.09	10873
913.204	10911
913.318	10961
913.431	11094
913.545	11094
913.659	11079
913.772	10953
913.886	10847
914	10850
914.113	10843
914.226	11006
914.34	10942
914.453	10774
914.566	10980
914.68	10816
914.793	10763
914.906	10641
915.019	10577
915.132	10531
915.245	10641
915.358	10653
915.47	10645
915.583	10660
915.696	10645
915.809	10793
915.921	10767
916.034	10561
916.146	10577
916.259	10523
916.371	10580
916.483	10580
916.595	10493
916.708	10550
916.82	10538
916.932	10466
917.044	10561
917.156	10455
917.268	10390
917.38	10451
917.491	10363
917.603	10402
917.715	10523
917.826	10512
917.938	10455
918.049	10272
918.161	10382
918.272	10656
918.384	10603
918.495	10451
918.606	10386
918.717	10242
918.828	10333
918.939	10234
919.05	10131
919.161	10306
919.272	10116
919.383	10169
919.494	10417
919.604	10565
919.715	10371
919.826	10287
919.936	10306
920.047	10455
920.157	10367
920.267	10489
920.378	10413
920.488	10287
920.598	10573
920.708	10599
920.818	10542
920.928	10527
921.038	10622
921.148	10645
921.258	10356
921.368	10246
921.477	10268
921.587	10090
921.697	10059
921.806	10204
921.916	10074
922.025	9850
922.134	9892
922.244	9740
922.353	9926
922.462	9762
922.571	9675
922.68	9656
922.789	9542
922.898	9572
923.007	9534
923.116	9614
923.224	9545
923.333	9599
923.442	9374
923.55	9473
923.659	9389
923.767	9557
923.876	9443
923.984	9462
924.092	9325
924.201	9420
924.309	9458
924.417	9439
924.525	9363
924.633	9386
924.741	10341
924.849	9176
924.956	9363
925.064	9203
925.172	9077
925.279	9093
925.387	9161
925.494	9249
925.602	9370
925.709	9241
925.816	9146
925.924	9253
926.031	9355
926.138	9203
926.245	9203
926.352	9165
926.459	9279
926.566	9264
926.673	9150
926.779	9081
926.886	9077
926.993	8929
927.099	8933
927.206	8921
927.312	8819
927.419	8956
927.525	8967
927.631	8952
927.737	8819
927.843	8823
927.95	8720
928.056	8754
928.162	8815
928.267	8921
928.373	9462
928.479	8899
928.585	8750
928.69	8796
928.796	8845
928.901	8754
929.007	8674
929.112	8731
929.218	8667
929.323	8625
929.428	8613
929.533	8777
929.638	8629
929.743	8621
929.848	8625
929.953	8594
930.058	8594
930.163	8366
930.267	8423
930.372	8545
930.477	8431
930.581	8617
930.685	8514
930.79	8381
930.894	8343
930.998	8339
931.103	8484
931.207	8103
931.311	8123
931.415	8024
931.519	7894
931.623	7830
