Data from test_V78500241_3700.txt Node
Date: Fri Mar 25 14:59:29 CST 2022
User: usil
Spectrometer: V785-0024
Trigger mode: 0
Integration Time (sec): 4.000000E-1
Scans to average: 1
Nonlinearity correction enabled: false
Boxcar width: 0
Storing dark spectrum: false
XAxis mode: Wavelengths
Number of Pixels in Spectrum: 1024
>>>>>Begin Spectral Data<<<<<
801.071	21930
801.214	21751
801.356	21595
801.499	21412
801.641	21260
801.783	21237
801.926	21294
802.068	21154
802.211	21108
802.353	21127
802.496	20800
802.638	20796
802.78	20625
802.923	20571
803.065	20457
803.208	20480
803.35	20571
803.492	20788
803.635	20834
803.777	20636
803.919	20674
804.061	20963
804.204	20571
804.346	20503
804.488	20385
804.63	20465
804.773	20549
804.915	20507
805.057	20587
805.199	20434
805.341	20465
805.483	20488
805.626	20514
805.768	20533
805.91	20484
806.052	20507
806.194	20438
806.336	20575
806.478	20507
806.62	20351
806.762	20598
806.904	20708
807.046	20929
807.188	20807
807.33	20872
807.472	20815
807.614	20712
807.756	20735
807.898	20640
808.04	20640
808.182	20533
808.324	20549
808.465	20579
808.607	20727
808.749	20868
808.891	20929
809.033	20895
809.174	20880
809.316	20724
809.458	20891
809.6	20773
809.741	20929
809.883	20800
810.025	20982
810.166	20948
810.308	20982
810.45	21039
810.591	20876
810.733	20640
810.875	20549
811.016	20575
811.158	20396
811.299	20636
811.441	20765
811.582	20750
811.724	20564
811.865	20541
812.007	20575
812.148	20526
812.29	20590
812.431	20705
812.573	20937
812.714	20990
812.855	20998
812.997	21291
813.138	21374
813.279	21176
813.421	21089
813.562	21127
813.703	20781
813.845	20670
813.986	20499
814.127	20381
814.268	20096
814.41	20202
814.551	20157
814.692	20313
814.833	20100
814.974	20077
815.115	20176
815.256	19932
815.397	19932
815.539	19989
815.68	19928
815.821	19715
815.962	19871
816.103	19913
816.244	19769
816.385	19609
816.526	19582
816.666	19464
816.807	19304
816.948	19365
817.089	19362
817.23	19289
817.371	19278
817.512	19324
817.653	19285
817.793	19148
817.934	19304
818.075	19312
818.216	19209
818.356	19225
818.497	19217
818.638	18867
818.778	19004
818.919	19012
819.06	18894
819.2	18970
819.341	19217
819.481	19156
819.622	19240
819.762	19445
819.903	19426
820.043	19282
820.184	19175
820.324	19293
820.465	19358
820.605	19217
820.746	19255
820.886	19145
821.026	19148
821.167	19095
821.307	19312
821.447	19202
821.588	19057
821.728	18863
821.868	18882
822.008	18661
822.149	18772
822.289	18597
822.429	18429
822.569	18353
822.709	18376
822.849	18270
822.99	18117
823.13	18144
823.27	18155
823.41	18011
823.55	17878
823.69	18011
823.83	18015
823.97	17882
824.11	17649
824.25	17786
824.389	17729
824.529	17726
824.669	17710
824.809	17874
824.949	17695
825.089	17809
825.228	17718
825.368	17558
825.508	17520
825.648	17566
825.787	17520
825.927	17562
826.067	17505
826.206	17528
826.346	17528
826.485	17551
826.625	17592
826.765	17672
826.904	17528
827.044	17330
827.183	17273
827.323	17269
827.462	17345
827.601	17246
827.741	17170
827.88	17208
828.02	17086
828.159	17212
828.298	17220
828.437	17258
828.577	17242
828.716	17307
828.855	17204
828.994	16953
829.134	17010
829.273	17090
829.412	16980
829.551	16850
829.69	16965
829.829	16968
829.968	17102
830.107	16980
830.246	16934
830.385	16904
830.524	16824
830.663	16801
830.802	16736
830.941	16527
831.08	16649
831.219	16721
831.357	16607
831.496	16904
831.635	16538
831.774	16565
831.913	16504
832.051	16352
832.19	16409
832.329	16462
832.467	16402
832.606	16226
832.744	16192
832.883	16265
833.022	16219
833.16	16303
833.299	16329
833.437	16234
833.576	16398
833.714	16249
833.852	16394
833.991	16337
834.129	16371
834.267	16386
834.406	16291
834.544	16424
834.682	16394
834.821	16348
834.959	16542
835.097	16337
835.235	16443
835.373	16382
835.511	16322
835.65	16211
835.788	16242
835.926	16090
836.064	15979
836.202	16147
836.34	16295
836.478	16226
836.615	16192
836.753	16246
836.891	16310
837.029	16310
837.167	16257
837.305	16204
837.443	16211
837.58	16128
837.718	16348
837.856	16257
837.993	16086
838.131	16166
838.269	16017
838.406	16051
838.544	16169
838.681	15899
838.819	15747
838.956	15789
839.094	15618
839.231	15766
839.369	15854
839.506	16090
839.643	16002
839.781	15800
839.918	15766
840.055	15747
840.193	15686
840.33	15652
840.467	15694
840.604	15709
840.742	15945
840.879	15534
841.016	15656
841.153	15652
841.29	15808
841.427	15838
841.564	15682
841.701	15846
841.838	15675
841.975	15610
842.112	15641
842.249	15542
842.385	15435
842.522	15728
842.659	15526
842.796	15477
842.933	15557
843.069	15447
843.206	15401
843.343	15599
843.479	15481
843.616	15424
843.752	15268
843.889	15275
844.025	15485
844.162	15268
844.298	15412
844.435	15226
844.571	15241
844.708	15374
844.844	15363
844.98	15401
845.117	15355
845.253	15355
845.389	15135
845.525	15218
845.661	15188
845.798	15097
845.934	15131
846.07	14998
846.206	15085
846.342	15192
846.478	15085
846.614	14906
846.75	14872
846.886	14781
847.022	14895
847.158	14868
847.294	14842
847.429	14838
847.565	14838
847.701	15047
847.837	14610
847.972	14507
848.108	14731
848.244	14648
848.379	14533
848.515	14518
848.65	14427
848.786	14404
848.921	14545
849.057	14579
849.192	14610
849.328	14518
849.463	14461
849.598	14469
849.734	14381
849.869	14233
850.004	14339
850.14	14332
850.275	14164
850.41	14233
850.545	14229
850.68	14199
850.815	14248
850.95	14153
851.085	14370
851.22	14370
851.355	14214
851.49	14248
851.625	14233
851.76	14229
851.895	14084
852.03	14081
852.165	14161
852.299	14225
852.434	14404
852.569	14214
852.703	14381
852.838	14298
852.973	14324
853.107	14305
853.242	14172
853.376	14088
853.511	14069
853.645	14024
853.78	14164
853.914	14142
854.048	14123
854.183	14005
854.317	14123
854.451	14252
854.585	14054
854.72	13970
854.854	14126
854.988	14016
855.122	13993
855.256	13955
855.39	14039
855.524	14142
855.658	14210
855.792	14062
855.926	14153
856.06	14180
856.194	14187
856.327	14126
856.461	14008
856.595	14001
856.729	14084
856.862	14206
856.996	14130
857.13	14103
857.263	14134
857.397	14233
857.53	14142
857.664	14119
857.797	14202
857.931	14256
858.064	14164
858.197	14339
858.331	14111
858.464	14031
858.597	14008
858.731	14096
858.864	14134
858.997	14088
859.13	14115
859.263	14027
859.396	14168
859.529	14130
859.662	14043
859.795	13997
859.928	14199
860.061	14286
860.194	14275
860.327	14081
860.46	14115
860.592	14259
860.725	14248
860.858	14267
860.99	14168
861.123	14065
861.256	14024
861.388	13982
861.521	14712
861.653	13890
861.786	13940
861.918	13879
862.05	13978
862.183	14016
862.315	14149
862.447	14210
862.58	14035
862.712	13936
862.844	13811
862.976	14027
863.108	13959
863.24	14476
863.372	13875
863.504	13913
863.636	13887
863.768	13925
863.9	13925
864.032	13803
864.164	13849
864.296	14008
864.428	13955
864.559	14016
864.691	13997
864.823	14024
864.954	13970
865.086	13890
865.217	13955
865.349	13795
865.48	13936
865.612	13928
865.743	13993
865.875	13841
866.006	13818
866.137	13898
866.269	13833
866.4	13826
866.531	13868
866.662	13879
866.793	13811
866.924	13731
867.055	13837
867.186	13902
867.317	13780
867.448	13822
867.579	13845
867.71	13776
867.841	13780
867.972	13917
868.103	13932
868.233	13921
868.364	13928
868.495	13909
868.625	14103
868.756	14240
868.886	13997
869.017	14088
869.147	14275
869.278	14237
869.408	14229
869.539	14027
869.669	14172
869.799	14153
869.929	14324
870.06	14210
870.19	14495
870.32	14457
870.45	14499
870.58	14632
870.71	14583
870.84	14556
870.97	14556
871.1	14495
871.23	14716
871.36	14743
871.489	14533
871.619	14632
871.749	14781
871.879	14849
872.008	14853
872.138	14758
872.267	14708
872.397	14575
872.526	14697
872.656	14526
872.785	14514
872.915	14750
873.044	14842
873.173	14811
873.303	14826
873.432	14838
873.561	14834
873.69	14781
873.819	14815
873.948	14895
874.077	14739
874.206	14765
874.335	14735
874.464	14971
874.593	15081
874.722	14975
874.851	15165
874.979	15017
875.108	15020
875.237	14975
875.365	15055
875.494	15070
875.623	15127
875.751	15097
875.88	15180
876.008	15252
876.136	15291
876.265	15481
876.393	15648
876.521	15591
876.65	15568
876.778	15469
876.906	15367
877.034	15458
877.162	15576
877.29	15416
877.418	15534
877.546	15542
877.674	15519
877.802	15504
877.93	15450
878.058	15549
878.185	15329
878.313	15530
878.441	15523
878.568	15408
878.696	15374
878.824	15625
878.951	15538
879.079	15713
879.206	15823
879.333	15690
879.461	15515
879.588	15701
879.715	15652
879.842	15842
879.97	15584
880.097	15359
880.224	15447
880.351	15332
880.478	15435
880.605	15348
880.732	15298
880.859	15526
880.986	15420
881.112	15359
881.239	15241
881.366	15138
881.493	15043
881.619	15058
881.746	15036
881.872	14990
881.999	14998
882.125	14937
882.252	15001
882.378	15047
882.505	15138
882.631	14933
882.757	14899
882.883	14895
883.01	14853
883.136	14785
883.262	14701
883.388	14819
883.514	14883
883.64	14826
883.766	14830
883.892	14598
884.018	14655
884.143	14743
884.269	14895
884.395	14651
884.52	14457
884.646	14632
884.772	14473
884.897	14438
885.023	14537
885.148	14625
885.274	14670
885.399	14701
885.524	14590
885.65	14598
885.775	14697
885.9	14606
886.025	14629
886.15	14587
886.275	14537
886.4	14412
886.525	14545
886.65	14415
886.775	14476
886.9	14659
887.025	14785
887.149	14522
887.274	14328
887.399	14366
887.523	14275
887.648	14374
887.773	14206
887.897	14461
888.021	14366
888.146	14347
888.27	14514
888.395	14514
888.519	14389
888.643	14358
888.767	14412
888.891	14370
889.015	14202
889.139	14336
889.263	14202
889.387	14298
889.511	14427
889.635	14336
889.759	14161
889.883	14240
890.006	14282
890.13	14431
890.254	14103
890.377	14313
890.501	14081
890.624	14008
890.748	14115
890.871	13986
890.995	13921
891.118	13902
891.241	13986
891.364	13955
891.488	14024
891.611	14031
891.734	13997
891.857	13967
891.98	14024
892.103	13993
892.226	13894
892.349	13955
892.471	13845
892.594	13940
892.717	13951
892.839	13974
892.962	13928
893.085	13936
893.207	13986
893.33	13811
893.452	13894
893.575	14062
893.697	13902
893.819	14123
893.941	14191
894.064	14062
894.186	13856
894.308	13906
894.43	14073
894.552	14081
894.674	14119
894.796	13849
894.918	13928
895.04	13917
895.161	14130
895.283	14058
895.405	13955
895.526	14084
895.648	14058
895.769	14054
895.891	14149
896.012	14202
896.134	14134
896.255	14046
896.376	14183
896.498	14123
896.619	14225
896.74	14168
896.861	14168
896.982	14454
897.103	14556
897.224	14358
897.345	14237
897.466	14347
897.587	14347
897.708	14549
897.828	14469
897.949	14442
898.07	14301
898.19	14419
898.311	14545
898.431	14393
898.552	14541
898.672	14503
898.792	14537
898.913	14541
899.033	14446
899.153	14339
899.273	14275
899.393	14267
899.513	14404
899.633	14313
899.753	14248
899.873	14301
899.993	14313
900.113	14328
900.232	14301
900.352	14317
900.472	14271
900.591	14103
900.711	14134
900.83	14172
900.95	14240
901.069	14290
901.189	14126
901.308	13925
901.427	13909
901.546	13811
901.665	13898
901.784	13871
901.904	13731
902.023	13685
902.141	13502
902.26	13396
902.379	13499
902.498	13339
902.617	13396
902.735	13403
902.854	13434
902.973	13339
903.091	13164
903.21	13080
903.328	13149
903.446	13061
903.565	12951
903.683	12993
903.801	12947
903.919	12954
904.038	13000
904.156	12859
904.274	12890
904.392	12757
904.51	12905
904.627	12829
904.745	12901
904.863	12897
904.981	12639
905.098	12513
905.216	12502
905.334	12525
905.451	12555
905.569	12426
905.686	12532
905.803	12509
905.921	12357
906.038	12456
906.155	12327
906.272	12232
906.389	12281
906.506	12083
906.623	12026
906.74	12140
906.857	12053
906.974	11977
907.091	12262
907.208	12216
907.324	12190
907.441	12140
907.557	11931
907.674	11878
907.79	11767
907.907	11726
908.023	11771
908.139	11863
908.256	11817
908.372	11828
908.488	11710
908.604	11707
908.72	11649
908.836	11627
908.952	11478
909.068	11623
909.184	11718
909.3	11680
909.415	11710
909.531	11707
909.647	11429
909.762	11429
909.878	11383
909.993	11398
910.108	11391
910.224	11376
910.339	11417
910.454	11322
910.57	11166
910.685	11151
910.8	11459
910.915	11387
911.03	11277
911.145	11105
911.259	11124
911.374	11098
911.489	10965
911.604	10965
911.718	10881
911.833	10892
911.947	10736
912.062	10714
912.176	10904
912.291	10847
912.405	10759
912.519	11075
912.633	11045
912.748	11003
912.862	10816
912.976	10748
913.09	10603
913.204	10675
913.318	10782
913.431	10881
913.545	10809
913.659	10835
913.772	10702
913.886	10668
914	10603
914.113	10778
914.226	10748
914.34	10778
914.453	10531
914.566	10694
914.68	10618
914.793	10588
914.906	10413
915.019	10306
915.132	10227
915.245	10417
915.358	10451
915.47	10405
915.583	10371
915.696	10398
915.809	10470
915.921	10451
916.034	10287
916.146	10185
916.259	10367
916.371	10440
916.483	10466
916.595	10318
916.708	10341
916.82	10265
916.932	10348
917.044	10363
917.156	10341
917.268	10147
917.38	10234
917.491	10177
917.603	10200
917.715	10318
917.826	10337
917.938	10219
918.049	10116
918.161	10169
918.272	10363
918.384	10436
918.495	10185
918.606	9960
918.717	10044
918.828	10147
918.939	10101
919.05	10036
919.161	10051
919.272	9850
919.383	9945
919.494	10158
919.604	10192
919.715	10040
919.826	9975
919.936	10036
920.047	10135
920.157	10181
920.267	10329
920.378	10139
920.488	10067
920.598	10352
920.708	10512
920.818	10382
920.928	10284
921.038	10455
921.148	10447
921.258	10128
921.368	10078
921.477	10002
921.587	9895
921.697	9846
921.806	9991
921.916	9831
922.025	9660
922.134	9633
922.244	9656
922.353	9709
922.462	9606
922.571	9564
922.68	9351
922.789	9272
922.898	9302
923.007	9279
923.116	9408
923.224	9367
923.333	9348
923.442	9268
923.55	9226
923.659	9245
923.767	9336
923.876	9203
923.984	9302
924.092	9218
924.201	9195
924.309	9230
924.417	9218
924.525	9203
924.633	9268
924.741	10124
924.849	9058
924.956	9123
925.064	9058
925.172	8941
925.279	9013
925.387	9077
925.494	8929
925.602	9154
925.709	9116
925.816	8933
925.924	9001
926.031	9165
926.138	9043
926.245	9093
926.352	8990
926.459	9116
926.566	9108
926.673	8960
926.779	8849
926.886	8868
926.993	8731
927.099	8731
927.206	8689
927.312	8686
927.419	8777
927.525	8800
927.631	8777
927.737	8720
927.843	8632
927.95	8495
928.056	8640
928.162	8632
928.267	8667
928.373	9188
928.479	8727
928.585	8492
928.69	8629
928.796	8724
928.901	8537
929.007	8412
929.112	8526
929.218	8507
929.323	8476
929.428	8514
929.533	8541
929.638	8446
929.743	8438
929.848	8579
929.953	8499
930.058	8343
930.163	8206
930.267	8305
930.372	8385
930.477	8248
930.581	8400
930.685	8309
930.79	8187
930.894	8206
930.998	8168
931.103	8362
931.207	7989
931.311	7875
931.415	7871
931.519	7670
931.623	7696
