Data from test_V78500241_3241.txt Node
Date: Fri Mar 25 14:56:16 CST 2022
User: usil
Spectrometer: V785-0024
Trigger mode: 0
Integration Time (sec): 4.000000E-1
Scans to average: 1
Nonlinearity correction enabled: false
Boxcar width: 0
Storing dark spectrum: false
XAxis mode: Wavelengths
Number of Pixels in Spectrum: 1024
>>>>>Begin Spectral Data<<<<<
801.071	22040
801.214	21884
801.356	21728
801.499	21641
801.641	21526
801.783	21386
801.926	21408
802.068	21416
802.211	21298
802.353	21138
802.496	21051
802.638	20925
802.78	20800
802.923	20724
803.065	20617
803.208	20533
803.35	20720
803.492	20823
803.635	20933
803.777	20693
803.919	20876
804.061	20937
804.204	20712
804.346	20655
804.488	20575
804.63	20651
804.773	20511
804.915	20655
805.057	20682
805.199	20583
805.341	20670
805.483	20613
805.626	20682
805.768	20495
805.91	20552
806.052	20746
806.194	20564
806.336	20697
806.478	20530
806.62	20560
806.762	20735
806.904	20724
807.046	21013
807.188	20880
807.33	20921
807.472	21051
807.614	20921
807.756	20880
807.898	20663
808.04	20648
808.182	20705
808.324	20682
808.465	20689
808.607	20899
808.749	21089
808.891	21119
809.033	21123
809.174	21070
809.316	21005
809.458	20895
809.6	21047
809.741	21062
809.883	21096
810.025	21047
810.166	21058
810.308	21096
810.45	21150
810.591	20952
810.733	20739
810.875	20743
811.016	20693
811.158	20575
811.299	20758
811.441	20830
811.582	20811
811.724	20731
811.865	20796
812.007	20701
812.148	20659
812.29	20876
812.431	20906
812.573	21070
812.714	21089
812.855	21264
812.997	21351
813.138	21515
813.279	21233
813.421	21241
813.562	21237
813.703	20918
813.845	20853
813.986	20636
814.127	20518
814.268	20282
814.41	20275
814.551	20142
814.692	20320
814.833	20317
814.974	20240
815.115	20145
815.256	20058
815.397	20134
815.539	20138
815.68	20069
815.821	20039
815.962	20054
816.103	20062
816.244	19947
816.385	19731
816.526	19852
816.666	19495
816.807	19476
816.948	19586
817.089	19575
817.23	19407
817.371	19480
817.512	19407
817.653	19468
817.793	19331
817.934	19381
818.075	19529
818.216	19430
818.356	19373
818.497	19251
818.638	19122
818.778	19084
818.919	19019
819.06	19244
819.2	19122
819.341	19304
819.481	19278
819.622	19453
819.762	19624
819.903	19521
820.043	19400
820.184	19422
820.324	19400
820.465	19438
820.605	19354
820.746	19400
820.886	19190
821.026	19392
821.167	19339
821.307	19453
821.447	19396
821.588	19190
821.728	19076
821.868	18958
822.008	18833
822.149	18783
822.289	18867
822.429	18521
822.569	18452
822.709	18513
822.849	18437
822.99	18216
823.13	18220
823.27	18281
823.41	18178
823.55	17939
823.69	18015
823.83	18155
823.97	17999
824.11	17923
824.25	17965
824.389	17920
824.529	17973
824.669	17805
824.809	17961
824.949	17904
825.089	17851
825.228	17889
825.368	17718
825.508	17646
825.648	17737
825.787	17649
825.927	17630
826.067	17589
826.206	17619
826.346	17619
826.485	17707
826.625	17596
826.765	17695
826.904	17687
827.044	17490
827.183	17490
827.323	17395
827.462	17368
827.601	17414
827.741	17330
827.88	17337
828.02	17185
828.159	17288
828.298	17414
828.437	17455
828.577	17258
828.716	17398
828.855	17330
828.994	17083
829.134	17128
829.273	17113
829.412	17136
829.551	17037
829.69	17056
829.829	17045
829.968	17102
830.107	17140
830.246	17185
830.385	17037
830.524	17045
830.663	16862
830.802	16927
830.941	16752
831.08	16596
831.219	16725
831.357	16763
831.496	16980
831.635	16656
831.774	16656
831.913	16618
832.051	16413
832.19	16451
832.329	16580
832.467	16352
832.606	16394
832.744	16462
832.883	16371
833.022	16428
833.16	16379
833.299	16402
833.437	16375
833.576	16470
833.714	16440
833.852	16398
833.991	16508
834.129	16466
834.267	16542
834.406	16451
834.544	16497
834.682	16474
834.821	16409
834.959	16546
835.097	16489
835.235	16500
835.373	16428
835.511	16561
835.65	16280
835.788	16424
835.926	16272
836.064	16223
836.202	16128
836.34	16356
836.478	16592
836.615	16360
836.753	16497
836.891	16485
837.029	16428
837.167	16375
837.305	16280
837.443	16246
837.58	16291
837.718	16386
837.856	16242
837.993	16219
838.131	16265
838.269	16219
838.406	16249
838.544	16097
838.681	15922
838.819	15918
838.956	15797
839.094	15831
839.231	15789
839.369	15895
839.506	16192
839.643	16013
839.781	15915
839.918	15736
840.055	15838
840.193	15770
840.33	15743
840.467	15766
840.604	15709
840.742	15960
840.879	15690
841.016	15797
841.153	15713
841.29	15922
841.427	15812
841.564	15854
841.701	15762
841.838	15789
841.975	15751
842.112	15701
842.249	15542
842.385	15534
842.522	15827
842.659	15580
842.796	15538
842.933	15553
843.069	15534
843.206	15564
843.343	15610
843.479	15511
843.616	15606
843.752	15329
843.889	15325
844.025	15561
844.162	15287
844.298	15488
844.435	15374
844.571	15370
844.708	15424
844.844	15549
844.98	15481
845.117	15488
845.253	15161
845.389	15157
845.525	15298
845.661	15245
845.798	14998
845.934	15199
846.07	15116
846.206	15230
846.342	15336
846.478	15142
846.614	15020
846.75	14929
846.886	14906
847.022	15013
847.158	14929
847.294	14929
847.429	14975
847.565	14872
847.701	15062
847.837	14746
847.972	14537
848.108	14800
848.244	14739
848.379	14541
848.515	14556
848.65	14564
848.786	14575
848.921	14503
849.057	14632
849.192	14640
849.328	14629
849.463	14590
849.598	14549
849.734	14503
849.869	14381
850.004	14336
850.14	14328
850.275	14366
850.41	14252
850.545	14199
850.68	14351
850.815	14351
850.95	14336
851.085	14533
851.22	14377
851.355	14309
851.49	14347
851.625	14153
851.76	14267
851.895	14202
852.03	14172
852.165	14218
852.299	14244
852.434	14317
852.569	14320
852.703	14309
852.838	14370
852.973	14564
853.107	14355
853.242	14286
853.376	14164
853.511	14043
853.645	14119
853.78	14210
853.914	14218
854.048	14107
854.183	14119
854.317	14107
854.451	14366
854.585	14107
854.72	14176
854.854	14271
854.988	14115
855.122	14103
855.256	14005
855.39	14115
855.524	14366
855.658	14199
855.792	14237
855.926	14244
856.06	14244
856.194	14267
856.327	14187
856.461	14172
856.595	14096
856.729	14092
856.862	14275
856.996	14328
857.13	14339
857.263	14259
857.397	14309
857.53	14267
857.664	14221
857.797	14309
857.931	14275
858.064	14195
858.197	14286
858.331	14161
858.464	14157
858.597	14073
858.731	14111
858.864	14248
858.997	14077
859.13	14202
859.263	14199
859.396	14278
859.529	14138
859.662	14221
859.795	14225
859.928	14218
860.061	14336
860.194	14389
860.327	14237
860.46	14244
860.592	14256
860.725	14332
860.858	14301
860.99	14218
861.123	14077
861.256	14103
861.388	14271
861.521	14781
861.653	14096
861.786	14005
861.918	14031
862.05	13989
862.183	14077
862.315	14199
862.447	14248
862.58	14111
862.712	13997
862.844	13906
862.976	14035
863.108	13989
863.24	14408
863.372	13837
863.504	13997
863.636	13955
863.768	14027
863.9	13879
864.032	13868
864.164	13951
864.296	14065
864.428	14096
864.559	14096
864.691	13970
864.823	14008
864.954	13940
865.086	14027
865.217	13913
865.349	13871
865.48	13902
865.612	13875
865.743	14035
865.875	14008
866.006	13879
866.137	13906
866.269	13936
866.4	13898
866.531	13936
866.662	13852
866.793	13879
866.924	13913
867.055	13925
867.186	13959
867.317	13860
867.448	13864
867.579	13826
867.71	13871
867.841	13955
867.972	13925
868.103	13982
868.233	13936
868.364	13944
868.495	14073
868.625	14161
868.756	14286
868.886	14054
869.017	14210
869.147	14377
869.278	14233
869.408	14180
869.539	14244
869.669	14282
869.799	14290
869.929	14252
870.06	14290
870.19	14469
870.32	14427
870.45	14518
870.58	14583
870.71	14686
870.84	14758
870.97	14545
871.1	14625
871.23	14823
871.36	14663
871.489	14674
871.619	14769
871.749	14712
871.879	14868
872.008	14876
872.138	14792
872.267	14743
872.397	14735
872.526	14617
872.656	14625
872.785	14613
872.915	14868
873.044	14876
873.173	14838
873.303	14792
873.432	14918
873.561	14906
873.69	14895
873.819	14853
873.948	14830
874.077	14895
874.206	14853
874.335	14857
874.464	14990
874.593	15146
874.722	15070
874.851	15138
874.979	15142
875.108	15230
875.237	15097
875.365	15173
875.494	15157
875.623	15298
875.751	15062
875.88	15241
876.008	15329
876.136	15386
876.265	15526
876.393	15728
876.521	15618
876.65	15622
876.778	15568
876.906	15660
877.034	15428
877.162	15564
877.29	15515
877.418	15610
877.546	15584
877.674	15603
877.802	15538
877.93	15656
878.058	15587
878.185	15405
878.313	15534
878.441	15587
878.568	15336
878.696	15485
878.824	15561
878.951	15629
879.079	15713
879.206	15785
879.333	15759
879.461	15652
879.588	15595
879.715	15755
879.842	15876
879.97	15614
880.097	15378
880.224	15405
880.351	15496
880.478	15469
880.605	15424
880.732	15370
880.859	15622
880.986	15428
881.112	15477
881.239	15279
881.366	15298
881.493	15161
881.619	15093
881.746	15112
881.872	15081
881.999	15119
882.125	15066
882.252	15074
882.378	15074
882.505	15116
882.631	15051
882.757	14921
882.883	15013
883.01	14895
883.136	14735
883.262	14743
883.388	14739
883.514	14861
883.64	14956
883.766	14895
883.892	14670
884.018	14678
884.143	14788
884.269	14982
884.395	14640
884.52	14575
884.646	14708
884.772	14541
884.897	14469
885.023	14610
885.148	14720
885.274	14762
885.399	14792
885.524	14598
885.65	14587
885.775	14598
885.9	14488
886.025	14754
886.15	14678
886.275	14610
886.4	14370
886.525	14575
886.65	14518
886.775	14556
886.9	14682
887.025	14853
887.149	14568
887.274	14370
887.399	14400
887.523	14404
887.648	14343
887.773	14377
887.897	14499
888.021	14457
888.146	14476
888.27	14526
888.395	14492
888.519	14476
888.643	14549
888.767	14476
888.891	14381
889.015	14317
889.139	14332
889.263	14282
889.387	14324
889.511	14511
889.635	14396
889.759	14240
889.883	14309
890.006	14244
890.13	14488
890.254	14225
890.377	14195
890.501	14054
890.624	14126
890.748	14134
890.871	14172
890.995	13928
891.118	13921
891.241	13940
891.364	14077
891.488	14119
891.611	13959
891.734	14012
891.857	14073
891.98	14005
892.103	14157
892.226	14035
892.349	13883
892.471	13807
892.594	13932
892.717	13944
892.839	13978
892.962	14001
893.085	14202
893.207	14050
893.33	13868
893.452	13963
893.575	13974
893.697	13928
893.819	14199
893.941	14145
894.064	14130
894.186	14005
894.308	14046
894.43	14176
894.552	14233
894.674	14123
894.796	13909
894.918	14065
895.04	14008
895.161	14107
895.283	14138
895.405	14054
895.526	14168
895.648	14161
895.769	14145
895.891	14221
896.012	14195
896.134	14240
896.255	14183
896.376	14145
896.498	14081
896.619	14191
896.74	14172
896.861	14301
896.982	14499
897.103	14655
897.224	14484
897.345	14511
897.466	14374
897.587	14385
897.708	14499
897.828	14465
897.949	14396
898.07	14408
898.19	14396
898.311	14533
898.431	14503
898.552	14549
898.672	14537
898.792	14621
898.913	14663
899.033	14454
899.153	14457
899.273	14305
899.393	14278
899.513	14343
899.633	14385
899.753	14366
899.873	14374
899.993	14389
900.113	14332
900.232	14412
900.352	14328
900.472	14244
900.591	14221
900.711	14248
900.83	14206
900.95	14385
901.069	14446
901.189	14092
901.308	14020
901.427	13753
901.546	13951
901.665	13921
901.784	13830
901.904	13772
902.023	13746
902.141	13514
902.26	13575
902.379	13594
902.498	13422
902.617	13415
902.735	13369
902.854	13407
902.973	13468
903.091	13285
903.21	13213
903.328	13221
903.446	13160
903.565	13122
903.683	13084
903.801	13015
903.919	13126
904.038	13034
904.156	12943
904.274	12897
904.392	12867
904.51	12859
904.627	12916
904.745	12905
904.863	12905
904.981	12639
905.098	12551
905.216	12623
905.334	12604
905.451	12494
905.569	12551
905.686	12620
905.803	12585
905.921	12395
906.038	12551
906.155	12464
906.272	12258
906.389	12384
906.506	12068
906.623	12209
906.74	12178
906.857	12095
906.974	12098
907.091	12224
907.208	12285
907.324	12254
907.441	12114
907.557	12019
907.674	11916
907.79	11809
907.907	11874
908.023	11859
908.139	11946
908.256	11802
908.372	11767
908.488	11794
908.604	11710
908.72	11634
908.836	11592
908.952	11623
909.068	11710
909.184	11828
909.3	11604
909.415	11707
909.531	11653
909.647	11459
909.762	11414
909.878	11311
909.993	11497
910.108	11398
910.224	11429
910.339	11425
910.454	11326
910.57	11269
910.685	11170
910.8	11512
910.915	11421
911.03	11269
911.145	11193
911.259	11147
911.374	11162
911.489	11060
911.604	11010
911.718	10911
911.833	10946
911.947	10831
912.062	10714
912.176	10923
912.291	10892
912.405	10957
912.519	11098
912.633	11124
912.748	10877
912.862	10927
912.976	10744
913.09	10615
913.204	10679
913.318	10767
913.431	10850
913.545	10820
913.659	11014
913.772	10797
913.886	10668
914	10653
914.113	10755
914.226	10831
914.34	10687
914.453	10653
914.566	10687
914.68	10531
914.793	10653
914.906	10516
915.019	10249
915.132	10268
915.245	10398
915.358	10485
915.47	10413
915.583	10478
915.696	10398
915.809	10573
915.921	10596
916.034	10436
916.146	10310
916.259	10322
916.371	10386
916.483	10382
916.595	10306
916.708	10303
916.82	10310
916.932	10371
917.044	10333
917.156	10310
917.268	10238
917.38	10249
917.491	10188
917.603	10223
917.715	10375
917.826	10322
917.938	10185
918.049	10204
918.161	10265
918.272	10322
918.384	10265
918.495	10246
918.606	10204
918.717	10078
918.828	10112
918.939	10185
919.05	10040
919.161	10109
919.272	9873
919.383	9964
919.494	10177
919.604	10318
919.715	10109
919.826	10063
919.936	10131
920.047	10181
920.157	10116
920.267	10341
920.378	10181
920.488	10131
920.598	10280
920.708	10428
920.818	10314
920.928	10352
921.038	10443
921.148	10493
921.258	10135
921.368	10128
921.477	10029
921.587	10021
921.697	9842
921.806	10071
921.916	9880
922.025	9701
922.134	9698
922.244	9705
922.353	9800
922.462	9614
922.571	9542
922.68	9428
922.789	9374
922.898	9443
923.007	9340
923.116	9462
923.224	9359
923.333	9302
923.442	9370
923.55	9256
923.659	9275
923.767	9359
923.876	9260
923.984	9420
924.092	9192
924.201	9313
924.309	9351
924.417	9268
924.525	9131
924.633	9165
924.741	10166
924.849	8963
924.956	9165
925.064	9005
925.172	9009
925.279	8982
925.387	9123
925.494	9051
925.602	9195
925.709	9097
925.816	8948
925.924	9032
926.031	9142
926.138	9055
926.245	9104
926.352	8990
926.459	9146
926.566	9161
926.673	9005
926.779	8899
926.886	8887
926.993	8823
927.099	8807
927.206	8731
927.312	8762
927.419	8826
927.525	8739
927.631	8785
927.737	8678
927.843	8636
927.95	8499
928.056	8625
928.162	8693
928.267	8773
928.373	9237
928.479	8758
928.585	8625
928.69	8674
928.796	8724
928.901	8568
929.007	8450
929.112	8651
929.218	8568
929.323	8526
929.428	8526
929.533	8568
929.638	8434
929.743	8450
929.848	8602
929.953	8556
930.058	8419
930.163	8199
930.267	8271
930.372	8358
930.477	8259
930.581	8457
930.685	8237
930.79	8134
930.894	8267
930.998	8187
931.103	8385
931.207	7978
931.311	7909
931.415	7871
931.519	7685
931.623	7731
