Data from test_V78500241_1930.txt Node
Date: Fri Mar 25 14:47:09 CST 2022
User: usil
Spectrometer: V785-0024
Trigger mode: 0
Integration Time (sec): 4.000000E-1
Scans to average: 1
Nonlinearity correction enabled: false
Boxcar width: 0
Storing dark spectrum: false
XAxis mode: Wavelengths
Number of Pixels in Spectrum: 1024
>>>>>Begin Spectral Data<<<<<
801.071	22284
801.214	21941
801.356	21682
801.499	21797
801.641	21515
801.783	21420
801.926	21466
802.068	21507
802.211	21374
802.353	21283
802.496	21043
802.638	20960
802.78	20887
802.923	20975
803.065	20800
803.208	20750
803.35	20750
803.492	21013
803.635	20998
803.777	20872
803.919	20941
804.061	20963
804.204	20921
804.346	20693
804.488	20785
804.63	20682
804.773	20731
804.915	20720
805.057	20804
805.199	20701
805.341	20777
805.483	20815
805.626	20788
805.768	20682
805.91	20777
806.052	20845
806.194	20617
806.336	20849
806.478	20800
806.62	20648
806.762	20590
806.904	20762
807.046	21119
807.188	21062
807.33	21005
807.472	21081
807.614	20914
807.756	20842
807.898	20762
808.04	20750
808.182	20826
808.324	20712
808.465	20815
808.607	21051
808.749	21135
808.891	21188
809.033	21256
809.174	21100
809.316	20979
809.458	20967
809.6	21032
809.741	21100
809.883	21157
810.025	21348
810.166	21310
810.308	21272
810.45	21237
810.591	21055
810.733	20948
810.875	20933
811.016	20788
811.158	20838
811.299	20800
811.441	20982
811.582	20933
811.724	20899
811.865	20804
812.007	20819
812.148	20838
812.29	20853
812.431	20982
812.573	21165
812.714	21157
812.855	21176
812.997	21374
813.138	21595
813.279	21492
813.421	21306
813.562	21230
813.703	21024
813.845	20956
813.986	20762
814.127	20522
814.268	20366
814.41	20446
814.551	20461
814.692	20587
814.833	20282
814.974	20389
815.115	20298
815.256	20218
815.397	20202
815.539	20202
815.68	20172
815.821	19982
815.962	20161
816.103	20138
816.244	19928
816.385	19799
816.526	19677
816.666	19704
816.807	19510
816.948	19643
817.089	19620
817.23	19594
817.371	19590
817.512	19552
817.653	19381
817.793	19487
817.934	19518
818.075	19567
818.216	19544
818.356	19335
818.497	19301
818.638	19327
818.778	19164
818.919	19232
819.06	19225
819.2	19415
819.341	19453
819.481	19384
819.622	19575
819.762	19655
819.903	19601
820.043	19685
820.184	19411
820.324	19571
820.465	19533
820.605	19582
820.746	19457
820.886	19369
821.026	19430
821.167	19400
821.307	19540
821.447	19468
821.588	19304
821.728	19266
821.868	19080
822.008	19053
822.149	18871
822.289	18833
822.429	18623
822.569	18570
822.709	18673
822.849	18502
822.99	18418
823.13	18323
823.27	18346
823.41	18228
823.55	18254
823.69	18266
823.83	18178
823.97	18194
824.11	17958
824.25	17859
824.389	18072
824.529	18060
824.669	17946
824.809	18022
824.949	18038
825.089	17965
825.228	17931
825.368	17710
825.508	17726
825.648	17756
825.787	17843
825.927	17779
826.067	17729
826.206	17600
826.346	17809
826.485	17680
826.625	17863
826.765	17802
826.904	17794
827.044	17676
827.183	17497
827.323	17471
827.462	17497
827.601	17448
827.741	17410
827.88	17452
828.02	17501
828.159	17406
828.298	17551
828.437	17436
828.577	17505
828.716	17532
828.855	17425
828.994	17189
829.134	17242
829.273	17200
829.412	17296
829.551	17105
829.69	17246
829.829	17235
829.968	17398
830.107	17170
830.246	17277
830.385	17288
830.524	17197
830.663	17102
830.802	16942
830.941	16866
831.08	16843
831.219	16995
831.357	16908
831.496	17143
831.635	16858
831.774	16805
831.913	16702
832.051	16596
832.19	16561
832.329	16580
832.467	16554
832.606	16523
832.744	16554
832.883	16558
833.022	16531
833.16	16599
833.299	16637
833.437	16630
833.576	16694
833.714	16683
833.852	16615
833.991	16752
834.129	16618
834.267	16675
834.406	16516
834.544	16637
834.682	16660
834.821	16630
834.959	16790
835.097	16672
835.235	16717
835.373	16679
835.511	16687
835.65	16569
835.788	16535
835.926	16428
836.064	16440
836.202	16367
836.34	16565
836.478	16634
836.615	16550
836.753	16592
836.891	16653
837.029	16645
837.167	16519
837.305	16489
837.443	16398
837.58	16432
837.718	16512
837.856	16363
837.993	16337
838.131	16424
838.269	16299
838.406	16272
838.544	16325
838.681	16139
838.819	15972
838.956	15945
839.094	15953
839.231	15994
839.369	16093
839.506	16314
839.643	16230
839.781	15945
839.918	15979
840.055	15926
840.193	15941
840.33	16021
840.467	15975
840.604	16025
840.742	16268
840.879	15911
841.016	15846
841.153	15850
841.29	16010
841.427	16013
841.564	16059
841.701	16025
841.838	15869
841.975	15968
842.112	15911
842.249	15762
842.385	15698
842.522	15968
842.659	15819
842.796	15717
842.933	15789
843.069	15747
843.206	15770
843.343	15797
843.479	15854
843.616	15774
843.752	15576
843.889	15625
844.025	15682
844.162	15466
844.298	15663
844.435	15599
844.571	15534
844.708	15606
844.844	15656
844.98	15675
845.117	15580
845.253	15492
845.389	15405
845.525	15401
845.661	15496
845.798	15355
845.934	15530
846.07	15237
846.206	15443
846.342	15591
846.478	15351
846.614	15123
846.75	14998
846.886	15112
847.022	15146
847.158	15097
847.294	15192
847.429	15165
847.565	15051
847.701	15332
847.837	14910
847.972	14880
848.108	14975
848.244	14982
848.379	14727
848.515	14712
848.65	14701
848.786	14716
848.921	14720
849.057	14777
849.192	14857
849.328	14819
849.463	14743
849.598	14678
849.734	14613
849.869	14587
850.004	14511
850.14	14492
850.275	14571
850.41	14446
850.545	14408
850.68	14522
850.815	14560
850.95	14537
851.085	14663
851.22	14598
851.355	14556
851.49	14446
851.625	14415
851.76	14476
851.895	14385
852.03	14408
852.165	14568
852.299	14530
852.434	14545
852.569	14552
852.703	14568
852.838	14564
852.973	14648
853.107	14659
853.242	14427
853.376	14366
853.511	14438
853.645	14278
853.78	14461
853.914	14419
854.048	14317
854.183	14278
854.317	14419
854.451	14526
854.585	14336
854.72	14427
854.854	14431
854.988	14313
855.122	14267
855.256	14225
855.39	14415
855.524	14408
855.658	14366
855.792	14389
855.926	14400
856.06	14396
856.194	14396
856.327	14324
856.461	14339
856.595	14396
856.729	14324
856.862	14389
856.996	14385
857.13	14450
857.263	14427
857.397	14518
857.53	14370
857.664	14366
857.797	14427
857.931	14454
858.064	14412
858.197	14552
858.331	14434
858.464	14324
858.597	14199
858.731	14313
858.864	14298
858.997	14374
859.13	14370
859.263	14446
859.396	14442
859.529	14358
859.662	14389
859.795	14301
859.928	14343
860.061	14476
860.194	14560
860.327	14400
860.46	14320
860.592	14415
860.725	14503
860.858	14480
860.99	14339
861.123	14366
861.256	14210
861.388	14396
861.521	15093
861.653	14244
861.786	14176
861.918	14286
862.05	14271
862.183	14324
862.315	14347
862.447	14301
862.58	14259
862.712	14176
862.844	14050
862.976	14244
863.108	14202
863.24	14549
863.372	14111
863.504	14134
863.636	14092
863.768	14134
863.9	14180
864.032	14123
864.164	14065
864.296	14195
864.428	14252
864.559	14301
864.691	14309
864.823	14218
864.954	14153
865.086	14259
865.217	14100
865.349	14077
865.48	14043
865.612	14149
865.743	14225
865.875	14111
866.006	14115
866.137	14195
866.269	14149
866.4	14153
866.531	14088
866.662	14039
866.793	14073
866.924	14005
867.055	14092
867.186	14126
867.317	14020
867.448	13989
867.579	14005
867.71	14046
867.841	14046
867.972	14119
868.103	14115
868.233	14008
868.364	14096
868.495	14214
868.625	14423
868.756	14446
868.886	14324
869.017	14374
869.147	14518
869.278	14461
869.408	14396
869.539	14351
869.669	14442
869.799	14381
869.929	14476
870.06	14488
870.19	14644
870.32	14613
870.45	14743
870.58	14826
870.71	14861
870.84	14902
870.97	14678
871.1	14727
871.23	14986
871.36	15020
871.489	14823
871.619	14899
871.749	14895
871.879	14956
872.008	15043
872.138	14861
872.267	14963
872.397	14834
872.526	14861
872.656	14773
872.785	14800
872.915	14986
873.044	15039
873.173	14963
873.303	14929
873.432	14963
873.561	15131
873.69	15055
873.819	15005
873.948	15131
874.077	15058
874.206	14914
874.335	14967
874.464	15233
874.593	15310
874.722	15272
874.851	15351
874.979	15332
875.108	15306
875.237	15317
875.365	15192
875.494	15306
875.623	15374
875.751	15245
875.88	15291
876.008	15443
876.136	15542
876.265	15854
876.393	15892
876.521	15686
876.65	15793
876.778	15835
876.906	15793
877.034	15648
877.162	15656
877.29	15709
877.418	15736
877.546	15766
877.674	15675
877.802	15755
877.93	15808
878.058	15671
878.185	15549
878.313	15713
878.441	15739
878.568	15511
878.696	15637
878.824	15873
878.951	15747
879.079	15911
879.206	16006
879.333	15991
879.461	15789
879.588	15793
879.715	15895
879.842	16025
879.97	15781
880.097	15633
880.224	15637
880.351	15572
880.478	15614
880.605	15568
880.732	15644
880.859	15766
880.986	15641
881.112	15564
881.239	15401
881.366	15298
881.493	15306
881.619	15291
881.746	15241
881.872	15252
881.999	15165
882.125	15302
882.252	15279
882.378	15233
882.505	15363
882.631	15138
882.757	14986
882.883	15211
883.01	15032
883.136	14960
883.262	14956
883.388	14872
883.514	15123
883.64	15077
883.766	14952
883.892	14952
884.018	14864
884.143	14986
884.269	15116
884.395	14899
884.52	14842
884.646	14800
884.772	14686
884.897	14777
885.023	14819
885.148	14876
885.274	14937
885.399	14883
885.524	14765
885.65	14819
885.775	14792
885.9	14773
886.025	14895
886.15	14872
886.275	14617
886.4	14598
886.525	14686
886.65	14705
886.775	14724
886.9	14857
887.025	14967
887.149	14785
887.274	14610
887.399	14533
887.523	14541
887.648	14564
887.773	14545
887.897	14739
888.021	14663
888.146	14579
888.27	14579
888.395	14670
888.519	14716
888.643	14621
888.767	14648
888.891	14492
889.015	14434
889.139	14507
889.263	14438
889.387	14629
889.511	14716
889.635	14461
889.759	14461
889.883	14446
890.006	14423
890.13	14564
890.254	14400
890.377	14355
890.501	14294
890.624	14176
890.748	14278
890.871	14187
890.995	14107
891.118	14107
891.241	14172
891.364	14161
891.488	14267
891.611	14199
891.734	14100
891.857	14153
891.98	14210
892.103	14157
892.226	14149
892.349	14123
892.471	14054
892.594	14107
892.717	14191
892.839	14069
892.962	14077
893.085	14214
893.207	14256
893.33	13974
893.452	14031
893.575	14176
893.697	14084
893.819	14381
893.941	14385
894.064	14161
894.186	14092
894.308	14065
894.43	14294
894.552	14282
894.674	14240
894.796	14172
894.918	14168
895.04	14134
895.161	14237
895.283	14328
895.405	14065
895.526	14195
895.648	14256
895.769	14385
895.891	14343
896.012	14328
896.134	14324
896.255	14324
896.376	14301
896.498	14278
896.619	14298
896.74	14366
896.861	14309
896.982	14632
897.103	14773
897.224	14644
897.345	14598
897.466	14469
897.587	14590
897.708	14663
897.828	14530
897.949	14568
898.07	14427
898.19	14533
898.311	14682
898.431	14617
898.552	14621
898.672	14743
898.792	14758
898.913	14765
899.033	14617
899.153	14511
899.273	14480
899.393	14518
899.513	14629
899.633	14579
899.753	14571
899.873	14522
899.993	14602
900.113	14617
900.232	14552
900.352	14518
900.472	14408
900.591	14336
900.711	14450
900.83	14347
900.95	14434
901.069	14438
901.189	14317
901.308	14096
901.427	14100
901.546	14142
901.665	14054
901.784	14092
901.904	13993
902.023	13921
902.141	13681
902.26	13582
902.379	13613
902.498	13540
902.617	13518
902.735	13620
902.854	13704
902.973	13575
903.091	13396
903.21	13285
903.328	13381
903.446	13308
903.565	13217
903.683	13152
903.801	13012
903.919	13194
904.038	13190
904.156	13038
904.274	13190
904.392	13027
904.51	12989
904.627	12943
904.745	13050
904.863	13091
904.981	12783
905.098	12681
905.216	12738
905.334	12791
905.451	12738
905.569	12665
905.686	12741
905.803	12753
905.921	12475
906.038	12593
906.155	12509
906.272	12357
906.389	12467
906.506	12311
906.623	12239
906.74	12277
906.857	12232
906.974	12186
907.091	12380
907.208	12403
907.324	12281
907.441	12235
907.557	12049
907.674	12087
907.79	11950
907.907	12057
908.023	12060
908.139	12079
908.256	12015
908.372	12034
908.488	11908
908.604	11939
908.72	11847
908.836	11790
908.952	11760
909.068	11748
909.184	11939
909.3	11821
909.415	11874
909.531	11794
909.647	11589
909.762	11562
909.878	11512
909.993	11623
910.108	11570
910.224	11532
910.339	11615
910.454	11459
910.57	11471
910.685	11433
910.8	11653
910.915	11547
911.03	11478
911.145	11303
911.259	11258
911.374	11280
911.489	11197
911.604	11216
911.718	10987
911.833	11064
911.947	11018
912.062	10850
912.176	11071
912.291	11083
912.405	11025
912.519	11258
912.633	11227
912.748	11117
912.862	10927
912.976	10824
913.09	10736
913.204	10759
913.318	10953
913.431	10987
913.545	10915
913.659	11071
913.772	10896
913.886	10759
914	10752
914.113	10866
914.226	10946
914.34	10927
914.453	10687
914.566	10877
914.68	10733
914.793	10656
914.906	10512
915.019	10478
915.132	10428
915.245	10523
915.358	10546
915.47	10535
915.583	10592
915.696	10584
915.809	10706
915.921	10679
916.034	10573
916.146	10538
916.259	10440
916.371	10569
916.483	10558
916.595	10504
916.708	10474
916.82	10440
916.932	10489
917.044	10405
917.156	10436
917.268	10306
917.38	10363
917.491	10375
917.603	10424
917.715	10440
917.826	10500
917.938	10344
918.049	10363
918.161	10276
918.272	10459
918.384	10432
918.495	10348
918.606	10257
918.717	10181
918.828	10188
918.939	10276
919.05	10169
919.161	10154
919.272	10017
919.383	10166
919.494	10249
919.604	10531
919.715	10276
919.826	10215
919.936	10223
920.047	10356
920.157	10215
920.267	10478
920.378	10291
920.488	10242
920.598	10436
920.708	10630
920.818	10466
920.928	10443
921.038	10546
921.148	10588
921.258	10280
921.368	10219
921.477	10074
921.587	10074
921.697	9987
921.806	10109
921.916	9987
922.025	9869
922.134	9751
922.244	9747
922.353	9865
922.462	9694
922.571	9610
922.68	9504
922.789	9507
922.898	9488
923.007	9393
923.116	9545
923.224	9538
923.333	9481
923.442	9370
923.55	9382
923.659	9378
923.767	9428
923.876	9355
923.984	9458
924.092	9317
924.201	9325
924.309	9298
924.417	9412
924.525	9272
924.633	9332
924.741	10253
924.849	9116
924.956	9287
925.064	9169
925.172	9116
925.279	9104
925.387	9192
925.494	9157
925.602	9302
925.709	9260
925.816	9077
925.924	9093
926.031	9245
926.138	9119
926.245	9214
926.352	9089
926.459	9150
926.566	9192
926.673	9085
926.779	8937
926.886	9005
926.993	8914
927.099	8845
927.206	8796
927.312	8807
927.419	8902
927.525	8891
927.631	8933
927.737	8815
927.843	8758
927.95	8659
928.056	8708
928.162	8766
928.267	8811
928.373	9329
928.479	8838
928.585	8632
928.69	8773
928.796	8838
928.901	8644
929.007	8465
929.112	8674
929.218	8636
929.323	8583
929.428	8564
929.533	8712
929.638	8499
929.743	8606
929.848	8655
929.953	8537
930.058	8499
930.163	8366
930.267	8343
930.372	8495
930.477	8328
930.581	8507
930.685	8434
930.79	8309
930.894	8423
930.998	8290
931.103	8434
931.207	8039
931.311	7967
931.415	8012
931.519	7750
931.623	7727
