Data from test_V78500241_1763.txt Node
Date: Fri Mar 25 14:45:59 CST 2022
User: usil
Spectrometer: V785-0024
Trigger mode: 0
Integration Time (sec): 4.000000E-1
Scans to average: 1
Nonlinearity correction enabled: false
Boxcar width: 0
Storing dark spectrum: false
XAxis mode: Wavelengths
Number of Pixels in Spectrum: 1024
>>>>>Begin Spectral Data<<<<<
801.071	22249
801.214	22196
801.356	21831
801.499	21701
801.641	21572
801.783	21515
801.926	21648
802.068	21591
802.211	21454
802.353	21348
802.496	21226
802.638	21077
802.78	21043
802.923	20895
803.065	20842
803.208	20864
803.35	20891
803.492	20929
803.635	21043
803.777	20883
803.919	20952
804.061	21218
804.204	20925
804.346	20883
804.488	20902
804.63	20906
804.773	20724
804.915	20910
805.057	20952
805.199	20800
805.341	20929
805.483	20849
805.626	20933
805.768	20842
805.91	20838
806.052	20941
806.194	20701
806.336	21096
806.478	20845
806.62	20762
806.762	20883
806.904	21017
807.046	21348
807.188	21260
807.33	21119
807.472	21348
807.614	21070
807.756	21135
807.898	20941
808.04	20876
808.182	20982
808.324	20937
808.465	20982
808.607	21112
808.749	21344
808.891	21416
809.033	21336
809.174	21351
809.316	21150
809.458	21211
809.6	21154
809.741	21340
809.883	21249
810.025	21317
810.166	21321
810.308	21428
810.45	21405
810.591	21256
810.733	21062
810.875	20990
811.016	20960
811.158	20967
811.299	20956
811.441	21051
811.582	21165
811.724	21028
811.865	20876
812.007	20948
812.148	21017
812.29	21051
812.431	21138
812.573	21237
812.714	21408
812.855	21488
812.997	21644
813.138	21720
813.279	21618
813.421	21469
813.562	21458
813.703	21291
813.845	21245
813.986	20819
814.127	20735
814.268	20644
814.41	20556
814.551	20492
814.692	20568
814.833	20385
814.974	20469
815.115	20549
815.256	20419
815.397	20294
815.539	20442
815.68	20294
815.821	20282
815.962	20305
816.103	20210
816.244	20107
816.385	19978
816.526	19989
816.666	19746
816.807	19776
816.948	19791
817.089	19822
817.23	19723
817.371	19510
817.512	19647
817.653	19791
817.793	19731
817.934	19742
818.075	19696
818.216	19655
818.356	19582
818.497	19559
818.638	19422
818.778	19407
818.919	19480
819.06	19415
819.2	19487
819.341	19491
819.481	19601
819.622	19674
819.762	19932
819.903	19765
820.043	19803
820.184	19769
820.324	19674
820.465	19864
820.605	19769
820.746	19666
820.886	19510
821.026	19639
821.167	19655
821.307	19670
821.447	19491
821.588	19480
821.728	19411
821.868	19251
822.008	19126
822.149	18970
822.289	19031
822.429	18814
822.569	18738
822.709	18753
822.849	18555
822.99	18589
823.13	18570
823.27	18585
823.41	18365
823.55	18410
823.69	18429
823.83	18338
823.97	18247
824.11	18224
824.25	18011
824.389	18159
824.529	18167
824.669	18178
824.809	18330
824.949	18190
825.089	18289
825.228	18167
825.368	17996
825.508	17969
825.648	17904
825.787	17866
825.927	17935
826.067	17992
826.206	17893
826.346	17897
826.485	17893
826.625	17840
826.765	17969
826.904	17920
827.044	17745
827.183	17752
827.323	17516
827.462	17676
827.601	17558
827.741	17543
827.88	17608
828.02	17581
828.159	17524
828.298	17608
828.437	17665
828.577	17585
828.716	17718
828.855	17585
828.994	17330
829.134	17318
829.273	17402
829.412	17273
829.551	17265
829.69	17345
829.829	17356
829.968	17387
830.107	17364
830.246	17326
830.385	17326
830.524	17155
830.663	17166
830.802	16976
830.941	16968
831.08	16923
831.219	17014
831.357	17010
831.496	17284
831.635	16934
831.774	16793
831.913	17010
832.051	16771
832.19	16793
832.329	16820
832.467	16725
832.606	16675
832.744	16668
832.883	16683
833.022	16634
833.16	16660
833.299	16607
833.437	16626
833.576	16752
833.714	16691
833.852	16740
833.991	16740
834.129	16793
834.267	16816
834.406	16729
834.544	16797
834.682	16725
834.821	16759
834.959	16930
835.097	16691
835.235	16828
835.373	16649
835.511	16710
835.65	16531
835.788	16550
835.926	16470
836.064	16375
836.202	16474
836.34	16641
836.478	16626
836.615	16527
836.753	16702
836.891	16683
837.029	16626
837.167	16577
837.305	16481
837.443	16554
837.58	16497
837.718	16485
837.856	16569
837.993	16474
838.131	16516
838.269	16432
838.406	16341
838.544	16405
838.681	16223
838.819	16147
838.956	16044
839.094	15987
839.231	16059
839.369	16234
839.506	16367
839.643	16204
839.781	16101
839.918	16044
840.055	16082
840.193	15937
840.33	15926
840.467	16048
840.604	16093
840.742	16299
840.879	15987
841.016	15930
841.153	16029
841.29	16215
841.427	16101
841.564	16143
841.701	16116
841.838	16017
841.975	16013
842.112	15930
842.249	15846
842.385	15709
842.522	16017
842.659	15842
842.796	15724
842.933	15800
843.069	15793
843.206	15614
843.343	15884
843.479	15838
843.616	15816
843.752	15629
843.889	15641
844.025	15701
844.162	15610
844.298	15724
844.435	15591
844.571	15523
844.708	15633
844.844	15774
844.98	15774
845.117	15694
845.253	15526
845.389	15454
845.525	15485
845.661	15549
845.798	15359
845.934	15447
846.07	15367
846.206	15431
846.342	15496
846.478	15382
846.614	15268
846.75	15119
846.886	15146
847.022	15260
847.158	15195
847.294	15211
847.429	15142
847.565	15123
847.701	15420
847.837	14887
847.972	14826
848.108	14929
848.244	14925
848.379	14735
848.515	14754
848.65	14796
848.786	14834
848.921	14674
849.057	14883
849.192	14910
849.328	14857
849.463	14765
849.598	14796
849.734	14705
849.869	14552
850.004	14549
850.14	14533
850.275	14518
850.41	14381
850.545	14518
850.68	14533
850.815	14636
850.95	14492
851.085	14564
851.22	14636
851.355	14564
851.49	14461
851.625	14476
851.76	14632
851.895	14442
852.03	14461
852.165	14526
852.299	14473
852.434	14598
852.569	14613
852.703	14564
852.838	14667
852.973	14667
853.107	14701
853.242	14541
853.376	14404
853.511	14218
853.645	14286
853.78	14530
853.914	14419
854.048	14381
854.183	14309
854.317	14324
854.451	14655
854.585	14374
854.72	14389
854.854	14434
854.988	14358
855.122	14450
855.256	14358
855.39	14408
855.524	14438
855.658	14454
855.792	14412
855.926	14446
856.06	14518
856.194	14537
856.327	14381
856.461	14370
856.595	14396
856.729	14419
856.862	14454
856.996	14434
857.13	14495
857.263	14530
857.397	14492
857.53	14275
857.664	14511
857.797	14495
857.931	14412
858.064	14507
858.197	14549
858.331	14404
858.464	14355
858.597	14187
858.731	14301
858.864	14309
858.997	14377
859.13	14476
859.263	14400
859.396	14526
859.529	14358
859.662	14484
859.795	14263
859.928	14358
860.061	14640
860.194	14495
860.327	14400
860.46	14374
860.592	14503
860.725	14526
860.858	14571
860.99	14355
861.123	14286
861.256	14320
861.388	14473
861.521	15055
861.653	14267
861.786	14164
861.918	14237
862.05	14332
862.183	14389
862.315	14427
862.447	14442
862.58	14419
862.712	14183
862.844	14107
862.976	14206
863.108	14275
863.24	14545
863.372	14043
863.504	14103
863.636	14145
863.768	14275
863.9	14233
864.032	14111
864.164	14183
864.296	14210
864.428	14324
864.559	14221
864.691	14233
864.823	14233
864.954	14263
865.086	14221
865.217	14092
865.349	14039
865.48	14153
865.612	14149
865.743	14252
865.875	14138
866.006	14145
866.137	14210
866.269	14206
866.4	14073
866.531	14069
866.662	14058
866.793	14031
866.924	14161
867.055	14221
867.186	14202
867.317	14134
867.448	13997
867.579	14065
867.71	14100
867.841	14031
867.972	14069
868.103	14168
868.233	14138
868.364	14161
868.495	14172
868.625	14381
868.756	14488
868.886	14290
869.017	14377
869.147	14457
869.278	14522
869.408	14442
869.539	14442
869.669	14549
869.799	14389
869.929	14526
870.06	14514
870.19	14693
870.32	14663
870.45	14796
870.58	14849
870.71	14910
870.84	14960
870.97	14887
871.1	14765
871.23	14994
871.36	15077
871.489	14925
871.619	14868
871.749	14956
871.879	15062
872.008	15051
872.138	15009
872.267	14971
872.397	14849
872.526	14796
872.656	14883
872.785	14857
872.915	15009
873.044	15142
873.173	15001
873.303	15085
873.432	15013
873.561	15058
873.69	15043
873.819	15028
873.948	15085
874.077	15131
874.206	15127
874.335	15119
874.464	15146
874.593	15268
874.722	15233
874.851	15405
874.979	15329
875.108	15454
875.237	15348
875.365	15260
875.494	15420
875.623	15431
875.751	15355
875.88	15363
876.008	15614
876.136	15667
876.265	15831
876.393	15934
876.521	15888
876.65	15789
876.778	15850
876.906	15663
877.034	15732
877.162	15690
877.29	15644
877.418	15774
877.546	15797
877.674	15793
877.802	15755
877.93	15781
878.058	15736
878.185	15606
878.313	15701
878.441	15755
878.568	15660
878.696	15785
878.824	15873
878.951	15743
879.079	15930
879.206	16044
879.333	15956
879.461	15793
879.588	16002
879.715	15873
879.842	16124
879.97	15949
880.097	15606
880.224	15591
880.351	15724
880.478	15603
880.605	15682
880.732	15564
880.859	15717
880.986	15686
881.112	15667
881.239	15523
881.366	15306
881.493	15378
881.619	15332
881.746	15359
881.872	15279
881.999	15291
882.125	15268
882.252	15260
882.378	15317
882.505	15397
882.631	15272
882.757	15131
882.883	15127
883.01	15176
883.136	15028
883.262	15116
883.388	15020
883.514	15135
883.64	15123
883.766	15108
883.892	14918
884.018	14918
884.143	15150
884.269	15203
884.395	14864
884.52	14838
884.646	14750
884.772	14743
884.897	14758
885.023	14727
885.148	14941
885.274	14906
885.399	14979
885.524	14777
885.65	14693
885.775	14838
885.9	14796
886.025	14921
886.15	14952
886.275	14708
886.4	14697
886.525	14754
886.65	14644
886.775	14750
886.9	14979
887.025	14963
887.149	14693
887.274	14678
887.399	14587
887.523	14564
887.648	14636
887.773	14545
887.897	14674
888.021	14640
888.146	14602
888.27	14686
888.395	14773
888.519	14629
888.643	14655
888.767	14735
888.891	14587
889.015	14438
889.139	14651
889.263	14556
889.387	14480
889.511	14632
889.635	14610
889.759	14431
889.883	14469
890.006	14476
890.13	14541
890.254	14507
890.377	14476
890.501	14252
890.624	14278
890.748	14385
890.871	14210
890.995	14240
891.118	14161
891.241	14176
891.364	14263
891.488	14320
891.611	14233
891.734	14180
891.857	14294
891.98	14161
892.103	14199
892.226	14210
892.349	14111
892.471	14092
892.594	14240
892.717	14252
892.839	14142
892.962	14229
893.085	14286
893.207	14218
893.33	14123
893.452	14138
893.575	14191
893.697	14248
893.819	14351
893.941	14404
894.064	14324
894.186	14240
894.308	14149
894.43	14290
894.552	14446
894.674	14362
894.796	14210
894.918	14187
895.04	14259
895.161	14450
895.283	14351
895.405	14180
895.526	14263
895.648	14370
895.769	14256
895.891	14374
896.012	14362
896.134	14404
896.255	14298
896.376	14271
896.498	14332
896.619	14450
896.74	14301
896.861	14400
896.982	14750
897.103	14800
897.224	14769
897.345	14560
897.466	14549
897.587	14587
897.708	14731
897.828	14648
897.949	14606
898.07	14514
898.19	14625
898.311	14815
898.431	14636
898.552	14693
898.672	14678
898.792	14762
898.913	14788
899.033	14659
899.153	14556
899.273	14495
899.393	14545
899.513	14533
899.633	14587
899.753	14708
899.873	14587
899.993	14518
900.113	14507
900.232	14629
900.352	14526
900.472	14457
900.591	14385
900.711	14366
900.83	14366
900.95	14556
901.069	14499
901.189	14385
901.308	14134
901.427	14138
901.546	14046
901.665	14145
901.784	14123
901.904	14077
902.023	13887
902.141	13624
902.26	13605
902.379	13636
902.498	13696
902.617	13540
902.735	13738
902.854	13685
902.973	13590
903.091	13407
903.21	13445
903.328	13460
903.446	13297
903.565	13209
903.683	13259
903.801	13202
903.919	13297
904.038	13156
904.156	13061
904.274	13080
904.392	12993
904.51	13088
904.627	12989
904.745	13107
904.863	13084
904.981	12859
905.098	12829
905.216	12779
905.334	12871
905.451	12757
905.569	12734
905.686	12810
905.803	12776
905.921	12563
906.038	12677
906.155	12570
906.272	12418
906.389	12528
906.506	12292
906.623	12323
906.74	12273
906.857	12209
906.974	12239
907.091	12399
907.208	12456
907.324	12391
907.441	12201
907.557	12095
907.674	12076
907.79	11999
907.907	11961
908.023	12098
908.139	12114
908.256	12030
908.372	12007
908.488	11980
908.604	11901
908.72	11828
908.836	11783
908.952	11874
909.068	11859
909.184	11939
909.3	11889
909.415	11916
909.531	11843
909.647	11623
909.762	11638
909.878	11577
909.993	11695
910.108	11592
910.224	11627
910.339	11627
910.454	11429
910.57	11421
910.685	11391
910.8	11649
910.915	11630
911.03	11478
911.145	11288
911.259	11349
911.374	11250
911.489	11178
911.604	11174
911.718	11090
911.833	11094
911.947	10946
912.062	10892
912.176	11041
912.291	11060
912.405	11117
912.519	11204
912.633	11307
912.748	11121
912.862	11045
912.976	10946
913.09	10782
913.204	10862
913.318	10976
913.431	10984
913.545	11025
913.659	11003
913.772	10953
913.886	10816
914	10869
914.113	10942
914.226	10900
914.34	10862
914.453	10733
914.566	10908
914.68	10706
914.793	10809
914.906	10611
915.019	10565
915.132	10443
915.245	10535
915.358	10573
915.47	10550
915.583	10626
915.696	10710
915.809	10691
915.921	10755
916.034	10554
916.146	10489
916.259	10500
916.371	10596
916.483	10569
916.595	10466
916.708	10459
916.82	10569
916.932	10462
917.044	10394
917.156	10462
917.268	10443
917.38	10371
917.491	10306
917.603	10306
917.715	10470
917.826	10497
917.938	10390
918.049	10356
918.161	10405
918.272	10481
918.384	10584
918.495	10447
918.606	10261
918.717	10207
918.828	10329
918.939	10284
919.05	10181
919.161	10257
919.272	9998
919.383	10188
919.494	10303
919.604	10554
919.715	10352
919.826	10200
919.936	10238
920.047	10375
920.157	10314
920.267	10481
920.378	10310
920.488	10253
920.598	10478
920.708	10580
920.818	10440
920.928	10478
921.038	10611
921.148	10531
921.258	10352
921.368	10169
921.477	10169
921.587	10150
921.697	10021
921.806	10120
921.916	10044
922.025	9945
922.134	9740
922.244	9724
922.353	9869
922.462	9724
922.571	9694
922.68	9504
922.789	9488
922.898	9572
923.007	9481
923.116	9523
923.224	9500
923.333	9542
923.442	9405
923.55	9428
923.659	9363
923.767	9443
923.876	9340
923.984	9435
924.092	9264
924.201	9298
924.309	9420
924.417	9447
924.525	9279
924.633	9370
924.741	10238
924.849	9173
924.956	9393
925.064	9203
925.172	9070
925.279	9116
925.387	9283
925.494	9180
925.602	9325
925.709	9279
925.816	9093
925.924	9108
926.031	9287
926.138	9176
926.245	9233
926.352	9085
926.459	9222
926.566	9313
926.673	9081
926.779	9062
926.886	9043
926.993	8891
927.099	8895
927.206	8777
927.312	8838
927.419	8994
927.525	8853
927.631	8914
927.737	8834
927.843	8762
927.95	8648
928.056	8777
928.162	8785
928.267	8849
928.373	9469
928.479	8830
928.585	8674
928.69	8804
928.796	8777
928.901	8670
929.007	8556
929.112	8686
929.218	8644
929.323	8598
929.428	8590
929.533	8720
929.638	8533
929.743	8590
929.848	8621
929.953	8594
930.058	8503
930.163	8339
930.267	8396
930.372	8499
930.477	8332
930.581	8610
930.685	8419
930.79	8317
930.894	8381
930.998	8282
931.103	8469
931.207	8119
931.311	8062
931.415	7997
931.519	7841
931.623	7769
