Data from test_V78500241_3292.txt Node
Date: Fri Mar 25 14:56:38 CST 2022
User: usil
Spectrometer: V785-0024
Trigger mode: 0
Integration Time (sec): 4.000000E-1
Scans to average: 1
Nonlinearity correction enabled: false
Boxcar width: 0
Storing dark spectrum: false
XAxis mode: Wavelengths
Number of Pixels in Spectrum: 1024
>>>>>Begin Spectral Data<<<<<
801.071	21968
801.214	21865
801.356	21568
801.499	21477
801.641	21340
801.783	21355
801.926	21302
802.068	21264
802.211	21241
802.353	21157
802.496	20891
802.638	20849
802.78	20845
802.923	20769
803.065	20587
803.208	20648
803.35	20754
803.492	20891
803.635	20765
803.777	20705
803.919	20762
804.061	21028
804.204	20689
804.346	20587
804.488	20579
804.63	20670
804.773	20564
804.915	20556
805.057	20697
805.199	20545
805.341	20682
805.483	20689
805.626	20629
805.768	20556
805.91	20571
806.052	20629
806.194	20461
806.336	20792
806.478	20423
806.62	20499
806.762	20575
806.904	20769
807.046	20857
807.188	20902
807.33	21024
807.472	20921
807.614	20785
807.756	20823
807.898	20651
808.04	20689
808.182	20629
808.324	20594
808.465	20750
808.607	20800
808.749	20838
808.891	21024
809.033	21077
809.174	21112
809.316	20857
809.458	20963
809.6	20842
809.741	20933
809.883	21127
810.025	21077
810.166	21058
810.308	21062
810.45	21081
810.591	20948
810.733	20826
810.875	20834
811.016	20602
811.158	20651
811.299	20674
811.441	20861
811.582	20842
811.724	20689
811.865	20746
812.007	20693
812.148	20636
812.29	20640
812.431	20819
812.573	21020
812.714	21077
812.855	21222
812.997	21199
813.138	21378
813.279	21283
813.421	21176
813.562	21058
813.703	20948
813.845	20868
813.986	20503
814.127	20366
814.268	20233
814.41	20286
814.551	20267
814.692	20233
814.833	20240
814.974	20214
815.115	20271
815.256	20240
815.397	20050
815.539	20145
815.68	19864
815.821	19925
815.962	19925
816.103	19989
816.244	19761
816.385	19662
816.526	19666
816.666	19529
816.807	19415
816.948	19559
817.089	19441
817.23	19472
817.371	19441
817.512	19346
817.653	19415
817.793	19324
817.934	19377
818.075	19411
818.216	19324
818.356	19327
818.497	19202
818.638	18970
818.778	19080
818.919	19042
819.06	19053
819.2	19190
819.341	19251
819.481	19183
819.622	19449
819.762	19514
819.903	19571
820.043	19400
820.184	19438
820.324	19384
820.465	19400
820.605	19339
820.746	19270
820.886	19251
821.026	19350
821.167	19228
821.307	19293
821.447	19236
821.588	19266
821.728	19000
821.868	18802
822.008	18631
822.149	18696
822.289	18852
822.429	18597
822.569	18315
822.709	18483
822.849	18213
822.99	18338
823.13	18213
823.27	18174
823.41	18171
823.55	17920
823.69	18102
823.83	18057
823.97	18015
824.11	17859
824.25	17878
824.389	17882
824.529	17897
824.669	17870
824.809	17840
824.949	17954
825.089	17817
825.228	17863
825.368	17805
825.508	17615
825.648	17722
825.787	17676
825.927	17714
826.067	17516
826.206	17516
826.346	17710
826.485	17733
826.625	17585
826.765	17703
826.904	17665
827.044	17509
827.183	17353
827.323	17341
827.462	17463
827.601	17360
827.741	17337
827.88	17337
828.02	17185
828.159	17383
828.298	17242
828.437	17379
828.577	17307
828.716	17467
828.855	17299
828.994	17083
829.134	17041
829.273	17155
829.412	17098
829.551	17048
829.69	17045
829.829	17117
829.968	17155
830.107	17109
830.246	17086
830.385	17075
830.524	16991
830.663	16923
830.802	16949
830.941	16717
831.08	16694
831.219	16774
831.357	16748
831.496	16934
831.635	16687
831.774	16675
831.913	16599
832.051	16413
832.19	16485
832.329	16634
832.467	16474
832.606	16360
832.744	16341
832.883	16333
833.022	16363
833.16	16352
833.299	16360
833.437	16371
833.576	16466
833.714	16417
833.852	16489
833.991	16508
834.129	16519
834.267	16554
834.406	16459
834.544	16462
834.682	16459
834.821	16428
834.959	16679
835.097	16508
835.235	16546
835.373	16497
835.511	16481
835.65	16367
835.788	16306
835.926	16223
836.064	16223
836.202	16158
836.34	16352
836.478	16466
836.615	16303
836.753	16360
836.891	16478
837.029	16382
837.167	16287
837.305	16211
837.443	16242
837.58	16169
837.718	16325
837.856	16211
837.993	16295
838.131	16230
838.269	16166
838.406	16158
838.544	16135
838.681	15964
838.819	15884
838.956	15751
839.094	15762
839.231	15770
839.369	15903
839.506	16173
839.643	15998
839.781	15747
839.918	15804
840.055	15793
840.193	15717
840.33	15739
840.467	15808
840.604	15797
840.742	16044
840.879	15736
841.016	15682
841.153	15713
841.29	15903
841.427	15854
841.564	15823
841.701	15732
841.838	15701
841.975	15614
842.112	15637
842.249	15572
842.385	15618
842.522	15759
842.659	15629
842.796	15496
842.933	15625
843.069	15564
843.206	15599
843.343	15610
843.479	15545
843.616	15629
843.752	15370
843.889	15313
844.025	15538
844.162	15397
844.298	15393
844.435	15370
844.571	15321
844.708	15439
844.844	15492
844.98	15412
845.117	15504
845.253	15298
845.389	15161
845.525	15173
845.661	15275
845.798	15169
845.934	15093
846.07	15074
846.206	15142
846.342	15287
846.478	15123
846.614	15020
846.75	14921
846.886	14933
847.022	15001
847.158	14899
847.294	14960
847.429	15005
847.565	14967
847.701	15230
847.837	14693
847.972	14644
848.108	14724
848.244	14750
848.379	14549
848.515	14640
848.65	14492
848.786	14522
848.921	14434
849.057	14632
849.192	14621
849.328	14610
849.463	14526
849.598	14492
849.734	14564
849.869	14385
850.004	14347
850.14	14454
850.275	14248
850.41	14240
850.545	14328
850.68	14301
850.815	14324
850.95	14282
851.085	14518
851.22	14339
851.355	14374
851.49	14271
851.625	14210
851.76	14301
851.895	14218
852.03	14298
852.165	14191
852.299	14309
852.434	14389
852.569	14347
852.703	14343
852.838	14446
852.973	14511
853.107	14419
853.242	14320
853.376	14111
853.511	14096
853.645	14149
853.78	14290
853.914	14233
854.048	14161
854.183	14077
854.317	14157
854.451	14355
854.585	14256
854.72	14088
854.854	14225
854.988	14092
855.122	14138
855.256	13974
855.39	14130
855.524	14336
855.658	14317
855.792	14237
855.926	14244
856.06	14221
856.194	14298
856.327	14187
856.461	14077
856.595	14138
856.729	14134
856.862	14157
856.996	14119
857.13	14191
857.263	14240
857.397	14225
857.53	14191
857.664	14240
857.797	14221
857.931	14240
858.064	14229
858.197	14305
858.331	14161
858.464	14123
858.597	14164
858.731	14237
858.864	14161
858.997	14206
859.13	14164
859.263	14229
859.396	14305
859.529	14103
859.662	14111
859.795	14077
859.928	14263
860.061	14381
860.194	14351
860.327	14142
860.46	14187
860.592	14301
860.725	14290
860.858	14240
860.99	14206
861.123	14126
861.256	14062
861.388	14176
861.521	14979
861.653	14096
861.786	14027
861.918	14016
862.05	14069
862.183	14092
862.315	14100
862.447	14214
862.58	14119
862.712	13921
862.844	13928
862.976	14020
863.108	14001
863.24	14343
863.372	13902
863.504	13852
863.636	13921
863.768	14077
863.9	13947
864.032	13879
864.164	13898
864.296	14054
864.428	14092
864.559	14100
864.691	14031
864.823	14027
864.954	14031
865.086	13925
865.217	13928
865.349	13807
865.48	13909
865.612	13940
865.743	14084
865.875	13940
866.006	13883
866.137	13913
866.269	13928
866.4	13906
866.531	13860
866.662	13868
866.793	13894
866.924	13864
867.055	13974
867.186	13993
867.317	13860
867.448	13769
867.579	13822
867.71	13898
867.841	13822
867.972	13978
868.103	14001
868.233	13887
868.364	13944
868.495	14107
868.625	14202
868.756	14313
868.886	14058
869.017	14206
869.147	14225
869.278	14252
869.408	14256
869.539	14172
869.669	14347
869.799	14259
869.929	14263
870.06	14221
870.19	14495
870.32	14438
870.45	14503
870.58	14503
870.71	14629
870.84	14724
870.97	14575
871.1	14606
871.23	14823
871.36	14785
871.489	14579
871.619	14750
871.749	14826
871.879	14895
872.008	14910
872.138	14693
872.267	14830
872.397	14716
872.526	14651
872.656	14659
872.785	14579
872.915	14750
873.044	14815
873.173	14838
873.303	14796
873.432	14895
873.561	14864
873.69	14849
873.819	14792
873.948	14990
874.077	14857
874.206	14754
874.335	14823
874.464	15074
874.593	15256
874.722	15138
874.851	15214
874.979	15119
875.108	15062
875.237	15043
875.365	15077
875.494	15097
875.623	15260
875.751	15047
875.88	15169
876.008	15207
876.136	15367
876.265	15606
876.393	15774
876.521	15671
876.65	15671
876.778	15564
876.906	15511
877.034	15481
877.162	15538
877.29	15454
877.418	15587
877.546	15625
877.674	15644
877.802	15591
877.93	15477
878.058	15424
878.185	15530
878.313	15534
878.441	15492
878.568	15485
878.696	15580
878.824	15599
878.951	15587
879.079	15679
879.206	15850
879.333	15633
879.461	15603
879.588	15698
879.715	15774
879.842	15842
879.97	15625
880.097	15321
880.224	15363
880.351	15420
880.478	15424
880.605	15344
880.732	15359
880.859	15557
880.986	15382
881.112	15393
881.239	15306
881.366	15256
881.493	15135
881.619	15066
881.746	15142
881.872	15127
881.999	15085
882.125	15013
882.252	15100
882.378	15097
882.505	15275
882.631	14994
882.757	14785
882.883	15032
883.01	14834
883.136	14815
883.262	14743
883.388	14746
883.514	14994
883.64	14899
883.766	14788
883.892	14762
884.018	14705
884.143	14887
884.269	15020
884.395	14712
884.52	14545
884.646	14606
884.772	14617
884.897	14598
885.023	14590
885.148	14674
885.274	14682
885.399	14762
885.524	14522
885.65	14579
885.775	14556
885.9	14552
886.025	14678
886.15	14686
886.275	14564
886.4	14590
886.525	14495
886.65	14541
886.775	14568
886.9	14701
887.025	14834
887.149	14552
887.274	14530
887.399	14545
887.523	14427
887.648	14366
887.773	14366
887.897	14541
888.021	14537
888.146	14252
888.27	14492
888.395	14602
888.519	14556
888.643	14503
888.767	14530
888.891	14431
889.015	14202
889.139	14328
889.263	14259
889.387	14351
889.511	14514
889.635	14442
889.759	14244
889.883	14248
890.006	14396
890.13	14385
890.254	14252
890.377	14221
890.501	14100
890.624	14176
890.748	14187
890.871	14035
890.995	14001
891.118	13951
891.241	14062
891.364	14001
891.488	14073
891.611	13970
891.734	13993
891.857	14088
891.98	14050
892.103	14024
892.226	14077
892.349	13879
892.471	13814
892.594	14020
892.717	14081
892.839	13993
892.962	13921
893.085	14005
893.207	13974
893.33	13833
893.452	13947
893.575	14065
893.697	14050
893.819	14168
893.941	14214
894.064	14172
894.186	13989
894.308	13944
894.43	14126
894.552	14206
894.674	14130
894.796	13959
894.918	14001
895.04	14043
895.161	14123
895.283	14153
895.405	14050
895.526	14153
895.648	14062
895.769	14077
895.891	14206
896.012	14081
896.134	14252
896.255	14164
896.376	14187
896.498	14225
896.619	14164
896.74	14206
896.861	14225
896.982	14575
897.103	14663
897.224	14575
897.345	14469
897.466	14374
897.587	14476
897.708	14629
897.828	14545
897.949	14454
898.07	14393
898.19	14381
898.311	14598
898.431	14473
898.552	14511
898.672	14484
898.792	14621
898.913	14473
899.033	14400
899.153	14404
899.273	14244
899.393	14461
899.513	14374
899.633	14415
899.753	14404
899.873	14267
899.993	14423
900.113	14267
900.232	14427
900.352	14385
900.472	14351
900.591	14256
900.711	14195
900.83	14172
900.95	14404
901.069	14317
901.189	14161
901.308	13906
901.427	13780
901.546	13871
901.665	13989
901.784	13909
901.904	13852
902.023	13811
902.141	13480
902.26	13464
902.379	13540
902.498	13502
902.617	13400
902.735	13487
902.854	13510
902.973	13403
903.091	13217
903.21	13137
903.328	13179
903.446	13202
903.565	13072
903.683	13137
903.801	12954
903.919	13027
904.038	13015
904.156	12958
904.274	12966
904.392	12798
904.51	12829
904.627	12829
904.745	12996
904.863	12947
904.981	12623
905.098	12551
905.216	12578
905.334	12597
905.451	12551
905.569	12593
905.686	12532
905.803	12486
905.921	12330
906.038	12448
906.155	12437
906.272	12296
906.389	12327
906.506	12129
906.623	12095
906.74	12148
906.857	12057
906.974	12098
907.091	12239
907.208	12308
907.324	12178
907.441	12102
907.557	11980
907.674	11901
907.79	11882
907.907	11847
908.023	11969
908.139	11931
908.256	11874
908.372	11809
908.488	11832
908.604	11714
908.72	11657
908.836	11668
908.952	11573
909.068	11676
909.184	11741
909.3	11615
909.415	11737
909.531	11714
909.647	11433
909.762	11364
909.878	11356
909.993	11452
910.108	11516
910.224	11490
910.339	11421
910.454	11337
910.57	11280
910.685	11151
910.8	11581
910.915	11406
911.03	11307
911.145	11193
911.259	11147
911.374	11136
911.489	11109
911.604	11083
911.718	10896
911.833	10938
911.947	10748
912.062	10755
912.176	10831
912.291	11010
912.405	10862
912.519	11083
912.633	11090
912.748	11022
912.862	10965
912.976	10759
913.09	10744
913.204	10744
913.318	10839
913.431	10927
913.545	10839
913.659	10911
913.772	10820
913.886	10736
914	10698
914.113	10774
914.226	10847
914.34	10702
914.453	10664
914.566	10828
914.68	10607
914.793	10554
914.906	10451
915.019	10421
915.132	10306
915.245	10390
915.358	10428
915.47	10459
915.583	10481
915.696	10451
915.809	10493
915.921	10500
916.034	10402
916.146	10287
916.259	10318
916.371	10455
916.483	10428
916.595	10291
916.708	10413
916.82	10337
916.932	10409
917.044	10284
917.156	10276
917.268	10284
917.38	10356
917.491	10150
917.603	10276
917.715	10299
917.826	10428
917.938	10223
918.049	10147
918.161	10227
918.272	10322
918.384	10344
918.495	10215
918.606	10196
918.717	10048
918.828	10158
918.939	10116
919.05	10055
919.161	10139
919.272	9899
919.383	9998
919.494	10150
919.604	10402
919.715	10112
919.826	10067
919.936	10147
920.047	10257
920.157	10143
920.267	10287
920.378	10207
920.488	10143
920.598	10356
920.708	10466
920.818	10398
920.928	10272
921.038	10447
921.148	10455
921.258	10192
921.368	10139
921.477	10036
921.587	9892
921.697	9915
921.806	9953
921.916	9823
922.025	9766
922.134	9698
922.244	9652
922.353	9774
922.462	9576
922.571	9572
922.68	9462
922.789	9412
922.898	9389
923.007	9302
923.116	9564
923.224	9458
923.333	9374
923.442	9283
923.55	9214
923.659	9199
923.767	9351
923.876	9260
923.984	9325
924.092	9195
924.201	9313
924.309	9195
924.417	9230
924.525	9184
924.633	9272
924.741	10200
924.849	9043
924.956	9176
925.064	8990
925.172	8929
925.279	8994
925.387	9077
925.494	9070
925.602	9123
925.709	9131
925.816	8960
925.924	9074
926.031	9142
926.138	9112
926.245	9081
926.352	8994
926.459	9161
926.566	9184
926.673	8994
926.779	8952
926.886	8899
926.993	8754
927.099	8727
927.206	8682
927.312	8701
927.419	8815
927.525	8788
927.631	8838
927.737	8720
927.843	8655
927.95	8610
928.056	8697
928.162	8758
928.267	8762
928.373	9169
928.479	8750
928.585	8541
928.69	8758
928.796	8636
928.901	8625
929.007	8450
929.112	8636
929.218	8533
929.323	8492
929.428	8552
929.533	8640
929.638	8385
929.743	8442
929.848	8476
929.953	8530
930.058	8362
930.163	8244
930.267	8259
930.372	8457
930.477	8195
930.581	8457
930.685	8366
930.79	8153
930.894	8271
930.998	8195
931.103	8294
931.207	8035
931.311	7860
931.415	7967
931.519	7674
931.623	7734
