Data from test_V78500241_446.txt Node
Date: Fri Mar 25 14:36:49 CST 2022
User: usil
Spectrometer: V785-0024
Trigger mode: 0
Integration Time (sec): 4.000000E-1
Scans to average: 1
Nonlinearity correction enabled: false
Boxcar width: 0
Storing dark spectrum: false
XAxis mode: Wavelengths
Number of Pixels in Spectrum: 1024
>>>>>Begin Spectral Data<<<<<
801.071	26541
801.214	26450
801.356	26176
801.499	26024
801.641	26046
801.783	25803
801.926	25932
802.068	25928
802.211	25761
802.353	25871
802.496	25685
802.638	25616
802.78	25712
802.923	25521
803.065	25411
803.208	25468
803.35	25499
803.492	25548
803.635	25712
803.777	25582
803.919	25731
804.061	25894
804.204	25597
804.346	25373
804.488	25430
804.63	25518
804.773	25350
804.915	25453
805.057	25582
805.199	25335
805.341	25384
805.483	25609
805.626	25597
805.768	25575
805.91	25441
806.052	25578
806.194	25472
806.336	25628
806.478	25362
806.62	25525
806.762	25658
806.904	25837
807.046	26001
807.188	25826
807.33	25887
807.472	25989
807.614	25909
807.756	25890
807.898	25772
808.04	25704
808.182	25674
808.324	25559
808.465	25742
808.607	25830
808.749	26088
808.891	26024
809.033	26218
809.174	26180
809.316	26024
809.458	26008
809.6	25982
809.741	25986
809.883	26065
810.025	26164
810.166	26119
810.308	26145
810.45	26172
810.591	26100
810.733	25925
810.875	25856
811.016	25776
811.158	25780
811.299	25887
811.441	26008
811.582	25898
811.724	25750
811.865	25868
812.007	25868
812.148	25826
812.29	25940
812.431	26027
812.573	26031
812.714	26256
812.855	26237
812.997	26305
813.138	26613
813.279	26393
813.421	26309
813.562	26275
813.703	26225
813.845	26138
813.986	25643
814.127	25537
814.268	25544
814.41	25495
814.551	25327
814.692	25445
814.833	25354
814.974	25270
815.115	25346
815.256	25141
815.397	25350
815.539	25187
815.68	25221
815.821	25099
815.962	25152
816.103	25076
816.244	25008
816.385	24753
816.526	24802
816.666	24650
816.807	24623
816.948	24593
817.089	24753
817.23	24601
817.371	24566
817.512	24525
817.653	24475
817.793	24391
817.934	24525
818.075	24513
818.216	24334
818.356	24422
818.497	24334
818.638	24136
818.778	24174
818.919	24022
819.06	24148
819.2	24391
819.341	24380
819.481	24372
819.622	24566
819.762	24779
819.903	24604
820.043	24677
820.184	24593
820.324	24551
820.465	24426
820.605	24547
820.746	24540
820.886	24350
821.026	24384
821.167	24418
821.307	24483
821.447	24338
821.588	24254
821.728	24201
821.868	24034
822.008	23847
822.149	23863
822.289	23817
822.429	23649
822.569	23448
822.709	23474
822.849	23330
822.99	23360
823.13	23326
823.27	23235
823.41	23174
823.55	22995
823.69	23200
823.83	23018
823.97	23003
824.11	22885
824.25	22774
824.389	22896
824.529	23003
824.669	22839
824.809	23044
824.949	22953
825.089	22949
825.228	22831
825.368	22767
825.508	22645
825.648	22672
825.787	22683
825.927	22717
826.067	22668
826.206	22603
826.346	22771
826.485	22710
826.625	22569
826.765	22740
826.904	22607
827.044	22485
827.183	22402
827.323	22314
827.462	22284
827.601	22447
827.741	22443
827.88	22303
828.02	22272
828.159	22348
828.298	22341
828.437	22519
828.577	22280
828.716	22295
828.855	22318
828.994	22006
829.134	22010
829.273	22116
829.412	22032
829.551	21926
829.69	21930
829.829	21968
829.968	22143
830.107	22093
830.246	21975
830.385	21915
830.524	21838
830.663	21774
830.802	21709
830.941	21660
831.08	21553
831.219	21652
831.357	21606
831.496	21762
831.635	21580
831.774	21553
831.913	21542
832.051	21302
832.19	21462
832.329	21420
832.467	21135
832.606	21260
832.744	21325
832.883	21249
833.022	21230
833.16	21325
833.299	21272
833.437	21222
833.576	21291
833.714	21142
833.852	21233
833.991	21256
834.129	21272
834.267	21203
834.406	21287
834.544	21329
834.682	21298
834.821	21154
834.959	21321
835.097	21245
835.235	21279
835.373	21211
835.511	21336
835.65	21127
835.788	21169
835.926	20941
836.064	20902
836.202	20963
836.34	21192
836.478	21237
836.615	21062
836.753	21047
836.891	21119
837.029	21192
837.167	21104
837.305	21005
837.443	20963
837.58	21005
837.718	21051
837.856	21131
837.993	20838
838.131	20910
838.269	20853
838.406	20963
838.544	20830
838.681	20625
838.819	20636
838.956	20446
839.094	20492
839.231	20450
839.369	20564
839.506	20781
839.643	20575
839.781	20305
839.918	20317
840.055	20332
840.193	20400
840.33	20408
840.467	20328
840.604	20396
840.742	20541
840.879	20305
841.016	20332
841.153	20218
841.29	20495
841.427	20317
841.564	20404
841.701	20309
841.838	20237
841.975	20149
842.112	20199
842.249	20065
842.385	20054
842.522	20256
842.659	20096
842.796	20012
842.933	20046
843.069	20153
843.206	20107
843.343	20062
843.479	20031
843.616	20005
843.752	19890
843.889	19841
844.025	19898
844.162	19769
844.298	20024
844.435	19761
844.571	19700
844.708	19822
844.844	19849
844.98	19955
845.117	19936
845.253	19753
845.389	19674
845.525	19742
845.661	19750
845.798	19518
845.934	19620
846.07	19537
846.206	19662
846.342	19780
846.478	19533
846.614	19460
846.75	19289
846.886	19236
847.022	19343
847.158	19297
847.294	19358
847.429	19259
847.565	19217
847.701	19510
847.837	19008
847.972	19065
848.108	19145
848.244	19027
848.379	18875
848.515	18753
848.65	18703
848.786	18772
848.921	18856
849.057	18871
849.192	18928
849.328	18863
849.463	18840
849.598	18840
849.734	18719
849.869	18726
850.004	18620
850.14	18681
850.275	18490
850.41	18540
850.545	18490
850.68	18631
850.815	18525
850.95	18582
851.085	18802
851.22	18684
851.355	18521
851.49	18566
851.625	18532
851.76	18498
851.895	18380
852.03	18589
852.165	18525
852.299	18528
852.434	18604
852.569	18601
852.703	18639
852.838	18563
852.973	18673
853.107	18574
853.242	18502
853.376	18426
853.511	18266
853.645	18323
853.78	18464
853.914	18353
854.048	18369
854.183	18277
854.317	18407
854.451	18494
854.585	18464
854.72	18391
854.854	18502
854.988	18353
855.122	18388
855.256	18281
855.39	18285
855.524	18498
855.658	18410
855.792	18369
855.926	18380
856.06	18467
856.194	18429
856.327	18277
856.461	18292
856.595	18289
856.729	18308
856.862	18365
856.996	18445
857.13	18338
857.263	18448
857.397	18441
857.53	18429
857.664	18399
857.797	18467
857.931	18429
858.064	18285
858.197	18433
858.331	18308
858.464	18308
858.597	18228
858.731	18228
858.864	18216
858.997	18304
859.13	18224
859.263	18338
859.396	18547
859.529	18353
859.662	18300
859.795	18194
859.928	18296
860.061	18483
860.194	18403
860.327	18353
860.46	18292
860.592	18452
860.725	18323
860.858	18528
860.99	18220
861.123	18243
861.256	18410
861.388	18346
861.521	18958
861.653	18174
861.786	18034
861.918	18224
862.05	18224
862.183	18327
862.315	18388
862.447	18426
862.58	18391
862.712	18174
862.844	18095
862.976	18136
863.108	18019
863.24	18361
863.372	18030
863.504	17999
863.636	18011
863.768	18182
863.9	18064
864.032	17874
864.164	17961
864.296	18102
864.428	18083
864.559	17980
864.691	18098
864.823	18083
864.954	17980
865.086	18087
865.217	18060
865.349	17923
865.48	17965
865.612	18034
865.743	18087
865.875	17901
866.006	17889
866.137	17977
866.269	17977
866.4	17901
866.531	17809
866.662	17893
866.793	18019
866.924	17980
867.055	17961
867.186	17885
867.317	17805
867.448	17809
867.579	17851
867.71	17836
867.841	17771
867.972	17851
868.103	17904
868.233	17897
868.364	17939
868.495	18015
868.625	18205
868.756	18197
868.886	18095
869.017	18163
869.147	18342
869.278	18338
869.408	18159
869.539	18106
869.669	18190
869.799	18076
869.929	18300
870.06	18277
870.19	18460
870.32	18403
870.45	18494
870.58	18471
870.71	18635
870.84	18661
870.97	18494
871.1	18471
871.23	18642
871.36	18661
871.489	18772
871.619	18681
871.749	18776
871.879	18783
872.008	18730
872.138	18673
872.267	18757
872.397	18521
872.526	18506
872.656	18547
872.785	18597
872.915	18787
873.044	18871
873.173	18817
873.303	18840
873.432	18730
873.561	18875
873.69	18764
873.819	18814
873.948	18875
874.077	18856
874.206	18741
874.335	18715
874.464	18932
874.593	18947
874.722	18882
874.851	19019
874.979	19110
875.108	19088
875.237	18947
875.365	18859
875.494	18966
875.623	19152
875.751	18924
875.88	19107
876.008	19148
876.136	19152
876.265	19434
876.393	19540
876.521	19449
876.65	19594
876.778	19506
876.906	19514
877.034	19392
877.162	19487
877.29	19403
877.418	19343
877.546	19464
877.674	19453
877.802	19400
877.93	19407
878.058	19331
878.185	19346
878.313	19563
878.441	19422
878.568	19240
878.696	19468
878.824	19453
878.951	19499
879.079	19708
879.206	19734
879.333	19662
879.461	19567
879.588	19601
879.715	19655
879.842	19807
879.97	19529
880.097	19270
880.224	19346
880.351	19259
880.478	19244
880.605	19312
880.732	19301
880.859	19597
880.986	19301
881.112	19278
881.239	19255
881.366	19046
881.493	18939
881.619	18897
881.746	18951
881.872	18802
881.999	18928
882.125	18882
882.252	18901
882.378	19008
882.505	18993
882.631	18734
882.757	18791
882.883	18867
883.01	18681
883.136	18616
883.262	18563
883.388	18467
883.514	18616
883.64	18722
883.766	18585
883.892	18403
884.018	18528
884.143	18582
884.269	18764
884.395	18471
884.52	18266
884.646	18273
884.772	18388
884.897	18289
885.023	18418
885.148	18464
885.274	18388
885.399	18403
885.524	18330
885.65	18361
885.775	18357
885.9	18365
886.025	18410
886.15	18410
886.275	18228
886.4	18194
886.525	18270
886.65	18178
886.775	18254
886.9	18403
887.025	18517
887.149	18254
887.274	18072
887.399	17988
887.523	18106
887.648	18174
887.773	18083
887.897	18182
888.021	18129
888.146	17988
888.27	18239
888.395	18174
888.519	18144
888.643	18053
888.767	18174
888.891	17946
889.015	18022
889.139	17897
889.263	17946
889.387	17996
889.511	18098
889.635	17973
889.759	17813
889.883	17920
890.006	17889
890.13	17965
890.254	17786
890.377	17790
890.501	17630
890.624	17676
890.748	17638
890.871	17649
890.995	17505
891.118	17547
891.241	17505
891.364	17657
891.488	17649
891.611	17497
891.734	17539
891.857	17573
891.98	17581
892.103	17600
892.226	17634
892.349	17566
892.471	17307
892.594	17444
892.717	17505
892.839	17452
892.962	17516
893.085	17520
893.207	17604
893.33	17417
893.452	17368
893.575	17486
893.697	17452
893.819	17623
893.941	17634
894.064	17543
894.186	17452
894.308	17292
894.43	17600
894.552	17707
894.674	17596
894.796	17478
894.918	17459
895.04	17410
895.161	17573
895.283	17600
895.405	17353
895.526	17497
895.648	17444
895.769	17528
895.891	17528
896.012	17558
896.134	17497
896.255	17558
896.376	17455
896.498	17600
896.619	17687
896.74	17562
896.861	17752
896.982	17961
897.103	18140
897.224	17878
897.345	17767
897.466	17726
897.587	17767
897.708	17863
897.828	17885
897.949	17813
898.07	17619
898.19	17775
898.311	17901
898.431	17657
898.552	17748
898.672	17847
898.792	17843
898.913	17855
899.033	17585
899.153	17611
899.273	17581
899.393	17551
899.513	17623
899.633	17604
899.753	17585
899.873	17501
899.993	17611
900.113	17535
900.232	17634
900.352	17642
900.472	17474
900.591	17425
900.711	17440
900.83	17463
900.95	17581
901.069	17497
901.189	17360
901.308	17159
901.427	17041
901.546	16991
901.665	17109
901.784	17006
901.904	17022
902.023	16774
902.141	16580
902.26	16611
902.379	16584
902.498	16500
902.617	16516
902.735	16596
902.854	16561
902.973	16466
903.091	16215
903.21	16246
903.328	16215
903.446	16131
903.565	16055
903.683	16032
903.801	16025
903.919	16013
904.038	15934
904.156	15876
904.274	15884
904.392	15865
904.51	15850
904.627	15857
904.745	15892
904.863	15934
904.981	15663
905.098	15534
905.216	15534
905.334	15671
905.451	15637
905.569	15511
905.686	15534
905.803	15515
905.921	15351
906.038	15344
906.155	15355
906.272	15245
906.389	15184
906.506	15123
906.623	15062
906.74	15055
906.857	14967
906.974	14933
907.091	15123
907.208	15214
907.324	15104
907.441	15024
907.557	14807
907.674	14777
907.79	14731
907.907	14807
908.023	14743
908.139	14788
908.256	14629
908.372	14629
908.488	14648
908.604	14419
908.72	14438
908.836	14526
908.952	14473
909.068	14446
909.184	14632
909.3	14412
909.415	14564
909.531	14465
909.647	14214
909.762	14298
909.878	14195
909.993	14267
910.108	14058
910.224	14164
910.339	14145
910.454	13909
910.57	14027
910.685	13986
910.8	14206
910.915	14115
911.03	14054
911.145	13818
911.259	13788
911.374	13818
911.489	13784
911.604	13723
911.718	13613
911.833	13559
911.947	13411
912.062	13438
912.176	13632
912.291	13582
912.405	13571
912.519	13833
912.633	13753
912.748	13559
912.862	13571
912.976	13476
913.09	13308
913.204	13339
913.318	13480
913.431	13495
913.545	13525
913.659	13525
913.772	13392
913.886	13270
914	13289
914.113	13407
914.226	13343
914.34	13343
914.453	13228
914.566	13312
914.68	13141
914.793	13190
914.906	13091
915.019	12981
915.132	12909
915.245	12935
915.358	12932
915.47	12996
915.583	12977
915.696	13027
915.809	13141
915.921	13069
916.034	12859
916.146	12875
916.259	12814
916.371	12951
916.483	12878
916.595	12852
916.708	12852
916.82	12791
916.932	12848
917.044	12719
917.156	12829
917.268	12658
917.38	12741
917.491	12616
917.603	12715
917.715	12760
917.826	12825
917.938	12650
918.049	12555
918.161	12703
918.272	12757
918.384	12749
918.495	12582
918.606	12498
918.717	12407
918.828	12467
918.939	12494
919.05	12311
919.161	12445
919.272	12277
919.383	12277
919.494	12555
919.604	12665
919.715	12475
919.826	12350
919.936	12369
920.047	12486
920.157	12456
920.267	12608
920.378	12445
920.488	12399
920.598	12582
920.708	12749
920.818	12582
920.928	12616
921.038	12734
921.148	12692
921.258	12361
921.368	12365
921.477	12285
921.587	12285
921.697	12076
921.806	12232
921.916	12034
922.025	11935
922.134	11843
922.244	11931
922.353	11954
922.462	11779
922.571	11707
922.68	11604
922.789	11562
922.898	11615
923.007	11539
923.116	11577
923.224	11573
923.333	11532
923.442	11486
923.55	11474
923.659	11402
923.767	11505
923.876	11425
923.984	11516
924.092	11391
924.201	11410
924.309	11379
924.417	11372
924.525	11402
924.633	11284
924.741	12228
924.849	11189
924.956	11326
925.064	11166
925.172	11075
925.279	11105
925.387	11105
925.494	11174
925.602	11223
925.709	11265
925.816	11056
925.924	11109
926.031	11056
926.138	11117
926.245	11189
926.352	11025
926.459	11143
926.566	11189
926.673	11010
926.779	11014
926.886	10850
926.993	10877
927.099	10786
927.206	10725
927.312	10694
927.419	10786
927.525	10755
927.631	10790
927.737	10656
927.843	10679
927.95	10554
928.056	10535
928.162	10599
928.267	10603
928.373	11216
928.479	10729
928.585	10462
928.69	10630
928.796	10554
928.901	10489
929.007	10303
929.112	10561
929.218	10451
929.323	10405
929.428	10344
929.533	10459
929.638	10348
929.743	10280
929.848	10402
929.953	10371
930.058	10215
930.163	10097
930.267	10131
930.372	10139
930.477	10063
930.581	10227
930.685	10082
930.79	9991
930.894	10082
930.998	10025
931.103	10055
931.207	9816
931.311	9671
931.415	9542
931.519	9462
931.623	9424
