Data from test_V78500241_961.txt Node
Date: Fri Mar 25 14:40:24 CST 2022
User: usil
Spectrometer: V785-0024
Trigger mode: 0
Integration Time (sec): 4.000000E-1
Scans to average: 1
Nonlinearity correction enabled: false
Boxcar width: 0
Storing dark spectrum: false
XAxis mode: Wavelengths
Number of Pixels in Spectrum: 1024
>>>>>Begin Spectral Data<<<<<
801.071	23551
801.214	23490
801.356	23143
801.499	23033
801.641	22957
801.783	22782
801.926	22881
802.068	22805
802.211	22755
802.353	22630
802.496	22417
802.638	22394
802.78	22360
802.923	22272
803.065	22238
803.208	22177
803.35	22158
803.492	22291
803.635	22394
803.777	22173
803.919	22344
804.061	22618
804.204	22310
804.346	22055
804.488	22006
804.63	22128
804.773	22093
804.915	22097
805.057	22280
805.199	22150
805.341	22261
805.483	22322
805.626	22207
805.768	22067
805.91	22185
806.052	22265
806.194	22177
806.336	22428
806.478	22402
806.62	22363
806.762	22470
806.904	22626
807.046	22698
807.188	22649
807.33	22725
807.472	22904
807.614	22725
807.756	22942
807.898	22877
808.04	23033
808.182	23315
808.324	23391
808.465	23676
808.607	24133
808.749	24475
808.891	24635
809.033	24661
809.174	24566
809.316	24064
809.458	23927
809.6	23570
809.741	23318
809.883	23277
810.025	23417
810.166	23200
810.308	23067
810.45	22984
810.591	22892
810.733	22641
810.875	22615
811.016	22512
811.158	22466
811.299	22664
811.441	22577
811.582	22577
811.724	22500
811.865	22363
812.007	22348
812.148	22402
812.29	22546
812.431	22630
812.573	22717
812.714	22877
812.855	22881
812.997	23010
813.138	23193
813.279	22965
813.421	22976
813.562	22843
813.703	22740
813.845	22474
813.986	22226
814.127	21945
814.268	21926
814.41	22017
814.551	21953
814.692	22059
814.833	21907
814.974	21934
815.115	21960
815.256	21679
815.397	21625
815.539	21778
815.68	21583
815.821	21614
815.962	21705
816.103	21660
816.244	21523
816.385	21401
816.526	21443
816.666	21211
816.807	21055
816.948	21142
817.089	21173
817.23	21093
817.371	21058
817.512	21089
817.653	21070
817.793	21066
817.934	20956
818.075	21226
818.216	21024
818.356	21055
818.497	20746
818.638	20724
818.778	20746
818.919	20819
819.06	20849
819.2	20883
819.341	20925
819.481	20895
819.622	21024
819.762	21188
819.903	21119
820.043	21100
820.184	20994
820.324	21024
820.465	21058
820.605	21135
820.746	21081
820.886	20963
821.026	20960
821.167	20849
821.307	20944
821.447	20891
821.588	20587
821.728	20705
821.868	20514
822.008	20336
822.149	20389
822.289	20358
822.429	20084
822.569	20176
822.709	20126
822.849	19822
822.99	19883
823.13	19814
823.27	19826
823.41	19734
823.55	19628
823.69	19662
823.83	19685
823.97	19586
824.11	19441
824.25	19510
824.389	19499
824.529	19506
824.669	19407
824.809	19605
824.949	19472
825.089	19510
825.228	19510
825.368	19179
825.508	19209
825.648	19316
825.787	19430
825.927	19270
826.067	19202
826.206	19175
826.346	19316
826.485	19255
826.625	19202
826.765	19312
826.904	19316
827.044	18966
827.183	18913
827.323	18856
827.462	18973
827.601	18867
827.741	18817
827.88	18928
828.02	18802
828.159	18916
828.298	19000
828.437	18962
828.577	18859
828.716	18951
828.855	18821
828.994	18688
829.134	18536
829.273	18802
829.412	18593
829.551	18509
829.69	18612
829.829	18528
829.968	18833
830.107	18760
830.246	18764
830.385	18479
830.524	18448
830.663	18471
830.802	18334
830.941	18213
831.08	18216
831.219	18369
831.357	18266
831.496	18460
831.635	18190
831.774	18197
831.913	18144
832.051	18060
832.19	18076
832.329	18087
832.467	17927
832.606	17893
832.744	17939
832.883	17965
833.022	17897
833.16	17920
833.299	18098
833.437	17977
833.576	18015
833.714	18057
833.852	18079
833.991	18144
834.129	18072
834.267	18011
834.406	18068
834.544	18003
834.682	18034
834.821	17923
834.959	18201
835.097	18072
835.235	18019
835.373	18098
835.511	17939
835.65	17855
835.788	17889
835.926	17684
836.064	17824
836.202	17790
836.34	17828
836.478	17874
836.615	17946
836.753	17920
836.891	18007
837.029	17874
837.167	17813
837.305	17832
837.443	17752
837.58	17718
837.718	17745
837.856	17817
837.993	17600
838.131	17668
838.269	17554
838.406	17653
838.544	17554
838.681	17383
838.819	17307
838.956	17204
839.094	17231
839.231	17330
839.369	17379
839.506	17646
839.643	17573
839.781	17086
839.918	17159
840.055	17181
840.193	17223
840.33	17121
840.467	17166
840.604	17269
840.742	17444
840.879	17079
841.016	17117
841.153	17124
841.29	17231
841.427	17299
841.564	17368
841.701	17220
841.838	17174
841.975	17037
842.112	17143
842.249	16949
842.385	16987
842.522	17193
842.659	17006
842.796	17022
842.933	17132
843.069	16946
843.206	16862
843.343	16942
843.479	17010
843.616	16934
843.752	16706
843.889	16793
844.025	16839
844.162	16809
844.298	16839
844.435	16809
844.571	16850
844.708	16862
844.844	17090
844.98	17041
845.117	17079
845.253	16927
845.389	17094
845.525	17391
845.661	17817
845.798	18258
845.934	18829
846.07	18916
846.206	19042
846.342	18738
846.478	17980
846.614	17254
846.75	16835
846.886	16618
847.022	16679
847.158	16470
847.294	16440
847.429	16360
847.565	16379
847.701	16565
847.837	16082
847.972	16067
848.108	16169
848.244	16135
848.379	15987
848.515	15911
848.65	15960
848.786	15945
848.921	15926
849.057	15968
849.192	16010
849.328	15945
849.463	16021
849.598	15922
849.734	15823
849.869	15705
850.004	15793
850.14	15743
850.275	15648
850.41	15652
850.545	15568
850.68	15599
850.815	15629
850.95	15652
851.085	15831
851.22	15728
851.355	15610
851.49	15481
851.625	15553
851.76	15599
851.895	15389
852.03	15500
852.165	15648
852.299	15751
852.434	15766
852.569	15751
852.703	15625
852.838	15751
852.973	15846
853.107	15717
853.242	15652
853.376	15534
853.511	15431
853.645	15454
853.78	15648
853.914	15507
854.048	15469
854.183	15458
854.317	15584
854.451	15656
854.585	15500
854.72	15530
854.854	15545
854.988	15374
855.122	15416
855.256	15332
855.39	15466
855.524	15519
855.658	15576
855.792	15591
855.926	15542
856.06	15610
856.194	15618
856.327	15458
856.461	15443
856.595	15378
856.729	15473
856.862	15523
856.996	15534
857.13	15511
857.263	15599
857.397	15690
857.53	15511
857.664	15557
857.797	15610
857.931	15606
858.064	15580
858.197	15534
858.331	15401
858.464	15477
858.597	15367
858.731	15580
858.864	15488
858.997	15420
859.13	15416
859.263	15557
859.396	15504
859.529	15443
859.662	15428
859.795	15431
859.928	15492
860.061	15705
860.194	15656
860.327	15591
860.46	15412
860.592	15663
860.725	15553
860.858	15534
860.99	15443
861.123	15264
861.256	15420
861.388	15355
861.521	15991
861.653	15401
861.786	15173
861.918	15325
862.05	15405
862.183	15458
862.315	15450
862.447	15515
862.58	15393
862.712	15272
862.844	15264
862.976	15310
863.108	15214
863.24	15694
863.372	15199
863.504	15211
863.636	15332
863.768	15195
863.9	15233
864.032	15180
864.164	15131
864.296	15287
864.428	15230
864.559	15313
864.691	15249
864.823	15256
864.954	15214
865.086	15203
865.217	15184
865.349	15142
865.48	15131
865.612	15260
865.743	15302
865.875	15233
866.006	15119
866.137	15192
866.269	15233
866.4	15249
866.531	15142
866.662	15127
866.793	15131
866.924	15188
867.055	15112
867.186	15100
867.317	15119
867.448	15127
867.579	15150
867.71	15066
867.841	15051
867.972	15150
868.103	15218
868.233	15188
868.364	15192
868.495	15245
868.625	15397
868.756	15435
868.886	15226
869.017	15317
869.147	15534
869.278	15496
869.408	15405
869.539	15435
869.669	15389
869.799	15428
869.929	15557
870.06	15496
870.19	15736
870.32	15701
870.45	15732
870.58	15911
870.71	15998
870.84	15968
870.97	15895
871.1	15884
871.23	15979
871.36	15994
871.489	15918
871.619	15972
871.749	15956
871.879	16063
872.008	16090
872.138	16051
872.267	16112
872.397	15835
872.526	15869
872.656	15812
872.785	15876
872.915	16086
873.044	16166
873.173	16116
873.303	16143
873.432	16135
873.561	16112
873.69	16055
873.819	16074
873.948	16154
874.077	16173
874.206	16013
874.335	16097
874.464	16261
874.593	16382
874.722	16226
874.851	16455
874.979	16455
875.108	16440
875.237	16341
875.365	16375
875.494	16455
875.623	16462
875.751	16409
875.88	16390
876.008	16489
876.136	16615
876.265	16820
876.393	16984
876.521	16976
876.65	16934
876.778	16904
876.906	16915
877.034	16805
877.162	16873
877.29	16767
877.418	16892
877.546	16919
877.674	16938
877.802	16995
877.93	16968
878.058	16911
878.185	16793
878.313	17006
878.441	17010
878.568	16965
878.696	17083
878.824	17147
878.951	17436
879.079	17497
879.206	17908
879.333	17984
879.461	17946
879.588	18019
879.715	18216
879.842	18182
879.97	17760
880.097	17577
880.224	17242
880.351	17227
880.478	17181
880.605	17067
880.732	16961
880.859	17280
880.986	16953
881.112	16991
881.239	16744
881.366	16713
881.493	16687
881.619	16649
881.746	16694
881.872	16588
881.999	16660
882.125	16558
882.252	16710
882.378	16679
882.505	16755
882.631	16542
882.757	16394
882.883	16550
883.01	16344
883.136	16417
883.262	16299
883.388	16253
883.514	16523
883.64	16447
883.766	16363
883.892	16204
884.018	16257
884.143	16466
884.269	16417
884.395	16257
884.52	16071
884.646	16215
884.772	16082
884.897	16101
885.023	16101
885.148	16310
885.274	16314
885.399	16226
885.524	16048
885.65	16173
885.775	15987
885.9	16021
886.025	16230
886.15	16158
886.275	16090
886.4	15941
886.525	15937
886.65	15861
886.775	15991
886.9	16154
887.025	16196
887.149	15934
887.274	15835
887.399	15759
887.523	15747
887.648	15679
887.773	15698
887.897	15804
888.021	15854
888.146	15789
888.27	15835
888.395	15857
888.519	15736
888.643	15781
888.767	15717
888.891	15545
889.015	15564
889.139	15667
889.263	15572
889.387	15660
889.511	15709
889.635	15732
889.759	15572
889.883	15492
890.006	15637
890.13	15584
890.254	15485
890.377	15439
890.501	15260
890.624	15332
890.748	15370
890.871	15340
890.995	15188
891.118	15104
891.241	15321
891.364	15211
891.488	15226
891.611	15222
891.734	15138
891.857	15279
891.98	15184
892.103	15214
892.226	15165
892.349	15146
892.471	14994
892.594	15203
892.717	15154
892.839	15135
892.962	15180
893.085	15283
893.207	15135
893.33	15009
893.452	15108
893.575	15161
893.697	15093
893.819	15264
893.941	15340
894.064	15260
894.186	15180
894.308	15142
894.43	15184
894.552	15336
894.674	15321
894.796	15097
894.918	15173
895.04	15169
895.161	15207
895.283	15256
895.405	15146
895.526	15260
895.648	15268
895.769	15283
895.891	15237
896.012	15298
896.134	15313
896.255	15287
896.376	15313
896.498	15230
896.619	15351
896.74	15294
896.861	15340
896.982	15576
897.103	15720
897.224	15580
897.345	15652
897.466	15481
897.587	15504
897.708	15641
897.828	15587
897.949	15435
898.07	15458
898.19	15553
898.311	15648
898.431	15580
898.552	15603
898.672	15694
898.792	15701
898.913	15580
899.033	15557
899.153	15477
899.273	15329
899.393	15431
899.513	15530
899.633	15466
899.753	15473
899.873	15382
899.993	15549
900.113	15439
900.232	15542
900.352	15405
900.472	15355
900.591	15310
900.711	15378
900.83	15207
900.95	15389
901.069	15389
901.189	15264
901.308	15024
901.427	14899
901.546	14971
901.665	14921
901.784	15036
901.904	14769
902.023	14800
902.141	14606
902.26	14533
902.379	14621
902.498	14495
902.617	14526
902.735	14556
902.854	14457
902.973	14530
903.091	14172
903.21	14252
903.328	14187
903.446	14126
903.565	14046
903.683	14050
903.801	13963
903.919	13997
904.038	14077
904.156	13955
904.274	14039
904.392	13833
904.51	13887
904.627	13906
904.745	13940
904.863	13864
904.981	13590
905.098	13502
905.216	13464
905.334	13586
905.451	13567
905.569	13533
905.686	13601
905.803	13544
905.921	13263
906.038	13499
906.155	13358
906.272	13293
906.389	13255
906.506	13061
906.623	13168
906.74	13091
906.857	12939
906.974	12970
907.091	13240
907.208	13209
907.324	13099
907.441	12989
907.557	12878
907.674	12833
907.79	12696
907.907	12662
908.023	12867
908.139	12909
908.256	12791
908.372	12719
908.488	12795
908.604	12544
908.72	12528
908.836	12597
908.952	12525
909.068	12544
909.184	12642
909.3	12498
909.415	12635
909.531	12551
909.647	12357
909.762	12353
909.878	12258
909.993	12391
910.108	12361
910.224	12258
910.339	12273
910.454	12152
910.57	12095
910.685	12091
910.8	12475
910.915	12342
911.03	12239
911.145	11996
911.259	12007
911.374	11977
911.489	11950
911.604	11840
911.718	11688
911.833	11764
911.947	11714
912.062	11600
912.176	11668
912.291	11741
912.405	11718
912.519	11988
912.633	11927
912.748	11878
912.862	11809
912.976	11589
913.09	11547
913.204	11604
913.318	11627
913.431	11668
913.545	11649
913.659	11688
913.772	11615
913.886	11524
914	11501
914.113	11554
914.226	11691
914.34	11577
914.453	11459
914.566	11493
914.68	11444
914.793	11356
914.906	11216
915.019	11212
915.132	11109
915.245	11204
915.358	11227
915.47	11246
915.583	11212
915.696	11231
915.809	11277
915.921	11360
916.034	11242
916.146	11140
916.259	11109
916.371	11292
916.483	11181
916.595	11166
916.708	11132
916.82	11105
916.932	11079
917.044	11124
917.156	11109
917.268	10980
917.38	11018
917.491	10995
917.603	11041
917.715	11121
917.826	11075
917.938	10991
918.049	10938
918.161	11079
918.272	11239
918.384	11162
918.495	10976
918.606	10850
918.717	10824
918.828	10858
918.939	10949
919.05	10790
919.161	10862
919.272	10641
919.383	10672
919.494	10927
919.604	11113
919.715	10911
919.826	10824
919.936	10748
920.047	10927
920.157	10923
920.267	11128
920.378	10919
920.488	10843
920.598	10995
920.708	11159
920.818	11037
920.928	11048
921.038	11189
921.148	11159
921.258	10919
921.368	10835
921.477	10725
921.587	10691
921.697	10649
921.806	10717
921.916	10626
922.025	10417
922.134	10432
922.244	10375
922.353	10379
922.462	10333
922.571	10242
922.68	10154
922.789	10120
922.898	10105
923.007	10109
923.116	10116
923.224	10150
923.333	10063
923.442	9979
923.55	9968
923.659	10006
923.767	10120
923.876	9911
923.984	9975
924.092	9926
924.201	9972
924.309	9888
924.417	9937
924.525	9930
924.633	9842
924.741	10664
924.849	9740
924.956	9907
925.064	9667
925.172	9595
925.279	9675
925.387	9667
925.494	9660
925.602	9838
925.709	9835
925.816	9652
925.924	9663
926.031	9751
926.138	9652
926.245	9679
926.352	9614
926.459	9774
926.566	9812
926.673	9671
926.779	9614
926.886	9477
926.993	9473
927.099	9443
927.206	9458
927.312	9389
927.419	9458
927.525	9435
927.631	9458
927.737	9283
927.843	9256
927.95	9260
928.056	9279
928.162	9260
928.267	9329
928.373	9899
928.479	9329
928.585	9146
928.69	9313
928.796	9249
928.901	9131
929.007	9020
929.112	9222
929.218	9150
929.323	9112
929.428	9108
929.533	9241
929.638	9116
929.743	9017
929.848	9154
929.953	9112
930.058	8998
930.163	8834
930.267	8880
930.372	8998
930.477	8906
930.581	9009
930.685	8834
930.79	8758
930.894	8815
930.998	8807
931.103	8929
931.207	8587
931.311	8530
931.415	8480
931.519	8259
931.623	8267
