Data from test_V78500241_1223.txt Node
Date: Fri Mar 25 14:42:13 CST 2022
User: usil
Spectrometer: V785-0024
Trigger mode: 0
Integration Time (sec): 4.000000E-1
Scans to average: 1
Nonlinearity correction enabled: false
Boxcar width: 0
Storing dark spectrum: false
XAxis mode: Wavelengths
Number of Pixels in Spectrum: 1024
>>>>>Begin Spectral Data<<<<<
801.071	22394
801.214	22257
801.356	21972
801.499	21983
801.641	21857
801.783	21595
801.926	21762
802.068	21736
802.211	21679
802.353	21572
802.496	21401
802.638	21291
802.78	21222
802.923	21188
803.065	21146
803.208	20986
803.35	21138
803.492	21127
803.635	21230
803.777	21108
803.919	21233
804.061	21401
804.204	21104
804.346	21051
804.488	20880
804.63	21100
804.773	21089
804.915	21028
805.057	21207
805.199	21093
805.341	21036
805.483	21214
805.626	21192
805.768	20960
805.91	21074
806.052	20998
806.194	20921
806.336	21138
806.478	21074
806.62	21070
806.762	21081
806.904	21264
807.046	21534
807.188	21382
807.33	21389
807.472	21374
807.614	21351
807.756	21500
807.898	21325
808.04	21028
808.182	21176
808.324	21211
808.465	21233
808.607	21606
808.749	21534
808.891	21564
809.033	21637
809.174	21599
809.316	21504
809.458	21443
809.6	21458
809.741	21488
809.883	21614
810.025	21644
810.166	21675
810.308	21698
810.45	21538
810.591	21389
810.733	21500
810.875	21294
811.016	21135
811.158	21104
811.299	21268
811.441	21348
811.582	21317
811.724	21237
811.865	21256
812.007	21192
812.148	21241
812.29	21169
812.431	21359
812.573	21538
812.714	21549
812.855	21743
812.997	21766
813.138	22006
813.279	21816
813.421	21690
813.562	21549
813.703	21351
813.845	21313
813.986	21051
814.127	20845
814.268	20845
814.41	20868
814.551	20773
814.692	20853
814.833	20705
814.974	20796
815.115	20724
815.256	20598
815.397	20598
815.539	20743
815.68	20492
815.821	20537
815.962	20419
816.103	20469
816.244	20313
816.385	20263
816.526	20271
816.666	20115
816.807	19951
816.948	20054
817.089	20062
817.23	19932
817.371	19932
817.512	20024
817.653	20012
817.793	19932
817.934	19898
818.075	19909
818.216	19887
818.356	19894
818.497	19776
818.638	19567
818.778	19563
818.919	19700
819.06	19518
819.2	19734
819.341	19704
819.481	19860
819.622	19997
819.762	20145
819.903	20096
820.043	19913
820.184	19849
820.324	19955
820.465	20001
820.605	19833
820.746	19849
820.886	19715
821.026	19753
821.167	19769
821.307	19875
821.447	19811
821.588	19734
821.728	19666
821.868	19434
822.008	19289
822.149	19320
822.289	19301
822.429	19042
822.569	18993
822.709	19012
822.849	18802
822.99	18753
823.13	18791
823.27	18700
823.41	18665
823.55	18574
823.69	18563
823.83	18563
823.97	18525
824.11	18441
824.25	18418
824.389	18460
824.529	18418
824.669	18292
824.809	18429
824.949	18555
825.089	18407
825.228	18422
825.368	18213
825.508	18228
825.648	18220
825.787	18194
825.927	18186
826.067	18095
826.206	18133
826.346	18186
826.485	18155
826.625	18194
826.765	18251
826.904	18049
827.044	18026
827.183	17961
827.323	17794
827.462	17984
827.601	17889
827.741	17863
827.88	17931
828.02	17703
828.159	17939
828.298	17939
828.437	17973
828.577	17843
828.716	17954
828.855	17672
828.994	17733
829.134	17676
829.273	17581
829.412	17630
829.551	17638
829.69	17623
829.829	17653
829.968	17790
830.107	17786
830.246	17608
830.385	17573
830.524	17619
830.663	17315
830.802	17322
830.941	17254
831.08	17307
831.219	17303
831.357	17379
831.496	17433
831.635	17254
831.774	17178
831.913	17208
832.051	17037
832.19	17041
832.329	17086
832.467	17006
832.606	16809
832.744	16797
832.883	16923
833.022	16927
833.16	17045
833.299	16999
833.437	16999
833.576	16949
833.714	17010
833.852	16972
833.991	17022
834.129	16976
834.267	17029
834.406	16900
834.544	16927
834.682	17018
834.821	16923
834.959	17235
835.097	16911
835.235	17056
835.373	17041
835.511	16934
835.65	16904
835.788	16904
835.926	16736
836.064	16786
836.202	16755
836.34	16919
836.478	16991
836.615	16968
836.753	17006
836.891	17048
837.029	16980
837.167	16904
837.305	16892
837.443	16759
837.58	16725
837.718	16824
837.856	16744
837.993	16771
838.131	16778
838.269	16752
838.406	16706
838.544	16546
838.681	16504
838.819	16558
838.956	16417
839.094	16348
839.231	16382
839.369	16523
839.506	16679
839.643	16622
839.781	16314
839.918	16352
840.055	16299
840.193	16276
840.33	16303
840.467	16341
840.604	16421
840.742	16554
840.879	16147
841.016	16272
841.153	16200
841.29	16447
841.427	16325
841.564	16230
841.701	16295
841.838	16363
841.975	16291
842.112	16253
842.249	16169
842.385	16078
842.522	16246
842.659	16181
842.796	16086
842.933	16211
843.069	16051
843.206	16025
843.343	16128
843.479	16093
843.616	16090
843.752	15930
843.889	15911
844.025	16067
844.162	15816
844.298	16097
844.435	15880
844.571	15880
844.708	15918
844.844	15991
844.98	16082
845.117	16055
845.253	15816
845.389	15804
845.525	15972
845.661	15903
845.798	15739
845.934	15804
846.07	15701
846.206	15785
846.342	15865
846.478	15717
846.614	15530
846.75	15477
846.886	15428
847.022	15450
847.158	15439
847.294	15469
847.429	15477
847.565	15511
847.701	15618
847.837	15207
847.972	15241
848.108	15275
848.244	15275
848.379	15119
848.515	15058
848.65	14952
848.786	15024
848.921	15013
849.057	15195
849.192	15127
849.328	15104
849.463	15077
849.598	15009
849.734	15055
849.869	14899
850.004	14815
850.14	14819
850.275	14830
850.41	14785
850.545	14651
850.68	14872
850.815	14834
850.95	14773
851.085	15032
851.22	14838
851.355	14838
851.49	14834
851.625	14769
851.76	14838
851.895	14727
852.03	14804
852.165	14819
852.299	14811
852.434	14910
852.569	14838
852.703	14872
852.838	14956
852.973	15024
853.107	14990
853.242	14842
853.376	14765
853.511	14552
853.645	14682
853.78	14857
853.914	14712
854.048	14594
854.183	14640
854.317	14727
854.451	14944
854.585	14689
854.72	14644
854.854	14804
854.988	14598
855.122	14655
855.256	14541
855.39	14640
855.524	14800
855.658	14686
855.792	14701
855.926	14708
856.06	14682
856.194	14739
856.327	14678
856.461	14636
856.595	14564
856.729	14674
856.862	14739
856.996	14781
857.13	14811
857.263	14796
857.397	14845
857.53	14693
857.664	14800
857.797	14743
857.931	14765
858.064	14663
858.197	14773
858.331	14674
858.464	14598
858.597	14541
858.731	14682
858.864	14705
858.997	14667
859.13	14708
859.263	14678
859.396	14765
859.529	14625
859.662	14667
859.795	14701
859.928	14735
860.061	14796
860.194	14883
860.327	14708
860.46	14678
860.592	14807
860.725	14819
860.858	14830
860.99	14644
861.123	14610
861.256	14720
861.388	14670
861.521	15397
861.653	14655
861.786	14454
861.918	14522
862.05	14549
862.183	14659
862.315	14598
862.447	14720
862.58	14602
862.712	14533
862.844	14381
862.976	14495
863.108	14537
863.24	14941
863.372	14396
863.504	14461
863.636	14473
863.768	14480
863.9	14511
864.032	14393
864.164	14358
864.296	14427
864.428	14575
864.559	14587
864.691	14549
864.823	14522
864.954	14606
865.086	14514
865.217	14469
865.349	14404
865.48	14446
865.612	14446
865.743	14530
865.875	14556
866.006	14473
866.137	14571
866.269	14400
866.4	14454
866.531	14396
866.662	14393
866.793	14305
866.924	14343
867.055	14457
867.186	14377
867.317	14450
867.448	14286
867.579	14396
867.71	14404
867.841	14347
867.972	14457
868.103	14393
868.233	14473
868.364	14412
868.495	14454
868.625	14667
868.756	14765
868.886	14568
869.017	14754
869.147	14819
869.278	14777
869.408	14689
869.539	14739
869.669	14838
869.799	14777
869.929	14788
870.06	14682
870.19	15028
870.32	15001
870.45	15024
870.58	15077
870.71	15252
870.84	15207
870.97	15070
871.1	15051
871.23	15321
871.36	15237
871.489	15024
871.619	15313
871.749	15344
871.879	15351
872.008	15412
872.138	15332
872.267	15412
872.397	15104
872.526	15150
872.656	15138
872.785	15131
872.915	15332
873.044	15378
873.173	15374
873.303	15374
873.432	15370
873.561	15458
873.69	15340
873.819	15306
873.948	15443
874.077	15344
874.206	15298
874.335	15283
874.464	15378
874.593	15644
874.722	15637
874.851	15622
874.979	15667
875.108	15728
875.237	15538
875.365	15511
875.494	15523
875.623	15728
875.751	15622
875.88	15545
876.008	15755
876.136	15842
876.265	15972
876.393	16230
876.521	16181
876.65	16086
876.778	15994
876.906	15998
877.034	15972
877.162	16013
877.29	16017
877.418	16074
877.546	16097
877.674	16090
877.802	16044
877.93	16139
878.058	15998
878.185	16006
878.313	15994
878.441	16116
878.568	15842
878.696	16097
878.824	16063
878.951	16143
879.079	16265
879.206	16409
879.333	16226
879.461	16063
879.588	16265
879.715	16341
879.842	16428
879.97	16143
880.097	15949
880.224	15861
880.351	16063
880.478	15869
880.605	15899
880.732	15915
880.859	16177
880.986	15937
881.112	15968
881.239	15831
881.366	15713
881.493	15675
881.619	15561
881.746	15580
881.872	15564
881.999	15557
882.125	15485
882.252	15633
882.378	15644
882.505	15690
882.631	15530
882.757	15405
882.883	15374
883.01	15450
883.136	15302
883.262	15230
883.388	15268
883.514	15302
883.64	15576
883.766	15428
883.892	15249
884.018	15260
884.143	15298
884.269	15454
884.395	15237
884.52	15043
884.646	15024
884.772	15062
884.897	15028
885.023	15070
885.148	15142
885.274	15245
885.399	15256
885.524	15051
885.65	15131
885.775	15154
885.9	15100
886.025	15237
886.15	15081
886.275	15108
886.4	14902
886.525	14956
886.65	15043
886.775	15097
886.9	15195
887.025	15230
887.149	15112
887.274	14899
887.399	14857
887.523	14906
887.648	14838
887.773	14811
887.897	15020
888.021	14971
888.146	14906
888.27	15066
888.395	14971
888.519	14948
888.643	14914
888.767	14925
888.891	14792
889.015	14720
889.139	14781
889.263	14720
889.387	14857
889.511	15032
889.635	14921
889.759	14743
889.883	14686
890.006	14758
890.13	14849
890.254	14716
890.377	14735
890.501	14602
890.624	14541
890.748	14621
890.871	14526
890.995	14423
891.118	14290
891.241	14419
891.364	14419
891.488	14648
891.611	14484
891.734	14526
891.857	14511
891.98	14412
892.103	14492
892.226	14446
892.349	14438
892.471	14347
892.594	14427
892.717	14442
892.839	14412
892.962	14408
893.085	14495
893.207	14564
893.33	14290
893.452	14404
893.575	14556
893.697	14400
893.819	14644
893.941	14632
894.064	14568
894.186	14461
894.308	14492
894.43	14465
894.552	14648
894.674	14465
894.796	14469
894.918	14587
895.04	14450
895.161	14613
895.283	14583
895.405	14480
895.526	14476
895.648	14545
895.769	14568
895.891	14632
896.012	14629
896.134	14689
896.255	14587
896.376	14465
896.498	14606
896.619	14613
896.74	14644
896.861	14724
896.982	14891
897.103	15093
897.224	14944
897.345	14944
897.466	14781
897.587	14834
897.708	14925
897.828	14910
897.949	14899
898.07	14663
898.19	14876
898.311	15005
898.431	14902
898.552	14994
898.672	15062
898.792	15043
898.913	15028
899.033	14887
899.153	14743
899.273	14720
899.393	14689
899.513	14906
899.633	14830
899.753	14899
899.873	14883
899.993	14792
900.113	14746
900.232	14883
900.352	14667
900.472	14560
900.591	14659
900.711	14621
900.83	14587
900.95	14670
901.069	14754
901.189	14560
901.308	14446
901.427	14278
901.546	14332
901.665	14389
901.784	14305
901.904	14145
902.023	14142
902.141	13925
902.26	13898
902.379	13974
902.498	13928
902.617	13727
902.735	13947
902.854	13894
902.973	13799
903.091	13658
903.21	13586
903.328	13677
903.446	13559
903.565	13483
903.683	13445
903.801	13331
903.919	13419
904.038	13426
904.156	13362
904.274	13251
904.392	13206
904.51	13236
904.627	13289
904.745	13362
904.863	13304
904.981	12958
905.098	13019
905.216	13012
905.334	13057
905.451	12928
905.569	12962
905.686	12977
905.803	12932
905.921	12753
906.038	12939
906.155	12791
906.272	12658
906.389	12684
906.506	12555
906.623	12521
906.74	12528
906.857	12486
906.974	12418
907.091	12589
907.208	12681
907.324	12650
907.441	12471
907.557	12361
907.674	12262
907.79	12289
907.907	12243
908.023	12262
908.139	12213
908.256	12175
908.372	12194
908.488	12136
908.604	12049
908.72	12057
908.836	12045
908.952	12060
909.068	12068
909.184	12098
909.3	12026
909.415	12152
909.531	11988
909.647	11863
909.762	11805
909.878	11901
909.993	11863
910.108	11843
910.224	11714
910.339	11855
910.454	11710
910.57	11680
910.685	11615
910.8	11939
910.915	11859
911.03	11642
911.145	11512
911.259	11524
911.374	11528
911.489	11471
911.604	11345
911.718	11216
911.833	11307
911.947	11220
912.062	11128
912.176	11246
912.291	11280
912.405	11193
912.519	11448
912.633	11391
912.748	11349
912.862	11242
912.976	11094
913.09	10999
913.204	11159
913.318	11113
913.431	11250
913.545	11284
913.659	11364
913.772	11071
913.886	11037
914	10976
914.113	11117
914.226	11083
914.34	11086
914.453	10987
914.566	11083
914.68	10930
914.793	10923
914.906	10786
915.019	10626
915.132	10694
915.245	10717
915.358	10904
915.47	10721
915.583	10786
915.696	10733
915.809	10869
915.921	10915
916.034	10721
916.146	10790
916.259	10679
916.371	10706
916.483	10778
916.595	10637
916.708	10755
916.82	10717
916.932	10592
917.044	10721
917.156	10668
917.268	10584
917.38	10573
917.491	10558
917.603	10558
917.715	10607
917.826	10637
917.938	10546
918.049	10451
918.161	10558
918.272	10721
918.384	10702
918.495	10538
918.606	10546
918.717	10394
918.828	10413
918.939	10466
919.05	10367
919.161	10360
919.272	10299
919.383	10261
919.494	10489
919.604	10733
919.715	10527
919.826	10352
919.936	10413
920.047	10546
920.157	10455
920.267	10603
920.378	10538
920.488	10447
920.598	10569
920.708	10706
920.818	10687
920.928	10584
921.038	10862
921.148	10744
921.258	10478
921.368	10371
921.477	10295
921.587	10295
921.697	10166
921.806	10295
921.916	10196
922.025	10071
922.134	10013
922.244	10017
922.353	10048
922.462	9880
922.571	9869
922.68	9705
922.789	9686
922.898	9652
923.007	9591
923.116	9656
923.224	9713
923.333	9690
923.442	9614
923.55	9584
923.659	9671
923.767	9656
923.876	9561
923.984	9644
924.092	9424
924.201	9587
924.309	9538
924.417	9507
924.525	9477
924.633	9564
924.741	10223
924.849	9272
924.956	9443
925.064	9329
925.172	9260
925.279	9291
925.387	9393
925.494	9287
925.602	9477
925.709	9443
925.816	9321
925.924	9340
926.031	9450
926.138	9294
926.245	9386
926.352	9230
926.459	9344
926.566	9435
926.673	9321
926.779	9264
926.886	9138
926.993	9150
927.099	9017
927.206	8948
927.312	9058
927.419	9036
927.525	9081
927.631	9020
927.737	8868
927.843	8937
927.95	8796
928.056	8861
928.162	8963
928.267	8895
928.373	9629
928.479	8956
928.585	8807
928.69	8944
928.796	9013
928.901	8864
929.007	8697
929.112	8792
929.218	8834
929.323	8701
929.428	8731
929.533	8864
929.638	8750
929.743	8746
929.848	8731
929.953	8682
930.058	8632
930.163	8549
930.267	8454
930.372	8727
930.477	8552
930.581	8674
930.685	8587
930.79	8362
930.894	8419
930.998	8454
931.103	8552
931.207	8259
931.311	8206
931.415	8058
931.519	7936
931.623	7944
