Data from test_V78500241_304.txt Node
Date: Fri Mar 25 14:35:50 CST 2022
User: usil
Spectrometer: V785-0024
Trigger mode: 0
Integration Time (sec): 4.000000E-1
Scans to average: 1
Nonlinearity correction enabled: false
Boxcar width: 0
Storing dark spectrum: false
XAxis mode: Wavelengths
Number of Pixels in Spectrum: 1024
>>>>>Begin Spectral Data<<<<<
801.071	27192
801.214	27093
801.356	26830
801.499	26583
801.641	26571
801.783	26492
801.926	26499
802.068	26374
802.211	26389
802.353	26377
802.496	26267
802.638	26138
802.78	26138
802.923	26107
803.065	25974
803.208	25966
803.35	25978
803.492	26096
803.635	26286
803.777	26012
803.919	26161
804.061	26503
804.204	26122
804.346	26031
804.488	26088
804.63	26005
804.773	25833
804.915	26111
805.057	26259
805.199	25795
805.341	26012
805.483	26081
805.626	26103
805.768	26142
805.91	26214
806.052	26286
806.194	26046
806.336	26267
806.478	26221
806.62	26069
806.762	26065
806.904	26343
807.046	26644
807.188	26507
807.33	26488
807.472	26514
807.614	26396
807.756	26473
807.898	26434
808.04	26221
808.182	26282
808.324	26362
808.465	26362
808.607	26427
808.749	26613
808.891	26739
809.033	26864
809.174	26746
809.316	26712
809.458	26678
809.6	26716
809.741	26613
809.883	26602
810.025	26807
810.166	26998
810.308	26792
810.45	26845
810.591	26811
810.733	26701
810.875	26374
811.016	26374
811.158	26412
811.299	26560
811.441	26705
811.582	26480
811.724	26556
811.865	26495
812.007	26408
812.148	26480
812.29	26453
812.431	26636
812.573	26663
812.714	26891
812.855	26834
812.997	27096
813.138	27184
813.279	27093
813.421	26979
813.562	26823
813.703	26815
813.845	26640
813.986	26408
814.127	26229
814.268	26122
814.41	26046
814.551	26168
814.692	26111
814.833	26050
814.974	26008
815.115	25940
815.256	25940
815.397	25837
815.539	25833
815.68	25788
815.821	25712
815.962	25742
816.103	25700
816.244	25616
816.385	25449
816.526	25495
816.666	25183
816.807	25110
816.948	25141
817.089	25285
817.23	25114
817.371	25263
817.512	25152
817.653	25126
817.793	25148
817.934	25175
818.075	25244
818.216	25110
818.356	24943
818.497	24928
818.638	24848
818.778	24772
818.919	24817
819.06	24852
819.2	25004
819.341	25050
819.481	25046
819.622	25190
819.762	25301
819.903	25251
820.043	25244
820.184	25129
820.324	25194
820.465	25072
820.605	25206
820.746	25133
820.886	24962
821.026	24966
821.167	24943
821.307	25004
821.447	25000
821.588	24859
821.728	24753
821.868	24582
822.008	24475
822.149	24311
822.289	24456
822.429	24209
822.569	24155
822.709	24015
822.849	23912
822.99	23965
823.13	23855
823.27	23859
823.41	23718
823.55	23741
823.69	23779
823.83	23756
823.97	23657
824.11	23512
824.25	23493
824.389	23474
824.529	23661
824.669	23490
824.809	23687
824.949	23562
825.089	23490
825.228	23581
825.368	23345
825.508	23307
825.648	23299
825.787	23181
825.927	23303
826.067	23231
826.206	23364
826.346	23334
826.485	23417
826.625	23220
826.765	23406
826.904	23330
827.044	22968
827.183	22900
827.323	22881
827.462	23010
827.601	22949
827.741	23067
827.88	23071
828.02	22869
828.159	22847
828.298	22968
828.437	22984
828.577	22812
828.716	22862
828.855	22839
828.994	22668
829.134	22637
829.273	22637
829.412	22592
829.551	22573
829.69	22531
829.829	22744
829.968	22691
830.107	22740
830.246	22599
830.385	22565
830.524	22519
830.663	22390
830.802	22390
830.941	22257
831.08	22120
831.219	22379
831.357	22310
831.496	22451
831.635	22253
831.774	22093
831.913	22143
832.051	22017
832.19	22044
832.329	21998
832.467	21808
832.606	21850
832.744	21766
832.883	21808
833.022	21789
833.16	21895
833.299	21926
833.437	21892
833.576	21953
833.714	21770
833.852	21964
833.991	21918
834.129	21998
834.267	21876
834.406	21732
834.544	21941
834.682	21861
834.821	21755
834.959	21994
835.097	21698
835.235	21842
835.373	21739
835.511	21846
835.65	21709
835.788	21751
835.926	21572
836.064	21439
836.202	21580
836.34	21793
836.478	21751
836.615	21694
836.753	21671
836.891	21751
837.029	21599
837.167	21610
837.305	21583
837.443	21568
837.58	21447
837.718	21701
837.856	21583
837.993	21397
838.131	21500
838.269	21412
838.406	21477
838.544	21439
838.681	21199
838.819	21036
838.956	20891
839.094	20960
839.231	21039
839.369	21157
839.506	21420
839.643	21188
839.781	20944
839.918	20998
840.055	21074
840.193	20861
840.33	20868
840.467	20883
840.604	20883
840.742	21157
840.879	20785
841.016	20777
841.153	20731
841.29	20952
841.427	20933
841.564	20861
841.701	20762
841.838	20785
841.975	20720
842.112	20735
842.249	20682
842.385	20659
842.522	20834
842.659	20590
842.796	20632
842.933	20701
843.069	20648
843.206	20594
843.343	20556
843.479	20693
843.616	20625
843.752	20381
843.889	20488
844.025	20434
844.162	20393
844.298	20442
844.435	20366
844.571	20355
844.708	20404
844.844	20454
844.98	20358
845.117	20446
845.253	20381
845.389	20214
845.525	20324
845.661	20336
845.798	20275
845.934	20370
846.07	20229
846.206	20275
846.342	20351
846.478	20157
846.614	19894
846.75	19795
846.886	19780
847.022	19875
847.158	19852
847.294	19913
847.429	19871
847.565	19887
847.701	20107
847.837	19567
847.972	19537
848.108	19582
848.244	19548
848.379	19362
848.515	19426
848.65	19468
848.786	19430
848.921	19373
849.057	19483
849.192	19464
849.328	19407
849.463	19434
849.598	19331
849.734	19293
849.869	19103
850.004	19141
850.14	19103
850.275	19122
850.41	19072
850.545	19027
850.68	19027
850.815	19095
850.95	19095
851.085	19148
851.22	19126
851.355	19156
851.49	19103
851.625	19069
851.76	19118
851.895	18909
852.03	19023
852.165	19095
852.299	19095
852.434	19103
852.569	19088
852.703	19122
852.838	19171
852.973	19259
853.107	19137
853.242	19069
853.376	18779
853.511	18848
853.645	18837
853.78	19004
853.914	18973
854.048	18996
854.183	18859
854.317	18985
854.451	19133
854.585	18989
854.72	18897
854.854	19023
854.988	18837
855.122	18924
855.256	18787
855.39	18989
855.524	18924
855.658	18924
855.792	18939
855.926	18958
856.06	18973
856.194	18943
856.327	18935
856.461	18787
856.595	18859
856.729	18882
856.862	18947
856.996	18939
857.13	18935
857.263	19019
857.397	18935
857.53	18890
857.664	18909
857.797	18909
857.931	19000
858.064	19008
858.197	19027
858.331	18966
858.464	18844
858.597	18719
858.731	18719
858.864	18779
858.997	18760
859.13	18829
859.263	18875
859.396	18935
859.529	18935
859.662	18791
859.795	18829
859.928	18734
860.061	19000
860.194	19053
860.327	18909
860.46	18764
860.592	18989
860.725	18894
860.858	18985
860.99	18798
861.123	18795
861.256	18935
861.388	18920
861.521	19495
861.653	18852
861.786	18719
861.918	18757
862.05	18882
862.183	18924
862.315	18882
862.447	18901
862.58	18882
862.712	18597
862.844	18597
862.976	18623
863.108	18650
863.24	18856
863.372	18585
863.504	18646
863.636	18570
863.768	18601
863.9	18551
864.032	18452
864.164	18623
864.296	18639
864.428	18612
864.559	18582
864.691	18658
864.823	18654
864.954	18582
865.086	18654
865.217	18498
865.349	18437
865.48	18475
865.612	18517
865.743	18551
865.875	18547
866.006	18330
866.137	18490
866.269	18544
866.4	18456
866.531	18433
866.662	18376
866.793	18433
866.924	18448
867.055	18429
867.186	18399
867.317	18357
867.448	18289
867.579	18338
867.71	18372
867.841	18350
867.972	18467
868.103	18410
868.233	18486
868.364	18441
868.495	18536
868.625	18574
868.756	18730
868.886	18544
869.017	18688
869.147	18730
869.278	18749
869.408	18684
869.539	18570
869.669	18829
869.799	18654
869.929	18901
870.06	18764
870.19	18977
870.32	18916
870.45	18947
870.58	18985
870.71	19129
870.84	19183
870.97	18985
871.1	19050
871.23	19190
871.36	19244
871.489	19110
871.619	19263
871.749	19251
871.879	19255
872.008	19411
872.138	19278
872.267	19270
872.397	19072
872.526	19148
872.656	19069
872.785	19209
872.915	19381
873.044	19358
873.173	19384
873.303	19274
873.432	19240
873.561	19316
873.69	19225
873.819	19316
873.948	19335
874.077	19365
874.206	19198
874.335	19247
874.464	19457
874.593	19518
874.722	19559
874.851	19540
874.979	19510
875.108	19624
875.237	19533
875.365	19411
875.494	19544
875.623	19746
875.751	19502
875.88	19502
876.008	19799
876.136	19799
876.265	20001
876.393	19963
876.521	20008
876.65	19963
876.778	19940
876.906	19875
877.034	19871
877.162	19944
877.29	19887
877.418	20073
877.546	19917
877.674	19963
877.802	19940
877.93	19799
878.058	19845
878.185	19814
878.313	19849
878.441	20005
878.568	19788
878.696	19917
878.824	19947
878.951	20005
879.079	20256
879.206	20256
879.333	20043
879.461	19997
879.588	20187
879.715	20157
879.842	20252
879.97	20122
880.097	19898
880.224	19746
880.351	19906
880.478	19875
880.605	19833
880.732	19826
880.859	20046
880.986	19791
881.112	19871
881.239	19632
881.366	19563
881.493	19407
881.619	19396
881.746	19480
881.872	19346
881.999	19304
882.125	19301
882.252	19476
882.378	19346
882.505	19521
882.631	19304
882.757	19145
882.883	19244
883.01	19145
883.136	19069
883.262	19122
883.388	19034
883.514	19152
883.64	19145
883.766	19107
883.892	18844
884.018	18989
884.143	19206
884.269	19091
884.395	18913
884.52	18852
884.646	18928
884.772	18848
884.897	18821
885.023	18871
885.148	18909
885.274	18875
885.399	18901
885.524	18856
885.65	18833
885.775	18878
885.9	18894
886.025	18920
886.15	18783
886.275	18863
886.4	18677
886.525	18783
886.65	18738
886.775	18745
886.9	18814
887.025	18973
887.149	18787
887.274	18547
887.399	18585
887.523	18593
887.648	18582
887.773	18555
887.897	18654
888.021	18661
888.146	18456
888.27	18620
888.395	18837
888.519	18627
888.643	18677
888.767	18574
888.891	18395
889.015	18418
889.139	18464
889.263	18380
889.387	18350
889.511	18612
889.635	18536
889.759	18334
889.883	18380
890.006	18384
890.13	18506
890.254	18342
890.377	18270
890.501	18174
890.624	18106
890.748	18098
890.871	18178
890.995	17961
891.118	17874
891.241	17965
891.364	17916
891.488	18129
891.611	18007
891.734	18049
891.857	18045
891.98	18030
892.103	18091
892.226	17958
892.349	17961
892.471	17802
892.594	18041
892.717	18030
892.839	17977
892.962	17901
893.085	17992
893.207	17950
893.33	17809
893.452	17828
893.575	18072
893.697	17897
893.819	18064
893.941	18205
894.064	18163
894.186	17756
894.308	17946
894.43	17984
894.552	17992
894.674	18045
894.796	17923
894.918	17908
895.04	17969
895.161	18072
895.283	18159
895.405	18011
895.526	17885
895.648	17878
895.769	18007
895.891	17969
896.012	18098
896.134	17996
896.255	18038
896.376	17992
896.498	17973
896.619	17916
896.74	18076
896.861	18076
896.982	18410
897.103	18506
897.224	18330
897.345	18311
897.466	18136
897.587	18254
897.708	18433
897.828	18330
897.949	18159
898.07	18224
898.19	18262
898.311	18277
898.431	18178
898.552	18205
898.672	18220
898.792	18357
898.913	18232
899.033	18026
899.153	17999
899.273	17882
899.393	18068
899.513	18079
899.633	17984
899.753	17984
899.873	17969
899.993	17977
900.113	17866
900.232	18060
900.352	17954
900.472	17935
900.591	17764
900.711	17927
900.83	17855
900.95	17836
901.069	17847
901.189	17923
901.308	17528
901.427	17558
901.546	17444
901.665	17482
901.784	17425
901.904	17349
902.023	17185
902.141	17052
902.26	16968
902.379	16995
902.498	16892
902.617	16866
902.735	16961
902.854	16824
902.973	16812
903.091	16725
903.21	16694
903.328	16660
903.446	16599
903.565	16508
903.683	16523
903.801	16424
903.919	16485
904.038	16413
904.156	16177
904.274	16249
904.392	16147
904.51	16101
904.627	16166
904.745	16295
904.863	16253
904.981	16025
905.098	15998
905.216	15876
905.334	16048
905.451	15869
905.569	15899
905.686	15876
905.803	15892
905.921	15690
906.038	15838
906.155	15873
906.272	15705
906.389	15656
906.506	15431
906.623	15428
906.74	15568
906.857	15393
906.974	15378
907.091	15557
907.208	15572
907.324	15511
907.441	15363
907.557	15230
907.674	15241
907.79	15058
907.907	15047
908.023	15142
908.139	15150
908.256	15024
908.372	15142
908.488	14975
908.604	14982
908.72	14834
908.836	14804
908.952	14811
909.068	14845
909.184	14902
909.3	14872
909.415	14807
909.531	14807
909.647	14541
909.762	14594
909.878	14537
909.993	14632
910.108	14564
910.224	14549
910.339	14476
910.454	14442
910.57	14370
910.685	14374
910.8	14613
910.915	14503
911.03	14328
911.145	14259
911.259	14164
911.374	14191
911.489	14153
911.604	14088
911.718	13940
911.833	13845
911.947	13868
912.062	13807
912.176	13951
912.291	13936
912.405	13932
912.519	14043
912.633	14088
912.748	14069
912.862	13936
912.976	13765
913.09	13674
913.204	13757
913.318	13761
913.431	13818
913.545	13871
913.659	13879
913.772	13772
913.886	13658
914	13613
914.113	13765
914.226	13738
914.34	13655
914.453	13582
914.566	13628
914.68	13548
914.793	13510
914.906	13312
915.019	13255
915.132	13221
915.245	13316
915.358	13316
915.47	13251
915.583	13308
915.696	13293
915.809	13445
915.921	13373
916.034	13297
916.146	13225
916.259	13251
916.371	13343
916.483	13278
916.595	13149
916.708	13206
916.82	13156
916.932	13099
917.044	13126
917.156	13099
917.268	12951
917.38	13031
917.491	12981
917.603	12996
917.715	13050
917.826	13053
917.938	12970
918.049	12776
918.161	12852
918.272	13088
918.384	12989
918.495	12970
918.606	12852
918.717	12719
918.828	12795
918.939	12867
919.05	12639
919.161	12787
919.272	12631
919.383	12627
919.494	12764
919.604	12962
919.715	12730
919.826	12627
919.936	12730
920.047	12894
920.157	12806
920.267	12897
920.378	12760
920.488	12711
920.598	12920
920.708	13053
920.818	12935
920.928	12901
921.038	13004
921.148	13019
921.258	12726
921.368	12620
921.477	12506
921.587	12467
921.697	12399
921.806	12639
921.916	12384
922.025	12201
922.134	12155
922.244	12129
922.353	12190
922.462	12076
922.571	11988
922.68	11855
922.789	11790
922.898	11920
923.007	11824
923.116	11840
923.224	11767
923.333	11737
923.442	11699
923.55	11623
923.659	11684
923.767	11733
923.876	11630
923.984	11714
924.092	11573
924.201	11630
924.309	11649
924.417	11627
924.525	11573
924.633	11417
924.741	12433
924.849	11345
924.956	11467
925.064	11349
925.172	11277
925.279	11292
925.387	11402
925.494	11398
925.602	11429
925.709	11410
925.816	11284
925.924	11326
926.031	11410
926.138	11303
926.245	11368
926.352	11296
926.459	11360
926.566	11410
926.673	11216
926.779	11140
926.886	11079
926.993	11048
927.099	11010
927.206	10892
927.312	10919
927.419	10991
927.525	10911
927.631	11029
927.737	10957
927.843	10839
927.95	10729
928.056	10866
928.162	10858
928.267	10942
928.373	11322
928.479	10900
928.585	10634
928.69	10729
928.796	10763
928.901	10660
929.007	10580
929.112	10698
929.218	10577
929.323	10698
929.428	10599
929.533	10721
929.638	10489
929.743	10535
929.848	10542
929.953	10474
930.058	10512
930.163	10352
930.267	10371
930.372	10489
930.477	10219
930.581	10390
930.685	10284
930.79	10135
930.894	10207
930.998	10169
931.103	10295
931.207	10029
931.311	9903
931.415	9747
931.519	9568
931.623	9557
