Data from test_V78500241_2034.txt Node
Date: Fri Mar 25 14:47:52 CST 2022
User: usil
Spectrometer: V785-0024
Trigger mode: 0
Integration Time (sec): 4.000000E-1
Scans to average: 1
Nonlinearity correction enabled: false
Boxcar width: 0
Storing dark spectrum: false
XAxis mode: Wavelengths
Number of Pixels in Spectrum: 1024
>>>>>Begin Spectral Data<<<<<
801.071	22059
801.214	22017
801.356	21770
801.499	21606
801.641	21462
801.783	21462
801.926	21485
802.068	21431
802.211	21389
802.353	21313
802.496	21062
802.638	21028
802.78	20998
802.923	20887
803.065	20807
803.208	20861
803.35	20861
803.492	20785
803.635	20979
803.777	20758
803.919	20895
804.061	21150
804.204	20842
804.346	20792
804.488	20678
804.63	20792
804.773	20689
804.915	20807
805.057	20921
805.199	20731
805.341	20754
805.483	20887
805.626	20838
805.768	20777
805.91	20834
806.052	20883
806.194	20754
806.336	20872
806.478	20682
806.62	20697
806.762	20773
806.904	20971
807.046	21119
807.188	21062
807.33	21074
807.472	21074
807.614	20899
807.756	20994
807.898	20891
808.04	20724
808.182	20807
808.324	20857
808.465	20853
808.607	21081
808.749	21138
808.891	21176
809.033	21370
809.174	21218
809.316	21146
809.458	21089
809.6	21093
809.741	21131
809.883	21199
810.025	21283
810.166	21237
810.308	21161
810.45	21192
810.591	21116
810.733	20967
810.875	20838
811.016	20899
811.158	20914
811.299	20975
811.441	21017
811.582	20971
811.724	20948
811.865	20834
812.007	20804
812.148	20826
812.29	20777
812.431	20971
812.573	21150
812.714	21332
812.855	21416
812.997	21488
813.138	21477
813.279	21386
813.421	21389
813.562	21241
813.703	21138
813.845	21051
813.986	20739
814.127	20632
814.268	20434
814.41	20495
814.551	20419
814.692	20568
814.833	20454
814.974	20438
815.115	20484
815.256	20271
815.397	20286
815.539	20309
815.68	20191
815.821	20161
815.962	20107
816.103	20062
816.244	19978
816.385	19887
816.526	19913
816.666	19753
816.807	19582
816.948	19742
817.089	19727
817.23	19689
817.371	19529
817.512	19518
817.653	19613
817.793	19457
817.934	19616
818.075	19578
818.216	19468
818.356	19480
818.497	19331
818.638	19209
818.778	19304
818.919	19225
819.06	19282
819.2	19392
819.341	19346
819.481	19407
819.622	19533
819.762	19719
819.903	19700
820.043	19647
820.184	19533
820.324	19582
820.465	19613
820.605	19575
820.746	19567
820.886	19468
821.026	19563
821.167	19449
821.307	19559
821.447	19495
821.588	19392
821.728	19190
821.868	19099
822.008	18920
822.149	18909
822.289	18935
822.429	18749
822.569	18669
822.709	18616
822.849	18372
822.99	18422
823.13	18330
823.27	18308
823.41	18205
823.55	18159
823.69	18197
823.83	18235
823.97	18285
824.11	17939
824.25	18007
824.389	17965
824.529	18125
824.669	17969
824.809	18155
824.949	18136
825.089	17984
825.228	17973
825.368	17836
825.508	17771
825.648	17904
825.787	17904
825.927	17843
826.067	17771
826.206	17745
826.346	17832
826.485	17912
826.625	17851
826.765	17878
826.904	17775
827.044	17501
827.183	17562
827.323	17410
827.462	17646
827.601	17425
827.741	17455
827.88	17501
828.02	17486
828.159	17452
828.298	17589
828.437	17634
828.577	17360
828.716	17592
828.855	17482
828.994	17284
829.134	17284
829.273	17208
829.412	17261
829.551	17189
829.69	17227
829.829	17261
829.968	17318
830.107	17299
830.246	17246
830.385	17105
830.524	17204
830.663	16995
830.802	16995
830.941	16930
831.08	16911
831.219	16984
831.357	16976
831.496	17105
831.635	16831
831.774	16774
831.913	16774
832.051	16618
832.19	16660
832.329	16679
832.467	16596
832.606	16527
832.744	16649
832.883	16618
833.022	16535
833.16	16592
833.299	16611
833.437	16538
833.576	16554
833.714	16596
833.852	16694
833.991	16664
834.129	16691
834.267	16694
834.406	16550
834.544	16702
834.682	16698
834.821	16599
834.959	16797
835.097	16588
835.235	16675
835.373	16668
835.511	16653
835.65	16561
835.788	16470
835.926	16478
836.064	16303
836.202	16325
836.34	16546
836.478	16637
836.615	16531
836.753	16580
836.891	16645
837.029	16554
837.167	16546
837.305	16447
837.443	16512
837.58	16314
837.718	16459
837.856	16303
837.993	16363
838.131	16402
838.269	16344
838.406	16360
838.544	16348
838.681	16055
838.819	16105
838.956	15987
839.094	15819
839.231	15956
839.369	16082
839.506	16306
839.643	16211
839.781	16071
839.918	15846
840.055	15945
840.193	15949
840.33	15838
840.467	15941
840.604	15998
840.742	16196
840.879	15781
841.016	15854
841.153	15816
841.29	16147
841.427	16017
841.564	16040
841.701	16017
841.838	15918
841.975	15804
842.112	15823
842.249	15781
842.385	15663
842.522	15922
842.659	15724
842.796	15713
842.933	15762
843.069	15686
843.206	15656
843.343	15865
843.479	15762
843.616	15755
843.752	15534
843.889	15454
844.025	15671
844.162	15511
844.298	15591
844.435	15595
844.571	15458
844.708	15538
844.844	15812
844.98	15603
845.117	15701
845.253	15557
845.389	15393
845.525	15523
845.661	15393
845.798	15233
845.934	15386
846.07	15405
846.206	15431
846.342	15485
846.478	15211
846.614	15066
846.75	15047
846.886	15017
847.022	15272
847.158	15062
847.294	15165
847.429	15112
847.565	15108
847.701	15279
847.837	14804
847.972	14834
848.108	14838
848.244	14941
848.379	14788
848.515	14720
848.65	14720
848.786	14735
848.921	14678
849.057	14857
849.192	14785
849.328	14697
849.463	14731
849.598	14594
849.734	14594
849.869	14526
850.004	14526
850.14	14575
850.275	14499
850.41	14415
850.545	14385
850.68	14518
850.815	14492
850.95	14446
851.085	14552
851.22	14594
851.355	14488
851.49	14530
851.625	14408
851.76	14556
851.895	14415
852.03	14317
852.165	14457
852.299	14503
852.434	14583
852.569	14571
852.703	14514
852.838	14568
852.973	14651
853.107	14625
853.242	14560
853.376	14423
853.511	14221
853.645	14237
853.78	14396
853.914	14362
854.048	14225
854.183	14328
854.317	14362
854.451	14522
854.585	14336
854.72	14305
854.854	14366
854.988	14240
855.122	14286
855.256	14073
855.39	14355
855.524	14313
855.658	14484
855.792	14305
855.926	14309
856.06	14358
856.194	14400
856.327	14298
856.461	14229
856.595	14199
856.729	14294
856.862	14332
856.996	14381
857.13	14366
857.263	14328
857.397	14408
857.53	14309
857.664	14408
857.797	14465
857.931	14450
858.064	14393
858.197	14393
858.331	14305
858.464	14290
858.597	14244
858.731	14256
858.864	14358
858.997	14256
859.13	14347
859.263	14313
859.396	14408
859.529	14328
859.662	14347
859.795	14240
859.928	14309
860.061	14549
860.194	14469
860.327	14339
860.46	14294
860.592	14419
860.725	14431
860.858	14358
860.99	14385
861.123	14153
861.256	14233
861.388	14355
861.521	15001
861.653	14221
861.786	14180
861.918	14218
862.05	14244
862.183	14370
862.315	14393
862.447	14389
862.58	14256
862.712	14233
862.844	14054
862.976	14119
863.108	14263
863.24	14465
863.372	14043
863.504	14119
863.636	14077
863.768	14164
863.9	14142
864.032	14001
864.164	13940
864.296	14096
864.428	14123
864.559	14153
864.691	14244
864.823	14172
864.954	14161
865.086	14157
865.217	14084
865.349	14157
865.48	14103
865.612	14145
865.743	14275
865.875	14096
866.006	13993
866.137	14092
866.269	14103
866.4	14126
866.531	14054
866.662	14069
866.793	14016
866.924	14001
867.055	14103
867.186	14111
867.317	14050
867.448	14035
867.579	14027
867.71	14020
867.841	14046
867.972	14134
868.103	14035
868.233	14043
868.364	13989
868.495	14134
868.625	14290
868.756	14503
868.886	14275
869.017	14267
869.147	14469
869.278	14469
869.408	14381
869.539	14328
869.669	14469
869.799	14358
869.929	14438
870.06	14514
870.19	14632
870.32	14636
870.45	14636
870.58	14697
870.71	14880
870.84	14944
870.97	14670
871.1	14705
871.23	14887
871.36	15024
871.489	14830
871.619	14891
871.749	14971
871.879	14956
872.008	15047
872.138	14933
872.267	14902
872.397	14796
872.526	14701
872.656	14731
872.785	14796
872.915	14986
873.044	15009
873.173	14994
873.303	15051
873.432	15108
873.561	15081
873.69	14952
873.819	14956
873.948	15093
874.077	15047
874.206	14990
874.335	14994
874.464	15146
874.593	15283
874.722	15165
874.851	15336
874.979	15298
875.108	15397
875.237	15207
875.365	15306
875.494	15359
875.623	15344
875.751	15287
875.88	15279
876.008	15469
876.136	15496
876.265	15701
876.393	15797
876.521	15789
876.65	15873
876.778	15720
876.906	15701
877.034	15679
877.162	15682
877.29	15591
877.418	15686
877.546	15663
877.674	15694
877.802	15770
877.93	15637
878.058	15564
878.185	15587
878.313	15633
878.441	15743
878.568	15599
878.696	15679
878.824	15633
878.951	15762
879.079	15838
879.206	16040
879.333	15816
879.461	15743
879.588	15812
879.715	15953
879.842	15960
879.97	15739
880.097	15553
880.224	15584
880.351	15622
880.478	15526
880.605	15492
880.732	15431
880.859	15842
880.986	15682
881.112	15549
881.239	15473
881.366	15332
881.493	15256
881.619	15218
881.746	15184
881.872	15173
881.999	15230
882.125	15138
882.252	15226
882.378	15249
882.505	15332
882.631	15184
882.757	15119
882.883	15108
883.01	15100
883.136	14952
883.262	14921
883.388	14895
883.514	15062
883.64	15097
883.766	15020
883.892	14906
884.018	14952
884.143	15013
884.269	15089
884.395	14739
884.52	14765
884.646	14796
884.772	14693
884.897	14636
885.023	14720
885.148	14731
885.274	14857
885.399	14727
885.524	14765
885.65	14746
885.775	14769
885.9	14697
886.025	14796
886.15	14834
886.275	14701
886.4	14743
886.525	14773
886.65	14644
886.775	14655
886.9	14857
887.025	14925
887.149	14720
887.274	14598
887.399	14537
887.523	14526
887.648	14400
887.773	14606
887.897	14568
888.021	14579
888.146	14583
888.27	14587
888.395	14823
888.519	14625
888.643	14556
888.767	14625
888.891	14556
889.015	14484
889.139	14499
889.263	14522
889.387	14594
889.511	14667
889.635	14522
889.759	14446
889.883	14412
890.006	14476
890.13	14549
890.254	14362
890.377	14343
890.501	14218
890.624	14278
890.748	14320
890.871	14225
890.995	14088
891.118	14008
891.241	14164
891.364	14088
891.488	14381
891.611	14100
891.734	14103
891.857	14233
891.98	14161
892.103	14172
892.226	14172
892.349	14096
892.471	14077
892.594	14172
892.717	14183
892.839	14062
892.962	14161
893.085	14172
893.207	14153
893.33	14046
893.452	13925
893.575	14180
893.697	14138
893.819	14206
893.941	14393
894.064	14351
894.186	14111
894.308	14134
894.43	14210
894.552	14347
894.674	14320
894.796	14031
894.918	14202
895.04	14157
895.161	14290
895.283	14130
895.405	14138
895.526	14298
895.648	14313
895.769	14256
895.891	14298
896.012	14275
896.134	14362
896.255	14229
896.376	14278
896.498	14290
896.619	14366
896.74	14320
896.861	14389
896.982	14693
897.103	14754
897.224	14537
897.345	14602
897.466	14476
897.587	14575
897.708	14629
897.828	14571
897.949	14583
898.07	14423
898.19	14549
898.311	14804
898.431	14617
898.552	14621
898.672	14663
898.792	14724
898.913	14705
899.033	14526
899.153	14583
899.273	14381
899.393	14476
899.513	14499
899.633	14473
899.753	14549
899.873	14469
899.993	14571
900.113	14522
900.232	14583
900.352	14461
900.472	14545
900.591	14343
900.711	14434
900.83	14332
900.95	14533
901.069	14549
901.189	14328
901.308	14065
901.427	14020
901.546	14005
901.665	14077
901.784	14180
901.904	13871
902.023	13803
902.141	13734
902.26	13582
902.379	13590
902.498	13609
902.617	13632
902.735	13609
902.854	13636
902.973	13636
903.091	13236
903.21	13247
903.328	13377
903.446	13316
903.565	13145
903.683	13232
903.801	13061
903.919	13156
904.038	13149
904.156	13027
904.274	13057
904.392	12947
904.51	12981
904.627	12905
904.745	13050
904.863	13027
904.981	12810
905.098	12597
905.216	12703
905.334	12707
905.451	12711
905.569	12635
905.686	12703
905.803	12703
905.921	12486
906.038	12551
906.155	12627
906.272	12422
906.389	12452
906.506	12311
906.623	12292
906.74	12380
906.857	12216
906.974	12205
907.091	12361
907.208	12422
907.324	12277
907.441	12209
907.557	12076
907.674	12049
907.79	12030
907.907	12041
908.023	12049
908.139	12026
908.256	11923
908.372	12003
908.488	11935
908.604	11718
908.72	11760
908.836	11832
908.952	11779
909.068	11798
909.184	11863
909.3	11771
909.415	11908
909.531	11798
909.647	11577
909.762	11581
909.878	11539
909.993	11585
910.108	11592
910.224	11444
910.339	11608
910.454	11433
910.57	11436
910.685	11349
910.8	11661
910.915	11547
911.03	11444
911.145	11258
911.259	11223
911.374	11273
911.489	11204
911.604	11197
911.718	10987
911.833	11052
911.947	10930
912.062	10866
912.176	10942
912.291	11041
912.405	11006
912.519	11162
912.633	11201
912.748	11086
912.862	10972
912.976	10930
913.09	10736
913.204	10873
913.318	10904
913.431	10915
913.545	10968
913.659	10999
913.772	10877
913.886	10786
914	10740
914.113	10858
914.226	10911
914.34	10850
914.453	10687
914.566	10847
914.68	10714
914.793	10698
914.906	10637
915.019	10428
915.132	10466
915.245	10424
915.358	10554
915.47	10588
915.583	10626
915.696	10596
915.809	10611
915.921	10668
916.034	10516
916.146	10447
916.259	10462
916.371	10558
916.483	10592
916.595	10402
916.708	10462
916.82	10360
916.932	10424
917.044	10417
917.156	10394
917.268	10344
917.38	10428
917.491	10322
917.603	10356
917.715	10379
917.826	10424
917.938	10295
918.049	10242
918.161	10333
918.272	10489
918.384	10493
918.495	10337
918.606	10280
918.717	10188
918.828	10211
918.939	10234
919.05	10185
919.161	10173
919.272	10006
919.383	10230
919.494	10306
919.604	10462
919.715	10200
919.826	10204
919.936	10246
920.047	10360
920.157	10276
920.267	10432
920.378	10265
920.488	10234
920.598	10421
920.708	10569
920.818	10443
920.928	10436
921.038	10653
921.148	10565
921.258	10257
921.368	10204
921.477	10093
921.587	10063
921.697	9956
921.806	10086
921.916	10055
922.025	9838
922.134	9755
922.244	9755
922.353	9888
922.462	9694
922.571	9625
922.68	9511
922.789	9477
922.898	9549
923.007	9424
923.116	9542
923.224	9587
923.333	9519
923.442	9355
923.55	9389
923.659	9420
923.767	9469
923.876	9405
923.984	9469
924.092	9374
924.201	9458
924.309	9332
924.417	9393
924.525	9317
924.633	9283
924.741	10329
924.849	9104
924.956	9310
925.064	9161
925.172	9032
925.279	9180
925.387	9142
925.494	9093
925.602	9310
925.709	9237
925.816	9104
925.924	9188
926.031	9264
926.138	9142
926.245	9195
926.352	9123
926.459	9207
926.566	9176
926.673	9112
926.779	9058
926.886	9070
926.993	8834
927.099	8876
927.206	8807
927.312	8853
927.419	8872
927.525	8849
927.631	8902
927.737	8868
927.843	8788
927.95	8617
928.056	8769
928.162	8785
928.267	8838
928.373	9370
928.479	8842
928.585	8587
928.69	8735
928.796	8887
928.901	8674
929.007	8556
929.112	8686
929.218	8697
929.323	8590
929.428	8587
929.533	8632
929.638	8564
929.743	8552
929.848	8568
929.953	8507
930.058	8476
930.163	8309
930.267	8377
930.372	8480
930.477	8294
930.581	8564
930.685	8317
930.79	8301
930.894	8374
930.998	8282
931.103	8377
931.207	8058
931.311	8008
931.415	8020
931.519	7845
931.623	7788
