Data from test_V78500241_3434.txt Node
Date: Fri Mar 25 14:57:37 CST 2022
User: usil
Spectrometer: V785-0024
Trigger mode: 0
Integration Time (sec): 4.000000E-1
Scans to average: 1
Nonlinearity correction enabled: false
Boxcar width: 0
Storing dark spectrum: false
XAxis mode: Wavelengths
Number of Pixels in Spectrum: 1024
>>>>>Begin Spectral Data<<<<<
801.071	21895
801.214	21804
801.356	21633
801.499	21481
801.641	21397
801.783	21382
801.926	21393
802.068	21245
802.211	21192
802.353	21173
802.496	20952
802.638	20807
802.78	20769
802.923	20583
803.065	20598
803.208	20640
803.35	20579
803.492	20773
803.635	20815
803.777	20632
803.919	20625
804.061	20990
804.204	20705
804.346	20533
804.488	20590
804.63	20625
804.773	20332
804.915	20606
805.057	20598
805.199	20446
805.341	20518
805.483	20648
805.626	20556
805.768	20533
805.91	20583
806.052	20549
806.194	20461
806.336	20769
806.478	20469
806.62	20522
806.762	20579
806.904	20712
807.046	20914
807.188	20910
807.33	20804
807.472	20815
807.614	20800
807.756	20735
807.898	20636
808.04	20541
808.182	20549
808.324	20568
808.465	20632
808.607	20868
808.749	20750
808.891	20952
809.033	21051
809.174	21074
809.316	20823
809.458	20811
809.6	20781
809.741	20895
809.883	20990
810.025	21024
810.166	20933
810.308	20925
810.45	20933
810.591	21100
810.733	20625
810.875	20659
811.016	20556
811.158	20541
811.299	20621
811.441	20743
811.582	20800
811.724	20640
811.865	20571
812.007	20606
812.148	20670
812.29	20587
812.431	20948
812.573	20838
812.714	20864
812.855	21108
812.997	21237
813.138	21348
813.279	21195
813.421	21096
813.562	21043
813.703	20804
813.845	20731
813.986	20518
814.127	20267
814.268	20233
814.41	20267
814.551	20134
814.692	20180
814.833	19936
814.974	20187
815.115	20278
815.256	20111
815.397	19982
815.539	20065
815.68	19978
815.821	19902
815.962	19936
816.103	19928
816.244	19746
816.385	19731
816.526	19578
816.666	19449
816.807	19316
816.948	19415
817.089	19430
817.23	19377
817.371	19346
817.512	19198
817.653	19263
817.793	19213
817.934	19388
818.075	19266
818.216	19263
818.356	19255
818.497	19103
818.638	18932
818.778	19034
818.919	19019
819.06	19126
819.2	19255
819.341	19095
819.481	19278
819.622	19274
819.762	19438
819.903	19441
820.043	19327
820.184	19320
820.324	19274
820.465	19247
820.605	19221
820.746	19266
820.886	19107
821.026	19217
821.167	19217
821.307	19251
821.447	19179
821.588	19023
821.728	18947
821.868	18871
822.008	18757
822.149	18684
822.289	18578
822.429	18429
822.569	18391
822.709	18437
822.849	18136
822.99	18247
823.13	18239
823.27	18174
823.41	18083
823.55	17946
823.69	18041
823.83	17999
823.97	18019
824.11	17760
824.25	17760
824.389	17718
824.529	17771
824.669	17805
824.809	17840
824.949	17767
825.089	17809
825.228	17783
825.368	17627
825.508	17577
825.648	17554
825.787	17627
825.927	17592
826.067	17581
826.206	17509
826.346	17611
826.485	17570
826.625	17520
826.765	17592
826.904	17638
827.044	17341
827.183	17410
827.323	17296
827.462	17197
827.601	17231
827.741	17258
827.88	17284
828.02	17204
828.159	17242
828.298	17261
828.437	17311
828.577	17208
828.716	17296
828.855	17220
828.994	17033
829.134	17056
829.273	16881
829.412	16949
829.551	16942
829.69	16949
829.829	17056
829.968	17029
830.107	16953
830.246	17003
830.385	16976
830.524	16908
830.663	16839
830.802	16698
830.941	16672
831.08	16596
831.219	16710
831.357	16687
831.496	16847
831.635	16687
831.774	16577
831.913	16390
832.051	16481
832.19	16322
832.329	16421
832.467	16295
832.606	16367
832.744	16390
832.883	16333
833.022	16200
833.16	16291
833.299	16348
833.437	16337
833.576	16451
833.714	16303
833.852	16299
833.991	16436
834.129	16504
834.267	16497
834.406	16436
834.544	16447
834.682	16284
834.821	16371
834.959	16599
835.097	16352
835.235	16432
835.373	16386
835.511	16386
835.65	16291
835.788	16230
835.926	16143
836.064	16105
836.202	16082
836.34	16337
836.478	16432
836.615	16261
836.753	16295
836.891	16360
837.029	16360
837.167	16322
837.305	16238
837.443	16116
837.58	16150
837.718	16207
837.856	16181
837.993	16192
838.131	16196
838.269	16074
838.406	16150
838.544	16078
838.681	15880
838.819	15892
838.956	15656
839.094	15747
839.231	15762
839.369	15857
839.506	16120
839.643	15884
839.781	15698
839.918	15641
840.055	15793
840.193	15720
840.33	15698
840.467	15751
840.604	15724
840.742	15983
840.879	15599
841.016	15679
841.153	15603
841.29	15869
841.427	15751
841.564	15671
841.701	15785
841.838	15698
841.975	15625
842.112	15667
842.249	15454
842.385	15450
842.522	15766
842.659	15603
842.796	15447
842.933	15469
843.069	15454
843.206	15492
843.343	15523
843.479	15542
843.616	15519
843.752	15401
843.889	15268
844.025	15351
844.162	15298
844.298	15287
844.435	15325
844.571	15203
844.708	15420
844.844	15428
844.98	15420
845.117	15431
845.253	15256
845.389	15230
845.525	15272
845.661	15184
845.798	15100
845.934	15169
846.07	14998
846.206	15097
846.342	15119
846.478	15138
846.614	15017
846.75	14887
846.886	14838
847.022	14963
847.158	14819
847.294	14895
847.429	14944
847.565	14891
847.701	15154
847.837	14739
847.972	14492
848.108	14693
848.244	14613
848.379	14549
848.515	14454
848.65	14431
848.786	14446
848.921	14499
849.057	14587
849.192	14571
849.328	14613
849.463	14473
849.598	14419
849.734	14389
849.869	14427
850.004	14267
850.14	14256
850.275	14221
850.41	14237
850.545	14187
850.68	14259
850.815	14195
850.95	14259
851.085	14545
851.22	14389
851.355	14301
851.49	14256
851.625	14218
851.76	14244
851.895	14142
852.03	14157
852.165	14199
852.299	14271
852.434	14408
852.569	14305
852.703	14294
852.838	14305
852.973	14438
853.107	14286
853.242	14233
853.376	14084
853.511	14111
853.645	14062
853.78	14210
853.914	14199
854.048	14100
854.183	13993
854.317	14199
854.451	14324
854.585	14100
854.72	14069
854.854	14168
854.988	14088
855.122	14111
855.256	14001
855.39	14008
855.524	14218
855.658	14123
855.792	14130
855.926	14100
856.06	14237
856.194	14145
856.327	14088
856.461	14088
856.595	14092
856.729	14062
856.862	14282
856.996	14183
857.13	14206
857.263	14301
857.397	14199
857.53	14145
857.664	14172
857.797	14278
857.931	14305
858.064	14187
858.197	14305
858.331	14065
858.464	14126
858.597	13993
858.731	14111
858.864	14096
858.997	13997
859.13	14145
859.263	14077
859.396	14233
859.529	14077
859.662	14107
859.795	14180
859.928	14046
860.061	14180
860.194	14313
860.327	14244
860.46	14130
860.592	14214
860.725	14320
860.858	14138
860.99	14043
861.123	14077
861.256	13978
861.388	14031
861.521	14857
861.653	13925
861.786	13932
861.918	14054
862.05	14096
862.183	14065
862.315	14123
862.447	14206
862.58	14092
862.712	14008
862.844	13913
862.976	14043
863.108	13955
863.24	14434
863.372	13757
863.504	13967
863.636	13993
863.768	13963
863.9	13917
864.032	13849
864.164	13917
864.296	13967
864.428	14062
864.559	14016
864.691	14077
864.823	13982
864.954	13925
865.086	13909
865.217	13887
865.349	13879
865.48	13845
865.612	13928
865.743	14027
865.875	13963
866.006	13887
866.137	13841
866.269	13944
866.4	13906
866.531	13868
866.662	13837
866.793	13830
866.924	13833
867.055	13898
867.186	13830
867.317	13868
867.448	13799
867.579	13814
867.71	13906
867.841	13784
867.972	13890
868.103	13947
868.233	13898
868.364	13947
868.495	14020
868.625	14138
868.756	14294
868.886	14107
869.017	14130
869.147	14183
869.278	14290
869.408	14206
869.539	14134
869.669	14221
869.799	14164
869.929	14313
870.06	14275
870.19	14473
870.32	14343
870.45	14568
870.58	14602
870.71	14598
870.84	14613
870.97	14507
871.1	14355
871.23	14792
871.36	14743
871.489	14655
871.619	14678
871.749	14746
871.879	14773
872.008	14853
872.138	14724
872.267	14769
872.397	14541
872.526	14602
872.656	14431
872.785	14617
872.915	14804
873.044	14781
873.173	14788
873.303	14899
873.432	14887
873.561	14876
873.69	14845
873.819	14796
873.948	14849
874.077	14845
874.206	14697
874.335	14762
874.464	14929
874.593	15119
874.722	15055
874.851	15154
874.979	15142
875.108	15203
875.237	15077
875.365	15116
875.494	15055
875.623	15199
875.751	15043
875.88	15150
876.008	15230
876.136	15408
876.265	15538
876.393	15682
876.521	15523
876.65	15492
876.778	15595
876.906	15447
877.034	15496
877.162	15500
877.29	15542
877.418	15504
877.546	15485
877.674	15466
877.802	15469
877.93	15561
878.058	15477
878.185	15420
878.313	15519
878.441	15576
878.568	15416
878.696	15450
878.824	15587
878.951	15618
879.079	15736
879.206	15892
879.333	15690
879.461	15595
879.588	15618
879.715	15800
879.842	15842
879.97	15591
880.097	15355
880.224	15374
880.351	15374
880.478	15325
880.605	15329
880.732	15355
880.859	15568
880.986	15401
881.112	15447
881.239	15332
881.366	15150
881.493	15123
881.619	15036
881.746	15116
881.872	15055
881.999	15123
882.125	15001
882.252	15093
882.378	15036
882.505	15169
882.631	14960
882.757	14952
882.883	14895
883.01	14777
883.136	14906
883.262	14857
883.388	14625
883.514	14910
883.64	14868
883.766	14891
883.892	14621
884.018	14807
884.143	14861
884.269	14933
884.395	14670
884.52	14552
884.646	14606
884.772	14469
884.897	14434
885.023	14537
885.148	14682
885.274	14769
885.399	14564
885.524	14530
885.65	14492
885.775	14530
885.9	14446
886.025	14594
886.15	14659
886.275	14613
886.4	14495
886.525	14473
886.65	14488
886.775	14526
886.9	14670
887.025	14781
887.149	14583
887.274	14400
887.399	14374
887.523	14461
887.648	14298
887.773	14301
887.897	14389
888.021	14408
888.146	14446
888.27	14579
888.395	14533
888.519	14495
888.643	14503
888.767	14400
888.891	14305
889.015	14168
889.139	14256
889.263	14195
889.387	14396
889.511	14427
889.635	14370
889.759	14153
889.883	14259
890.006	14374
890.13	14404
890.254	14145
890.377	14233
890.501	14111
890.624	14039
890.748	14229
890.871	14027
890.995	13944
891.118	13887
891.241	13989
891.364	13913
891.488	14008
891.611	13940
891.734	13940
891.857	14073
891.98	13997
892.103	14115
892.226	13913
892.349	13879
892.471	13849
892.594	13883
892.717	13940
892.839	13898
892.962	14031
893.085	14043
893.207	14012
893.33	13951
893.452	13909
893.575	14065
893.697	13944
893.819	14123
893.941	14134
894.064	14123
894.186	13871
894.308	13940
894.43	14096
894.552	14123
894.674	14145
894.796	13978
894.918	14065
895.04	13989
895.161	14153
895.283	14115
895.405	14031
895.526	13955
895.648	14020
895.769	14161
895.891	14157
896.012	14244
896.134	14164
896.255	14107
896.376	14161
896.498	14176
896.619	14134
896.74	14115
896.861	14168
896.982	14454
897.103	14697
897.224	14404
897.345	14286
897.466	14317
897.587	14473
897.708	14587
897.828	14476
897.949	14366
898.07	14324
898.19	14389
898.311	14556
898.431	14476
898.552	14438
898.672	14537
898.792	14636
898.913	14606
899.033	14423
899.153	14309
899.273	14240
899.393	14301
899.513	14366
899.633	14404
899.753	14370
899.873	14393
899.993	14343
900.113	14229
900.232	14374
900.352	14385
900.472	14267
900.591	14221
900.711	14248
900.83	14103
900.95	14244
901.069	14324
901.189	14233
901.308	14020
901.427	13906
901.546	13849
901.665	13944
901.784	13913
901.904	13811
902.023	13738
902.141	13460
902.26	13502
902.379	13563
902.498	13457
902.617	13464
902.735	13506
902.854	13422
902.973	13327
903.091	13206
903.21	13141
903.328	13145
903.446	13164
903.565	13099
903.683	12970
903.801	12947
903.919	13095
904.038	12954
904.156	12909
904.274	12840
904.392	12814
904.51	12890
904.627	12821
904.745	12890
904.863	12878
904.981	12559
905.098	12509
905.216	12574
905.334	12551
905.451	12574
905.569	12433
905.686	12665
905.803	12532
905.921	12410
906.038	12426
906.155	12273
906.272	12262
906.389	12289
906.506	12182
906.623	12159
906.74	12087
906.857	11977
906.974	12057
907.091	12144
907.208	12239
907.324	12163
907.441	12034
907.557	11931
907.674	11901
907.79	11805
907.907	11805
908.023	11851
908.139	12019
908.256	11836
908.372	11840
908.488	11737
908.604	11676
908.72	11608
908.836	11615
908.952	11581
909.068	11661
909.184	11710
909.3	11710
909.415	11695
909.531	11691
909.647	11395
909.762	11433
909.878	11372
909.993	11501
910.108	11349
910.224	11402
910.339	11433
910.454	11315
910.57	11284
910.685	11197
910.8	11410
910.915	11402
911.03	11220
911.145	11170
911.259	11147
911.374	11113
911.489	11025
911.604	11003
911.718	10896
911.833	10923
911.947	10752
912.062	10656
912.176	10847
912.291	10900
912.405	10881
912.519	11124
912.633	11117
912.748	10961
912.862	10767
912.976	10748
913.09	10698
913.204	10812
913.318	10790
913.431	10752
913.545	10831
913.659	10984
913.772	10866
913.886	10698
914	10611
914.113	10710
914.226	10733
914.34	10694
914.453	10599
914.566	10694
914.68	10565
914.793	10588
914.906	10424
915.019	10466
915.132	10265
915.245	10318
915.358	10417
915.47	10421
915.583	10379
915.696	10436
915.809	10542
915.921	10546
916.034	10421
916.146	10341
916.259	10367
916.371	10519
916.483	10451
916.595	10375
916.708	10337
916.82	10246
916.932	10322
917.044	10272
917.156	10223
917.268	10215
917.38	10147
917.491	10200
917.603	10257
917.715	10325
917.826	10284
917.938	10204
918.049	10051
918.161	10238
918.272	10382
918.384	10348
918.495	10287
918.606	10067
918.717	10055
918.828	10071
918.939	10200
919.05	10055
919.161	10093
919.272	9918
919.383	9998
919.494	10097
919.604	10314
919.715	10147
919.826	10097
919.936	10101
920.047	10204
920.157	10109
920.267	10303
920.378	10185
920.488	10158
920.598	10352
920.708	10455
920.818	10333
920.928	10287
921.038	10485
921.148	10421
921.258	10242
921.368	10067
921.477	10002
921.587	9915
921.697	9888
921.806	9964
921.916	9884
922.025	9762
922.134	9629
922.244	9618
922.353	9789
922.462	9564
922.571	9523
922.68	9416
922.789	9367
922.898	9424
923.007	9298
923.116	9428
923.224	9344
923.333	9386
923.442	9275
923.55	9260
923.659	9291
923.767	9386
923.876	9264
923.984	9313
924.092	9173
924.201	9237
924.309	9287
924.417	9203
924.525	9195
924.633	9260
924.741	10173
924.849	8963
924.956	9146
925.064	9032
925.172	8986
925.279	8921
925.387	9070
925.494	9070
925.602	9150
925.709	9131
925.816	8990
925.924	9032
926.031	8982
926.138	9055
926.245	9062
926.352	8941
926.459	9097
926.566	9188
926.673	9028
926.779	8834
926.886	8979
926.993	8785
927.099	8735
927.206	8731
927.312	8674
927.419	8815
927.525	8758
927.631	8853
927.737	8663
927.843	8636
927.95	8629
928.056	8625
928.162	8682
928.267	8716
928.373	9279
928.479	8777
928.585	8526
928.69	8606
928.796	8769
928.901	8606
929.007	8415
929.112	8587
929.218	8537
929.323	8461
929.428	8446
929.533	8552
929.638	8419
929.743	8454
929.848	8530
929.953	8484
930.058	8351
930.163	8229
930.267	8244
930.372	8415
930.477	8202
930.581	8450
930.685	8279
930.79	8256
930.894	8195
930.998	8168
931.103	8320
931.207	7974
931.311	7959
931.415	7868
931.519	7742
931.623	7746
