Data from test_V78500241_2150.txt Node
Date: Fri Mar 25 14:48:40 CST 2022
User: usil
Spectrometer: V785-0024
Trigger mode: 0
Integration Time (sec): 4.000000E-1
Scans to average: 1
Nonlinearity correction enabled: false
Boxcar width: 0
Storing dark spectrum: false
XAxis mode: Wavelengths
Number of Pixels in Spectrum: 1024
>>>>>Begin Spectral Data<<<<<
801.071	22215
801.214	22082
801.356	21838
801.499	21709
801.641	21682
801.783	21583
801.926	21690
802.068	21443
802.211	21302
802.353	21287
802.496	21180
802.638	21135
802.78	20979
802.923	20944
803.065	20914
803.208	20891
803.35	20929
803.492	20902
803.635	21081
803.777	20906
803.919	21055
804.061	21291
804.204	21051
804.346	20815
804.488	20773
804.63	20800
804.773	20781
804.915	20819
805.057	20921
805.199	20842
805.341	20807
805.483	20899
805.626	20918
805.768	20853
805.91	20857
806.052	20743
806.194	20769
806.336	20918
806.478	20765
806.62	20788
806.762	20963
806.904	21112
807.046	21222
807.188	21260
807.33	21119
807.472	21146
807.614	21020
807.756	21085
807.898	20918
808.04	20876
808.182	20918
808.324	20902
808.465	20834
808.607	21100
808.749	21230
808.891	21218
809.033	21435
809.174	21260
809.316	21146
809.458	21260
809.6	21157
809.741	21214
809.883	21332
810.025	21405
810.166	21439
810.308	21473
810.45	21420
810.591	21283
810.733	21108
810.875	20971
811.016	20941
811.158	20902
811.299	21070
811.441	21207
811.582	21089
811.724	20979
811.865	20857
812.007	20918
812.148	20971
812.29	20994
812.431	21138
812.573	21355
812.714	21336
812.855	21412
812.997	21603
813.138	21751
813.279	21644
813.421	21450
813.562	21275
813.703	21291
813.845	21085
813.986	20880
814.127	20667
814.268	20587
814.41	20640
814.551	20530
814.692	20564
814.833	20480
814.974	20434
815.115	20526
815.256	20446
815.397	20419
815.539	20457
815.68	20412
815.821	20157
815.962	20183
816.103	20275
816.244	20111
816.385	20130
816.526	19951
816.666	19894
816.807	19753
816.948	19982
817.089	19822
817.23	19639
817.371	19601
817.512	19696
817.653	19601
817.793	19575
817.934	19757
818.075	19628
818.216	19624
818.356	19544
818.497	19518
818.638	19403
818.778	19362
818.919	19377
819.06	19396
819.2	19540
819.341	19578
819.481	19624
819.622	19799
819.762	19753
819.903	19693
820.043	19715
820.184	19674
820.324	19533
820.465	19696
820.605	19715
820.746	19594
820.886	19582
821.026	19639
821.167	19559
821.307	19731
821.447	19582
821.588	19430
821.728	19304
821.868	19171
822.008	19129
822.149	18985
822.289	18970
822.429	18897
822.569	18745
822.709	18745
822.849	18658
822.99	18551
823.13	18559
823.27	18452
823.41	18361
823.55	18289
823.69	18311
823.83	18410
823.97	18315
824.11	18163
824.25	18136
824.389	18182
824.529	18296
824.669	18114
824.809	18167
824.949	18247
825.089	18243
825.228	18117
825.368	18011
825.508	17980
825.648	17904
825.787	18003
825.927	17901
826.067	17855
826.206	17908
826.346	17969
826.485	17870
826.625	17969
826.765	18041
826.904	17923
827.044	17577
827.183	17627
827.323	17497
827.462	17756
827.601	17604
827.741	17486
827.88	17524
828.02	17474
828.159	17493
828.298	17615
828.437	17646
828.577	17512
828.716	17722
828.855	17471
828.994	17364
829.134	17379
829.273	17326
829.412	17299
829.551	17315
829.69	17318
829.829	17448
829.968	17436
830.107	17353
830.246	17315
830.385	17273
830.524	17193
830.663	17193
830.802	17140
830.941	16957
831.08	16889
831.219	17010
831.357	16965
831.496	17216
831.635	16934
831.774	16930
831.913	16782
832.051	16748
832.19	16816
832.329	16752
832.467	16656
832.606	16664
832.744	16630
832.883	16599
833.022	16508
833.16	16656
833.299	16675
833.437	16736
833.576	16672
833.714	16771
833.852	16717
833.991	16733
834.129	16812
834.267	16755
834.406	16645
834.544	16683
834.682	16736
834.821	16679
834.959	16831
835.097	16645
835.235	16748
835.373	16706
835.511	16736
835.65	16599
835.788	16519
835.926	16432
836.064	16443
836.202	16398
836.34	16554
836.478	16713
836.615	16603
836.753	16630
836.891	16752
837.029	16664
837.167	16592
837.305	16584
837.443	16519
837.58	16466
837.718	16443
837.856	16398
837.993	16337
838.131	16504
838.269	16447
838.406	16363
838.544	16360
838.681	16211
838.819	16219
838.956	15964
839.094	16002
839.231	16021
839.369	16112
839.506	16447
839.643	16253
839.781	16029
839.918	15945
840.055	16025
840.193	16074
840.33	16025
840.467	16097
840.604	16029
840.742	16246
840.879	15800
841.016	15911
841.153	15842
841.29	16128
841.427	16059
841.564	16051
841.701	15991
841.838	15956
841.975	15926
842.112	15991
842.249	15770
842.385	15823
842.522	15964
842.659	15838
842.796	15743
842.933	15842
843.069	15682
843.206	15614
843.343	15770
843.479	15751
843.616	15793
843.752	15629
843.889	15545
844.025	15686
844.162	15580
844.298	15766
844.435	15648
844.571	15469
844.708	15736
844.844	15724
844.98	15724
845.117	15606
845.253	15439
845.389	15481
845.525	15568
845.661	15454
845.798	15294
845.934	15420
846.07	15329
846.206	15401
846.342	15473
846.478	15348
846.614	15165
846.75	15138
846.886	15089
847.022	15264
847.158	15188
847.294	15173
847.429	15184
847.565	15226
847.701	15264
847.837	14891
847.972	14857
848.108	14971
848.244	14971
848.379	14769
848.515	14788
848.65	14697
848.786	14701
848.921	14765
849.057	14819
849.192	14800
849.328	14819
849.463	14777
849.598	14735
849.734	14701
849.869	14602
850.004	14632
850.14	14552
850.275	14587
850.41	14427
850.545	14503
850.68	14450
850.815	14598
850.95	14465
851.085	14636
851.22	14594
851.355	14640
851.49	14518
851.625	14594
851.76	14499
851.895	14374
852.03	14328
852.165	14484
852.299	14568
852.434	14644
852.569	14606
852.703	14473
852.838	14541
852.973	14613
853.107	14762
853.242	14507
853.376	14324
853.511	14301
853.645	14427
853.78	14507
853.914	14404
854.048	14298
854.183	14381
854.317	14434
854.451	14518
854.585	14347
854.72	14301
854.854	14427
854.988	14199
855.122	14400
855.256	14271
855.39	14313
855.524	14450
855.658	14396
855.792	14282
855.926	14396
856.06	14431
856.194	14526
856.327	14370
856.461	14412
856.595	14294
856.729	14324
856.862	14415
856.996	14495
857.13	14454
857.263	14492
857.397	14473
857.53	14351
857.664	14492
857.797	14492
857.931	14530
858.064	14454
858.197	14495
858.331	14351
858.464	14385
858.597	14305
858.731	14328
858.864	14427
858.997	14423
859.13	14408
859.263	14442
859.396	14339
859.529	14366
859.662	14370
859.795	14381
859.928	14412
860.061	14590
860.194	14473
860.327	14404
860.46	14412
860.592	14530
860.725	14457
860.858	14533
860.99	14488
861.123	14339
861.256	14271
861.388	14336
861.521	15093
861.653	14271
861.786	14225
861.918	14267
862.05	14408
862.183	14396
862.315	14434
862.447	14339
862.58	14286
862.712	14138
862.844	14149
862.976	14195
863.108	14164
863.24	14427
863.372	14081
863.504	14111
863.636	14134
863.768	14172
863.9	14142
864.032	14081
864.164	14252
864.296	14103
864.428	14259
864.559	14142
864.691	14294
864.823	14214
864.954	14191
865.086	14248
865.217	14256
865.349	14115
865.48	14153
865.612	14138
865.743	14294
865.875	14157
866.006	14119
866.137	14130
866.269	14096
866.4	14100
866.531	14187
866.662	14039
866.793	14088
866.924	14195
867.055	14138
867.186	14092
867.317	14054
867.448	14024
867.579	14062
867.71	14035
867.841	14027
867.972	14123
868.103	14134
868.233	14115
868.364	14199
868.495	14290
868.625	14358
868.756	14415
868.886	14290
869.017	14385
869.147	14480
869.278	14556
869.408	14408
869.539	14396
869.669	14396
869.799	14461
869.929	14552
870.06	14511
870.19	14731
870.32	14648
870.45	14773
870.58	14864
870.71	14910
870.84	14899
870.97	14743
871.1	14720
871.23	14956
871.36	15043
871.489	14872
871.619	15009
871.749	14975
871.879	14990
872.008	14994
872.138	15013
872.267	14902
872.397	14838
872.526	14796
872.656	14800
872.785	14823
872.915	15020
873.044	15116
873.173	15039
873.303	15070
873.432	15028
873.561	14986
873.69	15070
873.819	15043
873.948	15142
874.077	15043
874.206	15024
874.335	15062
874.464	15138
874.593	15351
874.722	15291
874.851	15416
874.979	15500
875.108	15367
875.237	15351
875.365	15218
875.494	15344
875.623	15412
875.751	15389
875.88	15374
876.008	15511
876.136	15606
876.265	15819
876.393	15899
876.521	15972
876.65	15781
876.778	15800
876.906	15686
877.034	15759
877.162	15686
877.29	15743
877.418	15720
877.546	15781
877.674	15762
877.802	15793
877.93	15778
878.058	15698
878.185	15564
878.313	15698
878.441	15720
878.568	15663
878.696	15724
878.824	15861
878.951	15816
879.079	15968
879.206	16147
879.333	15998
879.461	15804
879.588	15926
879.715	15926
879.842	16021
879.97	15850
880.097	15675
880.224	15564
880.351	15671
880.478	15572
880.605	15557
880.732	15599
880.859	15819
880.986	15671
881.112	15679
881.239	15538
881.366	15412
881.493	15264
881.619	15306
881.746	15329
881.872	15199
881.999	15245
882.125	15317
882.252	15260
882.378	15283
882.505	15515
882.631	15207
882.757	15169
882.883	15074
883.01	15131
883.136	15085
883.262	14956
883.388	14891
883.514	15142
883.64	15108
883.766	15051
883.892	14880
884.018	14933
884.143	15039
884.269	15066
884.395	14838
884.52	14811
884.646	14861
884.772	14739
884.897	14765
885.023	14804
885.148	14956
885.274	14967
885.399	14826
885.524	14853
885.65	14743
885.775	14807
885.9	14807
886.025	14830
886.15	14811
886.275	14758
886.4	14781
886.525	14792
886.65	14735
886.775	14697
886.9	14918
887.025	15024
887.149	14819
887.274	14655
887.399	14629
887.523	14705
887.648	14579
887.773	14564
887.897	14716
888.021	14762
888.146	14621
888.27	14659
888.395	14724
888.519	14712
888.643	14667
888.767	14686
888.891	14571
889.015	14484
889.139	14522
889.263	14492
889.387	14663
889.511	14705
889.635	14556
889.759	14526
889.883	14381
890.006	14499
890.13	14575
890.254	14427
890.377	14347
890.501	14317
890.624	14225
890.748	14233
890.871	14153
890.995	14183
891.118	14126
891.241	14233
891.364	14180
891.488	14233
891.611	14138
891.734	14191
891.857	14252
891.98	14172
892.103	14214
892.226	14229
892.349	14149
892.471	14024
892.594	14119
892.717	14294
892.839	14202
892.962	14214
893.085	14256
893.207	14149
893.33	14062
893.452	14126
893.575	14187
893.697	14195
893.819	14309
893.941	14381
894.064	14358
894.186	14096
894.308	14081
894.43	14328
894.552	14377
894.674	14336
894.796	14092
894.918	14195
895.04	14229
895.161	14286
895.283	14400
895.405	14252
895.526	14240
895.648	14381
895.769	14233
895.891	14248
896.012	14415
896.134	14389
896.255	14393
896.376	14286
896.498	14370
896.619	14294
896.74	14366
896.861	14415
896.982	14746
897.103	14807
897.224	14648
897.345	14560
897.466	14590
897.587	14621
897.708	14754
897.828	14750
897.949	14590
898.07	14564
898.19	14568
898.311	14804
898.431	14667
898.552	14644
898.672	14872
898.792	14739
898.913	14750
899.033	14731
899.153	14590
899.273	14442
899.393	14511
899.513	14621
899.633	14552
899.753	14632
899.873	14564
899.993	14594
900.113	14499
900.232	14495
900.352	14522
900.472	14461
900.591	14358
900.711	14533
900.83	14434
900.95	14495
901.069	14522
901.189	14362
901.308	14172
901.427	13997
901.546	14103
901.665	14111
901.784	14073
901.904	13902
902.023	13879
902.141	13731
902.26	13693
902.379	13799
902.498	13620
902.617	13616
902.735	13784
902.854	13643
902.973	13597
903.091	13384
903.21	13373
903.328	13392
903.446	13285
903.565	13255
903.683	13244
903.801	13061
903.919	13164
904.038	13164
904.156	13023
904.274	13183
904.392	13046
904.51	13027
904.627	13076
904.745	13061
904.863	13156
904.981	12867
905.098	12806
905.216	12814
905.334	12753
905.451	12719
905.569	12681
905.686	12741
905.803	12730
905.921	12585
906.038	12597
906.155	12460
906.272	12384
906.389	12445
906.506	12289
906.623	12296
906.74	12346
906.857	12213
906.974	12152
907.091	12407
907.208	12437
907.324	12445
907.441	12232
907.557	12079
907.674	11969
907.79	12015
907.907	12079
908.023	12015
908.139	12015
908.256	11958
908.372	12007
908.488	11999
908.604	11802
908.72	11775
908.836	11843
908.952	11745
909.068	11843
909.184	11893
909.3	11809
909.415	11916
909.531	11843
909.647	11627
909.762	11562
909.878	11608
909.993	11649
910.108	11600
910.224	11554
910.339	11676
910.454	11463
910.57	11444
910.685	11398
910.8	11672
910.915	11600
911.03	11421
911.145	11345
911.259	11239
911.374	11345
911.489	11201
911.604	11140
911.718	11029
911.833	11010
911.947	10961
912.062	10820
912.176	11045
912.291	11060
912.405	11105
912.519	11204
912.633	11277
912.748	11079
912.862	11006
912.976	10839
913.09	10816
913.204	10862
913.318	10923
913.431	11132
913.545	10934
913.659	11003
913.772	10896
913.886	10816
914	10790
914.113	10877
914.226	10904
914.34	10885
914.453	10710
914.566	10858
914.68	10740
914.793	10748
914.906	10462
915.019	10493
915.132	10459
915.245	10527
915.358	10508
915.47	10615
915.583	10523
915.696	10569
915.809	10672
915.921	10725
916.034	10565
916.146	10489
916.259	10500
916.371	10577
916.483	10569
916.595	10459
916.708	10512
916.82	10485
916.932	10447
917.044	10462
917.156	10386
917.268	10386
917.38	10417
917.491	10421
917.603	10440
917.715	10565
917.826	10489
917.938	10417
918.049	10306
918.161	10443
918.272	10546
918.384	10561
918.495	10459
918.606	10356
918.717	10303
918.828	10329
918.939	10329
919.05	10227
919.161	10238
919.272	10112
919.383	10162
919.494	10329
919.604	10550
919.715	10284
919.826	10261
919.936	10276
920.047	10417
920.157	10295
920.267	10516
920.378	10394
920.488	10325
920.598	10554
920.708	10645
920.818	10527
920.928	10531
921.038	10752
921.148	10664
921.258	10348
921.368	10280
921.477	10131
921.587	10169
921.697	10063
921.806	10185
921.916	10112
922.025	9926
922.134	9907
922.244	9831
922.353	9880
922.462	9759
922.571	9755
922.68	9618
922.789	9591
922.898	9595
923.007	9515
923.116	9652
923.224	9538
923.333	9549
923.442	9466
923.55	9458
923.659	9542
923.767	9553
923.876	9386
923.984	9492
924.092	9447
924.201	9397
924.309	9363
924.417	9397
924.525	9340
924.633	9405
924.741	10147
924.849	9230
924.956	9336
925.064	9154
925.172	9176
925.279	9169
925.387	9237
925.494	9211
925.602	9268
925.709	9310
925.816	9218
925.924	9249
926.031	9272
926.138	9207
926.245	9336
926.352	9211
926.459	9294
926.566	9298
926.673	9138
926.779	9089
926.886	9051
926.993	8914
927.099	8857
927.206	8830
927.312	8864
927.419	8990
927.525	8998
927.631	8986
927.737	8868
927.843	8746
927.95	8674
928.056	8773
928.162	8792
928.267	8861
928.373	9450
928.479	8918
928.585	8701
928.69	8777
928.796	8887
928.901	8800
929.007	8575
929.112	8716
929.218	8716
929.323	8708
929.428	8590
929.533	8811
929.638	8518
929.743	8632
929.848	8697
929.953	8693
930.058	8469
930.163	8347
930.267	8438
930.372	8587
930.477	8408
930.581	8579
930.685	8446
930.79	8370
930.894	8412
930.998	8279
931.103	8336
931.207	8172
931.311	8081
931.415	8020
931.519	7841
931.623	7845
