Data from test_V78500241_3596.txt Node
Date: Fri Mar 25 14:58:45 CST 2022
User: usil
Spectrometer: V785-0024
Trigger mode: 0
Integration Time (sec): 4.000000E-1
Scans to average: 1
Nonlinearity correction enabled: false
Boxcar width: 0
Storing dark spectrum: false
XAxis mode: Wavelengths
Number of Pixels in Spectrum: 1024
>>>>>Begin Spectral Data<<<<<
801.071	21991
801.214	21739
801.356	21496
801.499	21435
801.641	21306
801.783	21272
801.926	21264
802.068	21195
802.211	21173
802.353	21127
802.496	20819
802.638	20834
802.78	20754
802.923	20735
803.065	20545
803.208	20552
803.35	20511
803.492	20674
803.635	20621
803.777	20613
803.919	20804
804.061	20963
804.204	20663
804.346	20503
804.488	20419
804.63	20579
804.773	20537
804.915	20514
805.057	20469
805.199	20495
805.341	20526
805.483	20590
805.626	20594
805.768	20473
805.91	20537
806.052	20564
806.194	20389
806.336	20488
806.478	20473
806.62	20396
806.762	20442
806.904	20727
807.046	20921
807.188	20925
807.33	20769
807.472	20864
807.614	20785
807.756	20788
807.898	20590
808.04	20492
808.182	20339
808.324	20625
808.465	20598
808.607	20769
808.749	20800
808.891	20986
809.033	21062
809.174	20857
809.316	20773
809.458	20880
809.6	20849
809.741	20807
809.883	20823
810.025	21017
810.166	20952
810.308	20880
810.45	20876
810.591	20956
810.733	20689
810.875	20556
811.016	20617
811.158	20522
811.299	20575
811.441	20724
811.582	20735
811.724	20602
811.865	20613
812.007	20545
812.148	20560
812.29	20632
812.431	20746
812.573	20872
812.714	21214
812.855	21077
812.997	21214
813.138	21287
813.279	21157
813.421	21165
813.562	21077
813.703	20762
813.845	20708
813.986	20442
814.127	20377
814.268	20206
814.41	20267
814.551	20164
814.692	20233
814.833	20081
814.974	20058
815.115	20149
815.256	20005
815.397	20054
815.539	19982
815.68	19841
815.821	19822
815.962	19830
816.103	19849
816.244	19719
816.385	19605
816.526	19544
816.666	19415
816.807	19301
816.948	19362
817.089	19324
817.23	19297
817.371	19198
817.512	19282
817.653	19343
817.793	19168
817.934	19263
818.075	19285
818.216	19297
818.356	19141
818.497	19031
818.638	18989
818.778	18875
818.919	18989
819.06	18882
819.2	19141
819.341	19160
819.481	19148
819.622	19251
819.762	19453
819.903	19373
820.043	19194
820.184	19202
820.324	19145
820.465	19403
820.605	19217
820.746	19274
820.886	19141
821.026	19365
821.167	19168
821.307	19236
821.447	19206
821.588	19156
821.728	18890
821.868	18787
822.008	18757
822.149	18677
822.289	18574
822.429	18365
822.569	18292
822.709	18308
822.849	18133
822.99	18106
823.13	18064
823.27	18129
823.41	18030
823.55	17859
823.69	17942
823.83	18041
823.97	17882
824.11	17676
824.25	17699
824.389	17760
824.529	17916
824.669	17710
824.809	17794
824.949	17870
825.089	17798
825.228	17752
825.368	17558
825.508	17440
825.648	17520
825.787	17623
825.927	17573
826.067	17501
826.206	17520
826.346	17676
826.485	17547
826.625	17551
826.765	17710
826.904	17600
827.044	17307
827.183	17220
827.323	17212
827.462	17258
827.601	17166
827.741	17239
827.88	17273
828.02	17121
828.159	17170
828.298	17197
828.437	17299
828.577	17204
828.716	17353
828.855	17227
828.994	17010
829.134	16953
829.273	17048
829.412	16965
829.551	16942
829.69	16991
829.829	17048
829.968	17132
830.107	17151
830.246	17048
830.385	16987
830.524	17014
830.663	16843
830.802	16889
830.941	16645
831.08	16725
831.219	16710
831.357	16710
831.496	16774
831.635	16565
831.774	16618
831.913	16599
832.051	16527
832.19	16447
832.329	16504
832.467	16421
832.606	16371
832.744	16325
832.883	16329
833.022	16287
833.16	16318
833.299	16306
833.437	16379
833.576	16409
833.714	16341
833.852	16360
833.991	16398
834.129	16447
834.267	16371
834.406	16382
834.544	16386
834.682	16489
834.821	16333
834.959	16561
835.097	16390
835.235	16455
835.373	16462
835.511	16398
835.65	16276
835.788	16272
835.926	16150
836.064	16051
836.202	16242
836.34	16265
836.478	16382
836.615	16299
836.753	16375
836.891	16409
837.029	16394
837.167	16303
837.305	16181
837.443	16109
837.58	16154
837.718	16238
837.856	16112
837.993	16154
838.131	16284
838.269	16044
838.406	16131
838.544	16059
838.681	15972
838.819	15857
838.956	15732
839.094	15736
839.231	15800
839.369	15895
839.506	16207
839.643	16040
839.781	15823
839.918	15793
840.055	15778
840.193	15720
840.33	15755
840.467	15671
840.604	15747
840.742	15983
840.879	15614
841.016	15717
841.153	15644
841.29	15816
841.427	15812
841.564	15876
841.701	15701
841.838	15755
841.975	15637
842.112	15698
842.249	15561
842.385	15466
842.522	15781
842.659	15618
842.796	15443
842.933	15443
843.069	15500
843.206	15534
843.343	15572
843.479	15587
843.616	15618
843.752	15275
843.889	15336
844.025	15435
844.162	15291
844.298	15355
844.435	15344
844.571	15321
844.708	15359
844.844	15462
844.98	15447
845.117	15374
845.253	15192
845.389	15203
845.525	15252
845.661	15180
845.798	15127
845.934	15108
846.07	15097
846.206	15161
846.342	15218
846.478	15142
846.614	14925
846.75	14986
846.886	14857
847.022	14937
847.158	14891
847.294	14975
847.429	14918
847.565	14899
847.701	15146
847.837	14598
847.972	14659
848.108	14693
848.244	14686
848.379	14571
848.515	14461
848.65	14492
848.786	14404
848.921	14587
849.057	14530
849.192	14594
849.328	14518
849.463	14446
849.598	14396
849.734	14419
849.869	14339
850.004	14290
850.14	14313
850.275	14278
850.41	14100
850.545	14096
850.68	14214
850.815	14240
850.95	14248
851.085	14438
851.22	14404
851.355	14328
851.49	14221
851.625	14183
851.76	14202
851.895	14187
852.03	14172
852.165	14225
852.299	14248
852.434	14374
852.569	14229
852.703	14313
852.838	14290
852.973	14404
853.107	14415
853.242	14237
853.376	14050
853.511	14130
853.645	14065
853.78	14248
853.914	14138
854.048	14103
854.183	14039
854.317	14263
854.451	14244
854.585	14065
854.72	14100
854.854	14240
854.988	14058
855.122	14020
855.256	14005
855.39	14062
855.524	14298
855.658	14214
855.792	14107
855.926	14153
856.06	14240
856.194	14187
856.327	14111
856.461	14058
856.595	14134
856.729	14088
856.862	14225
856.996	14183
857.13	14221
857.263	14191
857.397	14221
857.53	14077
857.664	14172
857.797	14214
857.931	14210
858.064	14301
858.197	14214
858.331	14202
858.464	14081
858.597	14043
858.731	14073
858.864	14069
858.997	14103
859.13	14130
859.263	14183
859.396	14282
859.529	14168
859.662	14065
859.795	14050
859.928	14103
860.061	14225
860.194	14358
860.327	14092
860.46	14157
860.592	14252
860.725	14404
860.858	14240
860.99	14187
861.123	14001
861.256	14145
861.388	14214
861.521	15009
861.653	13989
861.786	13955
861.918	14043
862.05	14103
862.183	14096
862.315	14199
862.447	14157
862.58	14073
862.712	14016
862.844	13822
862.976	13936
863.108	13974
863.24	14183
863.372	13852
863.504	13841
863.636	13856
863.768	13917
863.9	13871
864.032	13803
864.164	13875
864.296	13852
864.428	13993
864.559	14039
864.691	13959
864.823	14046
864.954	13978
865.086	13947
865.217	13856
865.349	13925
865.48	13925
865.612	13902
865.743	14016
865.875	13928
866.006	13849
866.137	13841
866.269	13849
866.4	13826
866.531	13883
866.662	13830
866.793	13864
866.924	13879
867.055	13951
867.186	13864
867.317	13830
867.448	13708
867.579	13761
867.71	13830
867.841	13849
867.972	13860
868.103	13906
868.233	13913
868.364	13921
868.495	14016
868.625	14153
868.756	14221
868.886	14035
869.017	14180
869.147	14275
869.278	14240
869.408	14130
869.539	14149
869.669	14248
869.799	14233
869.929	14317
870.06	14221
870.19	14454
870.32	14457
870.45	14381
870.58	14579
870.71	14674
870.84	14606
870.97	14545
871.1	14587
871.23	14758
871.36	14762
871.489	14625
871.619	14606
871.749	14769
871.879	14678
872.008	14845
872.138	14708
872.267	14716
872.397	14682
872.526	14541
872.656	14632
872.785	14636
872.915	14769
873.044	14921
873.173	14800
873.303	14811
873.432	14788
873.561	14792
873.69	14781
873.819	14857
873.948	14910
874.077	14838
874.206	14720
874.335	14807
874.464	14834
874.593	15089
874.722	15047
874.851	15195
874.979	15203
875.108	15047
875.237	14982
875.365	15150
875.494	15070
875.623	15154
875.751	14998
875.88	15100
876.008	15302
876.136	15298
876.265	15591
876.393	15629
876.521	15591
876.65	15561
876.778	15564
876.906	15378
877.034	15439
877.162	15488
877.29	15469
877.418	15545
877.546	15633
877.674	15492
877.802	15500
877.93	15481
878.058	15519
878.185	15393
878.313	15507
878.441	15618
878.568	15340
878.696	15530
878.824	15466
878.951	15698
879.079	15675
879.206	15770
879.333	15781
879.461	15477
879.588	15671
879.715	15644
879.842	15819
879.97	15648
880.097	15416
880.224	15420
880.351	15420
880.478	15428
880.605	15416
880.732	15302
880.859	15584
880.986	15424
881.112	15321
881.239	15389
881.366	15142
881.493	15009
881.619	15009
881.746	15074
881.872	15009
881.999	14925
882.125	15020
882.252	15055
882.378	15066
882.505	15097
882.631	14990
882.757	14971
882.883	14937
883.01	14834
883.136	14724
883.262	14769
883.388	14655
883.514	14887
883.64	14891
883.766	14823
883.892	14781
884.018	14670
884.143	14834
884.269	15032
884.395	14621
884.52	14514
884.646	14587
884.772	14465
884.897	14446
885.023	14568
885.148	14686
885.274	14731
885.399	14621
885.524	14552
885.65	14651
885.775	14632
885.9	14659
886.025	14659
886.15	14678
886.275	14594
886.4	14457
886.525	14511
886.65	14499
886.775	14495
886.9	14667
887.025	14773
887.149	14625
887.274	14385
887.399	14377
887.523	14427
887.648	14309
887.773	14339
887.897	14499
888.021	14400
888.146	14377
888.27	14545
888.395	14511
888.519	14438
888.643	14438
888.767	14446
888.891	14427
889.015	14298
889.139	14218
889.263	14278
889.387	14438
889.511	14499
889.635	14408
889.759	14267
889.883	14225
890.006	14267
890.13	14393
890.254	14161
890.377	14248
890.501	14027
890.624	14115
890.748	14187
890.871	13970
890.995	13928
891.118	13845
891.241	13849
891.364	14005
891.488	14088
891.611	14012
891.734	13894
891.857	14008
891.98	13974
892.103	14001
892.226	13928
892.349	13970
892.471	13822
892.594	13883
892.717	14008
892.839	13936
892.962	13951
893.085	14016
893.207	13944
893.33	13894
893.452	13936
893.575	13989
893.697	13928
893.819	14168
893.941	14081
894.064	14058
894.186	13906
894.308	13997
894.43	13974
894.552	14233
894.674	14100
894.796	13951
894.918	13959
895.04	13978
895.161	14153
895.283	14096
895.405	14069
895.526	14020
895.648	14088
895.769	14123
895.891	14123
896.012	14180
896.134	14168
896.255	14168
896.376	14168
896.498	14107
896.619	14218
896.74	14164
896.861	14119
896.982	14552
897.103	14686
897.224	14442
897.345	14457
897.466	14358
897.587	14419
897.708	14507
897.828	14514
897.949	14393
898.07	14286
898.19	14339
898.311	14427
898.431	14434
898.552	14495
898.672	14640
898.792	14590
898.913	14556
899.033	14503
899.153	14336
899.273	14237
899.393	14385
899.513	14267
899.633	14358
899.753	14366
899.873	14271
899.993	14358
900.113	14370
900.232	14366
900.352	14252
900.472	14248
900.591	14183
900.711	14202
900.83	14172
900.95	14328
901.069	14290
901.189	14206
901.308	13936
901.427	13879
901.546	13845
901.665	13875
901.784	13932
901.904	13738
902.023	13666
902.141	13575
902.26	13468
902.379	13506
902.498	13403
902.617	13415
902.735	13521
902.854	13396
902.973	13358
903.091	13225
903.21	13259
903.328	13137
903.446	13038
903.565	13008
903.683	13015
903.801	12867
903.919	13012
904.038	12973
904.156	12886
904.274	12837
904.392	12764
904.51	12795
904.627	12852
904.745	12954
904.863	12909
904.981	12722
905.098	12585
905.216	12650
905.334	12513
905.451	12570
905.569	12566
905.686	12506
905.803	12433
905.921	12361
906.038	12429
906.155	12380
906.272	12281
906.389	12308
906.506	12194
906.623	12117
906.74	12144
906.857	11935
906.974	12041
907.091	12220
907.208	12205
907.324	12205
907.441	12038
907.557	11882
907.674	11851
907.79	11817
907.907	11798
908.023	11980
908.139	11969
908.256	11771
908.372	11775
908.488	11786
908.604	11691
908.72	11653
908.836	11668
908.952	11611
909.068	11672
909.184	11726
909.3	11676
909.415	11714
909.531	11661
909.647	11452
909.762	11356
909.878	11330
909.993	11429
910.108	11345
910.224	11353
910.339	11372
910.454	11356
910.57	11223
910.685	11124
910.8	11482
910.915	11490
911.03	11345
911.145	11109
911.259	11124
911.374	11064
911.489	11056
911.604	10938
911.718	10923
911.833	10873
911.947	10858
912.062	10721
912.176	10820
912.291	10835
912.405	10812
912.519	11124
912.633	11033
912.748	10949
912.862	10854
912.976	10679
913.09	10706
913.204	10763
913.318	10805
913.431	10828
913.545	10816
913.659	10858
913.772	10733
913.886	10634
914	10634
914.113	10706
914.226	10793
914.34	10698
914.453	10607
914.566	10691
914.68	10550
914.793	10626
914.906	10405
915.019	10398
915.132	10360
915.245	10352
915.358	10363
915.47	10398
915.583	10382
915.696	10371
915.809	10538
915.921	10561
916.034	10371
916.146	10371
916.259	10344
916.371	10421
916.483	10516
916.595	10291
916.708	10356
916.82	10360
916.932	10314
917.044	10310
917.156	10310
917.268	10227
917.38	10143
917.491	10177
917.603	10280
917.715	10337
917.826	10314
917.938	10196
918.049	10074
918.161	10169
918.272	10287
918.384	10295
918.495	10234
918.606	10086
918.717	10048
918.828	10185
918.939	10131
919.05	10059
919.161	10101
919.272	9930
919.383	9934
919.494	10196
919.604	10352
919.715	10078
919.826	9998
919.936	10124
920.047	10215
920.157	10192
920.267	10337
920.378	10135
920.488	10063
920.598	10314
920.708	10428
920.818	10284
920.928	10306
921.038	10443
921.148	10443
921.258	10234
921.368	10135
921.477	10002
921.587	9895
921.697	9800
921.806	10059
921.916	9873
922.025	9743
922.134	9682
922.244	9641
922.353	9701
922.462	9599
922.571	9485
922.68	9450
922.789	9374
922.898	9344
923.007	9374
923.116	9408
923.224	9351
923.333	9374
923.442	9230
923.55	9237
923.659	9283
923.767	9386
923.876	9241
923.984	9329
924.092	9138
924.201	9302
924.309	9214
924.417	9340
924.525	9222
924.633	9241
924.741	9987
924.849	9017
924.956	9093
925.064	9036
925.172	8960
925.279	9028
925.387	9093
925.494	9043
925.602	9142
925.709	9169
925.816	9017
925.924	9039
926.031	9165
926.138	9039
926.245	9123
926.352	8998
926.459	9119
926.566	9169
926.673	8971
926.779	8853
926.886	8906
926.993	8743
927.099	8773
927.206	8712
927.312	8750
927.419	8815
927.525	8727
927.631	8819
927.737	8632
927.843	8708
927.95	8492
928.056	8625
928.162	8655
928.267	8697
928.373	9222
928.479	8766
928.585	8518
928.69	8625
928.796	8705
928.901	8613
929.007	8484
929.112	8594
929.218	8556
929.323	8488
929.428	8484
929.533	8678
929.638	8438
929.743	8450
929.848	8495
929.953	8469
930.058	8358
930.163	8157
930.267	8233
930.372	8431
930.477	8218
930.581	8396
930.685	8313
930.79	8183
930.894	8187
930.998	8138
931.103	8294
931.207	8054
931.311	7921
931.415	7913
931.519	7647
931.623	7712
