Data from test_V78500241_1914.txt Node
Date: Fri Mar 25 14:47:02 CST 2022
User: usil
Spectrometer: V785-0024
Trigger mode: 0
Integration Time (sec): 4.000000E-1
Scans to average: 1
Nonlinearity correction enabled: false
Boxcar width: 0
Storing dark spectrum: false
XAxis mode: Wavelengths
Number of Pixels in Spectrum: 1024
>>>>>Begin Spectral Data<<<<<
801.071	22135
801.214	21884
801.356	21808
801.499	21713
801.641	21332
801.783	21382
801.926	21298
802.068	21355
802.211	21393
802.353	21294
802.496	21001
802.638	21017
802.78	20971
802.923	20933
803.065	20754
803.208	20781
803.35	20712
803.492	20838
803.635	20857
803.777	20724
803.919	20861
804.061	21112
804.204	20750
804.346	20849
804.488	20693
804.63	20746
804.773	20682
804.915	20636
805.057	20830
805.199	20777
805.341	20743
805.483	20788
805.626	20781
805.768	20556
805.91	20731
806.052	20617
806.194	20571
806.336	21005
806.478	20663
806.62	20606
806.762	20735
806.904	20804
807.046	20982
807.188	21020
807.33	20941
807.472	21032
807.614	20948
807.756	21028
807.898	20906
808.04	20804
808.182	20705
808.324	20678
808.465	20819
808.607	20880
808.749	20963
808.891	21093
809.033	21203
809.174	21085
809.316	20960
809.458	21157
809.6	20937
809.741	21131
809.883	21104
810.025	21363
810.166	21218
810.308	21260
810.45	21340
810.591	21055
810.733	21005
810.875	20887
811.016	20716
811.158	20724
811.299	20952
811.441	20963
811.582	20910
811.724	20743
811.865	20842
812.007	20750
812.148	20785
812.29	20876
812.431	20872
812.573	21165
812.714	21161
812.855	21359
812.997	21424
813.138	21599
813.279	21374
813.421	21325
813.562	21348
813.703	20933
813.845	20971
813.986	20815
814.127	20556
814.268	20526
814.41	20381
814.551	20351
814.692	20568
814.833	20305
814.974	20301
815.115	20404
815.256	20168
815.397	20221
815.539	20256
815.68	20168
815.821	20107
815.962	20153
816.103	20062
816.244	19849
816.385	19818
816.526	19830
816.666	19674
816.807	19708
816.948	19689
817.089	19624
817.23	19521
817.371	19457
817.512	19529
817.653	19468
817.793	19502
817.934	19586
818.075	19567
818.216	19480
818.356	19438
818.497	19392
818.638	19190
818.778	19206
818.919	19194
819.06	19202
819.2	19400
819.341	19419
819.481	19373
819.622	19586
819.762	19662
819.903	19666
820.043	19590
820.184	19483
820.324	19499
820.465	19495
820.605	19518
820.746	19464
820.886	19346
821.026	19487
821.167	19464
821.307	19403
821.447	19472
821.588	19354
821.728	19236
821.868	19046
822.008	18901
822.149	18856
822.289	18878
822.429	18665
822.569	18658
822.709	18703
822.849	18494
822.99	18471
823.13	18426
823.27	18361
823.41	18224
823.55	18155
823.69	18285
823.83	18289
823.97	18182
824.11	17999
824.25	17863
824.389	18034
824.529	18083
824.669	17927
824.809	18110
824.949	18087
825.089	18079
825.228	17942
825.368	17817
825.508	17786
825.648	17767
825.787	17786
825.927	17824
826.067	17760
826.206	17714
826.346	17790
826.485	17775
826.625	17813
826.765	17942
826.904	17794
827.044	17589
827.183	17474
827.323	17421
827.462	17505
827.601	17444
827.741	17395
827.88	17573
828.02	17406
828.159	17345
828.298	17417
828.437	17558
828.577	17482
828.716	17539
828.855	17429
828.994	17299
829.134	17223
829.273	17242
829.412	17246
829.551	17166
829.69	17105
829.829	17311
829.968	17341
830.107	17269
830.246	17239
830.385	17212
830.524	17102
830.663	17079
830.802	16976
830.941	16873
831.08	16831
831.219	16866
831.357	16812
831.496	17109
831.635	16771
831.774	16824
831.913	16717
832.051	16615
832.19	16630
832.329	16675
832.467	16478
832.606	16459
832.744	16599
832.883	16622
833.022	16508
833.16	16561
833.299	16436
833.437	16546
833.576	16653
833.714	16599
833.852	16573
833.991	16713
834.129	16653
834.267	16603
834.406	16516
834.544	16497
834.682	16535
834.821	16611
834.959	16774
835.097	16588
835.235	16706
835.373	16603
835.511	16755
835.65	16478
835.788	16500
835.926	16360
836.064	16325
836.202	16356
836.34	16516
836.478	16558
836.615	16466
836.753	16561
836.891	16569
837.029	16565
837.167	16428
837.305	16546
837.443	16394
837.58	16314
837.718	16424
837.856	16527
837.993	16299
838.131	16284
838.269	16363
838.406	16363
838.544	16147
838.681	16093
838.819	16002
838.956	15949
839.094	15911
839.231	15991
839.369	16071
839.506	16337
839.643	16230
839.781	15994
839.918	15960
840.055	16006
840.193	15857
840.33	15922
840.467	15911
840.604	15983
840.742	16230
840.879	15865
841.016	15926
841.153	15945
841.29	16109
841.427	15979
841.564	15903
841.701	16048
841.838	15915
841.975	15926
842.112	15785
842.249	15789
842.385	15743
842.522	15846
842.659	15751
842.796	15785
842.933	15675
843.069	15720
843.206	15709
843.343	15854
843.479	15808
843.616	15800
843.752	15504
843.889	15519
844.025	15755
844.162	15504
844.298	15572
844.435	15424
844.571	15515
844.708	15591
844.844	15713
844.98	15675
845.117	15641
845.253	15450
845.389	15496
845.525	15405
845.661	15389
845.798	15370
845.934	15355
846.07	15283
846.206	15344
846.342	15408
846.478	15294
846.614	15112
846.75	15074
846.886	15043
847.022	15207
847.158	15089
847.294	15104
847.429	15119
847.565	15085
847.701	15310
847.837	14906
847.972	14838
848.108	14906
848.244	14868
848.379	14750
848.515	14758
848.65	14670
848.786	14636
848.921	14693
849.057	14773
849.192	14845
849.328	14731
849.463	14773
849.598	14571
849.734	14705
849.869	14579
850.004	14507
850.14	14473
850.275	14438
850.41	14393
850.545	14404
850.68	14415
850.815	14473
850.95	14541
851.085	14610
851.22	14495
851.355	14473
851.49	14537
851.625	14469
851.76	14415
851.895	14355
852.03	14286
852.165	14412
852.299	14465
852.434	14488
852.569	14484
852.703	14450
852.838	14465
852.973	14522
853.107	14617
853.242	14442
853.376	14332
853.511	14221
853.645	14221
853.78	14473
853.914	14393
854.048	14263
854.183	14286
854.317	14282
854.451	14408
854.585	14362
854.72	14320
854.854	14393
854.988	14168
855.122	14271
855.256	14191
855.39	14351
855.524	14366
855.658	14423
855.792	14385
855.926	14343
856.06	14374
856.194	14370
856.327	14355
856.461	14240
856.595	14225
856.729	14374
856.862	14381
856.996	14415
857.13	14400
857.263	14377
857.397	14393
857.53	14282
857.664	14377
857.797	14412
857.931	14431
858.064	14366
858.197	14431
858.331	14370
858.464	14244
858.597	14168
858.731	14317
858.864	14328
858.997	14339
859.13	14404
859.263	14275
859.396	14450
859.529	14339
859.662	14301
859.795	14362
859.928	14381
860.061	14469
860.194	14499
860.327	14347
860.46	14256
860.592	14503
860.725	14446
860.858	14495
860.99	14320
861.123	14377
861.256	14187
861.388	14339
861.521	15032
861.653	14229
861.786	14111
861.918	14168
862.05	14252
862.183	14248
862.315	14313
862.447	14275
862.58	14305
862.712	14035
862.844	14039
862.976	14210
863.108	14214
863.24	14476
863.372	13970
863.504	14096
863.636	14069
863.768	14180
863.9	14103
864.032	14035
864.164	14043
864.296	14008
864.428	14252
864.559	14149
864.691	14218
864.823	14142
864.954	14134
865.086	14084
865.217	14043
865.349	14039
865.48	14069
865.612	14107
865.743	14225
865.875	14130
866.006	14054
866.137	14145
866.269	14077
866.4	14111
866.531	14077
866.662	14096
866.793	14054
866.924	14100
867.055	14134
867.186	14069
867.317	13993
867.448	14024
867.579	14103
867.71	14008
867.841	14024
867.972	14084
868.103	14130
868.233	14145
868.364	14225
868.495	14176
868.625	14225
868.756	14393
868.886	14290
869.017	14324
869.147	14454
869.278	14461
869.408	14442
869.539	14362
869.669	14419
869.799	14526
869.929	14476
870.06	14476
870.19	14590
870.32	14663
870.45	14632
870.58	14743
870.71	14864
870.84	14849
870.97	14781
871.1	14785
871.23	14952
871.36	14902
871.489	14811
871.619	14872
871.749	14899
871.879	14975
872.008	15074
872.138	14921
872.267	14872
872.397	14883
872.526	14754
872.656	14781
872.785	14720
872.915	14948
873.044	15070
873.173	15074
873.303	15070
873.432	15062
873.561	15051
873.69	14914
873.819	14910
873.948	15017
874.077	15127
874.206	14929
874.335	14998
874.464	15085
874.593	15310
874.722	15222
874.851	15325
874.979	15302
875.108	15325
875.237	15420
875.365	15230
875.494	15264
875.623	15405
875.751	15249
875.88	15336
876.008	15454
876.136	15473
876.265	15759
876.393	15797
876.521	15781
876.65	15800
876.778	15778
876.906	15682
877.034	15610
877.162	15728
877.29	15690
877.418	15671
877.546	15770
877.674	15781
877.802	15690
877.93	15717
878.058	15671
878.185	15591
878.313	15751
878.441	15713
878.568	15564
878.696	15584
878.824	15713
878.951	15857
879.079	15895
879.206	15972
879.333	15816
879.461	15747
879.588	15797
879.715	15884
879.842	16082
879.97	15797
880.097	15458
880.224	15610
880.351	15648
880.478	15557
880.605	15542
880.732	15606
880.859	15789
880.986	15622
881.112	15637
881.239	15473
881.366	15397
881.493	15233
881.619	15245
881.746	15340
881.872	15272
881.999	15135
882.125	15169
882.252	15287
882.378	15332
882.505	15408
882.631	15233
882.757	15112
882.883	15028
883.01	15131
883.136	15085
883.262	14921
883.388	14899
883.514	15089
883.64	14960
883.766	14979
883.892	14845
884.018	14941
884.143	15108
884.269	15146
884.395	14788
884.52	14735
884.646	14720
884.772	14640
884.897	14530
885.023	14811
885.148	14804
885.274	14986
885.399	14906
885.524	14781
885.65	14735
885.775	14849
885.9	14712
886.025	14845
886.15	14804
886.275	14682
886.4	14651
886.525	14724
886.65	14674
886.775	14598
886.9	14861
887.025	15009
887.149	14697
887.274	14545
887.399	14583
887.523	14590
887.648	14484
887.773	14499
887.897	14598
888.021	14610
888.146	14552
888.27	14693
888.395	14773
888.519	14644
888.643	14693
888.767	14617
888.891	14564
889.015	14419
889.139	14556
889.263	14298
889.387	14541
889.511	14560
889.635	14602
889.759	14454
889.883	14438
890.006	14408
890.13	14537
890.254	14305
890.377	14355
890.501	14267
890.624	14313
890.748	14278
890.871	14191
890.995	14107
891.118	14081
891.241	14172
891.364	14206
891.488	14282
891.611	14191
891.734	14031
891.857	14233
891.98	14199
892.103	14187
892.226	14229
892.349	14130
892.471	13970
892.594	14107
892.717	14119
892.839	14138
892.962	14134
893.085	14180
893.207	14142
893.33	14039
893.452	14107
893.575	14168
893.697	14065
893.819	14336
893.941	14336
894.064	14339
894.186	14077
894.308	14084
894.43	14237
894.552	14358
894.674	14381
894.796	14214
894.918	14161
895.04	14187
895.161	14244
895.283	14237
895.405	14164
895.526	14248
895.648	14263
895.769	14225
895.891	14320
896.012	14240
896.134	14408
896.255	14282
896.376	14298
896.498	14320
896.619	14442
896.74	14278
896.861	14366
896.982	14731
897.103	14891
897.224	14564
897.345	14545
897.466	14503
897.587	14541
897.708	14765
897.828	14613
897.949	14549
898.07	14434
898.19	14590
898.311	14800
898.431	14484
898.552	14667
898.672	14777
898.792	14705
898.913	14727
899.033	14560
899.153	14503
899.273	14393
899.393	14469
899.513	14488
899.633	14427
899.753	14564
899.873	14495
899.993	14575
900.113	14396
900.232	14659
900.352	14503
900.472	14450
900.591	14237
900.711	14336
900.83	14282
900.95	14336
901.069	14419
901.189	14263
901.308	14142
901.427	14024
901.546	13970
901.665	14073
901.784	14054
901.904	13883
902.023	13841
902.141	13776
902.26	13632
902.379	13674
902.498	13586
902.617	13480
902.735	13715
902.854	13616
902.973	13506
903.091	13377
903.21	13331
903.328	13419
903.446	13289
903.565	13072
903.683	13190
903.801	12996
903.919	13183
904.038	13103
904.156	13027
904.274	12977
904.392	12939
904.51	12954
904.627	13046
904.745	13042
904.863	13110
904.981	12882
905.098	12673
905.216	12715
905.334	12673
905.451	12692
905.569	12654
905.686	12703
905.803	12616
905.921	12467
906.038	12589
906.155	12475
906.272	12445
906.389	12410
906.506	12232
906.623	12296
906.74	12254
906.857	12152
906.974	12232
907.091	12357
907.208	12365
907.324	12330
907.441	12186
907.557	12102
907.674	12026
907.79	12072
907.907	12053
908.023	12019
908.139	12102
908.256	12034
908.372	11946
908.488	11992
908.604	11794
908.72	11821
908.836	11863
908.952	11710
909.068	11790
909.184	11916
909.3	11824
909.415	11870
909.531	11752
909.647	11604
909.762	11558
909.878	11596
909.993	11551
910.108	11528
910.224	11543
910.339	11539
910.454	11421
910.57	11376
910.685	11307
910.8	11608
910.915	11558
911.03	11444
911.145	11311
911.259	11231
911.374	11273
911.489	11189
911.604	11166
911.718	11060
911.833	11010
911.947	10938
912.062	10812
912.176	11048
912.291	10991
912.405	11048
912.519	11185
912.633	11235
912.748	11048
912.862	10949
912.976	10843
913.09	10763
913.204	10801
913.318	10885
913.431	11045
913.545	11037
913.659	11045
913.772	10858
913.886	10759
914	10805
914.113	10862
914.226	10877
914.34	10900
914.453	10725
914.566	10896
914.68	10755
914.793	10691
914.906	10523
915.019	10538
915.132	10432
915.245	10451
915.358	10538
915.47	10413
915.583	10618
915.696	10523
915.809	10710
915.921	10599
916.034	10459
916.146	10402
916.259	10333
916.371	10500
916.483	10504
916.595	10379
916.708	10497
916.82	10504
916.932	10413
917.044	10432
917.156	10417
917.268	10295
917.38	10367
917.491	10333
917.603	10325
917.715	10382
917.826	10443
917.938	10352
918.049	10188
918.161	10329
918.272	10500
918.384	10519
918.495	10379
918.606	10177
918.717	10188
918.828	10181
918.939	10238
919.05	10169
919.161	10185
919.272	10021
919.383	10097
919.494	10249
919.604	10489
919.715	10158
919.826	10162
919.936	10215
920.047	10337
920.157	10306
920.267	10398
920.378	10219
920.488	10234
920.598	10440
920.708	10645
920.818	10493
920.928	10451
921.038	10569
921.148	10512
921.258	10249
921.368	10204
921.477	10086
921.587	10097
921.697	10013
921.806	9994
921.916	10029
922.025	9831
922.134	9835
922.244	9778
922.353	9816
922.462	9682
922.571	9599
922.68	9458
922.789	9466
922.898	9447
923.007	9447
923.116	9519
923.224	9450
923.333	9420
923.442	9310
923.55	9382
923.659	9355
923.767	9416
923.876	9386
923.984	9485
924.092	9275
924.201	9405
924.309	9359
924.417	9359
924.525	9260
924.633	9336
924.741	10219
924.849	9116
924.956	9249
925.064	9074
925.172	9108
925.279	9085
925.387	9203
925.494	9119
925.602	9245
925.709	9272
925.816	9108
925.924	9085
926.031	9218
926.138	9138
926.245	9173
926.352	9081
926.459	9275
926.566	9230
926.673	9112
926.779	9085
926.886	9005
926.993	8948
927.099	8941
927.206	8849
927.312	8792
927.419	8910
927.525	8914
927.631	8921
927.737	8785
927.843	8781
927.95	8655
928.056	8785
928.162	8743
928.267	8781
928.373	9458
928.479	8910
928.585	8629
928.69	8739
928.796	8758
928.901	8655
929.007	8560
929.112	8754
929.218	8701
929.323	8632
929.428	8625
929.533	8777
929.638	8552
929.743	8575
929.848	8629
929.953	8610
930.058	8526
930.163	8347
930.267	8362
930.372	8568
930.477	8419
930.581	8590
930.685	8434
930.79	8294
930.894	8343
930.998	8393
931.103	8518
931.207	8134
931.311	8043
931.415	8027
931.519	7780
931.623	7803
