Data from test_V78500241_1189.txt Node
Date: Fri Mar 25 14:41:59 CST 2022
User: usil
Spectrometer: V785-0024
Trigger mode: 0
Integration Time (sec): 4.000000E-1
Scans to average: 1
Nonlinearity correction enabled: false
Boxcar width: 0
Storing dark spectrum: false
XAxis mode: Wavelengths
Number of Pixels in Spectrum: 1024
>>>>>Begin Spectral Data<<<<<
801.071	22485
801.214	22382
801.356	22128
801.499	21934
801.641	22044
801.783	21888
801.926	21903
802.068	21641
802.211	21591
802.353	21583
802.496	21291
802.638	21291
802.78	21256
802.923	21142
803.065	21150
803.208	21104
803.35	21131
803.492	21176
803.635	21256
803.777	21192
803.919	21268
804.061	21576
804.204	21192
804.346	20994
804.488	21066
804.63	21169
804.773	20910
804.915	21062
805.057	21203
805.199	21112
805.341	21123
805.483	21112
805.626	21039
805.768	21051
805.91	21146
806.052	21131
806.194	21032
806.336	21218
806.478	21066
806.62	21039
806.762	21108
806.904	21169
807.046	21340
807.188	21256
807.33	21370
807.472	21370
807.614	21237
807.756	21389
807.898	21268
808.04	21306
808.182	21036
808.324	21180
808.465	21184
808.607	21382
808.749	21439
808.891	21663
809.033	21793
809.174	21755
809.316	21519
809.458	21530
809.6	21386
809.741	21580
809.883	21458
810.025	21656
810.166	21739
810.308	21800
810.45	21622
810.591	21431
810.733	21378
810.875	21363
811.016	21241
811.158	21127
811.299	21268
811.441	21424
811.582	21332
811.724	21275
811.865	21294
812.007	21195
812.148	21192
812.29	21222
812.431	21515
812.573	21561
812.714	21492
812.855	21778
812.997	21831
813.138	21892
813.279	21819
813.421	21778
813.562	21477
813.703	21500
813.845	21466
813.986	21036
814.127	20998
814.268	20807
814.41	20712
814.551	20754
814.692	20857
814.833	20689
814.974	20762
815.115	20826
815.256	20530
815.397	20514
815.539	20735
815.68	20438
815.821	20461
815.962	20583
816.103	20602
816.244	20358
816.385	20263
816.526	20286
816.666	20054
816.807	19925
816.948	19997
817.089	20077
817.23	20084
817.371	19909
817.512	19947
817.653	19890
817.793	19875
817.934	19982
818.075	19936
818.216	19982
818.356	19799
818.497	19734
818.638	19662
818.778	19647
818.919	19685
819.06	19693
819.2	19799
819.341	19837
819.481	19906
819.622	20005
819.762	20183
819.903	20054
820.043	20012
820.184	19856
820.324	19944
820.465	19925
820.605	20073
820.746	19955
820.886	19803
821.026	19879
821.167	19963
821.307	19883
821.447	19879
821.588	19776
821.728	19544
821.868	19601
822.008	19308
822.149	19308
822.289	19331
822.429	19042
822.569	18943
822.709	19000
822.849	18852
822.99	18787
823.13	18757
823.27	18768
823.41	18540
823.55	18521
823.69	18585
823.83	18665
823.97	18547
824.11	18414
824.25	18372
824.389	18589
824.529	18528
824.669	18426
824.809	18608
824.949	18437
825.089	18486
825.228	18483
825.368	18247
825.508	18292
825.648	18258
825.787	18190
825.927	18228
826.067	18144
826.206	18197
826.346	18178
826.485	18186
826.625	18125
826.765	18330
826.904	18285
827.044	18079
827.183	17942
827.323	17889
827.462	17882
827.601	17977
827.741	17878
827.88	17828
828.02	17756
828.159	17958
828.298	17874
828.437	17939
828.577	17828
828.716	17965
828.855	17908
828.994	17684
829.134	17668
829.273	17627
829.412	17532
829.551	17589
829.69	17474
829.829	17691
829.968	17843
830.107	17756
830.246	17672
830.385	17657
830.524	17551
830.663	17528
830.802	17425
830.941	17356
831.08	17277
831.219	17273
831.357	17349
831.496	17490
831.635	17147
831.774	17121
831.913	17166
832.051	17064
832.19	17014
832.329	17090
832.467	16946
832.606	16896
832.744	16965
832.883	16927
833.022	16934
833.16	16957
833.299	17037
833.437	17045
833.576	17025
833.714	17067
833.852	17117
833.991	17079
834.129	17094
834.267	17136
834.406	17071
834.544	16987
834.682	17079
834.821	17075
834.959	17193
835.097	16999
835.235	17132
835.373	17045
835.511	17109
835.65	16976
835.788	16915
835.926	16839
836.064	16721
836.202	16759
836.34	16957
836.478	16995
836.615	17079
836.753	16885
836.891	17033
837.029	17006
837.167	16885
837.305	16858
837.443	16896
837.58	16831
837.718	16911
837.856	16828
837.993	16752
838.131	16793
838.269	16774
838.406	16668
838.544	16607
838.681	16512
838.819	16462
838.956	16382
839.094	16344
839.231	16348
839.369	16409
839.506	16812
839.643	16527
839.781	16352
839.918	16329
840.055	16322
840.193	16341
840.33	16363
840.467	16405
840.604	16333
840.742	16630
840.879	16150
841.016	16329
841.153	16314
841.29	16466
841.427	16318
841.564	16344
841.701	16280
841.838	16268
841.975	16318
842.112	16257
842.249	16211
842.385	16055
842.522	16314
842.659	16207
842.796	16135
842.933	16051
843.069	16059
843.206	15975
843.343	16192
843.479	16055
843.616	16143
843.752	15888
843.889	15819
844.025	16109
844.162	15907
844.298	16082
844.435	15972
844.571	15930
844.708	15960
844.844	16063
844.98	16036
845.117	15994
845.253	15937
845.389	15850
845.525	15854
845.661	15854
845.798	15759
845.934	15888
846.07	15819
846.206	15918
846.342	15854
846.478	15835
846.614	15564
846.75	15435
846.886	15587
847.022	15572
847.158	15485
847.294	15599
847.429	15538
847.565	15454
847.701	15686
847.837	15275
847.972	15157
848.108	15272
848.244	15306
848.379	15058
848.515	15222
848.65	15097
848.786	15047
848.921	15199
849.057	15237
849.192	15100
849.328	15142
849.463	15123
849.598	15161
849.734	15013
849.869	14933
850.004	14899
850.14	14880
850.275	14826
850.41	14842
850.545	14750
850.68	14967
850.815	14861
850.95	14857
851.085	15024
851.22	14883
851.355	14937
851.49	14887
851.625	14792
851.76	14739
851.895	14758
852.03	14811
852.165	14853
852.299	14876
852.434	14914
852.569	14868
852.703	14933
852.838	14971
852.973	14971
853.107	15036
853.242	14781
853.376	14769
853.511	14720
853.645	14773
853.78	14902
853.914	14773
854.048	14575
854.183	14697
854.317	14762
854.451	14921
854.585	14655
854.72	14613
854.854	14724
854.988	14644
855.122	14765
855.256	14560
855.39	14621
855.524	14720
855.658	14800
855.792	14640
855.926	14735
856.06	14708
856.194	14796
856.327	14743
856.461	14678
856.595	14750
856.729	14655
856.862	14777
856.996	14777
857.13	14689
857.263	14842
857.397	14769
857.53	14705
857.664	14788
857.797	14727
857.931	14762
858.064	14655
858.197	14781
858.331	14705
858.464	14716
858.597	14659
858.731	14712
858.864	14720
858.997	14655
859.13	14765
859.263	14868
859.396	14746
859.529	14651
859.662	14648
859.795	14663
859.928	14701
860.061	14933
860.194	14883
860.327	14800
860.46	14667
860.592	14838
860.725	14819
860.858	14834
860.99	14781
861.123	14693
861.256	14613
861.388	14716
861.521	15382
861.653	14594
861.786	14545
861.918	14545
862.05	14651
862.183	14644
862.315	14708
862.447	14781
862.58	14674
862.712	14526
862.844	14431
862.976	14606
863.108	14461
863.24	14933
863.372	14427
863.504	14484
863.636	14522
863.768	14530
863.9	14560
864.032	14438
864.164	14511
864.296	14583
864.428	14461
864.559	14560
864.691	14629
864.823	14552
864.954	14545
865.086	14575
865.217	14560
865.349	14351
865.48	14488
865.612	14465
865.743	14575
865.875	14556
866.006	14495
866.137	14552
866.269	14511
866.4	14442
866.531	14476
866.662	14351
866.793	14389
866.924	14366
867.055	14560
867.186	14503
867.317	14518
867.448	14457
867.579	14457
867.71	14381
867.841	14423
867.972	14484
868.103	14465
868.233	14438
868.364	14518
868.495	14575
868.625	14651
868.756	14800
868.886	14629
869.017	14632
869.147	14838
869.278	14796
869.408	14838
869.539	14674
869.669	14838
869.799	14682
869.929	14899
870.06	14796
870.19	15066
870.32	15051
870.45	15043
870.58	15024
870.71	15329
870.84	15169
870.97	15047
871.1	15081
871.23	15332
871.36	15363
871.489	15264
871.619	15207
871.749	15298
871.879	15374
872.008	15378
872.138	15275
872.267	15374
872.397	15184
872.526	15176
872.656	15157
872.785	15108
872.915	15233
873.044	15435
873.173	15336
873.303	15359
873.432	15428
873.561	15454
873.69	15355
873.819	15420
873.948	15412
874.077	15401
874.206	15291
874.335	15359
874.464	15447
874.593	15610
874.722	15679
874.851	15747
874.979	15720
875.108	15686
875.237	15599
875.365	15606
875.494	15561
875.623	15785
875.751	15629
875.88	15679
876.008	15781
876.136	15842
876.265	16128
876.393	16249
876.521	16139
876.65	16154
876.778	16071
876.906	16013
877.034	16059
877.162	16135
877.29	15945
877.418	16063
877.546	16059
877.674	16074
877.802	16040
877.93	15960
878.058	16059
878.185	15998
878.313	16002
878.441	16112
878.568	15937
878.696	15987
878.824	16082
878.951	16310
879.079	16234
879.206	16398
879.333	16382
879.461	16238
879.588	16188
879.715	16284
879.842	16375
879.97	16242
880.097	15930
880.224	15968
880.351	16086
880.478	16002
880.605	15846
880.732	15968
880.859	16173
880.986	15972
881.112	15907
881.239	15880
881.366	15717
881.493	15633
881.619	15625
881.746	15625
881.872	15492
881.999	15656
882.125	15584
882.252	15812
882.378	15519
882.505	15686
882.631	15610
882.757	15393
882.883	15576
883.01	15431
883.136	15310
883.262	15157
883.388	15157
883.514	15428
883.64	15496
883.766	15313
883.892	15211
884.018	15230
884.143	15367
884.269	15599
884.395	15074
884.52	15013
884.646	15272
884.772	15043
884.897	14990
885.023	15116
885.148	15135
885.274	15264
885.399	15237
885.524	15146
885.65	15150
885.775	15180
885.9	15127
886.025	15173
886.15	15150
886.275	15169
886.4	15013
886.525	15051
886.65	15013
886.775	15047
886.9	15294
887.025	15245
887.149	15081
887.274	14876
887.399	14895
887.523	14838
887.648	14933
887.773	14883
887.897	14994
888.021	15055
888.146	14906
888.27	15081
888.395	15074
888.519	14998
888.643	14960
888.767	14914
888.891	14826
889.015	14777
889.139	14876
889.263	14815
889.387	14929
889.511	14998
889.635	14998
889.759	14769
889.883	14773
890.006	14948
890.13	14857
890.254	14804
890.377	14754
890.501	14530
890.624	14484
890.748	14701
890.871	14499
890.995	14484
891.118	14374
891.241	14446
891.364	14396
891.488	14537
891.611	14480
891.734	14442
891.857	14556
891.98	14442
892.103	14533
892.226	14469
892.349	14408
892.471	14290
892.594	14446
892.717	14423
892.839	14355
892.962	14389
893.085	14480
893.207	14454
893.33	14275
893.452	14431
893.575	14530
893.697	14465
893.819	14629
893.941	14697
894.064	14575
894.186	14480
894.308	14438
894.43	14526
894.552	14552
894.674	14621
894.796	14492
894.918	14579
895.04	14385
895.161	14590
895.283	14598
895.405	14465
895.526	14526
895.648	14606
895.769	14568
895.891	14659
896.012	14674
896.134	14651
896.255	14636
896.376	14617
896.498	14621
896.619	14598
896.74	14648
896.861	14716
896.982	14914
897.103	15112
897.224	14918
897.345	14838
897.466	14925
897.587	14944
897.708	14902
897.828	14849
897.949	14918
898.07	14781
898.19	14857
898.311	14979
898.431	14979
898.552	14933
898.672	14990
898.792	15093
898.913	14990
899.033	14815
899.153	14811
899.273	14758
899.393	14834
899.513	14769
899.633	14781
899.753	14857
899.873	14800
899.993	14887
900.113	14845
900.232	14910
900.352	14716
900.472	14701
900.591	14701
900.711	14663
900.83	14655
900.95	14727
901.069	14758
901.189	14590
901.308	14396
901.427	14339
901.546	14400
901.665	14404
901.784	14294
901.904	14278
902.023	14180
902.141	13955
902.26	13967
902.379	14062
902.498	13951
902.617	13719
902.735	13959
902.854	13925
902.973	13818
903.091	13647
903.21	13506
903.328	13548
903.446	13540
903.565	13491
903.683	13407
903.801	13285
903.919	13426
904.038	13468
904.156	13301
904.274	13316
904.392	13289
904.51	13274
904.627	13255
904.745	13339
904.863	13335
904.981	13145
905.098	12985
905.216	12958
905.334	13046
905.451	13038
905.569	12970
905.686	12977
905.803	12863
905.921	12894
906.038	12806
906.155	12791
906.272	12692
906.389	12681
906.506	12589
906.623	12532
906.74	12483
906.857	12391
906.974	12498
907.091	12559
907.208	12703
907.324	12658
907.441	12566
907.557	12308
907.674	12296
907.79	12213
907.907	12296
908.023	12346
908.139	12292
908.256	12247
908.372	12232
908.488	12228
908.604	12095
908.72	12022
908.836	12026
908.952	11969
909.068	11946
909.184	12121
909.3	11980
909.415	12140
909.531	12129
909.647	11843
909.762	11748
909.878	11809
909.993	11920
910.108	11821
910.224	11790
910.339	11798
910.454	11718
910.57	11661
910.685	11649
910.8	11863
910.915	11771
911.03	11722
911.145	11547
911.259	11558
911.374	11623
911.489	11448
911.604	11337
911.718	11315
911.833	11322
911.947	11166
912.062	11060
912.176	11311
912.291	11185
912.405	11212
912.519	11436
912.633	11376
912.748	11383
912.862	11288
912.976	11143
913.09	10968
913.204	11090
913.318	11197
913.431	11273
913.545	11235
913.659	11208
913.772	11208
913.886	10991
914	11048
914.113	11067
914.226	11143
914.34	11094
914.453	10984
914.566	11159
914.68	10999
914.793	11041
914.906	10866
915.019	10771
915.132	10771
915.245	10774
915.358	10869
915.47	10805
915.583	10759
915.696	10904
915.809	10999
915.921	11003
916.034	10828
916.146	10797
916.259	10748
916.371	10771
916.483	10831
916.595	10683
916.708	10717
916.82	10672
916.932	10683
917.044	10748
917.156	10721
917.268	10691
917.38	10675
917.491	10630
917.603	10630
917.715	10733
917.826	10725
917.938	10611
918.049	10462
918.161	10592
918.272	10782
918.384	10748
918.495	10645
918.606	10470
918.717	10371
918.828	10512
918.939	10577
919.05	10455
919.161	10455
919.272	10272
919.383	10462
919.494	10599
919.604	10717
919.715	10542
919.826	10428
919.936	10573
920.047	10523
920.157	10535
920.267	10729
920.378	10588
920.488	10531
920.598	10740
920.708	10854
920.818	10687
920.928	10683
921.038	10877
921.148	10835
921.258	10497
921.368	10512
921.477	10367
921.587	10371
921.697	10234
921.806	10363
921.916	10227
922.025	10112
922.134	10059
922.244	10071
922.353	10067
922.462	9964
922.571	9857
922.68	9728
922.789	9755
922.898	9759
923.007	9694
923.116	9740
923.224	9740
923.333	9740
923.442	9618
923.55	9618
923.659	9705
923.767	9671
923.876	9523
923.984	9694
924.092	9553
924.201	9652
924.309	9584
924.417	9644
924.525	9542
924.633	9606
924.741	10382
924.849	9454
924.956	9519
925.064	9359
925.172	9268
925.279	9401
925.387	9389
925.494	9340
925.602	9504
925.709	9466
925.816	9272
925.924	9401
926.031	9504
926.138	9374
926.245	9466
926.352	9256
926.459	9439
926.566	9466
926.673	9302
926.779	9214
926.886	9230
926.993	9127
927.099	9104
927.206	9066
927.312	9036
927.419	9150
927.525	9104
927.631	9058
927.737	9001
927.843	8956
927.95	8872
928.056	8990
928.162	8963
928.267	9043
928.373	9637
928.479	9017
928.585	8815
928.69	8929
928.796	9058
928.901	8849
929.007	8781
929.112	8830
929.218	8883
929.323	8868
929.428	8785
929.533	8982
929.638	8746
929.743	8781
929.848	8811
929.953	8807
930.058	8697
930.163	8556
930.267	8503
930.372	8670
930.477	8454
930.581	8826
930.685	8606
930.79	8564
930.894	8583
930.998	8488
931.103	8621
931.207	8248
931.311	8263
931.415	8153
931.519	7970
931.623	7993
