Data from test_V78500241_582.txt Node
Date: Fri Mar 25 14:37:46 CST 2022
User: usil
Spectrometer: V785-0024
Trigger mode: 0
Integration Time (sec): 4.000000E-1
Scans to average: 1
Nonlinearity correction enabled: false
Boxcar width: 0
Storing dark spectrum: false
XAxis mode: Wavelengths
Number of Pixels in Spectrum: 1024
>>>>>Begin Spectral Data<<<<<
801.071	27816
801.214	27804
801.356	27447
801.499	27431
801.641	27199
801.783	27252
801.926	27340
802.068	27230
802.211	27138
802.353	27051
802.496	26880
802.638	26788
802.78	26705
802.923	26674
803.065	26712
803.208	26823
803.35	26541
803.492	26853
803.635	26921
803.777	26674
803.919	26792
804.061	27096
804.204	26971
804.346	26826
804.488	26762
804.63	27013
804.773	26686
804.915	27028
805.057	27135
805.199	27127
805.341	27138
805.483	27195
805.626	27119
805.768	27165
805.91	27260
806.052	27450
806.194	27355
806.336	27679
806.478	27709
806.62	27603
806.762	28032
806.904	28405
807.046	28793
807.188	28793
807.33	29064
807.472	29539
807.614	29771
807.756	30346
807.898	31027
808.04	31970
808.182	33294
808.324	34748
808.465	36760
808.607	38667
808.749	40470
808.891	41531
809.033	41573
809.174	40478
809.316	38606
809.458	36673
809.6	34371
809.741	32910
809.883	31594
810.025	30977
810.166	30186
810.308	29714
810.45	29280
810.591	28949
810.733	28634
810.875	28325
811.016	28082
811.158	27884
811.299	27964
811.441	27907
811.582	27838
811.724	27652
811.865	27519
812.007	27534
812.148	27401
812.29	27439
812.431	27466
812.573	27644
812.714	27747
812.855	27823
812.997	27679
813.138	27953
813.279	27781
813.421	27717
813.562	27561
813.703	27344
813.845	27321
813.986	26948
814.127	26758
814.268	26674
814.41	26587
814.551	26560
814.692	26609
814.833	26457
814.974	26484
815.115	26514
815.256	26385
815.397	26415
815.539	26248
815.68	26130
815.821	26138
815.962	26271
816.103	26164
816.244	25921
816.385	25936
816.526	25883
816.666	25723
816.807	25613
816.948	25613
817.089	25658
817.23	25472
817.371	25571
817.512	25476
817.653	25362
817.793	25396
817.934	25510
818.075	25438
818.216	25460
818.356	25343
818.497	25247
818.638	25152
818.778	25137
818.919	25259
819.06	25148
819.2	25259
819.341	25335
819.481	25331
819.622	25521
819.762	25696
819.903	25499
820.043	25586
820.184	25460
820.324	25479
820.465	25430
820.605	25384
820.746	25316
820.886	25110
821.026	25259
821.167	25285
821.307	25369
821.447	25240
821.588	25053
821.728	25015
821.868	24802
822.008	24665
822.149	24597
822.289	24544
822.429	24388
822.569	24311
822.709	24251
822.849	24083
822.99	24060
823.13	24053
823.27	24003
823.41	23984
823.55	23775
823.69	23859
823.83	23828
823.97	23741
824.11	23528
824.25	23531
824.389	23554
824.529	23691
824.669	23611
824.809	23608
824.949	23680
825.089	23638
825.228	23600
825.368	23417
825.508	23273
825.648	23452
825.787	23452
825.927	23474
826.067	23307
826.206	23189
826.346	23391
826.485	23277
826.625	23326
826.765	23345
826.904	23417
827.044	23193
827.183	23109
827.323	23022
827.462	23048
827.601	23014
827.741	23048
827.88	23037
828.02	22961
828.159	22949
828.298	23086
828.437	23056
828.577	22850
828.716	23006
828.855	22946
828.994	22694
829.134	22763
829.273	22683
829.412	22713
829.551	22702
829.69	22656
829.829	22691
829.968	22778
830.107	22721
830.246	22569
830.385	22622
830.524	22569
830.663	22417
830.802	22375
830.941	22291
831.08	22196
831.219	22348
831.357	22257
831.496	22546
831.635	22234
831.774	22249
831.913	22196
832.051	22036
832.19	22131
832.329	22192
832.467	21987
832.606	22029
832.744	22116
832.883	22051
833.022	22154
833.16	22162
833.299	22211
833.437	22356
833.576	22489
833.714	22561
833.852	22687
833.991	22630
834.129	22797
834.267	22869
834.406	22588
834.544	22656
834.682	22588
834.821	22443
834.959	22592
835.097	22265
835.235	22295
835.373	22215
835.511	22105
835.65	22059
835.788	22070
835.926	21876
836.064	21667
836.202	21732
836.34	21793
836.478	21846
836.615	21759
836.753	21979
836.891	21770
837.029	21789
837.167	21686
837.305	21682
837.443	21587
837.58	21572
837.718	21698
837.856	21671
837.993	21572
838.131	21720
838.269	21599
838.406	21534
838.544	21408
838.681	21287
838.819	21138
838.956	21131
839.094	21047
839.231	20986
839.369	21154
839.506	21424
839.643	21420
839.781	20956
839.918	20944
840.055	20925
840.193	21001
840.33	20944
840.467	20925
840.604	21093
840.742	21123
840.879	20853
841.016	20880
841.153	20861
841.29	21123
841.427	20975
841.564	21036
841.701	20952
841.838	20845
841.975	20796
842.112	20724
842.249	20750
842.385	20689
842.522	20792
842.659	20762
842.796	20545
842.933	20739
843.069	20678
843.206	20670
843.343	20781
843.479	20773
843.616	20842
843.752	20613
843.889	20739
844.025	20815
844.162	20739
844.298	20979
844.435	20910
844.571	20891
844.708	21131
844.844	21416
844.98	21751
845.117	22070
845.253	22542
845.389	23543
845.525	25632
845.661	29071
845.798	33192
845.934	36627
846.07	37700
846.206	37118
846.342	34451
846.478	30308
846.614	26358
846.75	23912
846.886	22542
847.022	21850
847.158	21218
847.294	20815
847.429	20773
847.565	20587
847.701	20533
847.837	20107
847.972	19913
848.108	19997
848.244	19936
848.379	19765
848.515	19715
848.65	19537
848.786	19731
848.921	19601
849.057	19639
849.192	19666
849.328	19578
849.463	19601
849.598	19495
849.734	19445
849.869	19396
850.004	19377
850.14	19346
850.275	19308
850.41	19274
850.545	19217
850.68	19202
850.815	19392
850.95	19251
851.085	19297
851.22	19457
851.355	19266
851.49	19221
851.625	19365
851.76	19225
851.895	19209
852.03	19171
852.165	19221
852.299	19316
852.434	19392
852.569	19297
852.703	19369
852.838	19453
852.973	19449
853.107	19449
853.242	19415
853.376	19213
853.511	19091
853.645	19141
853.78	19320
853.914	19297
854.048	19346
854.183	19198
854.317	19365
854.451	19601
854.585	19324
854.72	19297
854.854	19476
854.988	19278
855.122	19251
855.256	19198
855.39	19240
855.524	19225
855.658	19126
855.792	19156
855.926	19175
856.06	19145
856.194	19255
856.327	19095
856.461	19034
856.595	19095
856.729	19034
856.862	19240
856.996	19164
857.13	19099
857.263	19213
857.397	19198
857.53	19008
857.664	19080
857.797	19118
857.931	19069
858.064	19103
858.197	19061
858.331	18966
858.464	18939
858.597	18905
858.731	18905
858.864	19000
858.997	18905
859.13	19061
859.263	18962
859.396	19069
859.529	18981
859.662	18905
859.795	18977
859.928	18924
860.061	19065
860.194	19065
860.327	18962
860.46	18924
860.592	18928
860.725	19137
860.858	19050
860.99	18928
861.123	18772
861.256	18905
861.388	18871
861.521	19635
861.653	18821
861.786	18730
861.918	18806
862.05	18859
862.183	18886
862.315	18993
862.447	19122
862.58	18863
862.712	18837
862.844	18692
862.976	18741
863.108	18779
863.24	18932
863.372	18700
863.504	18696
863.636	18703
863.768	18753
863.9	18658
864.032	18589
864.164	18604
864.296	18559
864.428	18715
864.559	18661
864.691	18608
864.823	18635
864.954	18738
865.086	18612
865.217	18604
865.349	18517
865.48	18616
865.612	18509
865.743	18757
865.875	18486
866.006	18566
866.137	18525
866.269	18616
866.4	18441
866.531	18582
866.662	18498
866.793	18563
866.924	18563
867.055	18544
867.186	18525
867.317	18388
867.448	18388
867.579	18479
867.71	18483
867.841	18426
867.972	18608
868.103	18525
868.233	18486
868.364	18467
868.495	18566
868.625	18715
868.756	18768
868.886	18669
869.017	18757
869.147	18798
869.278	18821
869.408	18825
869.539	18749
869.669	18844
869.799	18848
869.929	18970
870.06	18905
870.19	19061
870.32	19061
870.45	19088
870.58	19160
870.71	19339
870.84	19365
870.97	19160
871.1	19255
871.23	19407
871.36	19422
871.489	19228
871.619	19365
871.749	19533
871.879	19457
872.008	19476
872.138	19453
872.267	19430
872.397	19324
872.526	19274
872.656	19324
872.785	19407
872.915	19537
873.044	19472
873.173	19586
873.303	19712
873.432	19537
873.561	19681
873.69	19533
873.819	19712
873.948	19582
874.077	19586
874.206	19723
874.335	19639
874.464	19822
874.593	19974
874.722	19932
874.851	20073
874.979	20020
875.108	20050
875.237	20054
875.365	20058
875.494	20138
875.623	20180
875.751	20145
875.88	20138
876.008	20290
876.136	20408
876.265	20609
876.393	20693
876.521	20670
876.65	20872
876.778	20796
876.906	20819
877.034	20750
877.162	20948
877.29	20777
877.418	20975
877.546	20971
877.674	21112
877.802	21176
877.93	21192
878.058	21405
878.185	21454
878.313	21591
878.441	21812
878.568	21880
878.696	22447
878.824	22843
878.951	23672
879.079	24490
879.206	25898
879.333	26842
879.461	28090
879.588	28873
879.715	29033
879.842	28386
879.97	27123
880.097	25715
880.224	24817
880.351	24018
880.478	23467
880.605	23018
880.732	23052
880.859	23018
880.986	22637
881.112	22531
881.239	22356
881.366	22207
881.493	22196
881.619	22128
881.746	22036
881.872	22162
881.999	22185
882.125	22128
882.252	22219
882.378	22287
882.505	22356
882.631	22253
882.757	22131
882.883	22105
883.01	22040
883.136	22021
883.262	21850
883.388	21892
883.514	22078
883.64	21960
883.766	21899
883.892	21709
884.018	21918
884.143	21949
884.269	22040
884.395	21759
884.52	21694
884.646	21861
884.772	21610
884.897	21591
885.023	21675
885.148	21857
885.274	21842
885.399	21652
885.524	21564
885.65	21485
885.775	21389
885.9	21332
886.025	21355
886.15	21188
886.275	21051
886.4	20872
886.525	20880
886.65	20819
886.775	20731
886.9	20845
887.025	20838
887.149	20583
887.274	20301
887.399	20305
887.523	20237
887.648	20126
887.773	19989
887.897	20092
888.021	20012
888.146	19894
888.27	20081
888.395	20043
888.519	20088
888.643	19947
888.767	19852
888.891	19841
889.015	19605
889.139	19594
889.263	19563
889.387	19765
889.511	19731
889.635	19696
889.759	19472
889.883	19419
890.006	19483
890.13	19556
890.254	19346
890.377	19331
890.501	19046
890.624	19091
890.748	19179
890.871	19160
890.995	18856
891.118	18859
891.241	18886
891.364	18905
891.488	19008
891.611	18844
891.734	18791
891.857	18840
891.98	18776
892.103	18825
892.226	18810
892.349	18688
892.471	18486
892.594	18753
892.717	18715
892.839	18585
892.962	18696
893.085	18654
893.207	18566
893.33	18494
893.452	18475
893.575	18601
893.697	18494
893.819	18700
893.941	18570
894.064	18570
894.186	18330
894.308	18330
894.43	18494
894.552	18460
894.674	18551
894.796	18346
894.918	18407
895.04	18296
895.161	18410
895.283	18464
895.405	18346
895.526	18239
895.648	18300
895.769	18376
895.891	18342
896.012	18433
896.134	18357
896.255	18300
896.376	18232
896.498	18376
896.619	18494
896.74	18388
896.861	18365
896.982	18608
897.103	18700
897.224	18665
897.345	18498
897.466	18551
897.587	18509
897.708	18642
897.828	18540
897.949	18525
898.07	18384
898.19	18517
898.311	18585
898.431	18441
898.552	18388
898.672	18631
898.792	18582
898.913	18566
899.033	18308
899.153	18251
899.273	18091
899.393	18270
899.513	18346
899.633	18350
899.753	18262
899.873	18098
899.993	18372
900.113	18159
900.232	18384
900.352	18277
900.472	18098
900.591	18019
900.711	18060
900.83	18057
900.95	18216
901.069	18194
901.189	18026
901.308	17794
901.427	17608
901.546	17665
901.665	17653
901.784	17649
901.904	17493
902.023	17315
902.141	17212
902.26	17185
902.379	17299
902.498	17166
902.617	17064
902.735	17178
902.854	17094
902.973	17140
903.091	16904
903.21	16816
903.328	16725
903.446	16725
903.565	16634
903.683	16664
903.801	16466
903.919	16577
904.038	16687
904.156	16367
904.274	16352
904.392	16394
904.51	16329
904.627	16352
904.745	16474
904.863	16310
904.981	16025
905.098	16021
905.216	16078
905.334	15934
905.451	16021
905.569	15911
905.686	16010
905.803	15975
905.921	15781
906.038	15857
906.155	15838
906.272	15679
906.389	15656
906.506	15545
906.623	15622
906.74	15469
906.857	15378
906.974	15336
907.091	15545
907.208	15618
907.324	15523
907.441	15405
907.557	15317
907.674	15237
907.79	15180
907.907	15123
908.023	15192
908.139	15154
908.256	15154
908.372	15066
908.488	15043
908.604	15009
908.72	14929
908.836	14963
908.952	14902
909.068	14952
909.184	14960
909.3	14967
909.415	15036
909.531	14925
909.647	14663
909.762	14667
909.878	14583
909.993	14545
910.108	14594
910.224	14648
910.339	14693
910.454	14469
910.57	14427
910.685	14427
910.8	14693
910.915	14533
911.03	14404
911.145	14286
911.259	14145
911.374	14275
911.489	14214
911.604	14149
911.718	14031
911.833	13967
911.947	13849
912.062	13845
912.176	13928
912.291	13967
912.405	13993
912.519	14164
912.633	14088
912.748	14008
912.862	14035
912.976	13826
913.09	13693
913.204	13803
913.318	13761
913.431	13974
913.545	13849
913.659	13932
913.772	13788
913.886	13693
914	13651
914.113	13769
914.226	13700
914.34	13734
914.453	13590
914.566	13742
914.68	13575
914.793	13605
914.906	13419
915.019	13343
915.132	13202
915.245	13221
915.358	13407
915.47	13438
915.583	13358
915.696	13381
915.809	13487
915.921	13476
916.034	13304
916.146	13236
916.259	13308
916.371	13384
916.483	13464
916.595	13259
916.708	13171
916.82	13255
916.932	13236
917.044	13247
917.156	13164
917.268	13168
917.38	13149
917.491	13122
917.603	13149
917.715	13095
917.826	13228
917.938	13004
918.049	12951
918.161	13046
918.272	13240
918.384	13164
918.495	13099
918.606	12741
918.717	12810
918.828	12875
918.939	12852
919.05	12833
919.161	12787
919.272	12574
919.383	12673
919.494	12821
919.604	13015
919.715	12829
919.826	12700
919.936	12798
920.047	12882
920.157	12829
920.267	12962
920.378	12897
920.488	12688
920.598	12894
920.708	13133
920.818	12989
920.928	12981
921.038	13099
921.148	12996
921.258	12719
921.368	12741
921.477	12604
921.587	12585
921.697	12403
921.806	12631
921.916	12372
922.025	12289
922.134	12213
922.244	12243
922.353	12258
922.462	12133
922.571	11984
922.68	11920
922.789	11866
922.898	11920
923.007	11775
923.116	11980
923.224	11813
923.333	11840
923.442	11726
923.55	11714
923.659	11771
923.767	11764
923.876	11642
923.984	11733
924.092	11581
924.201	11710
924.309	11691
924.417	11653
924.525	11581
924.633	11608
924.741	12380
924.849	11360
924.956	11585
925.064	11383
925.172	11334
925.279	11364
925.387	11440
925.494	11387
925.602	11581
925.709	11402
925.816	11296
925.924	11326
926.031	11433
926.138	11387
926.245	11395
926.352	11288
926.459	11349
926.566	11478
926.673	11284
926.779	11239
926.886	11128
926.993	11079
927.099	10946
927.206	10942
927.312	10965
927.419	11094
927.525	11064
927.631	11033
927.737	10850
927.843	10862
927.95	10866
928.056	10866
928.162	10869
928.267	10976
928.373	11406
928.479	10908
928.585	10706
928.69	10854
928.796	10835
928.901	10755
929.007	10516
929.112	10778
929.218	10679
929.323	10668
929.428	10596
929.533	10763
929.638	10599
929.743	10607
929.848	10626
929.953	10546
930.058	10538
930.163	10325
930.267	10352
930.372	10417
930.477	10246
930.581	10565
930.685	10440
930.79	10124
930.894	10287
930.998	10188
931.103	10325
931.207	10071
931.311	9922
931.415	9884
931.519	9686
931.623	9682
