Data from test_V78500241_96.txt Node
Date: Fri Mar 25 14:34:23 CST 2022
User: usil
Spectrometer: V785-0024
Trigger mode: 0
Integration Time (sec): 4.000000E-1
Scans to average: 1
Nonlinearity correction enabled: false
Boxcar width: 0
Storing dark spectrum: false
XAxis mode: Wavelengths
Number of Pixels in Spectrum: 1024
>>>>>Begin Spectral Data<<<<<
801.071	29060
801.214	28862
801.356	28630
801.499	28694
801.641	28447
801.783	28417
801.926	28474
802.068	28512
802.211	28344
802.353	28310
802.496	28093
802.638	28025
802.78	27987
802.923	27968
803.065	27911
803.208	27987
803.35	28070
803.492	28215
803.635	28185
803.777	28090
803.919	28188
804.061	28512
804.204	28078
804.346	28006
804.488	27972
804.63	28086
804.773	28013
804.915	28063
805.057	28219
805.199	28185
805.341	28284
805.483	28207
805.626	28303
805.768	28120
805.91	28303
806.052	28177
806.194	28272
806.336	28405
806.478	28295
806.62	28348
806.762	28417
806.904	28561
807.046	28729
807.188	28824
807.33	28713
807.472	28965
807.614	28866
807.756	28904
807.898	28900
808.04	28938
808.182	29048
808.324	29326
808.465	29741
808.607	29980
808.749	30365
808.891	30650
809.033	30582
809.174	30304
809.316	30026
809.458	29771
809.6	29531
809.741	29497
809.883	29265
810.025	29341
810.166	29246
810.308	29292
810.45	29117
810.591	29041
810.733	28736
810.875	28717
811.016	28649
811.158	28626
811.299	28710
811.441	28820
811.582	28717
811.724	28702
811.865	28630
812.007	28626
812.148	28546
812.29	28474
812.431	28801
812.573	28835
812.714	29098
812.855	29044
812.997	29200
813.138	29204
813.279	29284
813.421	29208
813.562	29067
813.703	28850
813.845	28733
813.986	28512
814.127	28322
814.268	28352
814.41	28230
814.551	28131
814.692	28192
814.833	28101
814.974	28070
815.115	28223
815.256	27983
815.397	27865
815.539	27987
815.68	27816
815.821	27854
815.962	27846
816.103	27846
816.244	27793
816.385	27625
816.526	27595
816.666	27332
816.807	27325
816.948	27325
817.089	27340
817.23	27348
817.371	27249
817.512	27116
817.653	27218
817.793	27165
817.934	27294
818.075	27249
818.216	27180
818.356	27252
818.497	27131
818.638	26899
818.778	27039
818.919	26929
819.06	26788
819.2	27017
819.341	27123
819.481	27112
819.622	27256
819.762	27473
819.903	27454
820.043	27405
820.184	27112
820.324	27237
820.465	27081
820.605	27150
820.746	27135
820.886	27089
821.026	26975
821.167	26986
821.307	26998
821.447	27047
821.588	26979
821.728	26838
821.868	26670
822.008	26533
822.149	26434
822.289	26442
822.429	26157
822.569	26153
822.709	26153
822.849	26050
822.99	26008
823.13	25936
823.27	25944
823.41	25795
823.55	25620
823.69	25658
823.83	25750
823.97	25662
824.11	25563
824.25	25441
824.389	25525
824.529	25514
824.669	25552
824.809	25677
824.949	25571
825.089	25594
825.228	25362
825.368	25373
825.508	25335
825.648	25324
825.787	25377
825.927	25289
826.067	25278
826.206	25293
826.346	25343
826.485	25312
826.625	25312
826.765	25381
826.904	25266
827.044	25133
827.183	25088
827.323	24970
827.462	25107
827.601	25065
827.741	24981
827.88	24905
828.02	24935
828.159	24992
828.298	24985
828.437	25004
828.577	24992
828.716	25050
828.855	24985
828.994	24726
829.134	24585
829.273	24696
829.412	24536
829.551	24589
829.69	24582
829.829	24677
829.968	24719
830.107	24715
830.246	24650
830.385	24544
830.524	24566
830.663	24376
830.802	24384
830.941	24148
831.08	24163
831.219	24357
831.357	24357
831.496	24414
831.635	24133
831.774	24015
831.913	24053
832.051	23912
832.19	24022
832.329	23980
832.467	23927
832.606	23836
832.744	23813
832.883	23821
833.022	23802
833.16	23859
833.299	23923
833.437	23863
833.576	23775
833.714	23904
833.852	24129
833.991	23908
834.129	23969
834.267	23920
834.406	23889
834.544	23870
834.682	23904
834.821	23851
834.959	23912
835.097	23832
835.235	23817
835.373	23680
835.511	23737
835.65	23638
835.788	23676
835.926	23558
836.064	23341
836.202	23520
836.34	23672
836.478	23668
836.615	23653
836.753	23577
836.891	23752
837.029	23722
837.167	23452
837.305	23482
837.443	23509
837.58	23414
837.718	23531
837.856	23467
837.993	23474
838.131	23376
838.269	23322
838.406	23364
838.544	23368
838.681	23067
838.819	23083
838.956	22911
839.094	22900
839.231	22839
839.369	23025
839.506	23189
839.643	23166
839.781	22752
839.918	22740
840.055	22771
840.193	22869
840.33	22752
840.467	22767
840.604	22702
840.742	22961
840.879	22611
841.016	22599
841.153	22531
841.29	22835
841.427	22710
841.564	22698
841.701	22580
841.838	22634
841.975	22569
842.112	22394
842.249	22561
842.385	22508
842.522	22645
842.659	22413
842.796	22550
842.933	22504
843.069	22337
843.206	22363
843.343	22333
843.479	22356
843.616	22421
843.752	22287
843.889	22318
844.025	22402
844.162	22139
844.298	22200
844.435	22322
844.571	22242
844.708	22276
844.844	22310
844.98	22386
845.117	22382
845.253	22394
845.389	22428
845.525	22721
845.661	23003
845.798	23459
845.934	23912
846.07	24098
846.206	23946
846.342	23798
846.478	23208
846.614	22580
846.75	22112
846.886	22044
847.022	21903
847.158	21854
847.294	21583
847.429	21717
847.565	21622
847.701	21937
847.837	21416
847.972	21424
848.108	21332
848.244	21420
848.379	21378
848.515	21165
848.65	21154
848.786	21100
848.921	21146
849.057	21260
849.192	21230
849.328	21138
849.463	21275
849.598	21001
849.734	21017
849.869	21043
850.004	20906
850.14	20819
850.275	20800
850.41	20788
850.545	20853
850.68	20887
850.815	20982
850.95	20781
851.085	20925
851.22	20918
851.355	20845
851.49	20883
851.625	20933
851.76	20823
851.895	20815
852.03	20708
852.165	20845
852.299	20910
852.434	20910
852.569	20849
852.703	20914
852.838	20800
852.973	20994
853.107	20925
853.242	20773
853.376	20659
853.511	20556
853.645	20541
853.78	20819
853.914	20537
854.048	20697
854.183	20594
854.317	20686
854.451	20941
854.585	20674
854.72	20632
854.854	20762
854.988	20655
855.122	20629
855.256	20564
855.39	20629
855.524	20686
855.658	20708
855.792	20648
855.926	20640
856.06	20712
856.194	20838
856.327	20545
856.461	20541
856.595	20571
856.729	20568
856.862	20724
856.996	20632
857.13	20587
857.263	20758
857.397	20659
857.53	20556
857.664	20602
857.797	20609
857.931	20746
858.064	20705
858.197	20739
858.331	20617
858.464	20454
858.597	20328
858.731	20530
858.864	20587
858.997	20511
859.13	20571
859.263	20606
859.396	20636
859.529	20526
859.662	20552
859.795	20438
859.928	20545
860.061	20693
860.194	20731
860.327	20492
860.46	20545
860.592	20644
860.725	20606
860.858	20682
860.99	20503
861.123	20503
861.256	20454
861.388	20556
861.521	21207
861.653	20358
861.786	20408
861.918	20355
862.05	20434
862.183	20674
862.315	20541
862.447	20659
862.58	20644
862.712	20240
862.844	20263
862.976	20324
863.108	20355
863.24	20655
863.372	20210
863.504	20252
863.636	20256
863.768	20282
863.9	20244
864.032	20172
864.164	20214
864.296	20195
864.428	20381
864.559	20259
864.691	20130
864.823	20115
864.954	20168
865.086	20225
865.217	20176
865.349	19974
865.48	20088
865.612	20069
865.743	20210
865.875	20168
866.006	20046
866.137	20126
866.269	20107
866.4	20073
866.531	20100
866.662	20016
866.793	20050
866.924	20126
867.055	20050
867.186	20069
867.317	20024
867.448	20039
867.579	19993
867.71	19970
867.841	19951
867.972	19997
868.103	20024
868.233	20046
868.364	20035
868.495	20233
868.625	20221
868.756	20374
868.886	20157
869.017	20271
869.147	20324
869.278	20377
869.408	20248
869.539	20248
869.669	20320
869.799	20275
869.929	20347
870.06	20423
870.19	20583
870.32	20602
870.45	20750
870.58	20632
870.71	20606
870.84	20788
870.97	20682
871.1	20785
871.23	20834
871.36	20777
871.489	20769
871.619	20811
871.749	20941
871.879	20979
872.008	20868
872.138	20948
872.267	20815
872.397	20815
872.526	20712
872.656	20746
872.785	20735
872.915	20807
873.044	20914
873.173	20838
873.303	21051
873.432	20990
873.561	20952
873.69	20960
873.819	20986
873.948	21089
874.077	21001
874.206	20971
874.335	21020
874.464	21066
874.593	21123
874.722	21104
874.851	21325
874.979	21249
875.108	21222
875.237	21214
875.365	21077
875.494	21169
875.623	21291
875.751	21211
875.88	21306
876.008	21405
876.136	21344
876.265	21679
876.393	21736
876.521	21705
876.65	21629
876.778	21713
876.906	21466
877.034	21622
877.162	21519
877.29	21614
877.418	21656
877.546	21622
877.674	21599
877.802	21633
877.93	21778
878.058	21652
878.185	21587
878.313	21679
878.441	21766
878.568	21591
878.696	21660
878.824	21884
878.951	21987
879.079	22356
879.206	22538
879.333	22428
879.461	22538
879.588	22592
879.715	22767
879.842	22778
879.97	22386
880.097	22112
880.224	21975
880.351	21762
880.478	21785
880.605	21656
880.732	21667
880.859	21956
880.986	21808
881.112	21675
881.239	21496
881.366	21545
881.493	21332
881.619	21389
881.746	21462
881.872	21310
881.999	21268
882.125	21237
882.252	21382
882.378	21249
882.505	21405
882.631	21256
882.757	21070
882.883	21116
883.01	21066
883.136	20971
883.262	20933
883.388	20823
883.514	21017
883.64	21096
883.766	20929
883.892	20823
884.018	20845
884.143	20941
884.269	21108
884.395	20659
884.52	20689
884.646	20701
884.772	20625
884.897	20686
885.023	20792
885.148	20826
885.274	20918
885.399	20613
885.524	20598
885.65	20682
885.775	20632
885.9	20587
886.025	20807
886.15	20720
886.275	20465
886.4	20454
886.525	20568
886.65	20530
886.775	20526
886.9	20579
887.025	20705
887.149	20423
887.274	20355
887.399	20305
887.523	20298
887.648	20164
887.773	20168
887.897	20263
888.021	20256
888.146	19997
888.27	20362
888.395	20305
888.519	20244
888.643	20157
888.767	20176
888.891	20149
889.015	20043
889.139	20126
889.263	19917
889.387	20035
889.511	20142
889.635	20065
889.759	19868
889.883	19879
890.006	19887
890.13	20024
890.254	19757
890.377	19841
890.501	19647
890.624	19700
890.748	19803
890.871	19647
890.995	19590
891.118	19445
891.241	19639
891.364	19628
891.488	19624
891.611	19582
891.734	19476
891.857	19575
891.98	19620
892.103	19575
892.226	19426
892.349	19365
892.471	19282
892.594	19441
892.717	19422
892.839	19327
892.962	19373
893.085	19457
893.207	19411
893.33	19255
893.452	19263
893.575	19502
893.697	19339
893.819	19472
893.941	19502
894.064	19495
894.186	19377
894.308	19381
894.43	19476
894.552	19377
894.674	19586
894.796	19285
894.918	19362
895.04	19384
895.161	19259
895.283	19396
895.405	19392
895.526	19460
895.648	19255
895.769	19381
895.891	19369
896.012	19434
896.134	19518
896.255	19396
896.376	19411
896.498	19373
896.619	19483
896.74	19403
896.861	19476
896.982	19795
897.103	19902
897.224	19700
897.345	19715
897.466	19567
897.587	19643
897.708	19662
897.828	19708
897.949	19620
898.07	19422
898.19	19666
898.311	19723
898.431	19559
898.552	19662
898.672	19746
898.792	19734
898.913	19586
899.033	19537
899.153	19434
899.273	19324
899.393	19392
899.513	19468
899.633	19384
899.753	19457
899.873	19369
899.993	19449
900.113	19289
900.232	19426
900.352	19350
900.472	19251
900.591	19088
900.711	19129
900.83	19179
900.95	19255
901.069	19175
901.189	19031
901.308	18863
901.427	18829
901.546	18707
901.665	18814
901.784	18901
901.904	18642
902.023	18486
902.141	18285
902.26	18361
902.379	18334
902.498	18262
902.617	18235
902.735	18213
902.854	18270
902.973	18178
903.091	17878
903.21	17935
903.328	17870
903.446	17748
903.565	17691
903.683	17843
903.801	17623
903.919	17771
904.038	17684
904.156	17558
904.274	17600
904.392	17577
904.51	17455
904.627	17463
904.745	17524
904.863	17482
904.981	17315
905.098	17071
905.216	16999
905.334	17136
905.451	16957
905.569	17098
905.686	17162
905.803	17037
905.921	16854
906.038	17018
906.155	16873
906.272	16691
906.389	16885
906.506	16710
906.623	16710
906.74	16618
906.857	16470
906.974	16546
907.091	16683
907.208	16664
907.324	16615
907.441	16493
907.557	16367
907.674	16253
907.79	16223
907.907	16223
908.023	16329
908.139	16367
908.256	16382
908.372	16242
908.488	16215
908.604	15975
908.72	16048
908.836	16055
908.952	15998
909.068	15956
909.184	16090
909.3	15991
909.415	15979
909.531	15979
909.647	15766
909.762	15652
909.878	15671
909.993	15641
910.108	15660
910.224	15675
910.339	15553
910.454	15606
910.57	15374
910.685	15416
910.8	15709
910.915	15686
911.03	15488
911.145	15306
911.259	15268
911.374	15443
911.489	15233
911.604	15214
911.718	15097
911.833	15135
911.947	14853
912.062	14807
912.176	15009
912.291	15032
912.405	15108
912.519	15093
912.633	15184
912.748	15051
912.862	15005
912.976	14826
913.09	14785
913.204	14830
913.318	14819
913.431	14925
913.545	14925
913.659	14933
913.772	14765
913.886	14724
914	14663
914.113	14773
914.226	14792
914.34	14735
914.453	14522
914.566	14727
914.68	14674
914.793	14488
914.906	14404
915.019	14233
915.132	14282
915.245	14275
915.358	14343
915.47	14248
915.583	14404
915.696	14385
915.809	14408
915.921	14461
916.034	14237
916.146	14202
916.259	14103
916.371	14313
916.483	14195
916.595	14111
916.708	14073
916.82	14084
916.932	14043
917.044	14164
917.156	14020
917.268	13970
917.38	14096
917.491	14031
917.603	14039
917.715	14050
917.826	14024
917.938	14046
918.049	13776
918.161	13845
918.272	13963
918.384	13974
918.495	13871
918.606	13822
918.717	13715
918.828	13746
918.939	13784
919.05	13670
919.161	13753
919.272	13457
919.383	13510
919.494	13658
919.604	13974
919.715	13712
919.826	13594
919.936	13601
920.047	13772
920.157	13708
920.267	13833
920.378	13700
920.488	13597
920.598	13906
920.708	13963
920.818	13799
920.928	13772
921.038	13906
921.148	13955
921.258	13609
921.368	13540
921.477	13529
921.587	13460
921.697	13293
921.806	13426
921.916	13285
922.025	13202
922.134	13046
922.244	12928
922.353	13141
922.462	12981
922.571	12882
922.68	12662
922.789	12791
922.898	12749
923.007	12677
923.116	12696
923.224	12715
923.333	12681
923.442	12559
923.55	12589
923.659	12551
923.767	12654
923.876	12464
923.984	12566
924.092	12357
924.201	12395
924.309	12437
924.417	12490
924.525	12456
924.633	12460
924.741	13339
924.849	12228
924.956	12308
925.064	12117
925.172	12155
925.279	12121
925.387	12175
925.494	12136
925.602	12338
925.709	12197
925.816	11977
925.924	12098
926.031	12285
926.138	12117
926.245	12167
926.352	12060
926.459	12163
926.566	12270
926.673	11965
926.779	11999
926.886	11935
926.993	11832
927.099	11802
927.206	11733
927.312	11745
927.419	11691
927.525	11786
927.631	11817
927.737	11695
927.843	11589
927.95	11505
928.056	11577
928.162	11581
928.267	11562
928.373	12083
928.479	11634
928.585	11440
928.69	11497
928.796	11604
928.901	11395
929.007	11269
929.112	11459
929.218	11478
929.323	11395
929.428	11330
929.533	11414
929.638	11303
929.743	11284
929.848	11303
929.953	11269
930.058	11231
930.163	10949
930.267	11075
930.372	11109
930.477	10976
930.581	11117
930.685	11033
930.79	10927
930.894	10850
930.998	10847
931.103	11086
931.207	10694
931.311	10618
931.415	10550
931.519	10329
931.623	10284
