Data from test_V78500241_2465.txt Node
Date: Fri Mar 25 14:50:52 CST 2022
User: usil
Spectrometer: V785-0024
Trigger mode: 0
Integration Time (sec): 4.000000E-1
Scans to average: 1
Nonlinearity correction enabled: false
Boxcar width: 0
Storing dark spectrum: false
XAxis mode: Wavelengths
Number of Pixels in Spectrum: 1024
>>>>>Begin Spectral Data<<<<<
801.071	22078
801.214	21861
801.356	21720
801.499	21603
801.641	21511
801.783	21462
801.926	21420
802.068	21359
802.211	21218
802.353	21306
802.496	21047
802.638	20982
802.78	20933
802.923	20815
803.065	20739
803.208	20876
803.35	20811
803.492	20891
803.635	20876
803.777	20769
803.919	20883
804.061	21001
804.204	20853
804.346	20712
804.488	20590
804.63	20746
804.773	20655
804.915	20746
805.057	20697
805.199	20583
805.341	20743
805.483	20906
805.626	20823
805.768	20670
805.91	20648
806.052	20788
806.194	20655
806.336	20849
806.478	20708
806.62	20659
806.762	20758
806.904	20914
807.046	21173
807.188	21108
807.33	20975
807.472	21131
807.614	20933
807.756	20914
807.898	20815
808.04	20583
808.182	20864
808.324	20815
808.465	20830
808.607	20891
808.749	21116
808.891	21245
809.033	21294
809.174	21188
809.316	21047
809.458	21100
809.6	20899
809.741	21203
809.883	21081
810.025	21256
810.166	21245
810.308	21161
810.45	21093
810.591	21192
810.733	20971
810.875	20842
811.016	20693
811.158	20674
811.299	20887
811.441	20975
811.582	21005
811.724	20826
811.865	20830
812.007	20857
812.148	20899
812.29	20883
812.431	20956
812.573	21192
812.714	21252
812.855	21439
812.997	21416
813.138	21542
813.279	21443
813.421	21405
813.562	21199
813.703	21066
813.845	21070
813.986	20750
814.127	20454
814.268	20290
814.41	20457
814.551	20526
814.692	20473
814.833	20271
814.974	20412
815.115	20362
815.256	20221
815.397	20256
815.539	20267
815.68	20054
815.821	20069
815.962	20195
816.103	19989
816.244	19944
816.385	19928
816.526	19841
816.666	19769
816.807	19499
816.948	19605
817.089	19738
817.23	19620
817.371	19491
817.512	19441
817.653	19453
817.793	19438
817.934	19499
818.075	19476
818.216	19502
818.356	19457
818.497	19362
818.638	19107
818.778	19179
818.919	19190
819.06	19225
819.2	19320
819.341	19365
819.481	19419
819.622	19468
819.762	19791
819.903	19647
820.043	19613
820.184	19472
820.324	19556
820.465	19480
820.605	19563
820.746	19438
820.886	19396
821.026	19491
821.167	19487
821.307	19472
821.447	19491
821.588	19289
821.728	19259
821.868	19050
822.008	18943
822.149	18894
822.289	18871
822.429	18688
822.569	18654
822.709	18612
822.849	18437
822.99	18380
823.13	18391
823.27	18388
823.41	18228
823.55	18140
823.69	18136
823.83	18140
823.97	18194
824.11	18019
824.25	17984
824.389	17897
824.529	17980
824.669	18045
824.809	18011
824.949	18057
825.089	18030
825.228	17973
825.368	17745
825.508	17824
825.648	17813
825.787	17745
825.927	17794
826.067	17760
826.206	17623
826.346	17824
826.485	17760
826.625	17718
826.765	17863
826.904	17756
827.044	17535
827.183	17566
827.323	17395
827.462	17493
827.601	17376
827.741	17440
827.88	17440
828.02	17326
828.159	17463
828.298	17505
828.437	17558
828.577	17372
828.716	17547
828.855	17452
828.994	17280
829.134	17128
829.273	17296
829.412	17143
829.551	17124
829.69	17223
829.829	17151
829.968	17288
830.107	17265
830.246	17315
830.385	17090
830.524	17128
830.663	16995
830.802	16919
830.941	16763
831.08	16839
831.219	16904
831.357	16892
831.496	17041
831.635	16866
831.774	16721
831.913	16782
832.051	16607
832.19	16653
832.329	16588
832.467	16470
832.606	16497
832.744	16508
832.883	16535
833.022	16565
833.16	16527
833.299	16569
833.437	16504
833.576	16565
833.714	16542
833.852	16516
833.991	16729
834.129	16535
834.267	16569
834.406	16538
834.544	16622
834.682	16535
834.821	16618
834.959	16774
835.097	16428
835.235	16649
835.373	16691
835.511	16470
835.65	16398
835.788	16382
835.926	16318
836.064	16211
836.202	16238
836.34	16573
836.478	16546
836.615	16512
836.753	16329
836.891	16580
837.029	16500
837.167	16440
837.305	16432
837.443	16367
837.58	16306
837.718	16405
837.856	16272
837.993	16242
838.131	16303
838.269	16169
838.406	16249
838.544	16143
838.681	15964
838.819	15968
838.956	15835
839.094	15823
839.231	15987
839.369	16067
839.506	16318
839.643	16120
839.781	15850
839.918	15759
840.055	15915
840.193	15743
840.33	15819
840.467	15842
840.604	15918
840.742	16131
840.879	15762
841.016	15785
841.153	15679
841.29	15964
841.427	15956
841.564	15949
841.701	15808
841.838	15785
841.975	15823
842.112	15819
842.249	15622
842.385	15599
842.522	15770
842.659	15542
842.796	15568
842.933	15610
843.069	15679
843.206	15553
843.343	15842
843.479	15720
843.616	15743
843.752	15443
843.889	15428
844.025	15580
844.162	15367
844.298	15557
844.435	15431
844.571	15420
844.708	15458
844.844	15625
844.98	15663
845.117	15542
845.253	15359
845.389	15268
845.525	15405
845.661	15393
845.798	15302
845.934	15321
846.07	15165
846.206	15302
846.342	15351
846.478	15291
846.614	15131
846.75	15017
846.886	14963
847.022	15100
847.158	14994
847.294	15009
847.429	15024
847.565	15020
847.701	15359
847.837	14785
847.972	14800
848.108	14834
848.244	14819
848.379	14712
848.515	14590
848.65	14594
848.786	14670
848.921	14598
849.057	14701
849.192	14720
849.328	14648
849.463	14636
849.598	14533
849.734	14511
849.869	14484
850.004	14434
850.14	14400
850.275	14389
850.41	14305
850.545	14317
850.68	14336
850.815	14393
850.95	14362
851.085	14579
851.22	14442
851.355	14294
851.49	14370
851.625	14355
851.76	14358
851.895	14351
852.03	14218
852.165	14313
852.299	14412
852.434	14480
852.569	14362
852.703	14366
852.838	14514
852.973	14564
853.107	14427
853.242	14355
853.376	14343
853.511	14130
853.645	14161
853.78	14393
853.914	14313
854.048	14294
854.183	14214
854.317	14225
854.451	14419
854.585	14278
854.72	14157
854.854	14256
854.988	14161
855.122	14271
855.256	14183
855.39	14206
855.524	14237
855.658	14332
855.792	14298
855.926	14259
856.06	14275
856.194	14294
856.327	14294
856.461	14202
856.595	14153
856.729	14183
856.862	14256
856.996	14199
857.13	14259
857.263	14355
857.397	14358
857.53	14286
857.664	14351
857.797	14282
857.931	14377
858.064	14210
858.197	14328
858.331	14256
858.464	14221
858.597	14149
858.731	14275
858.864	14256
858.997	14168
859.13	14237
859.263	14225
859.396	14347
859.529	14237
859.662	14210
859.795	14237
859.928	14389
860.061	14282
860.194	14389
860.327	14267
860.46	14248
860.592	14320
860.725	14294
860.858	14526
860.99	14237
861.123	14111
861.256	14172
861.388	14294
861.521	14826
861.653	14161
861.786	14134
861.918	14191
862.05	14202
862.183	14161
862.315	14183
862.447	14271
862.58	14161
862.712	14024
862.844	14001
862.976	14183
863.108	14031
863.24	14381
863.372	14039
863.504	14016
863.636	14081
863.768	14062
863.9	14008
864.032	13951
864.164	14005
864.296	14069
864.428	14172
864.559	14103
864.691	14119
864.823	14119
864.954	14008
865.086	14103
865.217	14119
865.349	14005
865.48	14039
865.612	14073
865.743	14237
865.875	14073
866.006	13955
866.137	13986
866.269	14092
866.4	13986
866.531	14073
866.662	13959
866.793	13928
866.924	14058
867.055	14031
867.186	14027
867.317	14016
867.448	13951
867.579	13970
867.71	13970
867.841	14012
867.972	14058
868.103	14039
868.233	14005
868.364	14031
868.495	14073
868.625	14195
868.756	14290
868.886	14115
869.017	14252
869.147	14339
869.278	14374
869.408	14393
869.539	14259
869.669	14381
869.799	14351
869.929	14423
870.06	14332
870.19	14564
870.32	14636
870.45	14583
870.58	14754
870.71	14743
870.84	14762
870.97	14697
871.1	14602
871.23	14876
871.36	14857
871.489	14823
871.619	14788
871.749	14891
871.879	14883
872.008	14963
872.138	14864
872.267	14872
872.397	14758
872.526	14659
872.656	14689
872.785	14705
872.915	14792
873.044	15070
873.173	14975
873.303	14971
873.432	14941
873.561	14960
873.69	14952
873.819	14933
873.948	15047
874.077	14921
874.206	14887
874.335	14967
874.464	15074
874.593	15184
874.722	15146
874.851	15298
874.979	15321
875.108	15230
875.237	15116
875.365	15058
875.494	15203
875.623	15287
875.751	15245
875.88	15245
876.008	15389
876.136	15485
876.265	15660
876.393	15770
876.521	15778
876.65	15682
876.778	15599
876.906	15587
877.034	15564
877.162	15587
877.29	15618
877.418	15564
877.546	15709
877.674	15637
877.802	15759
877.93	15587
878.058	15637
878.185	15485
878.313	15549
878.441	15762
878.568	15542
878.696	15641
878.824	15641
878.951	15743
879.079	15899
879.206	15956
879.333	15808
879.461	15800
879.588	15701
879.715	15838
879.842	15857
879.97	15652
880.097	15389
880.224	15481
880.351	15500
880.478	15443
880.605	15564
880.732	15504
880.859	15686
880.986	15542
881.112	15530
881.239	15374
881.366	15207
881.493	15180
881.619	15058
881.746	15249
881.872	15214
881.999	15161
882.125	15127
882.252	15272
882.378	15131
882.505	15332
882.631	15055
882.757	14937
882.883	15013
883.01	14998
883.136	14941
883.262	14868
883.388	14762
883.514	14982
883.64	15062
883.766	14785
883.892	14785
884.018	14880
884.143	14990
884.269	14975
884.395	14754
884.52	14629
884.646	14811
884.772	14579
884.897	14587
885.023	14674
885.148	14781
885.274	14857
885.399	14807
885.524	14682
885.65	14632
885.775	14716
885.9	14640
886.025	14773
886.15	14792
886.275	14590
886.4	14621
886.525	14507
886.65	14667
886.775	14594
886.9	14819
887.025	14861
887.149	14651
887.274	14587
887.399	14480
887.523	14469
887.648	14492
887.773	14412
887.897	14503
888.021	14533
888.146	14473
888.27	14564
888.395	14583
888.519	14556
888.643	14552
888.767	14564
888.891	14457
889.015	14275
889.139	14454
889.263	14328
889.387	14495
889.511	14606
889.635	14583
889.759	14408
889.883	14374
890.006	14427
890.13	14454
890.254	14362
890.377	14339
890.501	14103
890.624	14134
890.748	14286
890.871	14103
890.995	14031
891.118	14119
891.241	14157
891.364	14027
891.488	14134
891.611	14058
891.734	14062
891.857	14092
891.98	14043
892.103	14263
892.226	14115
892.349	14111
892.471	13902
892.594	14092
892.717	14058
892.839	14111
892.962	14092
893.085	14195
893.207	14130
893.33	13993
893.452	13978
893.575	14092
893.697	13989
893.819	14240
893.941	14298
894.064	14225
894.186	14145
894.308	14115
894.43	14157
894.552	14313
894.674	14286
894.796	14001
894.918	14054
895.04	14138
895.161	14202
895.283	14134
895.405	14081
895.526	14267
895.648	14221
895.769	14244
895.891	14214
896.012	14275
896.134	14263
896.255	14271
896.376	14195
896.498	14248
896.619	14240
896.74	14149
896.861	14442
896.982	14651
897.103	14689
897.224	14499
897.345	14495
897.466	14419
897.587	14492
897.708	14594
897.828	14617
897.949	14438
898.07	14294
898.19	14537
898.311	14636
898.431	14526
898.552	14636
898.672	14708
898.792	14629
898.913	14625
899.033	14533
899.153	14431
899.273	14412
899.393	14434
899.513	14522
899.633	14393
899.753	14454
899.873	14412
899.993	14454
900.113	14484
900.232	14495
900.352	14351
900.472	14336
900.591	14271
900.711	14355
900.83	14187
900.95	14415
901.069	14438
901.189	14332
901.308	14046
901.427	13989
901.546	14031
901.665	14050
901.784	14073
901.904	13875
902.023	13780
902.141	13582
902.26	13590
902.379	13639
902.498	13495
902.617	13537
902.735	13590
902.854	13601
902.973	13491
903.091	13304
903.21	13339
903.328	13377
903.446	13221
903.565	13099
903.683	13187
903.801	13099
903.919	13076
904.038	13152
904.156	12977
904.274	13004
904.392	12993
904.51	12935
904.627	12943
904.745	12989
904.863	13000
904.981	12760
905.098	12570
905.216	12677
905.334	12677
905.451	12711
905.569	12692
905.686	12662
905.803	12700
905.921	12410
906.038	12589
906.155	12532
906.272	12384
906.389	12353
906.506	12273
906.623	12163
906.74	12220
906.857	12102
906.974	12163
907.091	12342
907.208	12369
907.324	12201
907.441	12167
907.557	11946
907.674	12034
907.79	11855
907.907	11870
908.023	12057
908.139	12007
908.256	11855
908.372	11908
908.488	11836
908.604	11764
908.72	11623
908.836	11710
908.952	11798
909.068	11680
909.184	11817
909.3	11840
909.415	11863
909.531	11752
909.647	11547
909.762	11497
909.878	11573
909.993	11554
910.108	11459
910.224	11474
910.339	11501
910.454	11376
910.57	11349
910.685	11254
910.8	11600
910.915	11516
911.03	11417
911.145	11223
911.259	11189
911.374	11162
911.489	11143
911.604	11117
911.718	11018
911.833	10953
911.947	10858
912.062	10778
912.176	10930
912.291	10980
912.405	10987
912.519	11086
912.633	11174
912.748	11147
912.862	10896
912.976	10850
913.09	10786
913.204	10854
913.318	10843
913.431	10991
913.545	10991
913.659	10927
913.772	10900
913.886	10694
914	10714
914.113	10809
914.226	10820
914.34	10748
914.453	10615
914.566	10828
914.68	10618
914.793	10618
914.906	10523
915.019	10428
915.132	10440
915.245	10409
915.358	10421
915.47	10596
915.583	10462
915.696	10459
915.809	10611
915.921	10683
916.034	10424
916.146	10367
916.259	10451
916.371	10500
916.483	10470
916.595	10424
916.708	10394
916.82	10413
916.932	10322
917.044	10405
917.156	10344
917.268	10287
917.38	10291
917.491	10280
917.603	10325
917.715	10405
917.826	10386
917.938	10310
918.049	10284
918.161	10276
918.272	10481
918.384	10447
918.495	10341
918.606	10166
918.717	10150
918.828	10242
918.939	10265
919.05	10116
919.161	10158
919.272	9915
919.383	10010
919.494	10306
919.604	10474
919.715	10268
919.826	10147
919.936	10230
920.047	10284
920.157	10131
920.267	10402
920.378	10287
920.488	10181
920.598	10421
920.708	10546
920.818	10398
920.928	10371
921.038	10634
921.148	10481
921.258	10238
921.368	10150
921.477	10135
921.587	10067
921.697	9972
921.806	10051
921.916	9911
922.025	9831
922.134	9732
922.244	9694
922.353	9785
922.462	9656
922.571	9618
922.68	9439
922.789	9397
922.898	9450
923.007	9355
923.116	9485
923.224	9412
923.333	9389
923.442	9306
923.55	9329
923.659	9412
923.767	9469
923.876	9291
923.984	9355
924.092	9245
924.201	9355
924.309	9272
924.417	9374
924.525	9264
924.633	9275
924.741	10051
924.849	9089
924.956	9222
925.064	9036
925.172	8952
925.279	9070
925.387	9104
925.494	9123
925.602	9226
925.709	9161
925.816	9032
925.924	9077
926.031	9207
926.138	9142
926.245	9104
926.352	9047
926.459	9218
926.566	9188
926.673	9089
926.779	8982
926.886	8937
926.993	8861
927.099	8830
927.206	8796
927.312	8788
927.419	8941
927.525	8804
927.631	8800
927.737	8746
927.843	8731
927.95	8705
928.056	8750
928.162	8640
928.267	8735
928.373	9367
928.479	8819
928.585	8533
928.69	8705
928.796	8743
928.901	8613
929.007	8450
929.112	8651
929.218	8629
929.323	8556
929.428	8549
929.533	8678
929.638	8511
929.743	8541
929.848	8617
929.953	8514
930.058	8396
930.163	8229
930.267	8290
930.372	8457
930.477	8294
930.581	8503
930.685	8362
930.79	8225
930.894	8324
930.998	8229
931.103	8393
931.207	8043
931.311	8043
931.415	7921
931.519	7792
931.623	7757
