Data from test_V78500241_1385.txt Node
Date: Fri Mar 25 14:43:21 CST 2022
User: usil
Spectrometer: V785-0024
Trigger mode: 0
Integration Time (sec): 4.000000E-1
Scans to average: 1
Nonlinearity correction enabled: false
Boxcar width: 0
Storing dark spectrum: false
XAxis mode: Wavelengths
Number of Pixels in Spectrum: 1024
>>>>>Begin Spectral Data<<<<<
801.071	22432
801.214	22337
801.356	22040
801.499	22006
801.641	21797
801.783	21736
801.926	21785
802.068	21835
802.211	21625
802.353	21561
802.496	21408
802.638	21249
802.78	21249
802.923	21222
803.065	21222
803.208	21157
803.35	21085
803.492	21249
803.635	21291
803.777	20948
803.919	21249
804.061	21530
804.204	21036
804.346	21135
804.488	21116
804.63	21154
804.773	20994
804.915	21116
805.057	21237
805.199	21112
805.341	21165
805.483	21138
805.626	21233
805.768	21024
805.91	21024
806.052	21077
806.194	20921
806.336	21096
806.478	21036
806.62	20952
806.762	21173
806.904	21154
807.046	21572
807.188	21530
807.33	21443
807.472	21458
807.614	21291
807.756	21389
807.898	21275
808.04	21256
808.182	21211
808.324	21268
808.465	21374
808.607	21660
808.749	21709
808.891	21911
809.033	21739
809.174	21701
809.316	21686
809.458	21603
809.6	21496
809.741	21629
809.883	21587
810.025	21671
810.166	21720
810.308	21705
810.45	21625
810.591	21542
810.733	21226
810.875	21294
811.016	21173
811.158	21108
811.299	21344
811.441	21321
811.582	21382
811.724	21161
811.865	21211
812.007	21272
812.148	21279
812.29	21279
812.431	21264
812.573	21523
812.714	21728
812.855	21648
812.997	21713
813.138	21937
813.279	21884
813.421	21747
813.562	21637
813.703	21530
813.845	21344
813.986	21085
814.127	20948
814.268	20773
814.41	20754
814.551	20781
814.692	20769
814.833	20678
814.974	20765
815.115	20720
815.256	20552
815.397	20617
815.539	20648
815.68	20511
815.821	20393
815.962	20495
816.103	20518
816.244	20366
816.385	20202
816.526	20267
816.666	20039
816.807	19947
816.948	20073
817.089	20103
817.23	19963
817.371	19875
817.512	20008
817.653	19967
817.793	19776
817.934	19875
818.075	19879
818.216	19906
818.356	19917
818.497	19681
818.638	19563
818.778	19632
818.919	19658
819.06	19563
819.2	19727
819.341	19734
819.481	19849
819.622	19982
819.762	20081
819.903	20077
820.043	19940
820.184	19852
820.324	19986
820.465	19951
820.605	20012
820.746	19936
820.886	19803
821.026	19791
821.167	19875
821.307	19883
821.447	19875
821.588	19753
821.728	19559
821.868	19476
822.008	19316
822.149	19232
822.289	19339
822.429	19050
822.569	19091
822.709	19023
822.849	18783
822.99	18856
823.13	18897
823.27	18787
823.41	18593
823.55	18547
823.69	18513
823.83	18654
823.97	18483
824.11	18467
824.25	18353
824.389	18308
824.529	18483
824.669	18422
824.809	18467
824.949	18479
825.089	18357
825.228	18273
825.368	18129
825.508	18365
825.648	18174
825.787	18289
825.927	18342
826.067	18102
826.206	18216
826.346	18171
826.485	18205
826.625	18038
826.765	18270
826.904	18174
827.044	17912
827.183	17882
827.323	17832
827.462	17954
827.601	17790
827.741	17790
827.88	17965
828.02	17684
828.159	17863
828.298	17710
828.437	17923
828.577	17767
828.716	17984
828.855	17707
828.994	17589
829.134	17611
829.273	17661
829.412	17562
829.551	17608
829.69	17684
829.829	17619
829.968	17573
830.107	17596
830.246	17653
830.385	17589
830.524	17524
830.663	17372
830.802	17391
830.941	17128
831.08	17178
831.219	17356
831.357	17299
831.496	17429
831.635	17280
831.774	17132
831.913	17048
832.051	16896
832.19	17086
832.329	17064
832.467	17022
832.606	16900
832.744	16778
832.883	16904
833.022	16968
833.16	16987
833.299	16987
833.437	16915
833.576	17048
833.714	16968
833.852	17113
833.991	17037
834.129	17102
834.267	17041
834.406	16942
834.544	17079
834.682	17006
834.821	16968
834.959	17048
835.097	16946
835.235	17086
835.373	17102
835.511	16919
835.65	16896
835.788	16858
835.926	16649
836.064	16698
836.202	16755
836.34	16904
836.478	16938
836.615	16896
836.753	16968
836.891	16999
837.029	16946
837.167	16824
837.305	16801
837.443	16717
837.58	16748
837.718	16736
837.856	16740
837.993	16725
838.131	16691
838.269	16645
838.406	16634
838.544	16538
838.681	16413
838.819	16428
838.956	16360
839.094	16074
839.231	16257
839.369	16459
839.506	16618
839.643	16565
839.781	16390
839.918	16223
840.055	16314
840.193	16253
840.33	16223
840.467	16276
840.604	16261
840.742	16432
840.879	16150
841.016	16166
841.153	16086
841.29	16322
841.427	16310
841.564	16436
841.701	16356
841.838	16287
841.975	16207
842.112	16192
842.249	16074
842.385	16029
842.522	16280
842.659	16048
842.796	16013
842.933	16124
843.069	16040
843.206	15953
843.343	16147
843.479	16074
843.616	15983
843.752	15895
843.889	15903
844.025	15899
844.162	15835
844.298	15998
844.435	15819
844.571	15762
844.708	15907
844.844	15987
844.98	15953
845.117	16025
845.253	15915
845.389	15831
845.525	15831
845.661	15873
845.798	15892
845.934	15960
846.07	15953
846.206	15998
846.342	16021
846.478	15808
846.614	15766
846.75	15534
846.886	15416
847.022	15557
847.158	15462
847.294	15397
847.429	15492
847.565	15420
847.701	15701
847.837	15135
847.972	15051
848.108	15313
848.244	15203
848.379	15020
848.515	15070
848.65	14963
848.786	14979
848.921	14948
849.057	15005
849.192	15135
849.328	15028
849.463	15055
849.598	14872
849.734	14994
849.869	14891
850.004	14754
850.14	14811
850.275	14819
850.41	14682
850.545	14743
850.68	14746
850.815	14800
850.95	14701
851.085	14914
851.22	14864
851.355	14785
851.49	14682
851.625	14739
851.76	14792
851.895	14610
852.03	14636
852.165	14739
852.299	14746
852.434	14853
852.569	14773
852.703	14716
852.838	14830
852.973	14998
853.107	14971
853.242	14644
853.376	14682
853.511	14594
853.645	14651
853.78	14712
853.914	14716
854.048	14655
854.183	14564
854.317	14659
854.451	14830
854.585	14560
854.72	14674
854.854	14579
854.988	14488
855.122	14590
855.256	14571
855.39	14602
855.524	14781
855.658	14712
855.792	14583
855.926	14750
856.06	14731
856.194	14735
856.327	14678
856.461	14655
856.595	14659
856.729	14594
856.862	14697
856.996	14659
857.13	14731
857.263	14697
857.397	14686
857.53	14583
857.664	14716
857.797	14735
857.931	14735
858.064	14674
858.197	14731
858.331	14560
858.464	14560
858.597	14533
858.731	14621
858.864	14590
858.997	14541
859.13	14617
859.263	14739
859.396	14716
859.529	14705
859.662	14629
859.795	14533
859.928	14678
860.061	14777
860.194	14739
860.327	14674
860.46	14587
860.592	14724
860.725	14693
860.858	14758
860.99	14629
861.123	14568
861.256	14556
861.388	14610
861.521	15454
861.653	14541
861.786	14480
861.918	14492
862.05	14549
862.183	14549
862.315	14625
862.447	14739
862.58	14549
862.712	14389
862.844	14271
862.976	14530
863.108	14450
863.24	14876
863.372	14347
863.504	14362
863.636	14298
863.768	14476
863.9	14343
864.032	14339
864.164	14404
864.296	14358
864.428	14499
864.559	14480
864.691	14492
864.823	14484
864.954	14377
865.086	14507
865.217	14347
865.349	14423
865.48	14362
865.612	14514
865.743	14476
865.875	14438
866.006	14336
866.137	14400
866.269	14358
866.4	14347
866.531	14362
866.662	14278
866.793	14275
866.924	14324
867.055	14358
867.186	14313
867.317	14362
867.448	14164
867.579	14298
867.71	14271
867.841	14317
867.972	14396
868.103	14328
868.233	14423
868.364	14366
868.495	14412
868.625	14571
868.756	14667
868.886	14590
869.017	14621
869.147	14701
869.278	14708
869.408	14606
869.539	14575
869.669	14693
869.799	14754
869.929	14807
870.06	14792
870.19	14960
870.32	14960
870.45	14937
870.58	15051
870.71	15047
870.84	15024
870.97	15028
871.1	15077
871.23	15233
871.36	15188
871.489	15127
871.619	15116
871.749	15233
871.879	15260
872.008	15298
872.138	15214
872.267	15211
872.397	14990
872.526	14994
872.656	15097
872.785	15047
872.915	15214
873.044	15351
873.173	15294
873.303	15275
873.432	15344
873.561	15332
873.69	15264
873.819	15275
873.948	15458
874.077	15279
874.206	15157
874.335	15260
874.464	15321
874.593	15549
874.722	15504
874.851	15576
874.979	15656
875.108	15724
875.237	15610
875.365	15428
875.494	15485
875.623	15610
875.751	15572
875.88	15625
876.008	15793
876.136	15842
876.265	15876
876.393	16154
876.521	16078
876.65	15934
876.778	15941
876.906	15918
877.034	15922
877.162	15987
877.29	15937
877.418	16017
877.546	15987
877.674	15998
877.802	15945
877.93	15953
878.058	15945
878.185	15899
878.313	15949
878.441	15926
878.568	15838
878.696	15892
878.824	15972
878.951	16143
879.079	16219
879.206	16409
879.333	16306
879.461	16238
879.588	16200
879.715	16333
879.842	16470
879.97	16211
880.097	15937
880.224	15915
880.351	15861
880.478	15926
880.605	15762
880.732	15888
880.859	16055
880.986	15903
881.112	15873
881.239	15732
881.366	15633
881.493	15599
881.619	15519
881.746	15530
881.872	15504
881.999	15469
882.125	15526
882.252	15576
882.378	15591
882.505	15781
882.631	15519
882.757	15363
882.883	15405
883.01	15332
883.136	15245
883.262	15256
883.388	15131
883.514	15397
883.64	15405
883.766	15195
883.892	15211
884.018	15184
884.143	15283
884.269	15458
884.395	15081
884.52	15001
884.646	15100
884.772	14941
884.897	14941
885.023	15085
885.148	15146
885.274	15199
885.399	15138
885.524	15116
885.65	15043
885.775	15036
885.9	15055
886.025	15077
886.15	15062
886.275	15017
886.4	14891
886.525	14986
886.65	14990
886.775	14918
886.9	15165
887.025	15268
887.149	14986
887.274	14906
887.399	14842
887.523	14861
887.648	14796
887.773	14834
887.897	14956
888.021	14941
888.146	14811
888.27	14975
888.395	14891
888.519	14902
888.643	14948
888.767	14868
888.891	14739
889.015	14743
889.139	14743
889.263	14689
889.387	14876
889.511	14826
889.635	14823
889.759	14659
889.883	14659
890.006	14731
890.13	14883
890.254	14667
890.377	14697
890.501	14514
890.624	14313
890.748	14621
890.871	14366
890.995	14328
891.118	14366
891.241	14366
891.364	14370
891.488	14541
891.611	14347
891.734	14377
891.857	14511
891.98	14499
892.103	14549
892.226	14465
892.349	14427
892.471	14221
892.594	14282
892.717	14419
892.839	14423
892.962	14389
893.085	14476
893.207	14396
893.33	14271
893.452	14298
893.575	14408
893.697	14362
893.819	14632
893.941	14571
894.064	14518
894.186	14347
894.308	14317
894.43	14541
894.552	14602
894.674	14545
894.796	14438
894.918	14431
895.04	14480
895.161	14476
895.283	14454
895.405	14457
895.526	14549
895.648	14465
895.769	14507
895.891	14492
896.012	14587
896.134	14518
896.255	14469
896.376	14484
896.498	14564
896.619	14621
896.74	14590
896.861	14526
896.982	14815
897.103	15039
897.224	14769
897.345	14830
897.466	14769
897.587	14902
897.708	14910
897.828	14891
897.949	14849
898.07	14640
898.19	14796
898.311	14929
898.431	14838
898.552	14887
898.672	15043
898.792	14887
898.913	14994
899.033	14906
899.153	14796
899.273	14659
899.393	14686
899.513	14796
899.633	14815
899.753	14815
899.873	14743
899.993	14826
900.113	14735
900.232	14746
900.352	14849
900.472	14705
900.591	14571
900.711	14689
900.83	14533
900.95	14754
901.069	14811
901.189	14568
901.308	14320
901.427	14176
901.546	14214
901.665	14248
901.784	14286
901.904	14119
902.023	14115
902.141	13963
902.26	13795
902.379	13955
902.498	13814
902.617	13841
902.735	13845
902.854	13883
902.973	13826
903.091	13537
903.21	13495
903.328	13491
903.446	13495
903.565	13426
903.683	13457
903.801	13320
903.919	13381
904.038	13430
904.156	13282
904.274	13232
904.392	13270
904.51	13194
904.627	13232
904.745	13236
904.863	13217
904.981	13050
905.098	12875
905.216	13012
905.334	13000
905.451	12913
905.569	12878
905.686	12939
905.803	12913
905.921	12730
906.038	12882
906.155	12768
906.272	12521
906.389	12604
906.506	12559
906.623	12517
906.74	12486
906.857	12323
906.974	12388
907.091	12563
907.208	12681
907.324	12551
907.441	12422
907.557	12270
907.674	12228
907.79	12144
907.907	12178
908.023	12235
908.139	12167
908.256	12201
908.372	12201
908.488	12117
908.604	11961
908.72	11954
908.836	12030
908.952	11935
909.068	11996
909.184	12110
909.3	11923
909.415	12098
909.531	12057
909.647	11767
909.762	11771
909.878	11714
909.993	11783
910.108	11798
910.224	11691
910.339	11779
910.454	11680
910.57	11619
910.685	11570
910.8	11824
910.915	11779
911.03	11611
911.145	11558
911.259	11360
911.374	11448
911.489	11356
911.604	11383
911.718	11185
911.833	11261
911.947	11117
912.062	11098
912.176	11185
912.291	11220
912.405	11254
912.519	11322
912.633	11402
912.748	11353
912.862	11227
912.976	11067
913.09	10934
913.204	11025
913.318	11128
913.431	11208
913.545	11155
913.659	11212
913.772	11075
913.886	10987
914	10961
914.113	11064
914.226	11086
914.34	11056
914.453	10881
914.566	10980
914.68	10824
914.793	10896
914.906	10710
915.019	10725
915.132	10687
915.245	10698
915.358	10691
915.47	10675
915.583	10653
915.696	10771
915.809	10812
915.921	10919
916.034	10622
916.146	10725
916.259	10630
916.371	10710
916.483	10790
916.595	10683
916.708	10660
916.82	10645
916.932	10634
917.044	10618
917.156	10580
917.268	10485
917.38	10508
917.491	10538
917.603	10516
917.715	10653
917.826	10622
917.938	10527
918.049	10405
918.161	10531
918.272	10691
918.384	10668
918.495	10474
918.606	10447
918.717	10337
918.828	10436
918.939	10451
919.05	10344
919.161	10386
919.272	10223
919.383	10280
919.494	10527
919.604	10615
919.715	10394
919.826	10360
919.936	10405
920.047	10550
920.157	10474
920.267	10611
920.378	10405
920.488	10455
920.598	10672
920.708	10675
920.818	10500
920.928	10637
921.038	10763
921.148	10744
921.258	10440
921.368	10382
921.477	10230
921.587	10242
921.697	10097
921.806	10207
921.916	10227
922.025	9983
922.134	9915
922.244	9968
922.353	10124
922.462	9846
922.571	9797
922.68	9618
922.789	9671
922.898	9595
923.007	9568
923.116	9663
923.224	9603
923.333	9618
923.442	9519
923.55	9507
923.659	9542
923.767	9603
923.876	9473
923.984	9580
924.092	9534
924.201	9545
924.309	9580
924.417	9488
924.525	9439
924.633	9500
924.741	10379
924.849	9348
924.956	9466
925.064	9332
925.172	9211
925.279	9195
925.387	9279
925.494	9302
925.602	9473
925.709	9408
925.816	9253
925.924	9291
926.031	9473
926.138	9329
926.245	9329
926.352	9142
926.459	9382
926.566	9355
926.673	9207
926.779	9237
926.886	9188
926.993	9058
927.099	8994
927.206	8998
927.312	8933
927.419	9036
927.525	8975
927.631	9009
927.737	8910
927.843	8921
927.95	8830
928.056	8861
928.162	8914
928.267	8910
928.373	9515
928.479	9013
928.585	8708
928.69	8910
928.796	8876
928.901	8819
929.007	8705
929.112	8804
929.218	8857
929.323	8777
929.428	8678
929.533	8914
929.638	8674
929.743	8739
929.848	8758
929.953	8678
930.058	8564
930.163	8465
930.267	8564
930.372	8674
930.477	8434
930.581	8674
930.685	8613
930.79	8484
930.894	8454
930.998	8366
931.103	8610
931.207	8210
931.311	8149
931.415	8111
931.519	7986
931.623	7906
