Data from test_V78500241_2305.txt Node
Date: Fri Mar 25 14:49:45 CST 2022
User: usil
Spectrometer: V785-0024
Trigger mode: 0
Integration Time (sec): 4.000000E-1
Scans to average: 1
Nonlinearity correction enabled: false
Boxcar width: 0
Storing dark spectrum: false
XAxis mode: Wavelengths
Number of Pixels in Spectrum: 1024
>>>>>Begin Spectral Data<<<<<
801.071	21987
801.214	22086
801.356	21930
801.499	21823
801.641	21660
801.783	21523
801.926	21401
802.068	21530
802.211	21454
802.353	21359
802.496	21146
802.638	21043
802.78	21070
802.923	20998
803.065	20864
803.208	20819
803.35	20956
803.492	21032
803.635	20975
803.777	20857
803.919	21020
804.061	21287
804.204	20887
804.346	20788
804.488	20777
804.63	20918
804.773	20800
804.915	20845
805.057	20826
805.199	20720
805.341	20868
805.483	20937
805.626	20948
805.768	20712
805.91	20872
806.052	20826
806.194	20792
806.336	20925
806.478	20807
806.62	20830
806.762	20765
806.904	21066
807.046	21195
807.188	21070
807.33	21161
807.472	21207
807.614	21036
807.756	21051
807.898	20994
808.04	20845
808.182	20842
808.324	20883
808.465	21017
808.607	21127
808.749	21218
808.891	21374
809.033	21526
809.174	21260
809.316	21211
809.458	21173
809.6	21150
809.741	21298
809.883	21275
810.025	21298
810.166	21386
810.308	21313
810.45	21237
810.591	21062
810.733	21104
810.875	20986
811.016	20944
811.158	20918
811.299	20971
811.441	21062
811.582	21112
811.724	21036
811.865	20906
812.007	20994
812.148	20857
812.29	21001
812.431	21013
812.573	21237
812.714	21268
812.855	21469
812.997	21488
813.138	21823
813.279	21568
813.421	21412
813.562	21416
813.703	21176
813.845	21108
813.986	20849
814.127	20598
814.268	20545
814.41	20613
814.551	20473
814.692	20613
814.833	20339
814.974	20518
815.115	20568
815.256	20450
815.397	20278
815.539	20492
815.68	20240
815.821	20210
815.962	20301
816.103	20191
816.244	20168
816.385	19989
816.526	19993
816.666	19776
816.807	19662
816.948	19769
817.089	19681
817.23	19830
817.371	19731
817.512	19635
817.653	19620
817.793	19525
817.934	19704
818.075	19556
818.216	19628
818.356	19567
818.497	19453
818.638	19137
818.778	19350
818.919	19293
819.06	19362
819.2	19441
819.341	19540
819.481	19445
819.622	19757
819.762	19890
819.903	19795
820.043	19689
820.184	19586
820.324	19639
820.465	19674
820.605	19601
820.746	19571
820.886	19453
821.026	19540
821.167	19552
821.307	19495
821.447	19586
821.588	19506
821.728	19179
821.868	19187
822.008	19038
822.149	19015
822.289	18943
822.429	18757
822.569	18730
822.709	18753
822.849	18521
822.99	18521
823.13	18452
823.27	18418
823.41	18323
823.55	18270
823.69	18323
823.83	18353
823.97	18258
824.11	18140
824.25	18163
824.389	18060
824.529	18277
824.669	18049
824.809	18072
824.949	18163
825.089	18155
825.228	18095
825.368	17813
825.508	17866
825.648	17859
825.787	17904
825.927	17832
826.067	17821
826.206	17741
826.346	17775
826.485	17817
826.625	17790
826.765	17908
826.904	17882
827.044	17710
827.183	17638
827.323	17543
827.462	17661
827.601	17436
827.741	17528
827.88	17512
828.02	17372
828.159	17520
828.298	17592
828.437	17570
828.577	17543
828.716	17661
828.855	17497
828.994	17326
829.134	17326
829.273	17356
829.412	17220
829.551	17216
829.69	17273
829.829	17242
829.968	17372
830.107	17307
830.246	17212
830.385	17223
830.524	17166
830.663	17090
830.802	16904
830.941	16946
831.08	16839
831.219	16942
831.357	16911
831.496	17033
831.635	16774
831.774	16797
831.913	16835
832.051	16748
832.19	16584
832.329	16752
832.467	16626
832.606	16550
832.744	16596
832.883	16519
833.022	16478
833.16	16516
833.299	16721
833.437	16550
833.576	16607
833.714	16603
833.852	16763
833.991	16698
834.129	16725
834.267	16664
834.406	16580
834.544	16672
834.682	16596
834.821	16710
834.959	16774
835.097	16569
835.235	16698
835.373	16592
835.511	16660
835.65	16599
835.788	16607
835.926	16299
836.064	16314
836.202	16402
836.34	16561
836.478	16683
836.615	16519
836.753	16535
836.891	16436
837.029	16668
837.167	16436
837.305	16432
837.443	16386
837.58	16295
837.718	16478
837.856	16394
837.993	16432
838.131	16390
838.269	16318
838.406	16314
838.544	16303
838.681	16143
838.819	16097
838.956	15941
839.094	15972
839.231	15994
839.369	16082
839.506	16333
839.643	16181
839.781	15953
839.918	15888
840.055	15918
840.193	15949
840.33	15994
840.467	15941
840.604	15922
840.742	16048
840.879	15759
841.016	15766
841.153	15857
841.29	16051
841.427	15972
841.564	15857
841.701	15972
841.838	15899
841.975	15797
842.112	15857
842.249	15751
842.385	15751
842.522	15892
842.659	15778
842.796	15694
842.933	15778
843.069	15667
843.206	15603
843.343	15816
843.479	15770
843.616	15717
843.752	15564
843.889	15408
844.025	15679
844.162	15355
844.298	15701
844.435	15564
844.571	15420
844.708	15424
844.844	15663
844.98	15694
845.117	15618
845.253	15424
845.389	15344
845.525	15473
845.661	15431
845.798	15272
845.934	15408
846.07	15211
846.206	15382
846.342	15458
846.478	15374
846.614	15150
846.75	14990
846.886	14986
847.022	15077
847.158	15005
847.294	15100
847.429	15131
847.565	14963
847.701	15233
847.837	14838
847.972	14746
848.108	14853
848.244	14925
848.379	14750
848.515	14625
848.65	14621
848.786	14697
848.921	14686
849.057	14689
849.192	14750
849.328	14689
849.463	14625
849.598	14583
849.734	14545
849.869	14419
850.004	14434
850.14	14457
850.275	14366
850.41	14362
850.545	14377
850.68	14396
850.815	14419
850.95	14454
851.085	14552
851.22	14560
851.355	14320
851.49	14404
851.625	14385
851.76	14377
851.895	14290
852.03	14282
852.165	14427
852.299	14461
852.434	14492
852.569	14446
852.703	14457
852.838	14488
852.973	14590
853.107	14556
853.242	14358
853.376	14396
853.511	14134
853.645	14237
853.78	14396
853.914	14351
854.048	14191
854.183	14237
854.317	14301
854.451	14530
854.585	14210
854.72	14225
854.854	14286
854.988	14263
855.122	14298
855.256	14229
855.39	14180
855.524	14396
855.658	14343
855.792	14278
855.926	14229
856.06	14366
856.194	14381
856.327	14355
856.461	14240
856.595	14275
856.729	14309
856.862	14480
856.996	14389
857.13	14313
857.263	14434
857.397	14408
857.53	14191
857.664	14377
857.797	14355
857.931	14423
858.064	14309
858.197	14461
858.331	14248
858.464	14206
858.597	14218
858.731	14259
858.864	14278
858.997	14263
859.13	14298
859.263	14343
859.396	14404
859.529	14237
859.662	14252
859.795	14225
859.928	14332
860.061	14362
860.194	14503
860.327	14351
860.46	14225
860.592	14313
860.725	14434
860.858	14450
860.99	14313
861.123	14153
861.256	14259
861.388	14252
861.521	14842
861.653	14096
861.786	14043
861.918	14138
862.05	14229
862.183	14153
862.315	14351
862.447	14252
862.58	14248
862.712	14016
862.844	14043
862.976	14088
863.108	14031
863.24	14434
863.372	14054
863.504	14020
863.636	13963
863.768	14119
863.9	14092
864.032	14027
864.164	14050
864.296	14039
864.428	14176
864.559	14134
864.691	14240
864.823	14202
864.954	14115
865.086	14111
865.217	14046
865.349	13959
865.48	14084
865.612	13974
865.743	14138
865.875	14054
866.006	13963
866.137	14100
866.269	14077
866.4	13982
866.531	14020
866.662	14043
866.793	14035
866.924	14016
867.055	14046
867.186	14031
867.317	14024
867.448	13883
867.579	13856
867.71	13974
867.841	13993
867.972	14039
868.103	14024
868.233	14077
868.364	14005
868.495	14130
868.625	14237
868.756	14450
868.886	14202
869.017	14229
869.147	14396
869.278	14396
869.408	14294
869.539	14427
869.669	14419
869.799	14320
869.929	14396
870.06	14492
870.19	14533
870.32	14571
870.45	14655
870.58	14590
870.71	14754
870.84	14739
870.97	14735
871.1	14644
871.23	14788
871.36	14887
871.489	14826
871.619	14826
871.749	14853
871.879	14887
872.008	15017
872.138	14971
872.267	14838
872.397	14800
872.526	14735
872.656	14750
872.785	14697
872.915	14941
873.044	15020
873.173	14918
873.303	14891
873.432	14937
873.561	14971
873.69	14876
873.819	14975
873.948	15009
874.077	14948
874.206	14982
874.335	14979
874.464	15135
874.593	15230
874.722	15260
874.851	15233
874.979	15275
875.108	15260
875.237	15097
875.365	15199
875.494	15176
875.623	15310
875.751	15207
875.88	15294
876.008	15431
876.136	15447
876.265	15572
876.393	15876
876.521	15759
876.65	15682
876.778	15648
876.906	15523
877.034	15606
877.162	15690
877.29	15595
877.418	15679
877.546	15614
877.674	15663
877.802	15800
877.93	15663
878.058	15618
878.185	15572
878.313	15625
878.441	15701
878.568	15549
878.696	15595
878.824	15622
878.951	15644
879.079	15819
879.206	16036
879.333	15804
879.461	15694
879.588	15762
879.715	15892
879.842	15899
879.97	15770
880.097	15454
880.224	15477
880.351	15542
880.478	15530
880.605	15534
880.732	15561
880.859	15747
880.986	15591
881.112	15576
881.239	15416
881.366	15332
881.493	15237
881.619	15165
881.746	15165
881.872	15131
881.999	15222
882.125	15157
882.252	15268
882.378	15180
882.505	15408
882.631	15184
882.757	15032
882.883	15085
883.01	14963
883.136	14960
883.262	14804
883.388	14861
883.514	15020
883.64	14979
883.766	14960
883.892	14754
884.018	14781
884.143	14918
884.269	15070
884.395	14743
884.52	14712
884.646	14739
884.772	14693
884.897	14610
885.023	14689
885.148	14872
885.274	14864
885.399	14777
885.524	14674
885.65	14617
885.775	14659
885.9	14743
886.025	14800
886.15	14830
886.275	14571
886.4	14648
886.525	14564
886.65	14613
886.775	14644
886.9	14895
887.025	15024
887.149	14716
887.274	14579
887.399	14495
887.523	14461
887.648	14545
887.773	14541
887.897	14476
888.021	14568
888.146	14450
888.27	14590
888.395	14708
888.519	14541
888.643	14598
888.767	14526
888.891	14499
889.015	14370
889.139	14522
889.263	14362
889.387	14442
889.511	14594
889.635	14454
889.759	14374
889.883	14282
890.006	14362
890.13	14503
890.254	14317
890.377	14324
890.501	14229
890.624	14214
890.748	14275
890.871	14062
890.995	14084
891.118	14054
891.241	14046
891.364	14092
891.488	14218
891.611	14088
891.734	14103
891.857	14119
891.98	13986
892.103	14191
892.226	14123
892.349	14126
892.471	13890
892.594	14016
892.717	14088
892.839	14119
892.962	14043
893.085	14126
893.207	13993
893.33	13890
893.452	13970
893.575	14187
893.697	14054
893.819	14275
893.941	14324
894.064	14271
894.186	14031
894.308	14073
894.43	14225
894.552	14180
894.674	14313
894.796	14107
894.918	14168
895.04	14092
895.161	14256
895.283	14199
895.405	14096
895.526	14267
895.648	14168
895.769	14248
895.891	14298
896.012	14328
896.134	14218
896.255	14259
896.376	14161
896.498	14252
896.619	14324
896.74	14298
896.861	14301
896.982	14663
897.103	14689
897.224	14583
897.345	14454
897.466	14507
897.587	14590
897.708	14632
897.828	14583
897.949	14587
898.07	14328
898.19	14492
898.311	14697
898.431	14533
898.552	14617
898.672	14762
898.792	14617
898.913	14636
899.033	14613
899.153	14530
899.273	14431
899.393	14442
899.513	14533
899.633	14450
899.753	14541
899.873	14488
899.993	14575
900.113	14488
900.232	14571
900.352	14465
900.472	14454
900.591	14298
900.711	14389
900.83	14355
900.95	14488
901.069	14484
901.189	14290
901.308	14172
901.427	13955
901.546	14111
901.665	14069
901.784	14115
901.904	13936
902.023	13864
902.141	13586
902.26	13578
902.379	13723
902.498	13643
902.617	13487
902.735	13636
902.854	13544
902.973	13597
903.091	13392
903.21	13373
903.328	13396
903.446	13209
903.565	13232
903.683	13126
903.801	13088
903.919	13232
904.038	13126
904.156	12993
904.274	13065
904.392	12962
904.51	12897
904.627	12913
904.745	13031
904.863	13015
904.981	12760
905.098	12730
905.216	12753
905.334	12772
905.451	12574
905.569	12635
905.686	12696
905.803	12639
905.921	12532
906.038	12574
906.155	12407
906.272	12426
906.389	12460
906.506	12228
906.623	12327
906.74	12285
906.857	12201
906.974	12228
907.091	12315
907.208	12384
907.324	12338
907.441	12117
907.557	12053
907.674	11984
907.79	11859
907.907	11965
908.023	12026
908.139	12053
908.256	11965
908.372	11923
908.488	11859
908.604	11794
908.72	11748
908.836	11737
908.952	11790
909.068	11729
909.184	11859
909.3	11813
909.415	11828
909.531	11699
909.647	11623
909.762	11585
909.878	11562
909.993	11585
910.108	11505
910.224	11478
910.339	11490
910.454	11398
910.57	11368
910.685	11269
910.8	11642
910.915	11471
911.03	11364
911.145	11216
911.259	11208
911.374	11208
911.489	11197
911.604	11075
911.718	10919
911.833	10968
911.947	10892
912.062	10774
912.176	10934
912.291	10999
912.405	10923
912.519	11166
912.633	11261
912.748	11124
912.862	10919
912.976	10915
913.09	10763
913.204	10778
913.318	10869
913.431	10942
913.545	10957
913.659	10976
913.772	10786
913.886	10691
914	10656
914.113	10873
914.226	10949
914.34	10782
914.453	10660
914.566	10858
914.68	10702
914.793	10649
914.906	10497
915.019	10447
915.132	10500
915.245	10405
915.358	10508
915.47	10470
915.583	10550
915.696	10512
915.809	10577
915.921	10672
916.034	10470
916.146	10512
916.259	10409
916.371	10538
916.483	10554
916.595	10356
916.708	10348
916.82	10493
916.932	10424
917.044	10462
917.156	10428
917.268	10363
917.38	10409
917.491	10337
917.603	10325
917.715	10341
917.826	10417
917.938	10337
918.049	10204
918.161	10314
918.272	10497
918.384	10516
918.495	10348
918.606	10139
918.717	10116
918.828	10219
918.939	10238
919.05	10173
919.161	10139
919.272	9975
919.383	10063
919.494	10284
919.604	10440
919.715	10150
919.826	10181
919.936	10112
920.047	10230
920.157	10249
920.267	10417
920.378	10287
920.488	10143
920.598	10421
920.708	10550
920.818	10375
920.928	10398
921.038	10641
921.148	10542
921.258	10322
921.368	10227
921.477	10078
921.587	10086
921.697	9922
921.806	10074
921.916	10021
922.025	9785
922.134	9728
922.244	9762
922.353	9812
922.462	9713
922.571	9622
922.68	9511
922.789	9462
922.898	9545
923.007	9408
923.116	9462
923.224	9458
923.333	9450
923.442	9298
923.55	9237
923.659	9382
923.767	9466
923.876	9310
923.984	9420
924.092	9424
924.201	9389
924.309	9367
924.417	9355
924.525	9253
924.633	9298
924.741	10268
924.849	9112
924.956	9230
925.064	9150
925.172	9047
925.279	9005
925.387	9119
925.494	9138
925.602	9287
925.709	9245
925.816	8975
925.924	9119
926.031	9157
926.138	9100
926.245	9138
926.352	9100
926.459	9165
926.566	9268
926.673	9055
926.779	8842
926.886	8971
926.993	8830
927.099	8876
927.206	8857
927.312	8811
927.419	8933
927.525	8807
927.631	8895
927.737	8739
927.843	8697
927.95	8659
928.056	8777
928.162	8758
928.267	8788
928.373	9435
928.479	8864
928.585	8556
928.69	8743
928.796	8769
928.901	8621
929.007	8503
929.112	8727
929.218	8621
929.323	8606
929.428	8507
929.533	8689
929.638	8446
929.743	8541
929.848	8651
929.953	8492
930.058	8495
930.163	8259
930.267	8298
930.372	8473
930.477	8279
930.581	8575
930.685	8469
930.79	8324
930.894	8317
930.998	8301
931.103	8419
931.207	8039
931.311	8035
931.415	7944
931.519	7841
931.623	7723
