Data from test_V78500241_2462.txt Node
Date: Fri Mar 25 14:50:51 CST 2022
User: usil
Spectrometer: V785-0024
Trigger mode: 0
Integration Time (sec): 4.000000E-1
Scans to average: 1
Nonlinearity correction enabled: false
Boxcar width: 0
Storing dark spectrum: false
XAxis mode: Wavelengths
Number of Pixels in Spectrum: 1024
>>>>>Begin Spectral Data<<<<<
801.071	22078
801.214	21876
801.356	21797
801.499	21576
801.641	21416
801.783	21469
801.926	21405
802.068	21405
802.211	21378
802.353	21199
802.496	21028
802.638	20944
802.78	20792
802.923	20872
803.065	20807
803.208	20716
803.35	20621
803.492	20994
803.635	20895
803.777	20724
803.919	20857
804.061	21100
804.204	20842
804.346	20758
804.488	20609
804.63	20849
804.773	20651
804.915	20769
805.057	20921
805.199	20575
805.341	20701
805.483	20800
805.626	20857
805.768	20670
805.91	20716
806.052	20716
806.194	20708
806.336	20731
806.478	20659
806.62	20617
806.762	20754
806.904	21017
807.046	21116
807.188	21032
807.33	21058
807.472	21066
807.614	20906
807.756	20960
807.898	20796
808.04	20724
808.182	20823
808.324	20807
808.465	20788
808.607	21013
808.749	21104
808.891	21184
809.033	21169
809.174	21142
809.316	21055
809.458	21123
809.6	20956
809.741	21131
809.883	21077
810.025	21188
810.166	21252
810.308	21157
810.45	21157
810.591	21051
810.733	20960
810.875	20956
811.016	20743
811.158	20583
811.299	20994
811.441	20937
811.582	20990
811.724	20941
811.865	20811
812.007	20788
812.148	20819
812.29	20914
812.431	21009
812.573	21138
812.714	21222
812.855	21252
812.997	21313
813.138	21656
813.279	21492
813.421	21332
813.562	21351
813.703	21096
813.845	20986
813.986	20773
814.127	20507
814.268	20446
814.41	20423
814.551	20290
814.692	20351
814.833	20271
814.974	20305
815.115	20305
815.256	20202
815.397	20176
815.539	20225
815.68	20191
815.821	20187
815.962	20077
816.103	20081
816.244	19883
816.385	19765
816.526	19837
816.666	19700
816.807	19613
816.948	19681
817.089	19674
817.23	19613
817.371	19620
817.512	19430
817.653	19578
817.793	19415
817.934	19609
818.075	19540
818.216	19495
818.356	19521
818.497	19362
818.638	19225
818.778	19244
818.919	19179
819.06	19259
819.2	19434
819.341	19343
819.481	19472
819.622	19460
819.762	19704
819.903	19609
820.043	19495
820.184	19575
820.324	19540
820.465	19510
820.605	19537
820.746	19495
820.886	19464
821.026	19369
821.167	19434
821.307	19449
821.447	19403
821.588	19247
821.728	19213
821.868	19038
822.008	18916
822.149	18962
822.289	18817
822.429	18650
822.569	18616
822.709	18635
822.849	18410
822.99	18429
823.13	18372
823.27	18308
823.41	18216
823.55	18049
823.69	18197
823.83	18216
823.97	18167
824.11	18091
824.25	17927
824.389	17942
824.529	18007
824.669	17988
824.809	18030
824.949	17908
825.089	17996
825.228	17923
825.368	17703
825.508	17783
825.648	17764
825.787	17897
825.927	17878
826.067	17676
826.206	17722
826.346	17737
826.485	17855
826.625	17733
826.765	17813
826.904	17668
827.044	17520
827.183	17341
827.323	17417
827.462	17524
827.601	17490
827.741	17322
827.88	17452
828.02	17311
828.159	17433
828.298	17516
828.437	17562
828.577	17467
828.716	17497
828.855	17410
828.994	17189
829.134	17140
829.273	17143
829.412	17155
829.551	17098
829.69	17136
829.829	17200
829.968	17261
830.107	17269
830.246	17170
830.385	17083
830.524	17052
830.663	16949
830.802	16995
830.941	16755
831.08	16809
831.219	16885
831.357	16908
831.496	16995
831.635	16736
831.774	16744
831.913	16710
832.051	16569
832.19	16599
832.329	16577
832.467	16531
832.606	16363
832.744	16584
832.883	16599
833.022	16470
833.16	16493
833.299	16485
833.437	16519
833.576	16497
833.714	16508
833.852	16622
833.991	16455
834.129	16599
834.267	16504
834.406	16573
834.544	16656
834.682	16622
834.821	16523
834.959	16672
835.097	16565
835.235	16752
835.373	16622
835.511	16599
835.65	16447
835.788	16489
835.926	16329
836.064	16242
836.202	16280
836.34	16421
836.478	16558
836.615	16481
836.753	16402
836.891	16508
837.029	16440
837.167	16379
837.305	16204
837.443	16348
837.58	16306
837.718	16375
837.856	16314
837.993	16314
838.131	16337
838.269	16246
838.406	16280
838.544	16120
838.681	16013
838.819	16074
838.956	15850
839.094	15884
839.231	15930
839.369	16010
839.506	16261
839.643	16078
839.781	15922
839.918	15854
840.055	15911
840.193	15892
840.33	15842
840.467	15869
840.604	16013
840.742	16093
840.879	15755
841.016	15823
841.153	15835
841.29	16013
841.427	15922
841.564	15911
841.701	15979
841.838	15778
841.975	15781
842.112	15800
842.249	15774
842.385	15568
842.522	15888
842.659	15736
842.796	15549
842.933	15675
843.069	15564
843.206	15656
843.343	15766
843.479	15739
843.616	15675
843.752	15591
843.889	15568
844.025	15629
844.162	15393
844.298	15606
844.435	15389
844.571	15401
844.708	15458
844.844	15580
844.98	15663
845.117	15545
845.253	15340
845.389	15348
845.525	15298
845.661	15287
845.798	15214
845.934	15321
846.07	15150
846.206	15241
846.342	15431
846.478	15249
846.614	15051
846.75	14979
846.886	15009
847.022	15112
847.158	14967
847.294	14963
847.429	15055
847.565	15013
847.701	15233
847.837	14743
847.972	14758
848.108	14815
848.244	14849
848.379	14632
848.515	14629
848.65	14575
848.786	14629
848.921	14670
849.057	14727
849.192	14716
849.328	14724
849.463	14602
849.598	14617
849.734	14518
849.869	14480
850.004	14431
850.14	14366
850.275	14366
850.41	14347
850.545	14385
850.68	14374
850.815	14412
850.95	14328
851.085	14511
851.22	14492
851.355	14404
851.49	14343
851.625	14355
851.76	14385
851.895	14218
852.03	14225
852.165	14305
852.299	14358
852.434	14419
852.569	14366
852.703	14404
852.838	14412
852.973	14495
853.107	14530
853.242	14374
853.376	14206
853.511	14149
853.645	14240
853.78	14343
853.914	14298
854.048	14149
854.183	14225
854.317	14202
854.451	14492
854.585	14328
854.72	14157
854.854	14278
854.988	14153
855.122	14202
855.256	14062
855.39	14180
855.524	14336
855.658	14248
855.792	14206
855.926	14248
856.06	14271
856.194	14374
856.327	14244
856.461	14263
856.595	14199
856.729	14157
856.862	14351
856.996	14324
857.13	14393
857.263	14385
857.397	14446
857.53	14240
857.664	14267
857.797	14351
857.931	14305
858.064	14290
858.197	14370
858.331	14164
858.464	14252
858.597	14161
858.731	14142
858.864	14240
858.997	14267
859.13	14286
859.263	14294
859.396	14328
859.529	14206
859.662	14180
859.795	14161
859.928	14332
860.061	14412
860.194	14507
860.327	14282
860.46	14225
860.592	14286
860.725	14358
860.858	14309
860.99	14271
861.123	14088
861.256	14191
861.388	14195
861.521	14781
861.653	14153
861.786	14008
861.918	14149
862.05	14084
862.183	14187
862.315	14077
862.447	14248
862.58	14229
862.712	14073
862.844	13890
862.976	14050
863.108	14065
863.24	14286
863.372	13970
863.504	14005
863.636	14077
863.768	14081
863.9	13989
864.032	13898
864.164	14016
864.296	14069
864.428	14096
864.559	14130
864.691	14050
864.823	14157
864.954	14103
865.086	14115
865.217	13967
865.349	13917
865.48	13997
865.612	14100
865.743	14183
865.875	14065
866.006	14005
866.137	13959
866.269	13936
866.4	14077
866.531	13894
866.662	13955
866.793	13989
866.924	14001
867.055	13955
867.186	14008
867.317	13989
867.448	13894
867.579	14005
867.71	13982
867.841	13951
867.972	14046
868.103	14012
868.233	14043
868.364	14020
868.495	14130
868.625	14233
868.756	14389
868.886	14176
869.017	14183
869.147	14419
869.278	14309
869.408	14221
869.539	14298
869.669	14328
869.799	14263
869.929	14320
870.06	14415
870.19	14579
870.32	14674
870.45	14575
870.58	14663
870.71	14777
870.84	14724
870.97	14739
871.1	14663
871.23	14807
871.36	14731
871.489	14807
871.619	14887
871.749	14883
871.879	14864
872.008	14929
872.138	14895
872.267	14891
872.397	14754
872.526	14678
872.656	14743
872.785	14754
872.915	14826
873.044	14880
873.173	14918
873.303	14811
873.432	14948
873.561	14998
873.69	14910
873.819	14910
873.948	14941
874.077	14960
874.206	14781
874.335	14956
874.464	15024
874.593	15104
874.722	15154
874.851	15245
874.979	15317
875.108	15317
875.237	15169
875.365	15241
875.494	15131
875.623	15287
875.751	15214
875.88	15302
876.008	15397
876.136	15545
876.265	15587
876.393	15701
876.521	15762
876.65	15671
876.778	15637
876.906	15496
877.034	15641
877.162	15629
877.29	15526
877.418	15709
877.546	15614
877.674	15739
877.802	15622
877.93	15713
878.058	15644
878.185	15534
878.313	15618
878.441	15618
878.568	15515
878.696	15633
878.824	15629
878.951	15701
879.079	15785
879.206	15941
879.333	15778
879.461	15584
879.588	15762
879.715	15831
879.842	15979
879.97	15705
880.097	15530
880.224	15439
880.351	15523
880.478	15458
880.605	15526
880.732	15507
880.859	15663
880.986	15564
881.112	15622
881.239	15336
881.366	15355
881.493	15199
881.619	15157
881.746	15195
881.872	15195
881.999	15077
882.125	15169
882.252	15241
882.378	15188
882.505	15336
882.631	15138
882.757	15009
882.883	15009
883.01	15001
883.136	14979
883.262	14819
883.388	14781
883.514	15020
883.64	14967
883.766	14982
883.892	14781
884.018	14929
884.143	14963
884.269	15077
884.395	14823
884.52	14686
884.646	14743
884.772	14560
884.897	14533
885.023	14659
885.148	14785
885.274	14880
885.399	14804
885.524	14648
885.65	14617
885.775	14693
885.9	14644
886.025	14804
886.15	14765
886.275	14705
886.4	14511
886.525	14621
886.65	14720
886.775	14518
886.9	14785
887.025	14948
887.149	14667
887.274	14503
887.399	14408
887.523	14511
887.648	14480
887.773	14404
887.897	14625
888.021	14495
888.146	14457
888.27	14598
888.395	14610
888.519	14549
888.643	14556
888.767	14541
888.891	14457
889.015	14313
889.139	14412
889.263	14294
889.387	14419
889.511	14564
889.635	14507
889.759	14366
889.883	14343
890.006	14404
890.13	14454
890.254	14267
890.377	14240
890.501	14168
890.624	14123
890.748	14290
890.871	14069
890.995	14012
891.118	13982
891.241	14043
891.364	14039
891.488	14206
891.611	14020
891.734	14073
891.857	14073
891.98	14008
892.103	14183
892.226	14096
892.349	14046
892.471	13887
892.594	14062
892.717	14096
892.839	14001
892.962	14039
893.085	14149
893.207	14077
893.33	14043
893.452	13944
893.575	14107
893.697	14046
893.819	14210
893.941	14202
894.064	14214
894.186	14107
894.308	14024
894.43	14161
894.552	14248
894.674	14305
894.796	13925
894.918	14153
895.04	14084
895.161	14115
895.283	14164
895.405	14130
895.526	14259
895.648	14244
895.769	14164
895.891	14229
896.012	14294
896.134	14286
896.255	14278
896.376	14164
896.498	14138
896.619	14305
896.74	14240
896.861	14278
896.982	14617
897.103	14727
897.224	14488
897.345	14484
897.466	14454
897.587	14438
897.708	14556
897.828	14473
897.949	14518
898.07	14347
898.19	14476
898.311	14670
898.431	14507
898.552	14446
898.672	14598
898.792	14781
898.913	14575
899.033	14590
899.153	14495
899.273	14324
899.393	14488
899.513	14469
899.633	14450
899.753	14492
899.873	14431
899.993	14526
900.113	14503
900.232	14507
900.352	14549
900.472	14294
900.591	14240
900.711	14366
900.83	14263
900.95	14423
901.069	14400
901.189	14275
901.308	13997
901.427	14005
901.546	14031
901.665	14039
901.784	14005
901.904	13814
902.023	13830
902.141	13597
902.26	13594
902.379	13601
902.498	13491
902.617	13445
902.735	13567
902.854	13472
902.973	13491
903.091	13297
903.21	13202
903.328	13274
903.446	13213
903.565	13179
903.683	13194
903.801	13038
903.919	13069
904.038	13084
904.156	12882
904.274	13038
904.392	12901
904.51	12996
904.627	12954
904.745	13019
904.863	13008
904.981	12772
905.098	12574
905.216	12681
905.334	12681
905.451	12707
905.569	12612
905.686	12662
905.803	12593
905.921	12486
906.038	12525
906.155	12525
906.272	12357
906.389	12422
906.506	12213
906.623	12323
906.74	12243
906.857	12098
906.974	12247
907.091	12311
907.208	12353
907.324	12232
907.441	12178
907.557	12026
907.674	11946
907.79	11904
907.907	11901
908.023	11961
908.139	11931
908.256	11984
908.372	11874
908.488	11748
908.604	11703
908.72	11729
908.836	11805
908.952	11779
909.068	11775
909.184	11874
909.3	11680
909.415	11783
909.531	11741
909.647	11467
909.762	11554
909.878	11455
909.993	11539
910.108	11474
910.224	11493
910.339	11444
910.454	11414
910.57	11330
910.685	11292
910.8	11577
910.915	11433
911.03	11433
911.145	11208
911.259	11208
911.374	11189
911.489	11086
911.604	11067
911.718	10972
911.833	11045
911.947	10923
912.062	10839
912.176	10965
912.291	10934
912.405	10953
912.519	11113
912.633	11197
912.748	10984
912.862	10999
912.976	10866
913.09	10714
913.204	10858
913.318	10869
913.431	10927
913.545	10877
913.659	10980
913.772	10793
913.886	10725
914	10691
914.113	10790
914.226	10900
914.34	10797
914.453	10641
914.566	10828
914.68	10729
914.793	10634
914.906	10508
915.019	10443
915.132	10447
915.245	10451
915.358	10466
915.47	10485
915.583	10459
915.696	10440
915.809	10634
915.921	10634
916.034	10443
916.146	10443
916.259	10440
916.371	10519
916.483	10455
916.595	10367
916.708	10379
916.82	10413
916.932	10390
917.044	10341
917.156	10371
917.268	10219
917.38	10318
917.491	10249
917.603	10287
917.715	10329
917.826	10375
917.938	10287
918.049	10185
918.161	10306
918.272	10348
918.384	10348
918.495	10272
918.606	10177
918.717	10177
918.828	10131
918.939	10303
919.05	10097
919.161	10135
919.272	9926
919.383	10093
919.494	10215
919.604	10447
919.715	10120
919.826	10074
919.936	10135
920.047	10265
920.157	10181
920.267	10363
920.378	10227
920.488	10238
920.598	10424
920.708	10535
920.818	10432
920.928	10341
921.038	10561
921.148	10569
921.258	10261
921.368	10112
921.477	10112
921.587	10048
921.697	9842
921.806	10093
921.916	9937
922.025	9816
922.134	9724
922.244	9690
922.353	9774
922.462	9656
922.571	9606
922.68	9504
922.789	9389
922.898	9428
923.007	9477
923.116	9450
923.224	9412
923.333	9443
923.442	9420
923.55	9241
923.659	9408
923.767	9393
923.876	9329
923.984	9367
924.092	9211
924.201	9340
924.309	9386
924.417	9428
924.525	9317
924.633	9367
924.741	10051
924.849	9138
924.956	9230
925.064	9154
925.172	9024
925.279	9043
925.387	9104
925.494	9085
925.602	9222
925.709	9188
925.816	9039
925.924	9074
926.031	9294
926.138	9066
926.245	9093
926.352	8967
926.459	9188
926.566	9214
926.673	9039
926.779	8963
926.886	8937
926.993	8883
927.099	8792
927.206	8727
927.312	8788
927.419	8895
927.525	8819
927.631	8906
927.737	8815
927.843	8720
927.95	8613
928.056	8693
928.162	8712
928.267	8830
928.373	9370
928.479	8796
928.585	8594
928.69	8697
928.796	8777
928.901	8632
929.007	8488
929.112	8648
929.218	8583
929.323	8629
929.428	8617
929.533	8674
929.638	8450
929.743	8545
929.848	8541
929.953	8571
930.058	8385
930.163	8298
930.267	8313
930.372	8442
930.477	8339
930.581	8461
930.685	8290
930.79	8202
930.894	8237
930.998	8244
931.103	8476
931.207	8069
931.311	7887
931.415	7959
931.519	7795
931.623	7757
