Data from test_V78500241_2570.txt Node
Date: Fri Mar 25 14:51:36 CST 2022
User: usil
Spectrometer: V785-0024
Trigger mode: 0
Integration Time (sec): 4.000000E-1
Scans to average: 1
Nonlinearity correction enabled: false
Boxcar width: 0
Storing dark spectrum: false
XAxis mode: Wavelengths
Number of Pixels in Spectrum: 1024
>>>>>Begin Spectral Data<<<<<
801.071	22051
801.214	21884
801.356	21713
801.499	21542
801.641	21389
801.783	21374
801.926	21466
802.068	21412
802.211	21359
802.353	21211
802.496	21062
802.638	20842
802.78	20960
802.923	20880
803.065	20758
803.208	20762
803.35	20777
803.492	20804
803.635	20883
803.777	20830
803.919	20777
804.061	21013
804.204	20743
804.346	20613
804.488	20602
804.63	20746
804.773	20621
804.915	20655
805.057	20659
805.199	20556
805.341	20773
805.483	20720
805.626	20575
805.768	20495
805.91	20636
806.052	20701
806.194	20613
806.336	20720
806.478	20564
806.62	20587
806.762	20716
806.904	20720
807.046	21043
807.188	20998
807.33	21001
807.472	21039
807.614	20842
807.756	20800
807.898	20712
808.04	20739
808.182	20667
808.324	20769
808.465	20678
808.607	20910
808.749	21001
808.891	21161
809.033	21237
809.174	21066
809.316	20883
809.458	20956
809.6	20918
809.741	21066
809.883	20998
810.025	21116
810.166	21119
810.308	21093
810.45	21104
810.591	21028
810.733	20887
810.875	20739
811.016	20701
811.158	20693
811.299	20830
811.441	20979
811.582	20887
811.724	20788
811.865	20750
812.007	20716
812.148	20693
812.29	20811
812.431	20941
812.573	21146
812.714	21127
812.855	21252
812.997	21393
813.138	21576
813.279	21313
813.421	21199
813.562	21268
813.703	21039
813.845	20895
813.986	20655
814.127	20473
814.268	20454
814.41	20431
814.551	20305
814.692	20317
814.833	20229
814.974	20282
815.115	20412
815.256	20229
815.397	20248
815.539	20278
815.68	20168
815.821	20031
815.962	20161
816.103	19925
816.244	19932
816.385	19647
816.526	19746
816.666	19605
816.807	19487
816.948	19533
817.089	19563
817.23	19426
817.371	19472
817.512	19510
817.653	19289
817.793	19407
817.934	19343
818.075	19457
818.216	19369
818.356	19369
818.497	19255
818.638	19148
818.778	19228
818.919	19190
819.06	19183
819.2	19312
819.341	19392
819.481	19354
819.622	19571
819.762	19643
819.903	19533
820.043	19453
820.184	19487
820.324	19453
820.465	19518
820.605	19438
820.746	19422
820.886	19297
821.026	19460
821.167	19426
821.307	19483
821.447	19339
821.588	19194
821.728	19080
821.868	18977
822.008	18840
822.149	18779
822.289	18852
822.429	18551
822.569	18490
822.709	18551
822.849	18494
822.99	18357
823.13	18388
823.27	18399
823.41	18209
823.55	18098
823.69	18163
823.83	18194
823.97	18049
824.11	17874
824.25	17893
824.389	17950
824.529	17897
824.669	17897
824.809	18114
824.949	18007
825.089	18064
825.228	17950
825.368	17832
825.508	17786
825.648	17695
825.787	17760
825.927	17714
826.067	17558
826.206	17585
826.346	17718
826.485	17661
826.625	17737
826.765	17779
826.904	17718
827.044	17512
827.183	17326
827.323	17318
827.462	17417
827.601	17360
827.741	17288
827.88	17311
828.02	17356
828.159	17398
828.298	17349
828.437	17490
828.577	17265
828.716	17532
828.855	17307
828.994	17254
829.134	17102
829.273	17166
829.412	17121
829.551	17117
829.69	17143
829.829	17121
829.968	17242
830.107	17250
830.246	17041
830.385	17045
830.524	17029
830.663	16957
830.802	16896
830.941	16801
831.08	16736
831.219	16866
831.357	16790
831.496	16976
831.635	16828
831.774	16630
831.913	16725
832.051	16561
832.19	16504
832.329	16721
832.467	16538
832.606	16489
832.744	16462
832.883	16493
833.022	16398
833.16	16542
833.299	16527
833.437	16580
833.576	16550
833.714	16538
833.852	16447
833.991	16569
834.129	16573
834.267	16535
834.406	16577
834.544	16497
834.682	16527
834.821	16538
834.959	16641
835.097	16508
835.235	16588
835.373	16561
835.511	16466
835.65	16421
835.788	16371
835.926	16341
836.064	16207
836.202	16211
836.34	16417
836.478	16542
836.615	16451
836.753	16455
836.891	16580
837.029	16481
837.167	16390
837.305	16310
837.443	16284
837.58	16261
837.718	16348
837.856	16367
837.993	16234
838.131	16310
838.269	16207
838.406	16268
838.544	16154
838.681	16093
838.819	15934
838.956	15797
839.094	15884
839.231	15945
839.369	15934
839.506	16306
839.643	16029
839.781	15835
839.918	15816
840.055	15793
840.193	15831
840.33	15808
840.467	15808
840.604	15861
840.742	16169
840.879	15770
841.016	15743
841.153	15759
841.29	15911
841.427	15850
841.564	15823
841.701	15846
841.838	15755
841.975	15641
842.112	15827
842.249	15614
842.385	15553
842.522	15804
842.659	15633
842.796	15572
842.933	15701
843.069	15618
843.206	15682
843.343	15705
843.479	15698
843.616	15584
843.752	15538
843.889	15412
844.025	15633
844.162	15325
844.298	15553
844.435	15473
844.571	15416
844.708	15416
844.844	15591
844.98	15542
845.117	15568
845.253	15374
845.389	15283
845.525	15359
845.661	15389
845.798	15173
845.934	15325
846.07	15116
846.206	15298
846.342	15359
846.478	15283
846.614	14929
846.75	14857
846.886	14921
847.022	15093
847.158	15020
847.294	15070
847.429	14975
847.565	14963
847.701	15176
847.837	14785
847.972	14674
848.108	14670
848.244	14705
848.379	14617
848.515	14610
848.65	14522
848.786	14610
848.921	14644
849.057	14720
849.192	14731
849.328	14590
849.463	14568
849.598	14617
849.734	14598
849.869	14568
850.004	14393
850.14	14412
850.275	14374
850.41	14237
850.545	14358
850.68	14419
850.815	14355
850.95	14267
851.085	14545
851.22	14427
851.355	14423
851.49	14343
851.625	14385
851.76	14248
851.895	14301
852.03	14278
852.165	14263
852.299	14374
852.434	14469
852.569	14328
852.703	14336
852.838	14431
852.973	14522
853.107	14518
853.242	14332
853.376	14259
853.511	14081
853.645	14168
853.78	14396
853.914	14290
854.048	14126
854.183	14161
854.317	14176
854.451	14423
854.585	14218
854.72	14225
854.854	14298
854.988	14176
855.122	14267
855.256	14126
855.39	14176
855.524	14317
855.658	14328
855.792	14206
855.926	14275
856.06	14202
856.194	14328
856.327	14237
856.461	14172
856.595	14164
856.729	14149
856.862	14290
856.996	14237
857.13	14278
857.263	14309
857.397	14351
857.53	14221
857.664	14324
857.797	14313
857.931	14370
858.064	14263
858.197	14298
858.331	14225
858.464	14172
858.597	14031
858.731	14324
858.864	14199
858.997	14168
859.13	14225
859.263	14252
859.396	14332
859.529	14142
859.662	14145
859.795	14202
859.928	14267
860.061	14351
860.194	14522
860.327	14294
860.46	14176
860.592	14309
860.725	14347
860.858	14408
860.99	14134
861.123	14126
861.256	14123
861.388	14259
861.521	15020
861.653	14134
861.786	14008
861.918	14020
862.05	14126
862.183	14176
862.315	14244
862.447	14301
862.58	14145
862.712	13921
862.844	14008
862.976	14046
863.108	14031
863.24	14431
863.372	13917
863.504	14016
863.636	14054
863.768	14065
863.9	13997
864.032	13947
864.164	13963
864.296	14031
864.428	14084
864.559	14111
864.691	14229
864.823	14016
864.954	14084
865.086	14092
865.217	13963
865.349	13860
865.48	13959
865.612	14001
865.743	14214
865.875	14065
866.006	13906
866.137	14043
866.269	14005
866.4	13967
866.531	14008
866.662	14043
866.793	13921
866.924	13925
867.055	13963
867.186	13993
867.317	13951
867.448	13906
867.579	13921
867.71	13826
867.841	13978
867.972	13963
868.103	13940
868.233	14008
868.364	13986
868.495	14180
868.625	14206
868.756	14355
868.886	14187
869.017	14206
869.147	14381
869.278	14370
869.408	14225
869.539	14324
869.669	14320
869.799	14290
869.929	14355
870.06	14332
870.19	14571
870.32	14552
870.45	14621
870.58	14594
870.71	14678
870.84	14716
870.97	14686
871.1	14693
871.23	14792
871.36	14739
871.489	14705
871.619	14762
871.749	14830
871.879	14891
872.008	14967
872.138	14876
872.267	14762
872.397	14785
872.526	14613
872.656	14549
872.785	14743
872.915	14902
873.044	14975
873.173	14872
873.303	14929
873.432	14899
873.561	14952
873.69	14933
873.819	14918
873.948	14967
874.077	14933
874.206	14918
874.335	14910
874.464	15097
874.593	15173
874.722	15157
874.851	15233
874.979	15146
875.108	15241
875.237	15081
875.365	15093
875.494	15154
875.623	15329
875.751	15222
875.88	15283
876.008	15317
876.136	15492
876.265	15591
876.393	15644
876.521	15686
876.65	15831
876.778	15770
876.906	15584
877.034	15622
877.162	15587
877.29	15507
877.418	15648
877.546	15671
877.674	15648
877.802	15633
877.93	15694
878.058	15538
878.185	15549
878.313	15614
878.441	15622
878.568	15500
878.696	15614
878.824	15606
878.951	15736
879.079	15724
879.206	15930
879.333	15701
879.461	15618
879.588	15743
879.715	15865
879.842	15953
879.97	15698
880.097	15488
880.224	15412
880.351	15485
880.478	15530
880.605	15401
880.732	15500
880.859	15751
880.986	15534
881.112	15496
881.239	15378
881.366	15291
881.493	15218
881.619	15119
881.746	15058
881.872	15195
881.999	15127
882.125	15097
882.252	15199
882.378	15207
882.505	15275
882.631	15036
882.757	15005
882.883	15005
883.01	14948
883.136	14845
883.262	14750
883.388	14762
883.514	14948
883.64	14982
883.766	14861
883.892	14785
884.018	14743
884.143	14948
884.269	14971
884.395	14754
884.52	14640
884.646	14655
884.772	14598
884.897	14632
885.023	14651
885.148	14727
885.274	14777
885.399	14705
885.524	14549
885.65	14617
885.775	14739
885.9	14769
886.025	14880
886.15	14697
886.275	14594
886.4	14617
886.525	14708
886.65	14499
886.775	14571
886.9	14792
887.025	14925
887.149	14606
887.274	14434
887.399	14461
887.523	14606
887.648	14469
887.773	14412
887.897	14587
888.021	14476
888.146	14511
888.27	14579
888.395	14625
888.519	14617
888.643	14655
888.767	14610
888.891	14328
889.015	14339
889.139	14419
889.263	14290
889.387	14511
889.511	14693
889.635	14564
889.759	14290
889.883	14294
890.006	14415
890.13	14518
890.254	14244
890.377	14332
890.501	14191
890.624	14221
890.748	14267
890.871	14100
890.995	14043
891.118	13978
891.241	14172
891.364	14039
891.488	14157
891.611	14206
891.734	14065
891.857	14126
891.98	14024
892.103	14202
892.226	14062
892.349	14100
892.471	13986
892.594	14024
892.717	14103
892.839	14024
892.962	14119
893.085	14180
893.207	14164
893.33	14020
893.452	13993
893.575	14187
893.697	14084
893.819	14218
893.941	14183
894.064	14191
894.186	14054
894.308	14084
894.43	14313
894.552	14339
894.674	14229
894.796	14161
894.918	14142
895.04	14096
895.161	14309
895.283	14183
895.405	14103
895.526	14168
895.648	14275
895.769	14199
895.891	14195
896.012	14313
896.134	14267
896.255	14145
896.376	14298
896.498	14214
896.619	14256
896.74	14324
896.861	14320
896.982	14632
897.103	14655
897.224	14590
897.345	14400
897.466	14488
897.587	14564
897.708	14571
897.828	14625
897.949	14469
898.07	14446
898.19	14503
898.311	14663
898.431	14541
898.552	14625
898.672	14682
898.792	14705
898.913	14724
899.033	14511
899.153	14442
899.273	14412
899.393	14469
899.513	14427
899.633	14431
899.753	14457
899.873	14408
899.993	14560
900.113	14526
900.232	14469
900.352	14526
900.472	14381
900.591	14199
900.711	14362
900.83	14355
900.95	14377
901.069	14457
901.189	14351
901.308	14054
901.427	13944
901.546	13997
901.665	14024
901.784	14130
901.904	13814
902.023	13837
902.141	13696
902.26	13537
902.379	13594
902.498	13556
902.617	13628
902.735	13597
902.854	13636
902.973	13506
903.091	13392
903.21	13236
903.328	13324
903.446	13206
903.565	13141
903.683	13156
903.801	13065
903.919	13103
904.038	13164
904.156	12932
904.274	13008
904.392	12954
904.51	12920
904.627	12962
904.745	13050
904.863	13038
904.981	12829
905.098	12711
905.216	12536
905.334	12635
905.451	12738
905.569	12677
905.686	12646
905.803	12757
905.921	12479
906.038	12570
906.155	12464
906.272	12372
906.389	12456
906.506	12243
906.623	12220
906.74	12239
906.857	12167
906.974	12178
907.091	12323
907.208	12460
907.324	12224
907.441	12277
907.557	12079
907.674	12053
907.79	11908
907.907	11950
908.023	11984
908.139	11984
908.256	11855
908.372	11946
908.488	11893
908.604	11790
908.72	11710
908.836	11809
908.952	11760
909.068	11779
909.184	11874
909.3	11798
909.415	11764
909.531	11840
909.647	11581
909.762	11539
909.878	11509
909.993	11566
910.108	11448
910.224	11551
910.339	11486
910.454	11421
910.57	11383
910.685	11330
910.8	11649
910.915	11558
911.03	11425
911.145	11140
911.259	11220
911.374	11212
911.489	11094
911.604	11159
911.718	11003
911.833	10972
911.947	10843
912.062	10812
912.176	10968
912.291	11022
912.405	10938
912.519	11178
912.633	11155
912.748	11045
912.862	11090
912.976	10919
913.09	10725
913.204	10839
913.318	10873
913.431	10991
913.545	10900
913.659	11045
913.772	10942
913.886	10778
914	10733
914.113	10774
914.226	10824
914.34	10835
914.453	10664
914.566	10778
914.68	10687
914.793	10714
914.906	10554
915.019	10481
915.132	10363
915.245	10432
915.358	10569
915.47	10466
915.583	10519
915.696	10554
915.809	10622
915.921	10634
916.034	10417
916.146	10481
916.259	10402
916.371	10607
916.483	10478
916.595	10443
916.708	10409
916.82	10455
916.932	10459
917.044	10325
917.156	10436
917.268	10287
917.38	10314
917.491	10363
917.603	10329
917.715	10497
917.826	10459
917.938	10299
918.049	10227
918.161	10382
918.272	10466
918.384	10462
918.495	10344
918.606	10246
918.717	10120
918.828	10135
918.939	10211
919.05	10078
919.161	10246
919.272	9979
919.383	10101
919.494	10181
919.604	10394
919.715	10261
919.826	10120
919.936	10185
920.047	10363
920.157	10253
920.267	10367
920.378	10272
920.488	10291
920.598	10455
920.708	10561
920.818	10303
920.928	10375
921.038	10588
921.148	10519
921.258	10318
921.368	10166
921.477	10105
921.587	10036
921.697	9949
921.806	10128
921.916	10017
922.025	9789
922.134	9724
922.244	9660
922.353	9800
922.462	9618
922.571	9584
922.68	9477
922.789	9431
922.898	9492
923.007	9447
923.116	9488
923.224	9454
923.333	9454
923.442	9382
923.55	9306
923.659	9302
923.767	9428
923.876	9260
923.984	9363
924.092	9340
924.201	9291
924.309	9332
924.417	9317
924.525	9283
924.633	9306
924.741	10044
924.849	9089
924.956	9317
925.064	9100
925.172	9055
925.279	9070
925.387	9142
925.494	9074
925.602	9325
925.709	9214
925.816	9066
925.924	9116
926.031	9188
926.138	9085
926.245	9230
926.352	9074
926.459	9138
926.566	9241
926.673	9055
926.779	9024
926.886	8960
926.993	8796
927.099	8849
927.206	8807
927.312	8830
927.419	8845
927.525	8826
927.631	8876
927.737	8724
927.843	8720
927.95	8648
928.056	8724
928.162	8781
928.267	8804
928.373	9443
928.479	8891
928.585	8541
928.69	8716
928.796	8777
928.901	8632
929.007	8514
929.112	8629
929.218	8640
929.323	8560
929.428	8583
929.533	8743
929.638	8518
929.743	8583
929.848	8587
929.953	8530
930.058	8495
930.163	8256
930.267	8275
930.372	8427
930.477	8328
930.581	8537
930.685	8381
930.79	8286
930.894	8419
930.998	8305
931.103	8415
931.207	8084
931.311	7955
931.415	7940
931.519	7795
931.623	7799
