Data from test_V78500241_2885.txt Node
Date: Fri Mar 25 14:53:48 CST 2022
User: usil
Spectrometer: V785-0024
Trigger mode: 0
Integration Time (sec): 4.000000E-1
Scans to average: 1
Nonlinearity correction enabled: false
Boxcar width: 0
Storing dark spectrum: false
XAxis mode: Wavelengths
Number of Pixels in Spectrum: 1024
>>>>>Begin Spectral Data<<<<<
801.071	22150
801.214	22006
801.356	21880
801.499	21614
801.641	21454
801.783	21511
801.926	21511
802.068	21321
802.211	21344
802.353	21237
802.496	21066
802.638	21005
802.78	20979
802.923	20895
803.065	20750
803.208	20659
803.35	20845
803.492	20834
803.635	21043
803.777	20887
803.919	20899
804.061	21195
804.204	20914
804.346	20777
804.488	20716
804.63	20731
804.773	20689
804.915	20651
805.057	20811
805.199	20575
805.341	20769
805.483	20830
805.626	20876
805.768	20560
805.91	20754
806.052	20758
806.194	20564
806.336	20864
806.478	20587
806.62	20625
806.762	20693
806.904	20933
807.046	21127
807.188	21009
807.33	21093
807.472	21009
807.614	20921
807.756	20960
807.898	20823
808.04	20800
808.182	20785
808.324	20754
808.465	20788
808.607	21039
808.749	21077
808.891	21283
809.033	21340
809.174	21188
809.316	21074
809.458	21127
809.6	21074
809.741	21123
809.883	21074
810.025	21268
810.166	21214
810.308	21146
810.45	21237
810.591	21089
810.733	20982
810.875	20906
811.016	20880
811.158	20625
811.299	20948
811.441	21051
811.582	20861
811.724	20899
811.865	20834
812.007	20842
812.148	20731
812.29	20819
812.431	21043
812.573	21138
812.714	21192
812.855	21264
812.997	21386
813.138	21549
813.279	21382
813.421	21329
813.562	21291
813.703	20998
813.845	20929
813.986	20708
814.127	20613
814.268	20366
814.41	20377
814.551	20374
814.692	20473
814.833	20214
814.974	20374
815.115	20396
815.256	20278
815.397	20199
815.539	20305
815.68	20065
815.821	20176
815.962	20016
816.103	20103
816.244	19974
816.385	19841
816.526	19772
816.666	19635
816.807	19449
816.948	19670
817.089	19628
817.23	19594
817.371	19518
817.512	19487
817.653	19472
817.793	19506
817.934	19483
818.075	19407
818.216	19586
818.356	19495
818.497	19396
818.638	19194
818.778	19194
818.919	19183
819.06	19213
819.2	19255
819.341	19331
819.481	19396
819.622	19464
819.762	19700
819.903	19658
820.043	19620
820.184	19506
820.324	19343
820.465	19616
820.605	19506
820.746	19495
820.886	19335
821.026	19438
821.167	19388
821.307	19601
821.447	19422
821.588	19301
821.728	19118
821.868	19034
822.008	18901
822.149	18859
822.289	18875
822.429	18642
822.569	18597
822.709	18490
822.849	18494
822.99	18384
823.13	18292
823.27	18220
823.41	18209
823.55	18178
823.69	18273
823.83	18239
823.97	18171
824.11	17950
824.25	18057
824.389	17935
824.529	18060
824.669	18068
824.809	18003
824.949	18064
825.089	18049
825.228	18015
825.368	17821
825.508	17680
825.648	17783
825.787	17775
825.927	17756
826.067	17653
826.206	17668
826.346	17840
826.485	17775
826.625	17726
826.765	17828
826.904	17783
827.044	17615
827.183	17482
827.323	17402
827.462	17497
827.601	17486
827.741	17414
827.88	17410
828.02	17277
828.159	17239
828.298	17395
828.437	17440
828.577	17353
828.716	17577
828.855	17318
828.994	17250
829.134	17136
829.273	17227
829.412	17223
829.551	17200
829.69	17136
829.829	17181
829.968	17193
830.107	17159
830.246	17193
830.385	17098
830.524	17109
830.663	16999
830.802	16835
830.941	16793
831.08	16706
831.219	16957
831.357	16801
831.496	17033
831.635	16801
831.774	16820
831.913	16774
832.051	16569
832.19	16596
832.329	16668
832.467	16478
832.606	16447
832.744	16455
832.883	16436
833.022	16390
833.16	16409
833.299	16504
833.437	16508
833.576	16504
833.714	16577
833.852	16554
833.991	16531
834.129	16546
834.267	16637
834.406	16443
834.544	16554
834.682	16554
834.821	16550
834.959	16679
835.097	16523
835.235	16691
835.373	16577
835.511	16531
835.65	16466
835.788	16386
835.926	16215
836.064	16116
836.202	16325
836.34	16466
836.478	16497
836.615	16417
836.753	16493
836.891	16500
837.029	16386
837.167	16371
837.305	16337
837.443	16242
837.58	16261
837.718	16443
837.856	16306
837.993	16192
838.131	16379
838.269	16200
838.406	16238
838.544	16166
838.681	15968
838.819	15968
838.956	15804
839.094	15812
839.231	15816
839.369	15964
839.506	16166
839.643	16185
839.781	15888
839.918	15846
840.055	15846
840.193	15816
840.33	15827
840.467	15831
840.604	15922
840.742	16135
840.879	15713
841.016	15724
841.153	15819
841.29	15968
841.427	15865
841.564	15827
841.701	15816
841.838	15789
841.975	15728
842.112	15816
842.249	15762
842.385	15534
842.522	15751
842.659	15648
842.796	15545
842.933	15648
843.069	15603
843.206	15622
843.343	15694
843.479	15648
843.616	15549
843.752	15450
843.889	15511
844.025	15572
844.162	15420
844.298	15633
844.435	15378
844.571	15321
844.708	15545
844.844	15549
844.98	15549
845.117	15542
845.253	15294
845.389	15389
845.525	15317
845.661	15340
845.798	15165
845.934	15291
846.07	15123
846.206	15245
846.342	15325
846.478	15169
846.614	15013
846.75	14994
846.886	14925
847.022	15150
847.158	14956
847.294	15070
847.429	14914
847.565	14929
847.701	15245
847.837	14716
847.972	14731
848.108	14807
848.244	14807
848.379	14682
848.515	14621
848.65	14507
848.786	14587
848.921	14594
849.057	14754
849.192	14670
849.328	14712
849.463	14655
849.598	14541
849.734	14461
849.869	14495
850.004	14343
850.14	14495
850.275	14298
850.41	14282
850.545	14381
850.68	14408
850.815	14343
850.95	14423
851.085	14484
851.22	14480
851.355	14450
851.49	14366
851.625	14393
851.76	14339
851.895	14286
852.03	14199
852.165	14332
852.299	14305
852.434	14408
852.569	14294
852.703	14385
852.838	14389
852.973	14545
853.107	14450
853.242	14366
853.376	14187
853.511	14050
853.645	14115
853.78	14305
853.914	14278
854.048	14244
854.183	14221
854.317	14199
854.451	14423
854.585	14305
854.72	14176
854.854	14298
854.988	14107
855.122	14081
855.256	14088
855.39	14138
855.524	14374
855.658	14339
855.792	14233
855.926	14240
856.06	14237
856.194	14366
856.327	14172
856.461	14126
856.595	14107
856.729	14244
856.862	14366
856.996	14267
857.13	14225
857.263	14324
857.397	14355
857.53	14244
857.664	14271
857.797	14275
857.931	14305
858.064	14248
858.197	14263
858.331	14138
858.464	14153
858.597	14195
858.731	14301
858.864	14168
858.997	14206
859.13	14263
859.263	14210
859.396	14233
859.529	14161
859.662	14096
859.795	14115
859.928	14324
860.061	14370
860.194	14385
860.327	14282
860.46	14157
860.592	14290
860.725	14221
860.858	14282
860.99	14259
861.123	14123
861.256	14187
861.388	14214
861.521	14826
861.653	14168
861.786	14100
861.918	14005
862.05	14161
862.183	14176
862.315	14126
862.447	14290
862.58	14172
862.712	14027
862.844	13970
862.976	14046
863.108	14069
863.24	14396
863.372	13913
863.504	13970
863.636	14027
863.768	13997
863.9	13989
864.032	13993
864.164	13951
864.296	14027
864.428	14001
864.559	14054
864.691	14050
864.823	14111
864.954	14020
865.086	13955
865.217	13986
865.349	13902
865.48	13978
865.612	13982
865.743	14069
865.875	13947
866.006	13978
866.137	13974
866.269	13970
866.4	13967
866.531	14012
866.662	13967
866.793	13860
866.924	13955
867.055	13982
867.186	13955
867.317	13906
867.448	13879
867.579	13936
867.71	13902
867.841	13982
867.972	13963
868.103	13928
868.233	14005
868.364	13852
868.495	14001
868.625	14195
868.756	14278
868.886	14172
869.017	14218
869.147	14328
869.278	14240
869.408	14252
869.539	14183
869.669	14259
869.799	14199
869.929	14358
870.06	14305
870.19	14587
870.32	14514
870.45	14408
870.58	14632
870.71	14682
870.84	14765
870.97	14610
871.1	14568
871.23	14880
871.36	14777
871.489	14788
871.619	14807
871.749	14781
871.879	14941
872.008	14910
872.138	14804
872.267	14735
872.397	14670
872.526	14648
872.656	14686
872.785	14724
872.915	14891
873.044	14925
873.173	14819
873.303	14811
873.432	14807
873.561	14925
873.69	14887
873.819	14861
873.948	14910
874.077	15036
874.206	14811
874.335	14887
874.464	15013
874.593	15195
874.722	14975
874.851	15245
874.979	15275
875.108	15207
875.237	15161
875.365	14944
875.494	15104
875.623	15195
875.751	15226
875.88	15218
876.008	15355
876.136	15420
876.265	15637
876.393	15736
876.521	15629
876.65	15701
876.778	15587
876.906	15576
877.034	15599
877.162	15614
877.29	15545
877.418	15568
877.546	15606
877.674	15606
877.802	15637
877.93	15576
878.058	15576
878.185	15507
878.313	15603
878.441	15701
878.568	15477
878.696	15408
878.824	15614
878.951	15705
879.079	15797
879.206	15895
879.333	15728
879.461	15580
879.588	15747
879.715	15869
879.842	15926
879.97	15755
880.097	15481
880.224	15439
880.351	15401
880.478	15458
880.605	15405
880.732	15408
880.859	15705
880.986	15477
881.112	15530
881.239	15393
881.366	15218
881.493	15291
881.619	15142
881.746	15237
881.872	15058
881.999	15055
882.125	15066
882.252	15097
882.378	15150
882.505	15211
882.631	15081
882.757	14925
882.883	14914
883.01	14963
883.136	14750
883.262	14754
883.388	14743
883.514	14929
883.64	15051
883.766	14781
883.892	14769
884.018	14792
884.143	14899
884.269	15032
884.395	14686
884.52	14549
884.646	14625
884.772	14602
884.897	14495
885.023	14708
885.148	14739
885.274	14819
885.399	14842
885.524	14705
885.65	14594
885.775	14716
885.9	14610
886.025	14834
886.15	14750
886.275	14598
886.4	14503
886.525	14655
886.65	14503
886.775	14537
886.9	14731
887.025	14792
887.149	14530
887.274	14579
887.399	14427
887.523	14343
887.648	14343
887.773	14298
887.897	14480
888.021	14526
888.146	14431
888.27	14625
888.395	14667
888.519	14469
888.643	14492
888.767	14530
888.891	14374
889.015	14282
889.139	14431
889.263	14202
889.387	14480
889.511	14579
889.635	14457
889.759	14271
889.883	14305
890.006	14377
890.13	14457
890.254	14275
890.377	14336
890.501	14229
890.624	14081
890.748	14218
890.871	13997
890.995	14005
891.118	13921
891.241	14065
891.364	14054
891.488	14176
891.611	14001
891.734	13989
891.857	14183
891.98	14134
892.103	14199
892.226	14065
892.349	13993
892.471	13871
892.594	13993
892.717	14020
892.839	13955
892.962	14115
893.085	14145
893.207	14001
893.33	13871
893.452	13837
893.575	14126
893.697	13917
893.819	14157
893.941	14218
894.064	14218
894.186	13986
894.308	14039
894.43	14161
894.552	14183
894.674	14195
894.796	13974
894.918	14073
895.04	14039
895.161	14157
895.283	14180
895.405	14031
895.526	14142
895.648	14130
895.769	14138
895.891	14256
896.012	14259
896.134	14168
896.255	14149
896.376	14100
896.498	14244
896.619	14282
896.74	14214
896.861	14259
896.982	14488
897.103	14701
897.224	14499
897.345	14533
897.466	14442
897.587	14408
897.708	14549
897.828	14575
897.949	14374
898.07	14248
898.19	14412
898.311	14663
898.431	14533
898.552	14526
898.672	14590
898.792	14697
898.913	14552
899.033	14541
899.153	14473
899.273	14366
899.393	14396
899.513	14480
899.633	14423
899.753	14457
899.873	14355
899.993	14530
900.113	14457
900.232	14446
900.352	14374
900.472	14298
900.591	14240
900.711	14298
900.83	14233
900.95	14252
901.069	14457
901.189	14290
901.308	14039
901.427	13890
901.546	13932
901.665	13982
901.784	14043
901.904	13826
902.023	13742
902.141	13578
902.26	13639
902.379	13483
902.498	13518
902.617	13453
902.735	13556
902.854	13525
902.973	13445
903.091	13339
903.21	13217
903.328	13240
903.446	13141
903.565	13080
903.683	13194
903.801	12970
903.919	12996
904.038	13069
904.156	12886
904.274	12966
904.392	13008
904.51	12970
904.627	12924
904.745	12966
904.863	12973
904.981	12639
905.098	12555
905.216	12608
905.334	12673
905.451	12563
905.569	12509
905.686	12620
905.803	12646
905.921	12418
906.038	12506
906.155	12418
906.272	12334
906.389	12323
906.506	12133
906.623	12171
906.74	12239
906.857	12129
906.974	12060
907.091	12216
907.208	12338
907.324	12304
907.441	12102
907.557	11901
907.674	11958
907.79	11859
907.907	11855
908.023	11927
908.139	11832
908.256	11847
908.372	11923
908.488	11756
908.604	11737
908.72	11661
908.836	11760
908.952	11752
909.068	11699
909.184	11870
909.3	11718
909.415	11741
909.531	11668
909.647	11455
909.762	11410
909.878	11383
909.993	11455
910.108	11478
910.224	11448
910.339	11391
910.454	11433
910.57	11212
910.685	11193
910.8	11512
910.915	11410
911.03	11341
911.145	11140
911.259	11231
911.374	11159
911.489	11086
911.604	11022
911.718	10889
911.833	10965
911.947	10805
912.062	10736
912.176	10885
912.291	10999
912.405	10900
912.519	11155
912.633	11075
912.748	11029
912.862	10968
912.976	10873
913.09	10706
913.204	10736
913.318	10881
913.431	10862
913.545	10911
913.659	10980
913.772	10812
913.886	10733
914	10721
914.113	10755
914.226	10793
914.34	10828
914.453	10645
914.566	10733
914.68	10641
914.793	10611
914.906	10470
915.019	10440
915.132	10261
915.245	10360
915.358	10360
915.47	10405
915.583	10440
915.696	10504
915.809	10584
915.921	10596
916.034	10459
916.146	10447
916.259	10470
916.371	10455
916.483	10485
916.595	10337
916.708	10413
916.82	10455
916.932	10367
917.044	10322
917.156	10348
917.268	10310
917.38	10306
917.491	10253
917.603	10299
917.715	10398
917.826	10295
917.938	10268
918.049	10211
918.161	10219
918.272	10421
918.384	10436
918.495	10280
918.606	10128
918.717	10086
918.828	10074
918.939	10227
919.05	10090
919.161	10078
919.272	9926
919.383	10006
919.494	10200
919.604	10394
919.715	10143
919.826	10128
919.936	10135
920.047	10284
920.157	10215
920.267	10386
920.378	10192
920.488	10162
920.598	10375
920.708	10508
920.818	10318
920.928	10329
921.038	10577
921.148	10493
921.258	10215
921.368	10135
921.477	10071
921.587	10021
921.697	9968
921.806	9934
921.916	9876
922.025	9759
922.134	9766
922.244	9720
922.353	9778
922.462	9618
922.571	9526
922.68	9428
922.789	9469
922.898	9386
923.007	9397
923.116	9473
923.224	9416
923.333	9408
923.442	9279
923.55	9253
923.659	9256
923.767	9313
923.876	9211
923.984	9344
924.092	9272
924.201	9245
924.309	9291
924.417	9260
924.525	9256
924.633	9264
924.741	10211
924.849	8986
924.956	9218
925.064	9081
925.172	9039
925.279	9074
925.387	8998
925.494	9074
925.602	9192
925.709	9188
925.816	8952
925.924	8998
926.031	9199
926.138	9074
926.245	9131
926.352	8952
926.459	9097
926.566	9237
926.673	9074
926.779	8982
926.886	8933
926.993	8796
927.099	8785
927.206	8754
927.312	8712
927.419	8883
927.525	8838
927.631	8861
927.737	8769
927.843	8644
927.95	8495
928.056	8697
928.162	8708
928.267	8781
928.373	9313
928.479	8815
928.585	8507
928.69	8724
928.796	8766
928.901	8617
929.007	8473
929.112	8594
929.218	8560
929.323	8434
929.428	8495
929.533	8651
929.638	8419
929.743	8518
929.848	8564
929.953	8613
930.058	8427
930.163	8282
930.267	8343
930.372	8442
930.477	8332
930.581	8469
930.685	8347
930.79	8210
930.894	8210
930.998	8195
931.103	8336
931.207	7963
931.311	7970
931.415	7845
931.519	7750
931.623	7708
