Data from test_V78500241_2964.txt Node
Date: Fri Mar 25 14:54:21 CST 2022
User: usil
Spectrometer: V785-0024
Trigger mode: 0
Integration Time (sec): 4.000000E-1
Scans to average: 1
Nonlinearity correction enabled: false
Boxcar width: 0
Storing dark spectrum: false
XAxis mode: Wavelengths
Number of Pixels in Spectrum: 1024
>>>>>Begin Spectral Data<<<<<
801.071	22162
801.214	21975
801.356	21736
801.499	21618
801.641	21500
801.783	21363
801.926	21488
802.068	21488
802.211	21291
802.353	21245
802.496	20963
802.638	21036
802.78	20944
802.923	20830
803.065	20739
803.208	20712
803.35	20861
803.492	20918
803.635	20963
803.777	20727
803.919	20830
804.061	21138
804.204	20807
804.346	20762
804.488	20655
804.63	20670
804.773	20629
804.915	20785
805.057	20838
805.199	20655
805.341	20800
805.483	20758
805.626	20739
805.768	20697
805.91	20777
806.052	20750
806.194	20655
806.336	20830
806.478	20678
806.62	20727
806.762	20720
806.904	20899
807.046	21093
807.188	21093
807.33	21009
807.472	21123
807.614	21001
807.756	20902
807.898	20925
808.04	20800
808.182	20773
808.324	20769
808.465	20781
808.607	21005
808.749	21043
808.891	21195
809.033	21226
809.174	21161
809.316	20986
809.458	21119
809.6	21104
809.741	21127
809.883	21188
810.025	21260
810.166	21241
810.308	21294
810.45	21241
810.591	21123
810.733	20914
810.875	20891
811.016	20880
811.158	20815
811.299	20868
811.441	20963
811.582	20960
811.724	20796
811.865	20811
812.007	20823
812.148	20781
812.29	20918
812.431	21138
812.573	21058
812.714	21127
812.855	21344
812.997	21447
813.138	21553
813.279	21504
813.421	21355
813.562	21211
813.703	21169
813.845	21020
813.986	20777
814.127	20526
814.268	20442
814.41	20313
814.551	20412
814.692	20480
814.833	20347
814.974	20309
815.115	20385
815.256	20210
815.397	20252
815.539	20202
815.68	20115
815.821	19989
815.962	20176
816.103	20115
816.244	19928
816.385	19982
816.526	19845
816.666	19662
816.807	19529
816.948	19670
817.089	19750
817.23	19559
817.371	19487
817.512	19552
817.653	19453
817.793	19601
817.934	19499
818.075	19590
818.216	19422
818.356	19457
818.497	19464
818.638	19198
818.778	19206
818.919	19137
819.06	19278
819.2	19293
819.341	19377
819.481	19403
819.622	19578
819.762	19784
819.903	19685
820.043	19635
820.184	19476
820.324	19609
820.465	19662
820.605	19601
820.746	19544
820.886	19373
821.026	19480
821.167	19510
821.307	19620
821.447	19518
821.588	19327
821.728	19297
821.868	19110
822.008	18894
822.149	18951
822.289	18814
822.429	18646
822.569	18612
822.709	18566
822.849	18376
822.99	18422
823.13	18289
823.27	18544
823.41	18277
823.55	18110
823.69	18281
823.83	18388
823.97	18121
824.11	18087
824.25	17954
824.389	18003
824.529	17950
824.669	17984
824.809	18064
824.949	18133
825.089	18140
825.228	18053
825.368	17828
825.508	17832
825.648	17794
825.787	17969
825.927	17855
826.067	17760
826.206	17726
826.346	17885
826.485	17786
826.625	17752
826.765	17851
826.904	17726
827.044	17649
827.183	17497
827.323	17493
827.462	17566
827.601	17592
827.741	17421
827.88	17501
828.02	17364
828.159	17497
828.298	17547
828.437	17535
828.577	17455
828.716	17501
828.855	17337
828.994	17242
829.134	17231
829.273	17277
829.412	17113
829.551	17200
829.69	17178
829.829	17246
829.968	17368
830.107	17280
830.246	17318
830.385	17105
830.524	17162
830.663	17117
830.802	16915
830.941	16782
831.08	16839
831.219	16896
831.357	16873
831.496	17029
831.635	16748
831.774	16767
831.913	16752
832.051	16660
832.19	16637
832.329	16618
832.467	16538
832.606	16466
832.744	16519
832.883	16462
833.022	16436
833.16	16481
833.299	16580
833.437	16554
833.576	16538
833.714	16603
833.852	16812
833.991	16561
834.129	16653
834.267	16561
834.406	16535
834.544	16611
834.682	16588
834.821	16527
834.959	16744
835.097	16508
835.235	16641
835.373	16550
835.511	16645
835.65	16367
835.788	16527
835.926	16329
836.064	16284
836.202	16371
836.34	16565
836.478	16565
836.615	16291
836.753	16478
836.891	16504
837.029	16352
837.167	16344
837.305	16226
837.443	16337
837.58	16257
837.718	16451
837.856	16436
837.993	16291
838.131	16333
838.269	16360
838.406	16299
838.544	16177
838.681	16086
838.819	16032
838.956	15926
839.094	15759
839.231	15930
839.369	16029
839.506	16215
839.643	16162
839.781	15903
839.918	15838
840.055	15892
840.193	15861
840.33	15987
840.467	15850
840.604	15934
840.742	16093
840.879	15736
841.016	15846
841.153	15854
841.29	15968
841.427	15888
841.564	15949
841.701	15960
841.838	15781
841.975	15732
842.112	15823
842.249	15660
842.385	15580
842.522	15732
842.659	15690
842.796	15694
842.933	15705
843.069	15644
843.206	15663
843.343	15637
843.479	15762
843.616	15625
843.752	15477
843.889	15408
844.025	15587
844.162	15523
844.298	15606
844.435	15424
844.571	15416
844.708	15500
844.844	15545
844.98	15652
845.117	15488
845.253	15329
845.389	15214
845.525	15313
845.661	15275
845.798	15230
845.934	15283
846.07	15192
846.206	15275
846.342	15412
846.478	15123
846.614	15047
846.75	14906
846.886	14986
847.022	15169
847.158	14994
847.294	15001
847.429	15070
847.565	14971
847.701	15230
847.837	14632
847.972	14739
848.108	14750
848.244	14769
848.379	14667
848.515	14629
848.65	14583
848.786	14507
848.921	14625
849.057	14670
849.192	14629
849.328	14746
849.463	14686
849.598	14598
849.734	14454
849.869	14438
850.004	14385
850.14	14396
850.275	14336
850.41	14286
850.545	14328
850.68	14339
850.815	14377
850.95	14252
851.085	14530
851.22	14492
851.355	14400
851.49	14381
851.625	14336
851.76	14237
851.895	14176
852.03	14168
852.165	14400
852.299	14389
852.434	14427
852.569	14381
852.703	14415
852.838	14518
852.973	14518
853.107	14419
853.242	14358
853.376	14191
853.511	14065
853.645	14229
853.78	14332
853.914	14202
854.048	14233
854.183	14221
854.317	14282
854.451	14259
854.585	14214
854.72	14183
854.854	14229
854.988	14065
855.122	14157
855.256	14035
855.39	14206
855.524	14328
855.658	14244
855.792	14339
855.926	14187
856.06	14259
856.194	14374
856.327	14229
856.461	14183
856.595	14290
856.729	14298
856.862	14381
856.996	14259
857.13	14282
857.263	14339
857.397	14431
857.53	14176
857.664	14301
857.797	14294
857.931	14343
858.064	14256
858.197	14332
858.331	14191
858.464	14164
858.597	14084
858.731	14244
858.864	14149
858.997	14172
859.13	14225
859.263	14183
859.396	14377
859.529	14142
859.662	14191
859.795	14157
859.928	14286
860.061	14347
860.194	14438
860.327	14237
860.46	14214
860.592	14301
860.725	14461
860.858	14309
860.99	14206
861.123	14168
861.256	14206
861.388	14301
861.521	14857
861.653	14088
861.786	14081
861.918	14054
862.05	14145
862.183	14221
862.315	14157
862.447	14221
862.58	14145
862.712	14046
862.844	13890
862.976	14050
863.108	14024
863.24	14389
863.372	13841
863.504	14001
863.636	14062
863.768	13967
863.9	14073
864.032	13959
864.164	13986
864.296	14069
864.428	14123
864.559	13989
864.691	14100
864.823	14027
864.954	14039
865.086	13993
865.217	13875
865.349	14046
865.48	14016
865.612	13997
865.743	14229
865.875	13944
866.006	14046
866.137	14020
866.269	14050
866.4	13947
866.531	13959
866.662	13940
866.793	13951
866.924	13944
867.055	14058
867.186	13921
867.317	13898
867.448	13890
867.579	13906
867.71	13898
867.841	13951
867.972	13963
868.103	13887
868.233	14012
868.364	14005
868.495	14065
868.625	14229
868.756	14324
868.886	14103
869.017	14336
869.147	14324
869.278	14381
869.408	14309
869.539	14206
869.669	14286
869.799	14237
869.929	14366
870.06	14237
870.19	14438
870.32	14533
870.45	14590
870.58	14579
870.71	14788
870.84	14785
870.97	14602
871.1	14632
871.23	14796
871.36	14746
871.489	14781
871.619	14777
871.749	14876
871.879	14830
872.008	14990
872.138	14834
872.267	14796
872.397	14667
872.526	14735
872.656	14594
872.785	14705
872.915	14887
873.044	14887
873.173	14811
873.303	14910
873.432	14952
873.561	14971
873.69	14807
873.819	14910
873.948	14960
874.077	14857
874.206	14845
874.335	14967
874.464	15047
874.593	15165
874.722	15218
874.851	15222
874.979	15180
875.108	15291
875.237	15089
875.365	15138
875.494	15108
875.623	15214
875.751	15195
875.88	15321
876.008	15393
876.136	15405
876.265	15507
876.393	15804
876.521	15599
876.65	15542
876.778	15603
876.906	15538
877.034	15523
877.162	15637
877.29	15599
877.418	15557
877.546	15648
877.674	15538
877.802	15561
877.93	15652
878.058	15599
878.185	15469
878.313	15576
878.441	15644
878.568	15435
878.696	15667
878.824	15572
878.951	15690
879.079	15717
879.206	15949
879.333	15854
879.461	15663
879.588	15629
879.715	15770
879.842	15987
879.97	15629
880.097	15504
880.224	15416
880.351	15481
880.478	15526
880.605	15431
880.732	15466
880.859	15538
880.986	15526
881.112	15584
881.239	15340
881.366	15222
881.493	15195
881.619	15089
881.746	15108
881.872	15207
881.999	15058
882.125	15135
882.252	15199
882.378	15135
882.505	15268
882.631	15051
882.757	14937
882.883	14880
883.01	14876
883.136	14842
883.262	14800
883.388	14762
883.514	14948
883.64	14990
883.766	14849
883.892	14785
884.018	14743
884.143	14956
884.269	14975
884.395	14640
884.52	14507
884.646	14522
884.772	14541
884.897	14560
885.023	14670
885.148	14735
885.274	14769
885.399	14674
885.524	14560
885.65	14663
885.775	14693
885.9	14545
886.025	14826
886.15	14735
886.275	14594
886.4	14556
886.525	14625
886.65	14571
886.775	14537
886.9	14739
887.025	14819
887.149	14590
887.274	14457
887.399	14476
887.523	14476
887.648	14381
887.773	14488
887.897	14511
888.021	14545
888.146	14419
888.27	14518
888.395	14549
888.519	14465
888.643	14495
888.767	14579
888.891	14495
889.015	14240
889.139	14408
889.263	14339
889.387	14454
889.511	14469
889.635	14507
889.759	14282
889.883	14206
890.006	14305
890.13	14438
890.254	14286
890.377	14347
890.501	14161
890.624	14096
890.748	14210
890.871	14123
890.995	13997
891.118	13936
891.241	13959
891.364	14020
891.488	14130
891.611	14100
891.734	14005
891.857	14050
891.98	14031
892.103	14012
892.226	14111
892.349	13997
892.471	13890
892.594	14062
892.717	13967
892.839	13978
892.962	14005
893.085	14073
893.207	14046
893.33	13921
893.452	13967
893.575	14088
893.697	14035
893.819	14214
893.941	14256
894.064	14172
894.186	14001
894.308	13978
894.43	14107
894.552	14244
894.674	14229
894.796	14005
894.918	14016
895.04	14039
895.161	14168
895.283	14214
895.405	14096
895.526	14069
895.648	14161
895.769	14187
895.891	14324
896.012	14240
896.134	14138
896.255	14328
896.376	14248
896.498	14214
896.619	14221
896.74	14240
896.861	14267
896.982	14530
897.103	14670
897.224	14575
897.345	14415
897.466	14423
897.587	14434
897.708	14632
897.828	14610
897.949	14431
898.07	14366
898.19	14476
898.311	14621
898.431	14480
898.552	14575
898.672	14629
898.792	14598
898.913	14632
899.033	14636
899.153	14427
899.273	14328
899.393	14385
899.513	14454
899.633	14434
899.753	14499
899.873	14347
899.993	14412
900.113	14389
900.232	14488
900.352	14408
900.472	14400
900.591	14317
900.711	14248
900.83	14332
900.95	14332
901.069	14332
901.189	14229
901.308	14123
901.427	13921
901.546	13982
901.665	13989
901.784	13963
901.904	13868
902.023	13807
902.141	13601
902.26	13590
902.379	13738
902.498	13616
902.617	13449
902.735	13499
902.854	13578
902.973	13388
903.091	13263
903.21	13247
903.328	13240
903.446	13198
903.565	13114
903.683	13194
903.801	13000
903.919	13088
904.038	13095
904.156	12943
904.274	12993
904.392	12886
904.51	12989
904.627	12916
904.745	12993
904.863	12909
904.981	12745
905.098	12578
905.216	12646
905.334	12642
905.451	12654
905.569	12589
905.686	12627
905.803	12623
905.921	12445
906.038	12536
906.155	12403
906.272	12369
906.389	12384
906.506	12152
906.623	12140
906.74	12136
906.857	12102
906.974	12148
907.091	12262
907.208	12319
907.324	12353
907.441	12167
907.557	11939
907.674	12030
907.79	11828
907.907	11931
908.023	11961
908.139	11939
908.256	11889
908.372	11866
908.488	11813
908.604	11680
908.72	11608
908.836	11684
908.952	11623
909.068	11718
909.184	11912
909.3	11634
909.415	11874
909.531	11703
909.647	11554
909.762	11455
909.878	11383
909.993	11478
910.108	11421
910.224	11414
910.339	11414
910.454	11402
910.57	11307
910.685	11239
910.8	11516
910.915	11562
911.03	11356
911.145	11189
911.259	11170
911.374	11128
911.489	11155
911.604	11018
911.718	10965
911.833	10923
911.947	10767
912.062	10797
912.176	10949
912.291	10892
912.405	11033
912.519	11025
912.633	11132
912.748	10984
912.862	10999
912.976	10843
913.09	10656
913.204	10683
913.318	10839
913.431	10820
913.545	10987
913.659	10949
913.772	10816
913.886	10790
914	10630
914.113	10809
914.226	10820
914.34	10793
914.453	10656
914.566	10809
914.68	10656
914.793	10615
914.906	10470
915.019	10455
915.132	10333
915.245	10478
915.358	10402
915.47	10519
915.583	10512
915.696	10436
915.809	10538
915.921	10535
916.034	10386
916.146	10386
916.259	10344
916.371	10424
916.483	10466
916.595	10375
916.708	10402
916.82	10489
916.932	10394
917.044	10386
917.156	10375
917.268	10261
917.38	10230
917.491	10276
917.603	10367
917.715	10428
917.826	10398
917.938	10276
918.049	10097
918.161	10333
918.272	10470
918.384	10352
918.495	10246
918.606	10188
918.717	10071
918.828	10162
918.939	10223
919.05	10147
919.161	10063
919.272	9915
919.383	10017
919.494	10188
919.604	10352
919.715	10223
919.826	10109
919.936	10101
920.047	10249
920.157	10135
920.267	10367
920.378	10223
920.488	10188
920.598	10413
920.708	10588
920.818	10409
920.928	10386
921.038	10618
921.148	10569
921.258	10166
921.368	10131
921.477	10112
921.587	10067
921.697	9972
921.806	10055
921.916	10013
922.025	9789
922.134	9705
922.244	9720
922.353	9732
922.462	9629
922.571	9511
922.68	9431
922.789	9416
922.898	9439
923.007	9336
923.116	9511
923.224	9370
923.333	9466
923.442	9325
923.55	9230
923.659	9340
923.767	9306
923.876	9291
923.984	9298
924.092	9253
924.201	9237
924.309	9340
924.417	9283
924.525	9211
924.633	9249
924.741	10200
924.849	9039
924.956	9169
925.064	9074
925.172	8994
925.279	9081
925.387	9116
925.494	9047
925.602	9226
925.709	9230
925.816	8998
925.924	9169
926.031	9214
926.138	9131
926.245	9169
926.352	8963
926.459	9154
926.566	9245
926.673	9089
926.779	8986
926.886	9077
926.993	8876
927.099	8788
927.206	8781
927.312	8792
927.419	8823
927.525	8800
927.631	8796
927.737	8743
927.843	8762
927.95	8560
928.056	8670
928.162	8708
928.267	8758
928.373	9329
928.479	8781
928.585	8568
928.69	8693
928.796	8739
928.901	8602
929.007	8610
929.112	8613
929.218	8564
929.323	8454
929.428	8526
929.533	8610
929.638	8450
929.743	8552
929.848	8507
929.953	8492
930.058	8324
930.163	8233
930.267	8282
930.372	8442
930.477	8298
930.581	8431
930.685	8385
930.79	8218
930.894	8328
930.998	8229
931.103	8343
931.207	8077
931.311	8012
931.415	7883
931.519	7772
931.623	7719
