Data from test_V78500241_272.txt Node
Date: Fri Mar 25 14:35:37 CST 2022
User: usil
Spectrometer: V785-0024
Trigger mode: 0
Integration Time (sec): 4.000000E-1
Scans to average: 1
Nonlinearity correction enabled: false
Boxcar width: 0
Storing dark spectrum: false
XAxis mode: Wavelengths
Number of Pixels in Spectrum: 1024
>>>>>Begin Spectral Data<<<<<
801.071	27473
801.214	27321
801.356	27043
801.499	26960
801.641	26792
801.783	26845
801.926	26849
802.068	26629
802.211	26651
802.353	26712
802.496	26419
802.638	26526
802.78	26298
802.923	26374
803.065	26263
803.208	26210
803.35	26358
803.492	26259
803.635	26453
803.777	26320
803.919	26370
804.061	26811
804.204	26431
804.346	26473
804.488	26271
804.63	26218
804.773	26126
804.915	26393
805.057	26389
805.199	26271
805.341	26355
805.483	26339
805.626	26423
805.768	26240
805.91	26366
806.052	26339
806.194	26233
806.336	26511
806.478	26370
806.62	26271
806.762	26396
806.904	26473
807.046	26830
807.188	26712
807.33	26800
807.472	26853
807.614	26708
807.756	26762
807.898	26575
808.04	26568
808.182	26640
808.324	26659
808.465	26602
808.607	26887
808.749	27047
808.891	27074
809.033	27211
809.174	27123
809.316	27096
809.458	27013
809.6	26864
809.741	26963
809.883	26838
810.025	27028
810.166	27024
810.308	27096
810.45	26998
810.591	26952
810.733	26712
810.875	26743
811.016	26575
811.158	26549
811.299	26689
811.441	26826
811.582	26815
811.724	26667
811.865	26712
812.007	26724
812.148	26720
812.29	26807
812.431	26914
812.573	27028
812.714	27112
812.855	27199
812.997	27332
813.138	27340
813.279	27332
813.421	27226
813.562	27157
813.703	27009
813.845	26979
813.986	26530
814.127	26461
814.268	26358
814.41	26275
814.551	26305
814.692	26385
814.833	26183
814.974	26252
815.115	26278
815.256	26134
815.397	26168
815.539	25940
815.68	26046
815.821	25966
815.962	26103
816.103	25986
816.244	25788
816.385	25738
816.526	25693
816.666	25616
816.807	25392
816.948	25400
817.089	25510
817.23	25373
817.371	25472
817.512	25263
817.653	25316
817.793	25312
817.934	25373
818.075	25289
818.216	25346
818.356	25320
818.497	25266
818.638	24985
818.778	25038
818.919	25152
819.06	25152
819.2	25308
819.341	25308
819.481	25335
819.622	25396
819.762	25533
819.903	25544
820.043	25514
820.184	25301
820.324	25259
820.465	25388
820.605	25377
820.746	25304
820.886	25225
821.026	25388
821.167	25354
821.307	25396
821.447	25141
821.588	25171
821.728	25042
821.868	24757
822.008	24665
822.149	24658
822.289	24753
822.429	24471
822.569	24353
822.709	24376
822.849	24228
822.99	24197
823.13	24205
823.27	24011
823.41	23965
823.55	23836
823.69	23908
823.83	23912
823.97	23965
824.11	23695
824.25	23722
824.389	23676
824.529	23745
824.669	23737
824.809	23878
824.949	23733
825.089	23836
825.228	23733
825.368	23608
825.508	23543
825.648	23596
825.787	23623
825.927	23493
826.067	23478
826.206	23440
826.346	23634
826.485	23566
826.625	23326
826.765	23611
826.904	23543
827.044	23318
827.183	23147
827.323	23155
827.462	23197
827.601	23185
827.741	23083
827.88	23246
828.02	23033
828.159	23064
828.298	23277
828.437	23159
828.577	23067
828.716	23265
828.855	23064
828.994	22889
829.134	22904
829.273	22908
829.412	22752
829.551	22915
829.69	22961
829.829	22862
829.968	22896
830.107	23029
830.246	22908
830.385	22915
830.524	22847
830.663	22588
830.802	22599
830.941	22546
831.08	22436
831.219	22443
831.357	22481
831.496	22679
831.635	22375
831.774	22470
831.913	22329
832.051	22226
832.19	22150
832.329	22150
832.467	22101
832.606	22082
832.744	22135
832.883	22143
833.022	22124
833.16	22173
833.299	22097
833.437	22021
833.576	22078
833.714	22147
833.852	22154
833.991	22147
834.129	22112
834.267	22215
834.406	22112
834.544	22059
834.682	22048
834.821	22055
834.959	22272
835.097	21949
835.235	22143
835.373	21960
835.511	21991
835.65	22063
835.788	22002
835.926	21778
836.064	21774
836.202	21709
836.34	21915
836.478	22063
836.615	22006
836.753	21907
836.891	21964
837.029	21888
837.167	21884
837.305	21842
837.443	21755
837.58	21743
837.718	21778
837.856	21804
837.993	21576
838.131	21800
838.269	21675
838.406	21724
838.544	21644
838.681	21325
838.819	21268
838.956	21127
839.094	21264
839.231	21264
839.369	21283
839.506	21504
839.643	21454
839.781	21135
839.918	21028
840.055	21199
840.193	21043
840.33	21146
840.467	21146
840.604	21283
840.742	21336
840.879	21051
841.016	21028
841.153	21058
841.29	21218
841.427	21146
841.564	21138
841.701	21119
841.838	20948
841.975	20944
842.112	20914
842.249	20883
842.385	20762
842.522	21066
842.659	20891
842.796	20693
842.933	20883
843.069	20788
843.206	20720
843.343	20823
843.479	20785
843.616	20743
843.752	20613
843.889	20655
844.025	20781
844.162	20583
844.298	20796
844.435	20476
844.571	20541
844.708	20507
844.844	20590
844.98	20579
845.117	20621
845.253	20613
845.389	20450
845.525	20495
845.661	20499
845.798	20495
845.934	20511
846.07	20499
846.206	20404
846.342	20659
846.478	20412
846.614	20240
846.75	20100
846.886	20043
847.022	20161
847.158	20096
847.294	19947
847.429	20073
847.565	20050
847.701	20294
847.837	19860
847.972	19662
848.108	19845
848.244	19803
848.379	19655
848.515	19609
848.65	19510
848.786	19609
848.921	19552
849.057	19662
849.192	19753
849.328	19563
849.463	19651
849.598	19457
849.734	19483
849.869	19499
850.004	19331
850.14	19419
850.275	19304
850.41	19263
850.545	19308
850.68	19301
850.815	19400
850.95	19320
851.085	19396
851.22	19377
851.355	19209
851.49	19373
851.625	19293
851.76	19164
851.895	19171
852.03	19088
852.165	19183
852.299	19217
852.434	19285
852.569	19304
852.703	19320
852.838	19343
852.973	19544
853.107	19331
853.242	19213
853.376	19255
853.511	19171
853.645	19050
853.78	19232
853.914	19091
854.048	19050
854.183	19000
854.317	19137
854.451	19377
854.585	19168
854.72	19114
854.854	19240
854.988	19091
855.122	19118
855.256	18977
855.39	19103
855.524	19240
855.658	19282
855.792	19072
855.926	19076
856.06	19228
856.194	19190
856.327	19126
856.461	19015
856.595	19050
856.729	19076
856.862	19164
856.996	19114
857.13	19080
857.263	19194
857.397	19202
857.53	19160
857.664	19148
857.797	19084
857.931	19156
858.064	19031
858.197	19133
858.331	18996
858.464	18932
858.597	19061
858.731	19080
858.864	19122
858.997	18985
859.13	18985
859.263	19110
859.396	19107
859.529	19008
859.662	18958
859.795	18970
859.928	19034
860.061	19107
860.194	19183
860.327	19042
860.46	19019
860.592	19095
860.725	19187
860.858	19118
860.99	19012
861.123	18897
861.256	19000
861.388	19034
861.521	19662
861.653	18966
861.786	18821
861.918	18859
862.05	18954
862.183	19027
862.315	19069
862.447	19156
862.58	19038
862.712	18852
862.844	18802
862.976	18985
863.108	18783
863.24	19160
863.372	18597
863.504	18719
863.636	18802
863.768	18783
863.9	18783
864.032	18703
864.164	18795
864.296	18817
864.428	18875
864.559	18886
864.691	18886
864.823	18783
864.954	18726
865.086	18760
865.217	18707
865.349	18646
865.48	18654
865.612	18654
865.743	18791
865.875	18627
866.006	18646
866.137	18802
866.269	18578
866.4	18677
866.531	18749
866.662	18566
866.793	18582
866.924	18536
867.055	18604
867.186	18684
867.317	18551
867.448	18384
867.579	18616
867.71	18509
867.841	18570
867.972	18555
868.103	18646
868.233	18620
868.364	18593
868.495	18779
868.625	18943
868.756	18996
868.886	18719
869.017	18833
869.147	18901
869.278	18837
869.408	18833
869.539	18760
869.669	18932
869.799	18798
869.929	18993
870.06	18954
870.19	19202
870.32	19122
870.45	19015
870.58	19312
870.71	19350
870.84	19346
870.97	19122
871.1	19168
871.23	19392
871.36	19502
871.489	19308
871.619	19312
871.749	19499
871.879	19419
872.008	19502
872.138	19552
872.267	19415
872.397	19362
872.526	19225
872.656	19301
872.785	19266
872.915	19373
873.044	19468
873.173	19510
873.303	19510
873.432	19400
873.561	19556
873.69	19407
873.819	19521
873.948	19548
874.077	19514
874.206	19449
874.335	19400
874.464	19502
874.593	19731
874.722	19769
874.851	19795
874.979	19590
875.108	19734
875.237	19647
875.365	19601
875.494	19708
875.623	19875
875.751	19727
875.88	19757
876.008	19868
876.136	19932
876.265	20031
876.393	20130
876.521	20271
876.65	20195
876.778	20206
876.906	20138
877.034	20191
877.162	20103
877.29	20035
877.418	20092
877.546	20142
877.674	20081
877.802	20164
877.93	20195
878.058	20172
878.185	19978
878.313	20161
878.441	20294
878.568	20046
878.696	20050
878.824	20176
878.951	20294
879.079	20301
879.206	20381
879.333	20396
879.461	20351
879.588	20434
879.715	20339
879.842	20514
879.97	20301
880.097	20062
880.224	19974
880.351	20046
880.478	20107
880.605	20001
880.732	20130
880.859	20298
880.986	19940
881.112	20088
881.239	19784
881.366	19670
881.493	19681
881.619	19567
881.746	19601
881.872	19537
881.999	19487
882.125	19556
882.252	19590
882.378	19635
882.505	19742
882.631	19388
882.757	19407
882.883	19468
883.01	19445
883.136	19282
883.262	19221
883.388	19221
883.514	19289
883.64	19331
883.766	19228
883.892	19133
884.018	19217
884.143	19350
884.269	19419
884.395	19110
884.52	19065
884.646	19019
884.772	18996
884.897	18905
885.023	19019
885.148	19107
885.274	19046
885.399	19076
885.524	18958
885.65	19023
885.775	19015
885.9	19061
886.025	19168
886.15	19072
886.275	18897
886.4	18814
886.525	18848
886.65	18882
886.775	18871
886.9	19187
887.025	19228
887.149	19019
887.274	18726
887.399	18779
887.523	18741
887.648	18646
887.773	18665
887.897	18837
888.021	18829
888.146	18681
888.27	18821
888.395	18844
888.519	18703
888.643	18738
888.767	18783
888.891	18764
889.015	18585
889.139	18635
889.263	18574
889.387	18604
889.511	18700
889.635	18597
889.759	18540
889.883	18521
890.006	18521
890.13	18677
890.254	18410
890.377	18521
890.501	18239
890.624	18273
890.748	18426
890.871	18273
890.995	18178
891.118	18121
891.241	18098
891.364	18076
891.488	18258
891.611	18049
891.734	18129
891.857	18209
891.98	18159
892.103	18258
892.226	18076
892.349	18102
892.471	17969
892.594	18144
892.717	18091
892.839	18121
892.962	18182
893.085	18171
893.207	18136
893.33	18057
893.452	18072
893.575	18121
893.697	17969
893.819	18216
893.941	18338
894.064	18232
894.186	18106
894.308	17988
894.43	18197
894.552	18380
894.674	18216
894.796	17992
894.918	18030
895.04	17992
895.161	18243
895.283	18117
895.405	18022
895.526	18216
895.648	18064
895.769	18072
895.891	18171
896.012	18171
896.134	18254
896.255	18285
896.376	18182
896.498	18102
896.619	18121
896.74	18140
896.861	18311
896.982	18479
897.103	18608
897.224	18437
897.345	18369
897.466	18353
897.587	18475
897.708	18582
897.828	18422
897.949	18330
898.07	18205
898.19	18361
898.311	18391
898.431	18376
898.552	18304
898.672	18513
898.792	18361
898.913	18399
899.033	18296
899.153	18136
899.273	18197
899.393	18068
899.513	18270
899.633	18121
899.753	18144
899.873	18148
899.993	18133
900.113	18114
900.232	18300
900.352	18140
900.472	17977
900.591	17920
900.711	17965
900.83	17843
900.95	18011
901.069	18182
901.189	17916
901.308	17741
901.427	17630
901.546	17657
901.665	17539
901.784	17691
901.904	17551
902.023	17402
902.141	17193
902.26	17204
902.379	17254
902.498	17067
902.617	17033
902.735	17117
902.854	17006
902.973	17037
903.091	16919
903.21	16774
903.328	16831
903.446	16721
903.565	16637
903.683	16626
903.801	16561
903.919	16588
904.038	16577
904.156	16451
904.274	16447
904.392	16348
904.51	16470
904.627	16295
904.745	16421
904.863	16428
904.981	16185
905.098	16131
905.216	16006
905.334	16029
905.451	16105
905.569	15918
905.686	16044
905.803	16002
905.921	15911
906.038	15907
906.155	15918
906.272	15686
906.389	15755
906.506	15648
906.623	15648
906.74	15561
906.857	15443
906.974	15515
907.091	15603
907.208	15724
907.324	15614
907.441	15496
907.557	15340
907.674	15294
907.79	15275
907.907	15275
908.023	15291
908.139	15310
908.256	15169
908.372	15260
908.488	15119
908.604	14998
908.72	14948
908.836	15005
908.952	14941
909.068	15066
909.184	14998
909.3	14979
909.415	15036
909.531	15028
909.647	14819
909.762	14724
909.878	14773
909.993	14746
910.108	14655
910.224	14667
910.339	14674
910.454	14610
910.57	14415
910.685	14549
910.8	14743
910.915	14602
911.03	14602
911.145	14313
911.259	14332
911.374	14336
911.489	14298
911.604	14244
911.718	14073
911.833	14123
911.947	13906
912.062	13906
912.176	14035
912.291	14001
912.405	13974
912.519	14259
912.633	14202
912.748	14103
912.862	14012
912.976	13921
913.09	13750
913.204	13845
913.318	13890
913.431	13940
913.545	13887
913.659	13951
913.772	13898
913.886	13742
914	13632
914.113	13769
914.226	13871
914.34	13845
914.453	13624
914.566	13727
914.68	13712
914.793	13651
914.906	13392
915.019	13240
915.132	13289
915.245	13434
915.358	13460
915.47	13419
915.583	13430
915.696	13388
915.809	13491
915.921	13464
916.034	13350
916.146	13316
916.259	13278
916.371	13396
916.483	13396
916.595	13316
916.708	13149
916.82	13362
916.932	13266
917.044	13304
917.156	13183
917.268	13110
917.38	13198
917.491	13084
917.603	13050
917.715	13213
917.826	13160
917.938	12989
918.049	12954
918.161	13133
918.272	13225
918.384	13149
918.495	13034
918.606	12913
918.717	12810
918.828	12939
918.939	13019
919.05	12791
919.161	12840
919.272	12620
919.383	12642
919.494	12894
919.604	13031
919.715	12928
919.826	12783
919.936	12875
920.047	12973
920.157	12871
920.267	13015
920.378	12886
920.488	12745
920.598	13084
920.708	13137
920.818	13038
920.928	12981
921.038	13221
921.148	13095
921.258	12772
921.368	12677
921.477	12604
921.587	12620
921.697	12486
921.806	12639
921.916	12513
922.025	12369
922.134	12334
922.244	12247
922.353	12308
922.462	12106
922.571	12034
922.68	11958
922.789	11958
922.898	11984
923.007	11840
923.116	11969
923.224	11901
923.333	11832
923.442	11817
923.55	11676
923.659	11699
923.767	11870
923.876	11752
923.984	11836
924.092	11703
924.201	11699
924.309	11722
924.417	11661
924.525	11627
924.633	11619
924.741	12536
924.849	11490
924.956	11600
925.064	11512
925.172	11353
925.279	11356
925.387	11455
925.494	11440
925.602	11566
925.709	11455
925.816	11406
925.924	11349
926.031	11486
926.138	11436
926.245	11414
926.352	11353
926.459	11497
926.566	11471
926.673	11330
926.779	11242
926.886	11227
926.993	11060
927.099	11029
927.206	11109
927.312	11003
927.419	11067
927.525	11060
927.631	11124
927.737	10968
927.843	10965
927.95	10790
928.056	10892
928.162	10984
928.267	10919
928.373	11493
928.479	11025
928.585	10634
928.69	10839
928.796	10873
928.901	10729
929.007	10580
929.112	10714
929.218	10752
929.323	10683
929.428	10687
929.533	10782
929.638	10615
929.743	10721
929.848	10611
929.953	10607
930.058	10489
930.163	10390
930.267	10394
930.372	10523
930.477	10405
930.581	10577
930.685	10447
930.79	10268
930.894	10261
930.998	10177
931.103	10455
931.207	9983
931.311	9918
931.415	9899
931.519	9713
931.623	9705
