Data from test_V78500241_1123.txt Node
Date: Fri Mar 25 14:41:32 CST 2022
User: usil
Spectrometer: V785-0024
Trigger mode: 0
Integration Time (sec): 4.000000E-1
Scans to average: 1
Nonlinearity correction enabled: false
Boxcar width: 0
Storing dark spectrum: false
XAxis mode: Wavelengths
Number of Pixels in Spectrum: 1024
>>>>>Begin Spectral Data<<<<<
801.071	22611
801.214	22546
801.356	22318
801.499	22287
801.641	22063
801.783	22040
801.926	21975
802.068	21865
802.211	21884
802.353	21713
802.496	21606
802.638	21477
802.78	21481
802.923	21412
803.065	21313
803.208	21298
803.35	21397
803.492	21287
803.635	21477
803.777	21249
803.919	21374
804.061	21526
804.204	21431
804.346	21173
804.488	21230
804.63	21260
804.773	21237
804.915	21207
805.057	21336
805.199	21306
805.341	21351
805.483	21435
805.626	21252
805.768	21260
805.91	21272
806.052	21275
806.194	21146
806.336	21408
806.478	21348
806.62	21306
806.762	21420
806.904	21519
807.046	21652
807.188	21614
807.33	21599
807.472	21724
807.614	21500
807.756	21591
807.898	21549
808.04	21553
808.182	21492
808.324	21599
808.465	21580
808.607	21819
808.749	21960
808.891	22067
809.033	22204
809.174	21964
809.316	21968
809.458	21880
809.6	21793
809.741	21838
809.883	21831
810.025	22006
810.166	21975
810.308	21823
810.45	21804
810.591	21705
810.733	21580
810.875	21469
811.016	21412
811.158	21310
811.299	21507
811.441	21561
811.582	21637
811.724	21564
811.865	21545
812.007	21389
812.148	21466
812.29	21488
812.431	21553
812.573	21823
812.714	21823
812.855	21934
812.997	21972
813.138	22196
813.279	22124
813.421	22097
813.562	21812
813.703	21701
813.845	21633
813.986	21291
814.127	21161
814.268	21135
814.41	21214
814.551	21039
814.692	21055
814.833	20982
814.974	21066
815.115	21066
815.256	20842
815.397	20883
815.539	20826
815.68	20765
815.821	20598
815.962	20826
816.103	20602
816.244	20575
816.385	20632
816.526	20476
816.666	20286
816.807	20142
816.948	20202
817.089	20336
817.23	20210
817.371	20259
817.512	20195
817.653	20115
817.793	20088
817.934	20199
818.075	20221
818.216	20172
818.356	20096
818.497	20050
818.638	19788
818.778	19830
818.919	19814
819.06	19974
819.2	19974
819.341	20027
819.481	20058
819.622	20096
819.762	20389
819.903	20286
820.043	20168
820.184	20119
820.324	20084
820.465	20126
820.605	20191
820.746	20035
820.886	19970
821.026	20130
821.167	20027
821.307	20134
821.447	20043
821.588	19986
821.728	19852
821.868	19723
822.008	19548
822.149	19499
822.289	19426
822.429	19308
822.569	19225
822.709	19164
822.849	19061
822.99	19065
823.13	19091
823.27	19038
823.41	18871
823.55	18825
823.69	18852
823.83	18783
823.97	18833
824.11	18707
824.25	18608
824.389	18620
824.529	18646
824.669	18700
824.809	18703
824.949	18821
825.089	18768
825.228	18631
825.368	18369
825.508	18479
825.648	18422
825.787	18380
825.927	18536
826.067	18445
826.206	18350
826.346	18460
826.485	18437
826.625	18323
826.765	18498
826.904	18452
827.044	18197
827.183	18182
827.323	18133
827.462	18148
827.601	18114
827.741	17992
827.88	18095
828.02	17992
828.159	18015
828.298	18129
828.437	18140
828.577	18072
828.716	18353
828.855	18026
828.994	17824
829.134	17809
829.273	17931
829.412	17775
829.551	17805
829.69	17802
829.829	17882
829.968	17897
830.107	17847
830.246	17775
830.385	17786
830.524	17687
830.663	17600
830.802	17592
830.941	17429
831.08	17486
831.219	17471
831.357	17520
831.496	17661
831.635	17558
831.774	17337
831.913	17364
832.051	17349
832.19	17345
832.329	17254
832.467	17204
832.606	17037
832.744	17140
832.883	17174
833.022	17056
833.16	17223
833.299	17185
833.437	17143
833.576	17292
833.714	17216
833.852	17296
833.991	17227
834.129	17322
834.267	17326
834.406	17193
834.544	17326
834.682	17239
834.821	17220
834.959	17311
835.097	17166
835.235	17292
835.373	17254
835.511	17132
835.65	17098
835.788	17185
835.926	16930
836.064	16835
836.202	16957
836.34	17159
836.478	17170
836.615	17220
836.753	17079
836.891	17223
837.029	17235
837.167	17147
837.305	17075
837.443	16976
837.58	16930
837.718	17140
837.856	17003
837.993	16927
838.131	17033
838.269	16927
838.406	16858
838.544	16904
838.681	16710
838.819	16615
838.956	16558
839.094	16622
839.231	16599
839.369	16675
839.506	17022
839.643	16847
839.781	16580
839.918	16531
840.055	16615
840.193	16546
840.33	16424
840.467	16538
840.604	16466
840.742	16831
840.879	16367
841.016	16478
841.153	16462
841.29	16577
841.427	16489
841.564	16508
841.701	16500
841.838	16363
841.975	16428
842.112	16280
842.249	16280
842.385	16253
842.522	16451
842.659	16352
842.796	16211
842.933	16337
843.069	16169
843.206	16200
843.343	16360
843.479	16329
843.616	16337
843.752	16078
843.889	16135
844.025	16234
844.162	15934
844.298	16234
844.435	16112
844.571	16124
844.708	16215
844.844	16223
844.98	16276
845.117	16204
845.253	16090
845.389	16078
845.525	16143
845.661	16162
845.798	16223
845.934	16291
846.07	16192
846.206	16306
846.342	16306
846.478	16078
846.614	15941
846.75	15717
846.886	15644
847.022	15827
847.158	15709
847.294	15682
847.429	15587
847.565	15667
847.701	15934
847.837	15367
847.972	15488
848.108	15439
848.244	15477
848.379	15260
848.515	15256
848.65	15154
848.786	15298
848.921	15310
849.057	15340
849.192	15272
849.328	15332
849.463	15275
849.598	15230
849.734	15226
849.869	15180
850.004	15036
850.14	15058
850.275	14998
850.41	14944
850.545	14960
850.68	14929
850.815	14933
850.95	15043
851.085	15142
851.22	15074
851.355	15036
851.49	15001
851.625	14998
851.76	14861
851.895	14887
852.03	14876
852.165	14998
852.299	14998
852.434	15116
852.569	15097
852.703	15089
852.838	15043
852.973	15226
853.107	15127
853.242	14975
853.376	14883
853.511	14861
853.645	14918
853.78	14948
853.914	14880
854.048	14845
854.183	14762
854.317	14963
854.451	15097
854.585	14777
854.72	14960
854.854	14921
854.988	14807
855.122	14857
855.256	14804
855.39	14838
855.524	14979
855.658	14864
855.792	14819
855.926	14944
856.06	14895
856.194	14902
856.327	14899
856.461	14872
856.595	14838
856.729	14910
856.862	14899
856.996	14891
857.13	14948
857.263	14952
857.397	14948
857.53	14861
857.664	14807
857.797	14849
857.931	14979
858.064	14948
858.197	15066
858.331	14864
858.464	14830
858.597	14765
858.731	14815
858.864	14807
858.997	14895
859.13	14845
859.263	14811
859.396	14998
859.529	14765
859.662	14765
859.795	14849
859.928	14899
860.061	15039
860.194	14971
860.327	14815
860.46	14876
860.592	14975
860.725	14994
860.858	14948
860.99	14849
861.123	14838
861.256	14811
861.388	14944
861.521	15526
861.653	14773
861.786	14670
861.918	14689
862.05	14773
862.183	14845
862.315	14899
862.447	14941
862.58	14705
862.712	14610
862.844	14560
862.976	14743
863.108	14682
863.24	15085
863.372	14575
863.504	14610
863.636	14564
863.768	14735
863.9	14648
864.032	14575
864.164	14663
864.296	14727
864.428	14659
864.559	14724
864.691	14788
864.823	14670
864.954	14613
865.086	14693
865.217	14568
865.349	14579
865.48	14632
865.612	14667
865.743	14807
865.875	14632
866.006	14507
866.137	14606
866.269	14682
866.4	14663
866.531	14583
866.662	14549
866.793	14632
866.924	14613
867.055	14655
867.186	14590
867.317	14564
867.448	14469
867.579	14552
867.71	14571
867.841	14537
867.972	14617
868.103	14720
868.233	14621
868.364	14537
868.495	14617
868.625	14796
868.756	14975
868.886	14762
869.017	14785
869.147	14887
869.278	14975
869.408	14872
869.539	14842
869.669	14941
869.799	14910
869.929	14921
870.06	15005
870.19	15131
870.32	15211
870.45	15138
870.58	15230
870.71	15485
870.84	15294
870.97	15264
871.1	15207
871.23	15405
871.36	15507
871.489	15355
871.619	15450
871.749	15462
871.879	15523
872.008	15584
872.138	15492
872.267	15511
872.397	15329
872.526	15226
872.656	15291
872.785	15348
872.915	15477
873.044	15515
873.173	15545
873.303	15515
873.432	15553
873.561	15538
873.69	15485
873.819	15568
873.948	15564
874.077	15584
874.206	15428
874.335	15488
874.464	15686
874.593	15770
874.722	15751
874.851	15774
874.979	15903
875.108	15831
875.237	15762
875.365	15732
875.494	15850
875.623	15854
875.751	15831
875.88	15850
876.008	15873
876.136	16116
876.265	16287
876.393	16371
876.521	16291
876.65	16268
876.778	16306
876.906	16215
877.034	16188
877.162	16268
877.29	16230
877.418	16238
877.546	16200
877.674	16280
877.802	16181
877.93	16249
878.058	16219
878.185	16169
878.313	16344
878.441	16295
878.568	16105
878.696	16207
878.824	16322
878.951	16333
879.079	16561
879.206	16679
879.333	16592
879.461	16455
879.588	16489
879.715	16573
879.842	16672
879.97	16409
880.097	16204
880.224	16128
880.351	16215
880.478	16234
880.605	16124
880.732	16120
880.859	16371
880.986	16071
881.112	16143
881.239	15998
881.366	15884
881.493	15743
881.619	15751
881.746	15759
881.872	15755
881.999	15637
882.125	15690
882.252	15819
882.378	15831
882.505	15857
882.631	15800
882.757	15523
882.883	15724
883.01	15603
883.136	15572
883.262	15469
883.388	15435
883.514	15682
883.64	15591
883.766	15374
883.892	15386
884.018	15447
884.143	15641
884.269	15622
884.395	15283
884.52	15218
884.646	15370
884.772	15173
884.897	15154
885.023	15233
885.148	15435
885.274	15469
885.399	15340
885.524	15298
885.65	15260
885.775	15264
885.9	15230
886.025	15382
886.15	15306
886.275	15279
886.4	15119
886.525	15317
886.65	15127
886.775	15287
886.9	15313
887.025	15405
887.149	15294
887.274	15116
887.399	15005
887.523	15013
887.648	15032
887.773	15043
887.897	15142
888.021	15214
888.146	15070
888.27	15157
888.395	15226
888.519	15165
888.643	15093
888.767	15116
888.891	15047
889.015	14982
889.139	14918
889.263	14864
889.387	15081
889.511	15074
889.635	15127
889.759	14807
889.883	14830
890.006	15055
890.13	15036
890.254	14758
890.377	14891
890.501	14796
890.624	14701
890.748	14758
890.871	14743
890.995	14602
891.118	14476
891.241	14667
891.364	14571
891.488	14674
891.611	14556
891.734	14587
891.857	14697
891.98	14648
892.103	14617
892.226	14667
892.349	14549
892.471	14537
892.594	14610
892.717	14575
892.839	14686
892.962	14606
893.085	14644
893.207	14575
893.33	14415
893.452	14495
893.575	14689
893.697	14530
893.819	14769
893.941	14849
894.064	14727
894.186	14583
894.308	14488
894.43	14648
894.552	14705
894.674	14727
894.796	14484
894.918	14575
895.04	14621
895.161	14720
895.283	14727
895.405	14495
895.526	14674
895.648	14659
895.769	14708
895.891	14754
896.012	14807
896.134	14807
896.255	14750
896.376	14758
896.498	14693
896.619	14838
896.74	14777
896.861	14826
896.982	15097
897.103	15184
897.224	15108
897.345	15051
897.466	15017
897.587	14986
897.708	15142
897.828	15070
897.949	14971
898.07	14842
898.19	14956
898.311	15123
898.431	15058
898.552	15055
898.672	15169
898.792	15142
898.913	15077
899.033	15032
899.153	14948
899.273	14804
899.393	14838
899.513	14933
899.633	14868
899.753	15009
899.873	14933
899.993	14998
900.113	14830
900.232	15005
900.352	15005
900.472	14785
900.591	14864
900.711	14800
900.83	14689
900.95	14883
901.069	14975
901.189	14807
901.308	14412
901.427	14507
901.546	14469
901.665	14457
901.784	14537
901.904	14347
902.023	14248
902.141	14142
902.26	14119
902.379	14054
902.498	14050
902.617	13951
902.735	14043
902.854	14069
902.973	13913
903.091	13738
903.21	13738
903.328	13655
903.446	13784
903.565	13582
903.683	13575
903.801	13419
903.919	13552
904.038	13563
904.156	13434
904.274	13422
904.392	13388
904.51	13441
904.627	13407
904.745	13487
904.863	13422
904.981	13209
905.098	13080
905.216	13080
905.334	13080
905.451	13149
905.569	13091
905.686	13206
905.803	13065
905.921	12935
906.038	12981
906.155	12935
906.272	12779
906.389	12821
906.506	12673
906.623	12692
906.74	12719
906.857	12513
906.974	12627
907.091	12673
907.208	12772
907.324	12730
907.441	12585
907.557	12365
907.674	12388
907.79	12376
907.907	12350
908.023	12437
908.139	12437
908.256	12296
908.372	12281
908.488	12201
908.604	12209
908.72	12125
908.836	12186
908.952	12117
909.068	12129
909.184	12213
909.3	12182
909.415	12148
909.531	12163
909.647	11996
909.762	11927
909.878	11912
909.993	11889
910.108	11882
910.224	11920
910.339	11992
910.454	11752
910.57	11817
910.685	11672
910.8	12030
910.915	11927
911.03	11726
911.145	11604
911.259	11573
911.374	11596
911.489	11532
911.604	11516
911.718	11402
911.833	11398
911.947	11273
912.062	11235
912.176	11383
912.291	11391
912.405	11425
912.519	11562
912.633	11573
912.748	11433
912.862	11440
912.976	11288
913.09	11162
913.204	11201
913.318	11197
913.431	11391
913.545	11429
913.659	11341
913.772	11326
913.886	11075
914	11109
914.113	11220
914.226	11273
914.34	11162
914.453	10961
914.566	11216
914.68	11098
914.793	11006
914.906	10927
915.019	10850
915.132	10748
915.245	10797
915.358	10831
915.47	10930
915.583	10911
915.696	10972
915.809	11060
915.921	11010
916.034	10854
916.146	10805
916.259	10790
916.371	10900
916.483	10835
916.595	10755
916.708	10904
916.82	10759
916.932	10744
917.044	10748
917.156	10725
917.268	10596
917.38	10733
917.491	10634
917.603	10683
917.715	10721
917.826	10793
917.938	10679
918.049	10592
918.161	10656
918.272	10831
918.384	10774
918.495	10691
918.606	10550
918.717	10402
918.828	10550
918.939	10554
919.05	10497
919.161	10413
919.272	10428
919.383	10344
919.494	10558
919.604	10717
919.715	10569
919.826	10516
919.936	10584
920.047	10538
920.157	10584
920.267	10763
920.378	10634
920.488	10500
920.598	10748
920.708	10930
920.818	10622
920.928	10778
921.038	10885
921.148	10915
921.258	10592
921.368	10421
921.477	10341
921.587	10413
921.697	10268
921.806	10398
921.916	10303
922.025	10154
922.134	10188
922.244	10101
922.353	10147
922.462	10002
922.571	9972
922.68	9838
922.789	9743
922.898	9823
923.007	9778
923.116	9854
923.224	9861
923.333	9789
923.442	9686
923.55	9686
923.659	9641
923.767	9755
923.876	9667
923.984	9698
924.092	9568
924.201	9637
924.309	9675
924.417	9736
924.525	9652
924.633	9743
924.741	10318
924.849	9443
924.956	9584
925.064	9462
925.172	9408
925.279	9370
925.387	9492
925.494	9435
925.602	9576
925.709	9496
925.816	9405
925.924	9443
926.031	9561
926.138	9367
926.245	9515
926.352	9435
926.459	9458
926.566	9587
926.673	9359
926.779	9268
926.886	9325
926.993	9211
927.099	9142
927.206	9184
927.312	9161
927.419	9161
927.525	9199
927.631	9176
927.737	9062
927.843	9070
927.95	8948
928.056	8967
928.162	9085
928.267	9119
928.373	9755
928.479	9150
928.585	8887
928.69	9066
928.796	9017
928.901	8967
929.007	8781
929.112	9020
929.218	8941
929.323	8857
929.428	8910
929.533	9058
929.638	8868
929.743	8804
929.848	8937
929.953	8872
930.058	8758
930.163	8667
930.267	8629
930.372	8750
930.477	8545
930.581	8853
930.685	8659
930.79	8533
930.894	8610
930.998	8560
931.103	8731
931.207	8355
931.311	8377
931.415	8199
931.519	8081
931.623	8058
