Data from test_V78500241_1960.txt Node
Date: Fri Mar 25 14:47:21 CST 2022
User: usil
Spectrometer: V785-0024
Trigger mode: 0
Integration Time (sec): 4.000000E-1
Scans to average: 1
Nonlinearity correction enabled: false
Boxcar width: 0
Storing dark spectrum: false
XAxis mode: Wavelengths
Number of Pixels in Spectrum: 1024
>>>>>Begin Spectral Data<<<<<
801.071	22223
801.214	21960
801.356	21819
801.499	21728
801.641	21545
801.783	21469
801.926	21572
802.068	21313
802.211	21336
802.353	21241
802.496	21135
802.638	21009
802.78	20826
802.923	20902
803.065	20655
803.208	20762
803.35	20758
803.492	20910
803.635	21017
803.777	20830
803.919	20800
804.061	21123
804.204	20762
804.346	20701
804.488	20556
804.63	20769
804.773	20712
804.915	20667
805.057	20750
805.199	20655
805.341	20861
805.483	20769
805.626	20769
805.768	20621
805.91	20697
806.052	20754
806.194	20625
806.336	20804
806.478	20735
806.62	20560
806.762	20739
806.904	20956
807.046	21127
807.188	21104
807.33	21001
807.472	21119
807.614	20941
807.756	20899
807.898	20697
808.04	20880
808.182	20754
808.324	20735
808.465	20861
808.607	20990
808.749	20963
808.891	21230
809.033	21150
809.174	21165
809.316	20944
809.458	21066
809.6	20979
809.741	21093
809.883	21089
810.025	21268
810.166	21241
810.308	21150
810.45	21184
810.591	21112
810.733	20910
810.875	20819
811.016	20754
811.158	20625
811.299	20880
811.441	20880
811.582	20994
811.724	20861
811.865	20739
812.007	20861
812.148	20720
812.29	20834
812.431	21081
812.573	21237
812.714	21230
812.855	21279
812.997	21454
813.138	21511
813.279	21496
813.421	21393
813.562	21233
813.703	21051
813.845	21009
813.986	20712
814.127	20533
814.268	20450
814.41	20469
814.551	20358
814.692	20431
814.833	20305
814.974	20332
815.115	20400
815.256	20176
815.397	20107
815.539	20214
815.68	20111
815.821	20195
815.962	20298
816.103	20088
816.244	19936
816.385	19852
816.526	19837
816.666	19753
816.807	19670
816.948	19696
817.089	19712
817.23	19643
817.371	19540
817.512	19476
817.653	19548
817.793	19460
817.934	19506
818.075	19525
818.216	19559
818.356	19533
818.497	19358
818.638	19160
818.778	19285
818.919	19175
819.06	19251
819.2	19289
819.341	19464
819.481	19377
819.622	19677
819.762	19700
819.903	19662
820.043	19533
820.184	19518
820.324	19548
820.465	19578
820.605	19582
820.746	19533
820.886	19430
821.026	19472
821.167	19445
821.307	19571
821.447	19304
821.588	19362
821.728	19206
821.868	19164
822.008	19072
822.149	18890
822.289	18791
822.429	18684
822.569	18627
822.709	18639
822.849	18437
822.99	18308
823.13	18334
823.27	18350
823.41	18232
823.55	18144
823.69	18197
823.83	18235
823.97	18091
824.11	17999
824.25	18057
824.389	17950
824.529	18007
824.669	17927
824.809	18148
824.949	18019
825.089	18064
825.228	17965
825.368	17775
825.508	17798
825.648	17794
825.787	17824
825.927	17874
826.067	17741
826.206	17748
826.346	17809
826.485	17794
826.625	17737
826.765	17870
826.904	17771
827.044	17627
827.183	17581
827.323	17459
827.462	17524
827.601	17467
827.741	17395
827.88	17509
828.02	17303
828.159	17402
828.298	17539
828.437	17596
828.577	17463
828.716	17737
828.855	17452
828.994	17231
829.134	17265
829.273	17246
829.412	17140
829.551	17132
829.69	17181
829.829	17387
829.968	17254
830.107	17288
830.246	17284
830.385	17128
830.524	17170
830.663	17056
830.802	16999
830.941	16763
831.08	16892
831.219	16919
831.357	16908
831.496	17064
831.635	16824
831.774	16790
831.913	16767
832.051	16622
832.19	16626
832.329	16763
832.467	16569
832.606	16538
832.744	16508
832.883	16664
833.022	16493
833.16	16603
833.299	16668
833.437	16603
833.576	16656
833.714	16656
833.852	16683
833.991	16622
834.129	16694
834.267	16672
834.406	16611
834.544	16710
834.682	16721
834.821	16611
834.959	16847
835.097	16622
835.235	16881
835.373	16740
835.511	16626
835.65	16481
835.788	16573
835.926	16508
836.064	16379
836.202	16470
836.34	16626
836.478	16683
836.615	16531
836.753	16615
836.891	16653
837.029	16500
837.167	16565
837.305	16493
837.443	16413
837.58	16421
837.718	16478
837.856	16466
837.993	16318
838.131	16470
838.269	16386
838.406	16405
838.544	16284
838.681	16204
838.819	16135
838.956	16002
839.094	15987
839.231	16013
839.369	16116
839.506	16405
839.643	16299
839.781	16055
839.918	15934
840.055	16025
840.193	15968
840.33	16071
840.467	16010
840.604	15983
840.742	16226
840.879	15808
841.016	15903
841.153	15838
841.29	16048
841.427	15975
841.564	15956
841.701	16021
841.838	15949
841.975	15968
842.112	15861
842.249	15743
842.385	15743
842.522	15907
842.659	15667
842.796	15819
842.933	15755
843.069	15793
843.206	15717
843.343	15751
843.479	15823
843.616	15819
843.752	15614
843.889	15587
844.025	15705
844.162	15652
844.298	15705
844.435	15561
844.571	15530
844.708	15633
844.844	15724
844.98	15698
845.117	15675
845.253	15439
845.389	15393
845.525	15488
845.661	15477
845.798	15340
845.934	15382
846.07	15340
846.206	15370
846.342	15500
846.478	15249
846.614	15180
846.75	15116
846.886	15081
847.022	15188
847.158	15127
847.294	15097
847.429	15138
847.565	15074
847.701	15325
847.837	14815
847.972	14834
848.108	14891
848.244	14933
848.379	14788
848.515	14765
848.65	14746
848.786	14739
848.921	14697
849.057	14842
849.192	14815
849.328	14731
849.463	14724
849.598	14640
849.734	14712
849.869	14625
850.004	14602
850.14	14560
850.275	14549
850.41	14423
850.545	14507
850.68	14492
850.815	14461
850.95	14492
851.085	14640
851.22	14590
851.355	14454
851.49	14454
851.625	14377
851.76	14461
851.895	14450
852.03	14446
852.165	14404
852.299	14571
852.434	14526
852.569	14469
852.703	14556
852.838	14571
852.973	14686
853.107	14648
853.242	14393
853.376	14362
853.511	14320
853.645	14374
853.78	14461
853.914	14450
854.048	14362
854.183	14355
854.317	14347
854.451	14473
854.585	14332
854.72	14210
854.854	14404
854.988	14267
855.122	14320
855.256	14225
855.39	14267
855.524	14423
855.658	14370
855.792	14396
855.926	14389
856.06	14362
856.194	14469
856.327	14393
856.461	14347
856.595	14313
856.729	14263
856.862	14507
856.996	14415
857.13	14465
857.263	14415
857.397	14450
857.53	14362
857.664	14332
857.797	14484
857.931	14507
858.064	14389
858.197	14419
858.331	14358
858.464	14286
858.597	14298
858.731	14317
858.864	14313
858.997	14385
859.13	14355
859.263	14362
859.396	14476
859.529	14404
859.662	14298
859.795	14332
859.928	14313
860.061	14393
860.194	14537
860.327	14339
860.46	14294
860.592	14431
860.725	14545
860.858	14461
860.99	14366
861.123	14229
861.256	14320
861.388	14419
861.521	14941
861.653	14256
861.786	14172
861.918	14278
862.05	14320
862.183	14301
862.315	14419
862.447	14366
862.58	14278
862.712	14069
862.844	14142
862.976	14225
863.108	14103
863.24	14476
863.372	14054
863.504	14168
863.636	14039
863.768	14183
863.9	14130
864.032	14073
864.164	14088
864.296	14180
864.428	14278
864.559	14225
864.691	14248
864.823	14164
864.954	14195
865.086	14218
865.217	14103
865.349	14043
865.48	14119
865.612	14157
865.743	14286
865.875	14111
866.006	14069
866.137	14126
866.269	14138
866.4	14168
866.531	14081
866.662	14046
866.793	14103
866.924	14084
867.055	14031
867.186	14145
867.317	14039
867.448	13982
867.579	13970
867.71	14016
867.841	13902
867.972	14084
868.103	14145
868.233	14107
868.364	14084
868.495	14176
868.625	14351
868.756	14427
868.886	14313
869.017	14434
869.147	14488
869.278	14503
869.408	14423
869.539	14313
869.669	14377
869.799	14381
869.929	14469
870.06	14431
870.19	14720
870.32	14762
870.45	14602
870.58	14727
870.71	14838
870.84	14823
870.97	14769
871.1	14826
871.23	15017
871.36	14902
871.489	14895
871.619	14929
871.749	15055
871.879	14941
872.008	15074
872.138	15017
872.267	14967
872.397	14880
872.526	14826
872.656	14785
872.785	14815
872.915	15024
873.044	15195
873.173	14979
873.303	15020
873.432	15123
873.561	15119
873.69	14933
873.819	14937
873.948	15062
874.077	15055
874.206	15020
874.335	15077
874.464	15165
874.593	15298
874.722	15397
874.851	15348
874.979	15428
875.108	15374
875.237	15264
875.365	15306
875.494	15203
875.623	15382
875.751	15336
875.88	15477
876.008	15542
876.136	15584
876.265	15728
876.393	15895
876.521	15895
876.65	15743
876.778	15766
876.906	15770
877.034	15671
877.162	15698
877.29	15724
877.418	15743
877.546	15694
877.674	15736
877.802	15709
877.93	15785
878.058	15660
878.185	15717
878.313	15720
878.441	15728
878.568	15614
878.696	15736
878.824	15823
878.951	15804
879.079	15953
879.206	16116
879.333	15766
879.461	15789
879.588	15846
879.715	15888
879.842	16074
879.97	15922
880.097	15618
880.224	15572
880.351	15667
880.478	15622
880.605	15526
880.732	15488
880.859	15755
880.986	15656
881.112	15755
881.239	15587
881.366	15348
881.493	15317
881.619	15203
881.746	15279
881.872	15211
881.999	15260
882.125	15222
882.252	15291
882.378	15348
882.505	15473
882.631	15157
882.757	15028
882.883	15043
883.01	15074
883.136	15081
883.262	14880
883.388	14899
883.514	15097
883.64	15058
883.766	15009
883.892	14921
884.018	14937
884.143	15062
884.269	15081
884.395	14883
884.52	14663
884.646	14811
884.772	14644
884.897	14678
885.023	14842
885.148	14819
885.274	14929
885.399	14830
885.524	14785
885.65	14830
885.775	14853
885.9	14754
886.025	14933
886.15	14758
886.275	14678
886.4	14594
886.525	14739
886.65	14682
886.775	14712
886.9	14830
887.025	14998
887.149	14804
887.274	14579
887.399	14640
887.523	14579
887.648	14545
887.773	14514
887.897	14655
888.021	14731
888.146	14564
888.27	14610
888.395	14640
888.519	14693
888.643	14705
888.767	14541
888.891	14503
889.015	14541
889.139	14552
889.263	14408
889.387	14568
889.511	14689
889.635	14488
889.759	14400
889.883	14370
890.006	14495
890.13	14610
890.254	14328
890.377	14343
890.501	14317
890.624	14202
890.748	14412
890.871	14221
890.995	14107
891.118	14077
891.241	14096
891.364	14164
891.488	14275
891.611	14123
891.734	14282
891.857	14096
891.98	14180
892.103	14256
892.226	14126
892.349	14149
892.471	14001
892.594	14126
892.717	14229
892.839	14077
892.962	14176
893.085	14237
893.207	14180
893.33	14050
893.452	14115
893.575	14168
893.697	14134
893.819	14252
893.941	14431
894.064	14389
894.186	14062
894.308	14062
894.43	14290
894.552	14415
894.674	14214
894.796	14161
894.918	14195
895.04	14126
895.161	14320
895.283	14351
895.405	14191
895.526	14218
895.648	14343
895.769	14347
895.891	14328
896.012	14396
896.134	14320
896.255	14343
896.376	14339
896.498	14271
896.619	14393
896.74	14389
896.861	14442
896.982	14781
897.103	14765
897.224	14575
897.345	14560
897.466	14594
897.587	14598
897.708	14659
897.828	14678
897.949	14583
898.07	14393
898.19	14514
898.311	14655
898.431	14571
898.552	14693
898.672	14762
898.792	14872
898.913	14720
899.033	14617
899.153	14552
899.273	14533
899.393	14476
899.513	14476
899.633	14587
899.753	14514
899.873	14518
899.993	14579
900.113	14495
900.232	14640
900.352	14438
900.472	14415
900.591	14423
900.711	14358
900.83	14385
900.95	14484
901.069	14434
901.189	14278
901.308	14149
901.427	13982
901.546	13967
901.665	14081
901.784	14180
901.904	13890
902.023	13780
902.141	13731
902.26	13620
902.379	13761
902.498	13620
902.617	13586
902.735	13704
902.854	13590
902.973	13506
903.091	13289
903.21	13381
903.328	13247
903.446	13289
903.565	13213
903.683	13122
903.801	13133
903.919	13175
904.038	13156
904.156	13099
904.274	13034
904.392	13046
904.51	13038
904.627	13046
904.745	13061
904.863	13103
904.981	12913
905.098	12745
905.216	12776
905.334	12684
905.451	12726
905.569	12715
905.686	12696
905.803	12738
905.921	12623
906.038	12604
906.155	12570
906.272	12509
906.389	12547
906.506	12388
906.623	12308
906.74	12285
906.857	12175
906.974	12167
907.091	12338
907.208	12376
907.324	12315
907.441	12197
907.557	12049
907.674	12003
907.79	12076
907.907	12011
908.023	12083
908.139	12060
908.256	12011
908.372	11889
908.488	12030
908.604	11855
908.72	11786
908.836	11817
908.952	11828
909.068	11863
909.184	11980
909.3	11920
909.415	11885
909.531	11923
909.647	11589
909.762	11657
909.878	11627
909.993	11691
910.108	11497
910.224	11604
910.339	11554
910.454	11493
910.57	11414
910.685	11406
910.8	11737
910.915	11627
911.03	11425
911.145	11258
911.259	11315
911.374	11326
911.489	11231
911.604	11246
911.718	11151
911.833	11181
911.947	10946
912.062	10850
912.176	11029
912.291	11064
912.405	11094
912.519	11280
912.633	11258
912.748	11083
912.862	11064
912.976	10949
913.09	10786
913.204	10976
913.318	10889
913.431	11037
913.545	11075
913.659	11109
913.772	10900
913.886	10790
914	10797
914.113	10908
914.226	10885
914.34	10786
914.453	10831
914.566	10835
914.68	10733
914.793	10755
914.906	10634
915.019	10565
915.132	10478
915.245	10512
915.358	10577
915.47	10523
915.583	10607
915.696	10664
915.809	10641
915.921	10687
916.034	10516
916.146	10588
916.259	10493
916.371	10615
916.483	10588
916.595	10436
916.708	10527
916.82	10478
916.932	10413
917.044	10497
917.156	10462
917.268	10310
917.38	10314
917.491	10337
917.603	10390
917.715	10474
917.826	10519
917.938	10398
918.049	10284
918.161	10409
918.272	10550
918.384	10504
918.495	10459
918.606	10272
918.717	10280
918.828	10280
918.939	10299
919.05	10204
919.161	10192
919.272	10051
919.383	10162
919.494	10242
919.604	10470
919.715	10261
919.826	10169
919.936	10246
920.047	10314
920.157	10299
920.267	10417
920.378	10428
920.488	10261
920.598	10466
920.708	10694
920.818	10538
920.928	10527
921.038	10611
921.148	10626
921.258	10306
921.368	10177
921.477	10139
921.587	10067
921.697	9972
921.806	10181
921.916	10029
922.025	9918
922.134	9934
922.244	9819
922.353	9819
922.462	9762
922.571	9622
922.68	9515
922.789	9477
922.898	9447
923.007	9488
923.116	9515
923.224	9557
923.333	9538
923.442	9420
923.55	9351
923.659	9363
923.767	9488
923.876	9424
923.984	9500
924.092	9264
924.201	9351
924.309	9386
924.417	9458
924.525	9279
924.633	9332
924.741	10295
924.849	9154
924.956	9302
925.064	9214
925.172	9039
925.279	9119
925.387	9294
925.494	9203
925.602	9386
925.709	9291
925.816	9146
925.924	9100
926.031	9279
926.138	9195
926.245	9241
926.352	9127
926.459	9241
926.566	9226
926.673	9260
926.779	9043
926.886	9013
926.993	8910
927.099	8872
927.206	8868
927.312	8891
927.419	8948
927.525	8883
927.631	8944
927.737	8766
927.843	8762
927.95	8663
928.056	8773
928.162	8811
928.267	8830
928.373	9462
928.479	8914
928.585	8716
928.69	8842
928.796	8785
928.901	8674
929.007	8636
929.112	8667
929.218	8663
929.323	8705
929.428	8617
929.533	8724
929.638	8571
929.743	8568
929.848	8606
929.953	8663
930.058	8552
930.163	8393
930.267	8408
930.372	8590
930.477	8362
930.581	8594
930.685	8480
930.79	8366
930.894	8358
930.998	8351
931.103	8438
931.207	8111
931.311	8043
931.415	8005
931.519	7868
931.623	7769
