Data from test_V78500241_1041.txt Node
Date: Fri Mar 25 14:40:57 CST 2022
User: usil
Spectrometer: V785-0024
Trigger mode: 0
Integration Time (sec): 4.000000E-1
Scans to average: 1
Nonlinearity correction enabled: false
Boxcar width: 0
Storing dark spectrum: false
XAxis mode: Wavelengths
Number of Pixels in Spectrum: 1024
>>>>>Begin Spectral Data<<<<<
801.071	22892
801.214	22691
801.356	22649
801.499	22504
801.641	22268
801.783	22226
801.926	22276
802.068	22044
802.211	22067
802.353	22055
802.496	21907
802.638	21679
802.78	21724
802.923	21671
803.065	21686
803.208	21561
803.35	21458
803.492	21724
803.635	21694
803.777	21583
803.919	21682
804.061	21869
804.204	21709
804.346	21580
804.488	21500
804.63	21492
804.773	21382
804.915	21553
805.057	21648
805.199	21405
805.341	21519
805.483	21561
805.626	21637
805.768	21557
805.91	21542
806.052	21557
806.194	21519
806.336	21759
806.478	21610
806.62	21618
806.762	21644
806.904	21717
807.046	22097
807.188	21873
807.33	21960
807.472	22025
807.614	21975
807.756	22010
807.898	21911
808.04	21812
808.182	21979
808.324	21903
808.465	22246
808.607	22375
808.749	22584
808.891	22607
809.033	22778
809.174	22710
809.316	22451
809.458	22447
809.6	22310
809.741	22211
809.883	22253
810.025	22352
810.166	22306
810.308	22200
810.45	22105
810.591	22070
810.733	21949
810.875	21835
811.016	21831
811.158	21717
811.299	21800
811.441	21899
811.582	21968
811.724	21637
811.865	21732
812.007	21686
812.148	21701
812.29	21808
812.431	21964
812.573	22112
812.714	22078
812.855	22196
812.997	22295
813.138	22519
813.279	22466
813.421	22291
813.562	22128
813.703	21945
813.845	21926
813.986	21511
814.127	21393
814.268	21378
814.41	21302
814.551	21298
814.692	21363
814.833	21272
814.974	21351
815.115	21306
815.256	21119
815.397	21043
815.539	21150
815.68	21032
815.821	20979
815.962	21123
816.103	21024
816.244	20853
816.385	20746
816.526	20648
816.666	20575
816.807	20332
816.948	20503
817.089	20511
817.23	20469
817.371	20427
817.512	20450
817.653	20450
817.793	20381
817.934	20476
818.075	20476
818.216	20480
818.356	20332
818.497	20256
818.638	20073
818.778	20088
818.919	20130
819.06	20233
819.2	20240
819.341	20324
819.481	20423
819.622	20457
819.762	20663
819.903	20579
820.043	20507
820.184	20396
820.324	20396
820.465	20423
820.605	20438
820.746	20530
820.886	20199
821.026	20408
821.167	20294
821.307	20442
821.447	20218
821.588	20298
821.728	20122
821.868	19993
822.008	19776
822.149	19807
822.289	19742
822.429	19548
822.569	19415
822.709	19499
822.849	19308
822.99	19282
823.13	19274
823.27	19133
823.41	19114
823.55	19008
823.69	19152
823.83	19069
823.97	19107
824.11	18901
824.25	18829
824.389	18837
824.529	18973
824.669	18894
824.809	19107
824.949	19004
825.089	18954
825.228	18882
825.368	18559
825.508	18711
825.648	18703
825.787	18741
825.927	18650
826.067	18700
826.206	18650
826.346	18684
826.485	18700
826.625	18509
826.765	18844
826.904	18772
827.044	18300
827.183	18395
827.323	18285
827.462	18483
827.601	18403
827.741	18285
827.88	18395
828.02	18197
828.159	18304
828.298	18407
828.437	18467
828.577	18380
828.716	18384
828.855	18281
828.994	18106
829.134	18273
829.273	18140
829.412	17999
829.551	17977
829.69	18117
829.829	18087
829.968	18201
830.107	18247
830.246	18125
830.385	18197
830.524	17992
830.663	17931
830.802	17813
830.941	17710
831.08	17665
831.219	17767
831.357	17866
831.496	17916
831.635	17737
831.774	17649
831.913	17585
832.051	17509
832.19	17421
832.329	17482
832.467	17436
832.606	17311
832.744	17364
832.883	17444
833.022	17330
833.16	17406
833.299	17478
833.437	17554
833.576	17433
833.714	17478
833.852	17482
833.991	17459
834.129	17509
834.267	17524
834.406	17528
834.544	17440
834.682	17577
834.821	17501
834.959	17623
835.097	17482
835.235	17627
835.373	17501
835.511	17436
835.65	17452
835.788	17318
835.926	17208
836.064	17060
836.202	17261
836.34	17280
836.478	17452
836.615	17322
836.753	17318
836.891	17436
837.029	17379
837.167	17277
837.305	17356
837.443	17265
837.58	17128
837.718	17220
837.856	17204
837.993	17170
838.131	17178
838.269	17143
838.406	17060
838.544	17071
838.681	16790
838.819	16881
838.956	16630
839.094	16706
839.231	16820
839.369	16889
839.506	17071
839.643	17052
839.781	16778
839.918	16736
840.055	16869
840.193	16702
840.33	16733
840.467	16774
840.604	16755
840.742	17056
840.879	16649
841.016	16691
841.153	16558
841.29	16843
841.427	16702
841.564	16812
841.701	16767
841.838	16782
841.975	16618
842.112	16519
842.249	16478
842.385	16382
842.522	16710
842.659	16531
842.796	16451
842.933	16538
843.069	16432
843.206	16455
843.343	16664
843.479	16398
843.616	16554
843.752	16261
843.889	16295
844.025	16565
844.162	16303
844.298	16379
844.435	16322
844.571	16303
844.708	16421
844.844	16409
844.98	16500
845.117	16440
845.253	16352
845.389	16329
845.525	16443
845.661	16588
845.798	16740
845.934	16961
846.07	16911
846.206	17006
846.342	16949
846.478	16535
846.614	16200
846.75	16101
846.886	15922
847.022	15979
847.158	15884
847.294	15888
847.429	15930
847.565	15762
847.701	16071
847.837	15618
847.972	15515
848.108	15549
848.244	15755
848.379	15367
848.515	15431
848.65	15466
848.786	15526
848.921	15393
849.057	15530
849.192	15618
849.328	15481
849.463	15481
849.598	15523
849.734	15439
849.869	15294
850.004	15211
850.14	15195
850.275	15291
850.41	15135
850.545	15142
850.68	15116
850.815	15211
850.95	15169
851.085	15272
851.22	15237
851.355	15207
851.49	15199
851.625	15161
851.76	15104
851.895	15165
852.03	15039
852.165	15157
852.299	15310
852.434	15188
852.569	15237
852.703	15169
852.838	15340
852.973	15370
853.107	15329
853.242	15211
853.376	15074
853.511	14986
853.645	15089
853.78	15188
853.914	15066
854.048	15066
854.183	15039
854.317	15077
854.451	15237
854.585	15001
854.72	15077
854.854	15119
854.988	14990
855.122	15062
855.256	14929
855.39	15020
855.524	15081
855.658	15085
855.792	15081
855.926	15062
856.06	14994
856.194	15085
856.327	15154
856.461	15039
856.595	14960
856.729	15062
856.862	15226
856.996	15154
857.13	15207
857.263	15138
857.397	15161
857.53	15097
857.664	15093
857.797	15161
857.931	15135
858.064	15051
858.197	15230
858.331	15074
858.464	14971
858.597	14979
858.731	15017
858.864	14956
858.997	15058
859.13	15097
859.263	15218
859.396	15154
859.529	15150
859.662	14975
859.795	15020
859.928	15066
860.061	15214
860.194	15252
860.327	15047
860.46	15119
860.592	15165
860.725	15157
860.858	15199
860.99	15051
861.123	14986
861.256	14899
861.388	15001
861.521	15709
861.653	15032
861.786	14921
861.918	14963
862.05	14990
862.183	15077
862.315	15089
862.447	15066
862.58	15024
862.712	14948
862.844	14819
862.976	14883
863.108	14804
863.24	15294
863.372	14758
863.504	14914
863.636	14868
863.768	14929
863.9	14834
864.032	14743
864.164	14788
864.296	14891
864.428	14872
864.559	14906
864.691	14979
864.823	14792
864.954	14849
865.086	14925
865.217	14807
865.349	14765
865.48	14842
865.612	14861
865.743	14967
865.875	14830
866.006	14792
866.137	14883
866.269	14842
866.4	14769
866.531	14739
866.662	14678
866.793	14731
866.924	14689
867.055	14788
867.186	14823
867.317	14758
867.448	14716
867.579	14754
867.71	14629
867.841	14750
867.972	14849
868.103	14838
868.233	14815
868.364	14659
868.495	14853
868.625	14986
868.756	15081
868.886	14937
869.017	14937
869.147	15195
869.278	15176
869.408	15093
869.539	15146
869.669	15161
869.799	15176
869.929	15188
870.06	15161
870.19	15382
870.32	15317
870.45	15340
870.58	15447
870.71	15580
870.84	15530
870.97	15382
871.1	15374
871.23	15526
871.36	15610
871.489	15538
871.619	15694
871.749	15701
871.879	15728
872.008	15831
872.138	15648
872.267	15572
872.397	15507
872.526	15401
872.656	15450
872.785	15511
872.915	15595
873.044	15793
873.173	15709
873.303	15713
873.432	15781
873.561	15823
873.69	15694
873.819	15614
873.948	15831
874.077	15793
874.206	15717
874.335	15671
874.464	15823
874.593	16006
874.722	15831
874.851	16067
874.979	16032
875.108	16021
875.237	15922
875.365	15892
875.494	15937
875.623	16010
875.751	16002
875.88	16036
876.008	16150
876.136	16192
876.265	16493
876.393	16527
876.521	16546
876.65	16535
876.778	16478
876.906	16402
877.034	16405
877.162	16432
877.29	16268
877.418	16474
877.546	16451
877.674	16474
877.802	16481
877.93	16428
878.058	16360
878.185	16360
878.313	16508
878.441	16599
878.568	16318
878.696	16478
878.824	16516
878.951	16656
879.079	16904
879.206	17090
879.333	16885
879.461	16862
879.588	16968
879.715	16881
879.842	17094
879.97	16805
880.097	16542
880.224	16356
880.351	16398
880.478	16360
880.605	16417
880.732	16447
880.859	16626
880.986	16413
881.112	16447
881.239	16177
881.366	16097
881.493	16059
881.619	15968
881.746	15926
881.872	15991
881.999	15987
882.125	15907
882.252	16055
882.378	16097
882.505	16204
882.631	15895
882.757	15869
882.883	15922
883.01	15816
883.136	15785
883.262	15739
883.388	15625
883.514	15854
883.64	15915
883.766	15732
883.892	15610
884.018	15686
884.143	15869
884.269	15987
884.395	15595
884.52	15553
884.646	15515
884.772	15523
884.897	15477
885.023	15492
885.148	15603
885.274	15713
885.399	15701
885.524	15599
885.65	15515
885.775	15454
885.9	15511
886.025	15648
886.15	15568
886.275	15507
886.4	15382
886.525	15549
886.65	15405
886.775	15382
886.9	15496
887.025	15679
887.149	15466
887.274	15298
887.399	15180
887.523	15237
887.648	15252
887.773	15195
887.897	15188
888.021	15408
888.146	15245
888.27	15443
888.395	15401
888.519	15165
888.643	15359
888.767	15401
888.891	15184
889.015	15146
889.139	15249
889.263	15089
889.387	15256
889.511	15260
889.635	15287
889.759	15028
889.883	15142
890.006	15135
890.13	15176
890.254	14998
890.377	15097
890.501	14960
890.624	14921
890.748	15020
890.871	14853
890.995	14716
891.118	14731
891.241	14845
891.364	14792
891.488	14929
891.611	14777
891.734	14823
891.857	14830
891.98	14842
892.103	14929
892.226	14887
892.349	14781
892.471	14663
892.594	14796
892.717	14819
892.839	14823
892.962	14830
893.085	14792
893.207	14792
893.33	14636
893.452	14701
893.575	14887
893.697	14739
893.819	14910
893.941	15039
894.064	14906
894.186	14743
894.308	14670
894.43	14880
894.552	15017
894.674	14845
894.796	14796
894.918	14849
895.04	14830
895.161	14941
895.283	14990
895.405	14769
895.526	14868
895.648	14864
895.769	14895
895.891	14902
896.012	14929
896.134	15028
896.255	14861
896.376	14845
896.498	14929
896.619	15085
896.74	14906
896.861	14990
896.982	15233
897.103	15363
897.224	15188
897.345	15165
897.466	15165
897.587	15157
897.708	15260
897.828	15264
897.949	15146
898.07	15058
898.19	15138
898.311	15313
898.431	15294
898.552	15256
898.672	15340
898.792	15389
898.913	15154
899.033	15161
899.153	15055
899.273	14967
899.393	15138
899.513	15066
899.633	15112
899.753	15146
899.873	15039
899.993	15169
900.113	15142
900.232	15013
900.352	15062
900.472	15047
900.591	14906
900.711	15032
900.83	14883
900.95	14982
901.069	15085
901.189	14937
901.308	14765
901.427	14568
901.546	14541
901.665	14648
901.784	14648
901.904	14408
902.023	14461
902.141	14248
902.26	14058
902.379	14267
902.498	14214
902.617	14187
902.735	14206
902.854	14134
902.973	14142
903.091	13890
903.21	13947
903.328	13921
903.446	13780
903.565	13670
903.683	13856
903.801	13719
903.919	13750
904.038	13776
904.156	13529
904.274	13658
904.392	13552
904.51	13495
904.627	13586
904.745	13571
904.863	13559
904.981	13384
905.098	13179
905.216	13221
905.334	13331
905.451	13266
905.569	13194
905.686	13209
905.803	13354
905.921	13065
906.038	13175
906.155	13000
906.272	12932
906.389	13046
906.506	12719
906.623	12795
906.74	12837
906.857	12707
906.974	12715
907.091	12791
907.208	12951
907.324	12806
907.441	12711
907.557	12608
907.674	12601
907.79	12528
907.907	12597
908.023	12601
908.139	12612
908.256	12528
908.372	12513
908.488	12464
908.604	12315
908.72	12197
908.836	12315
908.952	12308
909.068	12346
909.184	12350
909.3	12361
909.415	12304
909.531	12258
909.647	12095
909.762	11999
909.878	12068
909.993	12057
910.108	11999
910.224	12038
910.339	12064
910.454	11942
910.57	11923
910.685	11828
910.8	12121
910.915	12095
911.03	11950
911.145	11794
911.259	11767
911.374	11760
911.489	11661
911.604	11638
911.718	11524
911.833	11558
911.947	11414
912.062	11311
912.176	11535
912.291	11478
912.405	11482
912.519	11680
912.633	11630
912.748	11646
912.862	11551
912.976	11448
913.09	11250
913.204	11353
913.318	11414
913.431	11551
913.545	11486
913.659	11474
913.772	11398
913.886	11296
914	11239
914.113	11360
914.226	11356
914.34	11406
914.453	11235
914.566	11288
914.68	11140
914.793	11132
914.906	11071
915.019	11003
915.132	10904
915.245	10984
915.358	11037
915.47	10927
915.583	11010
915.696	11014
915.809	11162
915.921	11117
916.034	10942
916.146	10923
916.259	10885
916.371	11067
916.483	10980
916.595	10854
916.708	10938
916.82	10938
916.932	10843
917.044	10915
917.156	10877
917.268	10778
917.38	10797
917.491	10706
917.603	10847
917.715	10843
917.826	10908
917.938	10721
918.049	10649
918.161	10797
918.272	10930
918.384	10949
918.495	10763
918.606	10656
918.717	10596
918.828	10679
918.939	10630
919.05	10592
919.161	10637
919.272	10386
919.383	10561
919.494	10649
919.604	10972
919.715	10710
919.826	10523
919.936	10717
920.047	10702
920.157	10702
920.267	10847
920.378	10736
920.488	10679
920.598	10919
920.708	10976
920.818	10915
920.928	10904
921.038	11064
921.148	10953
921.258	10729
921.368	10603
921.477	10527
921.587	10417
921.697	10390
921.806	10535
921.916	10436
922.025	10265
922.134	10185
922.244	10128
922.353	10242
922.462	10120
922.571	10036
922.68	9979
922.789	9827
922.898	9892
923.007	9899
923.116	9884
923.224	9915
923.333	9846
923.442	9789
923.55	9701
923.659	9789
923.767	9899
923.876	9705
923.984	9892
924.092	9679
924.201	9736
924.309	9743
924.417	9766
924.525	9671
924.633	9713
924.741	10622
924.849	9538
924.956	9690
925.064	9542
925.172	9408
925.279	9428
925.387	9534
925.494	9530
925.602	9705
925.709	9667
925.816	9469
925.924	9591
926.031	9606
926.138	9454
926.245	9553
926.352	9504
926.459	9519
926.566	9675
926.673	9488
926.779	9344
926.886	9397
926.993	9302
927.099	9218
927.206	9135
927.312	9142
927.419	9313
927.525	9192
927.631	9329
927.737	9184
927.843	9184
927.95	9047
928.056	9051
928.162	9077
928.267	9207
928.373	9713
928.479	9176
928.585	9077
928.69	9058
928.796	9188
928.901	9032
929.007	8891
929.112	8963
929.218	8948
929.323	8971
929.428	8895
929.533	9077
929.638	8842
929.743	8868
929.848	8975
929.953	8910
930.058	8796
930.163	8613
930.267	8678
930.372	8868
930.477	8610
930.581	8868
930.685	8785
930.79	8602
930.894	8617
930.998	8556
931.103	8773
931.207	8358
931.311	8396
931.415	8351
931.519	8077
931.623	8062
