Data from test_V78500241_1977.txt Node
Date: Fri Mar 25 14:47:28 CST 2022
User: usil
Spectrometer: V785-0024
Trigger mode: 0
Integration Time (sec): 4.000000E-1
Scans to average: 1
Nonlinearity correction enabled: false
Boxcar width: 0
Storing dark spectrum: false
XAxis mode: Wavelengths
Number of Pixels in Spectrum: 1024
>>>>>Begin Spectral Data<<<<<
801.071	22147
801.214	22059
801.356	21846
801.499	21694
801.641	21389
801.783	21424
801.926	21511
802.068	21424
802.211	21317
802.353	21291
802.496	21077
802.638	20857
802.78	20956
802.923	20800
803.065	20792
803.208	20769
803.35	20724
803.492	20849
803.635	20895
803.777	20815
803.919	20887
804.061	21184
804.204	20769
804.346	20834
804.488	20754
804.63	20758
804.773	20701
804.915	20689
805.057	20838
805.199	20667
805.341	20811
805.483	20876
805.626	20769
805.768	20769
805.91	20807
806.052	20724
806.194	20575
806.336	20838
806.478	20743
806.62	20708
806.762	20788
806.904	20830
807.046	21218
807.188	21085
807.33	20971
807.472	21142
807.614	20933
807.756	20880
807.898	20754
808.04	20804
808.182	20693
808.324	20739
808.465	20861
808.607	20986
808.749	21150
808.891	21230
809.033	21310
809.174	21199
809.316	20918
809.458	21173
809.6	20975
809.741	21066
809.883	21173
810.025	21237
810.166	21222
810.308	21203
810.45	21252
810.591	21165
810.733	20948
810.875	20804
811.016	20826
811.158	20735
811.299	20998
811.441	21020
811.582	20899
811.724	20838
811.865	20823
812.007	20880
812.148	20769
812.29	20868
812.431	21135
812.573	21203
812.714	21264
812.855	21298
812.997	21504
813.138	21614
813.279	21591
813.421	21405
813.562	21291
813.703	21077
813.845	21047
813.986	20781
814.127	20670
814.268	20431
814.41	20431
814.551	20442
814.692	20427
814.833	20347
814.974	20434
815.115	20317
815.256	20218
815.397	20244
815.539	20362
815.68	20145
815.821	20035
815.962	20088
816.103	20134
816.244	20046
816.385	19875
816.526	19856
816.666	19681
816.807	19586
816.948	19670
817.089	19643
817.23	19620
817.371	19544
817.512	19518
817.653	19529
817.793	19491
817.934	19476
818.075	19529
818.216	19567
818.356	19464
818.497	19434
818.638	19236
818.778	19274
818.919	19236
819.06	19278
819.2	19419
819.341	19381
819.481	19472
819.622	19563
819.762	19681
819.903	19601
820.043	19601
820.184	19430
820.324	19449
820.465	19575
820.605	19655
820.746	19381
820.886	19426
821.026	19529
821.167	19476
821.307	19487
821.447	19518
821.588	19289
821.728	19209
821.868	19061
822.008	18962
822.149	18966
822.289	18981
822.429	18654
822.569	18544
822.709	18631
822.849	18388
822.99	18403
823.13	18422
823.27	18395
823.41	18220
823.55	18194
823.69	18159
823.83	18266
823.97	18102
824.11	18076
824.25	18003
824.389	18060
824.529	18007
824.669	18087
824.809	18136
824.949	18038
825.089	17996
825.228	18011
825.368	17878
825.508	17813
825.648	17790
825.787	17794
825.927	17828
826.067	17630
826.206	17817
826.346	17817
826.485	17726
826.625	17786
826.765	17920
826.904	17775
827.044	17611
827.183	17391
827.323	17493
827.462	17501
827.601	17551
827.741	17387
827.88	17509
828.02	17360
828.159	17395
828.298	17497
828.437	17665
828.577	17592
828.716	17653
828.855	17349
828.994	17368
829.134	17265
829.273	17223
829.412	17212
829.551	17132
829.69	17261
829.829	17280
829.968	17406
830.107	17227
830.246	17250
830.385	17159
830.524	17143
830.663	17048
830.802	16968
830.941	16923
831.08	16778
831.219	16968
831.357	16919
831.496	17014
831.635	16850
831.774	16790
831.913	16733
832.051	16748
832.19	16596
832.329	16630
832.467	16519
832.606	16542
832.744	16550
832.883	16645
833.022	16512
833.16	16561
833.299	16603
833.437	16550
833.576	16679
833.714	16580
833.852	16599
833.991	16615
834.129	16634
834.267	16687
834.406	16573
834.544	16622
834.682	16637
834.821	16588
834.959	16820
835.097	16554
835.235	16630
835.373	16694
835.511	16611
835.65	16535
835.788	16531
835.926	16405
836.064	16341
836.202	16398
836.34	16588
836.478	16615
836.615	16546
836.753	16493
836.891	16603
837.029	16470
837.167	16527
837.305	16462
837.443	16356
837.58	16394
837.718	16436
837.856	16413
837.993	16306
838.131	16333
838.269	16287
838.406	16272
838.544	16242
838.681	16116
838.819	16074
838.956	15865
839.094	16021
839.231	15991
839.369	16051
839.506	16306
839.643	16314
839.781	15956
839.918	15911
840.055	15903
840.193	15975
840.33	15876
840.467	15907
840.604	15964
840.742	16166
840.879	15755
841.016	15850
841.153	15831
841.29	15972
841.427	15991
841.564	15964
841.701	15994
841.838	15937
841.975	15987
842.112	15895
842.249	15747
842.385	15603
842.522	15876
842.659	15751
842.796	15709
842.933	15736
843.069	15766
843.206	15732
843.343	15785
843.479	15667
843.616	15667
843.752	15496
843.889	15523
844.025	15637
844.162	15511
844.298	15561
844.435	15519
844.571	15477
844.708	15538
844.844	15675
844.98	15663
845.117	15641
845.253	15542
845.389	15447
845.525	15428
845.661	15329
845.798	15260
845.934	15401
846.07	15252
846.206	15329
846.342	15405
846.478	15348
846.614	15119
846.75	15089
846.886	15081
847.022	15169
847.158	15100
847.294	15112
847.429	15119
847.565	14990
847.701	15336
847.837	14868
847.972	14724
848.108	14948
848.244	14880
848.379	14674
848.515	14697
848.65	14693
848.786	14579
848.921	14716
849.057	14792
849.192	14880
849.328	14727
849.463	14689
849.598	14640
849.734	14571
849.869	14545
850.004	14530
850.14	14549
850.275	14434
850.41	14385
850.545	14351
850.68	14446
850.815	14434
850.95	14404
851.085	14514
851.22	14488
851.355	14495
851.49	14473
851.625	14381
851.76	14419
851.895	14332
852.03	14309
852.165	14530
852.299	14549
852.434	14533
852.569	14492
852.703	14511
852.838	14594
852.973	14587
853.107	14503
853.242	14366
853.376	14393
853.511	14153
853.645	14259
853.78	14465
853.914	14347
854.048	14381
854.183	14248
854.317	14301
854.451	14442
854.585	14317
854.72	14301
854.854	14355
854.988	14240
855.122	14355
855.256	14138
855.39	14351
855.524	14377
855.658	14434
855.792	14374
855.926	14393
856.06	14362
856.194	14484
856.327	14427
856.461	14267
856.595	14385
856.729	14298
856.862	14404
856.996	14381
857.13	14442
857.263	14492
857.397	14461
857.53	14442
857.664	14370
857.797	14476
857.931	14343
858.064	14415
858.197	14457
858.331	14427
858.464	14309
858.597	14229
858.731	14396
858.864	14332
858.997	14259
859.13	14275
859.263	14336
859.396	14339
859.529	14305
859.662	14415
859.795	14328
859.928	14351
860.061	14473
860.194	14552
860.327	14370
860.46	14282
860.592	14415
860.725	14450
860.858	14484
860.99	14396
861.123	14248
861.256	14237
861.388	14320
861.521	15024
861.653	14202
861.786	14176
861.918	14210
862.05	14240
862.183	14282
862.315	14347
862.447	14317
862.58	14225
862.712	14176
862.844	14024
862.976	14221
863.108	14180
863.24	14457
863.372	14096
863.504	14149
863.636	14210
863.768	14096
863.9	14134
864.032	14111
864.164	14077
864.296	14119
864.428	14206
864.559	14195
864.691	14271
864.823	14244
864.954	14183
865.086	14130
865.217	14145
865.349	14031
865.48	14115
865.612	14130
865.743	14225
865.875	14210
866.006	14046
866.137	14126
866.269	14069
866.4	14119
866.531	14027
866.662	14024
866.793	14035
866.924	14062
867.055	14115
867.186	14084
867.317	14001
867.448	14008
867.579	14005
867.71	14054
867.841	14031
867.972	14046
868.103	14096
868.233	14081
868.364	14035
868.495	14123
868.625	14313
868.756	14442
868.886	14275
869.017	14328
869.147	14454
869.278	14434
869.408	14396
869.539	14366
869.669	14423
869.799	14377
869.929	14450
870.06	14438
870.19	14682
870.32	14648
870.45	14663
870.58	14739
870.71	14895
870.84	14796
870.97	14727
871.1	14750
871.23	14895
871.36	15009
871.489	14811
871.619	14914
871.749	14876
871.879	14921
872.008	15116
872.138	14891
872.267	14994
872.397	14777
872.526	14895
872.656	14800
872.785	14815
872.915	14929
873.044	14971
873.173	14971
873.303	14979
873.432	15062
873.561	14998
873.69	14998
873.819	15062
873.948	15142
874.077	15001
874.206	14963
874.335	14944
874.464	15176
874.593	15279
874.722	15176
874.851	15397
874.979	15298
875.108	15241
875.237	15237
875.365	15226
875.494	15329
875.623	15321
875.751	15260
875.88	15359
876.008	15454
876.136	15481
876.265	15698
876.393	15854
876.521	15713
876.65	15778
876.778	15739
876.906	15629
877.034	15656
877.162	15755
877.29	15625
877.418	15739
877.546	15823
877.674	15656
877.802	15778
877.93	15804
878.058	15629
878.185	15557
878.313	15576
878.441	15751
878.568	15580
878.696	15713
878.824	15766
878.951	15812
879.079	15941
879.206	16013
879.333	15911
879.461	15747
879.588	15816
879.715	15937
879.842	15934
879.97	15747
880.097	15587
880.224	15450
880.351	15618
880.478	15553
880.605	15500
880.732	15530
880.859	15724
880.986	15591
881.112	15492
881.239	15504
881.366	15412
881.493	15310
881.619	15199
881.746	15214
881.872	15310
881.999	15192
882.125	15085
882.252	15180
882.378	15203
882.505	15367
882.631	15150
882.757	15074
882.883	15150
883.01	15051
883.136	14960
883.262	14910
883.388	14895
883.514	15112
883.64	15077
883.766	14960
883.892	14899
884.018	14899
884.143	15005
884.269	15081
884.395	14781
884.52	14735
884.646	14689
884.772	14712
884.897	14750
885.023	14720
885.148	14861
885.274	14872
885.399	14773
885.524	14720
885.65	14754
885.775	14773
885.9	14811
886.025	14925
886.15	14724
886.275	14667
886.4	14530
886.525	14724
886.65	14670
886.775	14716
886.9	14910
887.025	15013
887.149	14735
887.274	14606
887.399	14575
887.523	14545
887.648	14598
887.773	14590
887.897	14693
888.021	14651
888.146	14579
888.27	14674
888.395	14708
888.519	14613
888.643	14621
888.767	14598
888.891	14549
889.015	14408
889.139	14442
889.263	14396
889.387	14488
889.511	14648
889.635	14522
889.759	14419
889.883	14480
890.006	14434
890.13	14590
890.254	14393
890.377	14423
890.501	14278
890.624	14218
890.748	14248
890.871	14191
890.995	14081
891.118	14031
891.241	14161
891.364	14218
891.488	14298
891.611	14107
891.734	14195
891.857	14195
891.98	14153
892.103	14248
892.226	14199
892.349	14065
892.471	13970
892.594	14187
892.717	14153
892.839	14157
892.962	14256
893.085	14301
893.207	14145
893.33	13997
893.452	14043
893.575	14157
893.697	14031
893.819	14328
893.941	14271
894.064	14294
894.186	14123
894.308	14084
894.43	14385
894.552	14305
894.674	14317
894.796	14138
894.918	14180
895.04	14164
895.161	14328
895.283	14263
895.405	14153
895.526	14256
895.648	14183
895.769	14313
895.891	14389
896.012	14351
896.134	14374
896.255	14256
896.376	14309
896.498	14301
896.619	14446
896.74	14309
896.861	14423
896.982	14632
897.103	14777
897.224	14651
897.345	14629
897.466	14495
897.587	14564
897.708	14693
897.828	14629
897.949	14583
898.07	14434
898.19	14484
898.311	14667
898.431	14651
898.552	14678
898.672	14750
898.792	14689
898.913	14682
899.033	14640
899.153	14457
899.273	14499
899.393	14560
899.513	14518
899.633	14419
899.753	14499
899.873	14476
899.993	14560
900.113	14427
900.232	14469
900.352	14480
900.472	14465
900.591	14457
900.711	14336
900.83	14267
900.95	14454
901.069	14381
901.189	14248
901.308	14145
901.427	14077
901.546	13955
901.665	14058
901.784	14195
901.904	13955
902.023	13807
902.141	13620
902.26	13521
902.379	13662
902.498	13636
902.617	13613
902.735	13674
902.854	13605
902.973	13533
903.091	13285
903.21	13293
903.328	13331
903.446	13225
903.565	13213
903.683	13175
903.801	13061
903.919	13225
904.038	13126
904.156	12882
904.274	13107
904.392	13031
904.51	13008
904.627	13000
904.745	13114
904.863	13053
904.981	12852
905.098	12620
905.216	12658
905.334	12650
905.451	12711
905.569	12703
905.686	12734
905.803	12696
905.921	12544
906.038	12620
906.155	12574
906.272	12464
906.389	12445
906.506	12254
906.623	12338
906.74	12251
906.857	12106
906.974	12239
907.091	12334
907.208	12498
907.324	12315
907.441	12190
907.557	12072
907.674	12034
907.79	11999
907.907	12026
908.023	12121
908.139	12057
908.256	11908
908.372	11893
908.488	11973
908.604	11748
908.72	11828
908.836	11824
908.952	11695
909.068	11817
909.184	11885
909.3	11745
909.415	11874
909.531	11832
909.647	11543
909.762	11528
909.878	11539
909.993	11543
910.108	11623
910.224	11577
910.339	11649
910.454	11467
910.57	11448
910.685	11349
910.8	11752
910.915	11512
911.03	11398
911.145	11227
911.259	11227
911.374	11208
911.489	11250
911.604	11121
911.718	11060
911.833	11067
911.947	10896
912.062	10847
912.176	10965
912.291	10980
912.405	11022
912.519	11258
912.633	11201
912.748	11113
912.862	11064
912.976	10942
913.09	10805
913.204	10828
913.318	10873
913.431	10923
913.545	10991
913.659	11029
913.772	10889
913.886	10759
914	10725
914.113	10850
914.226	10885
914.34	10816
914.453	10744
914.566	10862
914.68	10714
914.793	10615
914.906	10531
915.019	10451
915.132	10481
915.245	10558
915.358	10550
915.47	10508
915.583	10519
915.696	10615
915.809	10687
915.921	10721
916.034	10455
916.146	10504
916.259	10470
916.371	10561
916.483	10538
916.595	10462
916.708	10417
916.82	10489
916.932	10493
917.044	10386
917.156	10379
917.268	10348
917.38	10379
917.491	10287
917.603	10287
917.715	10417
917.826	10489
917.938	10356
918.049	10276
918.161	10402
918.272	10478
918.384	10508
918.495	10421
918.606	10249
918.717	10116
918.828	10268
918.939	10177
919.05	10116
919.161	10253
919.272	10082
919.383	10055
919.494	10318
919.604	10516
919.715	10246
919.826	10158
919.936	10211
920.047	10268
920.157	10268
920.267	10436
920.378	10265
920.488	10303
920.598	10443
920.708	10512
920.818	10485
920.928	10478
921.038	10622
921.148	10538
921.258	10291
921.368	10185
921.477	10032
921.587	10192
921.697	10025
921.806	10162
921.916	10017
922.025	9869
922.134	9827
922.244	9759
922.353	9861
922.462	9663
922.571	9648
922.68	9504
922.789	9450
922.898	9477
923.007	9424
923.116	9580
923.224	9420
923.333	9492
923.442	9367
923.55	9389
923.659	9447
923.767	9515
923.876	9344
923.984	9401
924.092	9275
924.201	9351
924.309	9351
924.417	9302
924.525	9310
924.633	9367
924.741	10249
924.849	9116
924.956	9260
925.064	9169
925.172	9070
925.279	9074
925.387	9192
925.494	9180
925.602	9359
925.709	9230
925.816	9036
925.924	9116
926.031	9260
926.138	9138
926.245	9192
926.352	9116
926.459	9207
926.566	9283
926.673	9058
926.779	9020
926.886	8963
926.993	8918
927.099	8842
927.206	8830
927.312	8849
927.419	8918
927.525	8861
927.631	8933
927.737	8781
927.843	8727
927.95	8617
928.056	8750
928.162	8796
928.267	8845
928.373	9370
928.479	8815
928.585	8613
928.69	8781
928.796	8727
928.901	8674
929.007	8587
929.112	8663
929.218	8575
929.323	8598
929.428	8602
929.533	8727
929.638	8541
929.743	8537
929.848	8606
929.953	8571
930.058	8530
930.163	8339
930.267	8355
930.372	8503
930.477	8317
930.581	8552
930.685	8389
930.79	8305
930.894	8313
930.998	8301
931.103	8358
931.207	8092
931.311	8043
931.415	7963
931.519	7792
931.623	7814
