Data from test_V78500241_1515.txt Node
Date: Fri Mar 25 14:44:15 CST 2022
User: usil
Spectrometer: V785-0024
Trigger mode: 0
Integration Time (sec): 4.000000E-1
Scans to average: 1
Nonlinearity correction enabled: false
Boxcar width: 0
Storing dark spectrum: false
XAxis mode: Wavelengths
Number of Pixels in Spectrum: 1024
>>>>>Begin Spectral Data<<<<<
801.071	22356
801.214	22310
801.356	21975
801.499	22002
801.641	21846
801.783	21739
801.926	21728
802.068	21827
802.211	21656
802.353	21595
802.496	21306
802.638	21272
802.78	21340
802.923	21089
803.065	21093
803.208	21169
803.35	21119
803.492	21256
803.635	21272
803.777	21066
803.919	21321
804.061	21530
804.204	21199
804.346	21055
804.488	21085
804.63	21036
804.773	21005
804.915	21055
805.057	21176
805.199	21062
805.341	21085
805.483	21180
805.626	21089
805.768	21032
805.91	21085
806.052	21112
806.194	21036
806.336	21279
806.478	21036
806.62	21074
806.762	21108
806.904	21249
807.046	21561
807.188	21389
807.33	21473
807.472	21488
807.614	21428
807.756	21359
807.898	21268
808.04	21233
808.182	21184
808.324	21214
808.465	21310
808.607	21458
808.749	21625
808.891	21690
809.033	21808
809.174	21633
809.316	21523
809.458	21561
809.6	21492
809.741	21504
809.883	21652
810.025	21732
810.166	21629
810.308	21660
810.45	21637
810.591	21519
810.733	21405
810.875	21291
811.016	21055
811.158	21233
811.299	21302
811.441	21363
811.582	21260
811.724	21241
811.865	21332
812.007	21138
812.148	21135
812.29	21230
812.431	21435
812.573	21416
812.714	21599
812.855	21717
812.997	21800
813.138	21785
813.279	21873
813.421	21766
813.562	21553
813.703	21564
813.845	21317
813.986	21108
814.127	20891
814.268	20887
814.41	20807
814.551	20880
814.692	20716
814.833	20651
814.974	20697
815.115	20765
815.256	20602
815.397	20632
815.539	20693
815.68	20484
815.821	20488
815.962	20613
816.103	20568
816.244	20248
816.385	20252
816.526	20214
816.666	20172
816.807	19898
816.948	20058
817.089	20119
817.23	19951
817.371	19902
817.512	19913
817.653	19887
817.793	19925
817.934	19989
818.075	19944
818.216	19944
818.356	19906
818.497	19693
818.638	19556
818.778	19643
818.919	19715
819.06	19609
819.2	19788
819.341	19887
819.481	19830
819.622	19890
819.762	20180
819.903	20008
820.043	19814
820.184	19974
820.324	19883
820.465	19928
820.605	19974
820.746	19818
820.886	19791
821.026	19772
821.167	19845
821.307	19890
821.447	19845
821.588	19674
821.728	19556
821.868	19407
822.008	19304
822.149	19365
822.289	19255
822.429	18993
822.569	18958
822.709	19023
822.849	18810
822.99	18760
823.13	18810
823.27	18692
823.41	18608
823.55	18464
823.69	18593
823.83	18635
823.97	18559
824.11	18353
824.25	18323
824.389	18407
824.529	18357
824.669	18372
824.809	18407
824.949	18433
825.089	18475
825.228	18357
825.368	18178
825.508	18315
825.648	18155
825.787	18178
825.927	18330
826.067	18114
826.206	17992
826.346	18186
826.485	18041
826.625	18076
826.765	18292
826.904	18182
827.044	17984
827.183	17969
827.323	17786
827.462	17999
827.601	17790
827.741	17821
827.88	17904
828.02	17729
828.159	17703
828.298	17783
828.437	17885
828.577	17779
828.716	17939
828.855	17748
828.994	17642
829.134	17634
829.273	17532
829.412	17539
829.551	17592
829.69	17562
829.829	17745
829.968	17733
830.107	17615
830.246	17577
830.385	17543
830.524	17455
830.663	17482
830.802	17334
830.941	17128
831.08	17094
831.219	17220
831.357	17246
831.496	17436
831.635	17181
831.774	17064
831.913	17029
832.051	16911
832.19	16995
832.329	17052
832.467	16923
832.606	16831
832.744	16896
832.883	16908
833.022	16790
833.16	16824
833.299	16881
833.437	16915
833.576	16911
833.714	16972
833.852	16930
833.991	16809
834.129	17037
834.267	16987
834.406	16968
834.544	16908
834.682	17048
834.821	16896
834.959	17102
835.097	16934
835.235	16923
835.373	16934
835.511	16923
835.65	16850
835.788	16748
835.926	16656
836.064	16641
836.202	16573
836.34	16896
836.478	16972
836.615	16809
836.753	16774
836.891	16968
837.029	16805
837.167	16805
837.305	16683
837.443	16622
837.58	16584
837.718	16774
837.856	16721
837.993	16664
838.131	16630
838.269	16535
838.406	16611
838.544	16538
838.681	16432
838.819	16295
838.956	16204
839.094	16268
839.231	16230
839.369	16428
839.506	16508
839.643	16455
839.781	16268
839.918	16181
840.055	16169
840.193	16249
840.33	16158
840.467	16150
840.604	16329
840.742	16558
840.879	15972
841.016	16139
841.153	16242
841.29	16223
841.427	16268
841.564	16253
841.701	16154
841.838	16166
841.975	16093
842.112	16078
842.249	16017
842.385	15960
842.522	16166
842.659	15941
842.796	15930
842.933	15945
843.069	15949
843.206	15941
843.343	16097
843.479	15907
843.616	16032
843.752	15819
843.889	15762
844.025	15888
844.162	15751
844.298	15869
844.435	15789
844.571	15778
844.708	15816
844.844	15922
844.98	15964
845.117	15842
845.253	15694
845.389	15625
845.525	15762
845.661	15838
845.798	15717
845.934	15827
846.07	15766
846.206	15755
846.342	15766
846.478	15682
846.614	15439
846.75	15348
846.886	15374
847.022	15408
847.158	15344
847.294	15420
847.429	15443
847.565	15374
847.701	15610
847.837	15036
847.972	14998
848.108	15150
848.244	15077
848.379	15066
848.515	15028
848.65	14849
848.786	15009
848.921	14948
849.057	15039
849.192	15070
849.328	14948
849.463	14982
849.598	14975
849.734	14845
849.869	14819
850.004	14716
850.14	14758
850.275	14689
850.41	14629
850.545	14731
850.68	14708
850.815	14674
850.95	14648
851.085	14918
851.22	14727
851.355	14720
851.49	14739
851.625	14701
851.76	14648
851.895	14530
852.03	14590
852.165	14701
852.299	14708
852.434	14769
852.569	14708
852.703	14735
852.838	14785
852.973	14868
853.107	14853
853.242	14617
853.376	14667
853.511	14503
853.645	14549
853.78	14697
853.914	14526
854.048	14598
854.183	14545
854.317	14583
854.451	14727
854.585	14499
854.72	14537
854.854	14716
854.988	14492
855.122	14549
855.256	14454
855.39	14488
855.524	14545
855.658	14674
855.792	14602
855.926	14571
856.06	14632
856.194	14716
856.327	14556
856.461	14495
856.595	14594
856.729	14450
856.862	14621
856.996	14644
857.13	14716
857.263	14655
857.397	14697
857.53	14625
857.664	14663
857.797	14655
857.931	14651
858.064	14556
858.197	14750
858.331	14651
858.464	14499
858.597	14492
858.731	14594
858.864	14610
858.997	14541
859.13	14594
859.263	14594
859.396	14682
859.529	14617
859.662	14488
859.795	14575
859.928	14610
860.061	14735
860.194	14731
860.327	14545
860.46	14526
860.592	14629
860.725	14724
860.858	14606
860.99	14568
861.123	14454
861.256	14511
861.388	14625
861.521	15157
861.653	14442
861.786	14431
861.918	14423
862.05	14480
862.183	14476
862.315	14560
862.447	14545
862.58	14473
862.712	14332
862.844	14237
862.976	14473
863.108	14332
863.24	14651
863.372	14298
863.504	14404
863.636	14240
863.768	14473
863.9	14423
864.032	14237
864.164	14313
864.296	14355
864.428	14545
864.559	14393
864.691	14400
864.823	14343
864.954	14358
865.086	14317
865.217	14332
865.349	14313
865.48	14393
865.612	14320
865.743	14469
865.875	14332
866.006	14248
866.137	14393
866.269	14396
866.4	14309
866.531	14339
866.662	14320
866.793	14153
866.924	14267
867.055	14298
867.186	14366
867.317	14267
867.448	14294
867.579	14298
867.71	14168
867.841	14275
867.972	14309
868.103	14290
868.233	14286
868.364	14305
868.495	14488
868.625	14556
868.756	14708
868.886	14530
869.017	14568
869.147	14659
869.278	14708
869.408	14511
869.539	14587
869.669	14583
869.799	14640
869.929	14712
870.06	14678
870.19	14910
870.32	14921
870.45	14895
870.58	14963
870.71	15062
870.84	15085
870.97	14853
871.1	14963
871.23	15195
871.36	15195
871.489	15195
871.619	15165
871.749	15154
871.879	15199
872.008	15131
872.138	15207
872.267	15116
872.397	15077
872.526	14979
872.656	14948
872.785	15024
872.915	15218
873.044	15199
873.173	15203
873.303	15256
873.432	15283
873.561	15230
873.69	15214
873.819	15222
873.948	15306
874.077	15283
874.206	15146
874.335	15173
874.464	15450
874.593	15443
874.722	15519
874.851	15545
874.979	15576
875.108	15538
875.237	15496
875.365	15485
875.494	15431
875.623	15507
875.751	15412
875.88	15526
876.008	15656
876.136	15762
876.265	16006
876.393	16051
876.521	15968
876.65	15994
876.778	15918
876.906	16002
877.034	15865
877.162	15998
877.29	15842
877.418	15922
877.546	15895
877.674	15937
877.802	15930
877.93	15968
878.058	15854
878.185	15755
878.313	15926
878.441	15960
878.568	15797
878.696	15953
878.824	15945
878.951	15998
879.079	16093
879.206	16356
879.333	16261
879.461	16059
879.588	16120
879.715	16185
879.842	16314
879.97	16135
880.097	15907
880.224	15922
880.351	15857
880.478	15804
880.605	15842
880.732	15793
880.859	16082
880.986	15911
881.112	15854
881.239	15671
881.366	15648
881.493	15549
881.619	15363
881.746	15447
881.872	15519
881.999	15370
882.125	15454
882.252	15481
882.378	15481
882.505	15663
882.631	15420
882.757	15233
882.883	15344
883.01	15161
883.136	15256
883.262	15165
883.388	15097
883.514	15344
883.64	15298
883.766	15351
883.892	15043
884.018	15142
884.143	15252
884.269	15310
884.395	15017
884.52	14948
884.646	15017
884.772	14979
884.897	14853
885.023	14944
885.148	15093
885.274	15214
885.399	15013
885.524	14963
885.65	15013
885.775	14979
885.9	14929
886.025	15135
886.15	15036
886.275	14880
886.4	14864
886.525	14960
886.65	14982
886.775	14857
886.9	15104
887.025	15241
887.149	15047
887.274	14777
887.399	14849
887.523	14754
887.648	14720
887.773	14678
887.897	14941
888.021	14838
888.146	14819
888.27	14902
888.395	14895
888.519	14937
888.643	14754
888.767	14838
888.891	14727
889.015	14629
889.139	14667
889.263	14617
889.387	14746
889.511	14849
889.635	14800
889.759	14644
889.883	14674
890.006	14644
890.13	14804
890.254	14625
890.377	14594
890.501	14427
890.624	14423
890.748	14522
890.871	14450
890.995	14305
891.118	14248
891.241	14339
891.364	14332
891.488	14438
891.611	14355
891.734	14389
891.857	14339
891.98	14286
892.103	14328
892.226	14461
892.349	14385
892.471	14161
892.594	14400
892.717	14370
892.839	14351
892.962	14225
893.085	14305
893.207	14377
893.33	14168
893.452	14225
893.575	14332
893.697	14286
893.819	14446
893.941	14541
894.064	14450
894.186	14290
894.308	14256
894.43	14408
894.552	14556
894.674	14492
894.796	14290
894.918	14328
895.04	14317
895.161	14415
895.283	14415
895.405	14381
895.526	14396
895.648	14476
895.769	14545
895.891	14575
896.012	14457
896.134	14533
896.255	14473
896.376	14469
896.498	14404
896.619	14457
896.74	14507
896.861	14632
896.982	14967
897.103	14929
897.224	14754
897.345	14674
897.466	14651
897.587	14682
897.708	14887
897.828	14899
897.949	14788
898.07	14613
898.19	14792
898.311	14853
898.431	14823
898.552	14807
898.672	14986
898.792	14933
898.913	15001
899.033	14788
899.153	14758
899.273	14632
899.393	14678
899.513	14716
899.633	14701
899.753	14648
899.873	14663
899.993	14788
900.113	14693
900.232	14823
900.352	14579
900.472	14606
900.591	14522
900.711	14613
900.83	14564
900.95	14678
901.069	14682
901.189	14484
901.308	14294
901.427	14221
901.546	14195
901.665	14252
901.784	14237
901.904	14119
902.023	14046
902.141	13837
902.26	13871
902.379	13864
902.498	13765
902.617	13731
902.735	13860
902.854	13734
902.973	13727
903.091	13548
903.21	13472
903.328	13430
903.446	13514
903.565	13327
903.683	13365
903.801	13209
903.919	13301
904.038	13335
904.156	13072
904.274	13255
904.392	13209
904.51	13221
904.627	13240
904.745	13331
904.863	13266
904.981	12939
905.098	12875
905.216	12951
905.334	12894
905.451	12924
905.569	12901
905.686	12909
905.803	12856
905.921	12642
906.038	12768
906.155	12711
906.272	12547
906.389	12525
906.506	12479
906.623	12471
906.74	12460
906.857	12338
906.974	12399
907.091	12582
907.208	12585
907.324	12460
907.441	12414
907.557	12277
907.674	12235
907.79	12194
907.907	12232
908.023	12258
908.139	12239
908.256	12114
908.372	12114
908.488	12110
908.604	12057
908.72	11935
908.836	11885
908.952	11893
909.068	11923
909.184	12015
909.3	12022
909.415	11946
909.531	11992
909.647	11798
909.762	11691
909.878	11672
909.993	11703
910.108	11752
910.224	11688
910.339	11714
910.454	11566
910.57	11596
910.685	11532
910.8	11794
910.915	11707
911.03	11543
911.145	11474
911.259	11417
911.374	11353
911.489	11315
911.604	11311
911.718	11174
911.833	11201
911.947	11159
912.062	11022
912.176	11220
912.291	11079
912.405	11235
912.519	11372
912.633	11398
912.748	11242
912.862	11201
912.976	11064
913.09	10991
913.204	11010
913.318	11124
913.431	11147
913.545	11105
913.659	11155
913.772	11090
913.886	10961
914	10965
914.113	10953
914.226	11105
914.34	11018
914.453	10854
914.566	10961
914.68	10877
914.793	10911
914.906	10672
915.019	10668
915.132	10611
915.245	10626
915.358	10694
915.47	10653
915.583	10683
915.696	10641
915.809	10862
915.921	10824
916.034	10694
916.146	10607
916.259	10603
916.371	10725
916.483	10649
916.595	10577
916.708	10565
916.82	10607
916.932	10577
917.044	10542
917.156	10565
917.268	10436
917.38	10516
917.491	10462
917.603	10493
917.715	10527
917.826	10641
917.938	10527
918.049	10325
918.161	10519
918.272	10649
918.384	10546
918.495	10462
918.606	10375
918.717	10253
918.828	10402
918.939	10459
919.05	10287
919.161	10379
919.272	10211
919.383	10223
919.494	10443
919.604	10596
919.715	10451
919.826	10341
919.936	10310
920.047	10432
920.157	10428
920.267	10554
920.378	10451
920.488	10375
920.598	10588
920.708	10759
920.818	10603
920.928	10538
921.038	10717
921.148	10710
921.258	10413
921.368	10344
921.477	10242
921.587	10230
921.697	10090
921.806	10257
921.916	10185
922.025	9922
922.134	9915
922.244	9903
922.353	9975
922.462	9865
922.571	9778
922.68	9587
922.789	9587
922.898	9667
923.007	9561
923.116	9622
923.224	9580
923.333	9542
923.442	9515
923.55	9519
923.659	9523
923.767	9572
923.876	9454
923.984	9625
924.092	9443
924.201	9534
924.309	9469
924.417	9481
924.525	9408
924.633	9431
924.741	10462
924.849	9253
924.956	9370
925.064	9230
925.172	9150
925.279	9233
925.387	9256
925.494	9253
925.602	9481
925.709	9370
925.816	9260
925.924	9253
926.031	9405
926.138	9192
926.245	9287
926.352	9226
926.459	9367
926.566	9450
926.673	9207
926.779	9093
926.886	9093
926.993	8956
927.099	8952
927.206	8944
927.312	8990
927.419	9020
927.525	8990
927.631	8960
927.737	8914
927.843	8899
927.95	8788
928.056	8883
928.162	8842
928.267	8986
928.373	9492
928.479	8902
928.585	8762
928.69	8853
928.796	8842
928.901	8773
929.007	8644
929.112	8826
929.218	8746
929.323	8678
929.428	8697
929.533	8781
929.638	8632
929.743	8636
929.848	8720
929.953	8686
930.058	8560
930.163	8438
930.267	8431
930.372	8621
930.477	8473
930.581	8693
930.685	8511
930.79	8415
930.894	8385
930.998	8419
931.103	8511
931.207	8202
931.311	8149
931.415	8084
931.519	7894
931.623	7890
