Data from test_V78500241_183.txt Node
Date: Fri Mar 25 14:34:59 CST 2022
User: usil
Spectrometer: V785-0024
Trigger mode: 0
Integration Time (sec): 4.000000E-1
Scans to average: 1
Nonlinearity correction enabled: false
Boxcar width: 0
Storing dark spectrum: false
XAxis mode: Wavelengths
Number of Pixels in Spectrum: 1024
>>>>>Begin Spectral Data<<<<<
801.071	28459
801.214	28436
801.356	28147
801.499	28131
801.641	27994
801.783	27850
801.926	27937
802.068	27911
802.211	27766
802.353	27781
802.496	27439
802.638	27397
802.78	27568
802.923	27382
803.065	27336
803.208	27488
803.35	27454
803.492	27530
803.635	27663
803.777	27629
803.919	27564
804.061	27724
804.204	27679
804.346	27393
804.488	27443
804.63	27458
804.773	27431
804.915	27568
805.057	27519
805.199	27591
805.341	27587
805.483	27561
805.626	27648
805.768	27450
805.91	27610
806.052	27595
806.194	27496
806.336	27827
806.478	27774
806.62	27808
806.762	27724
806.904	27907
807.046	28128
807.188	28044
807.33	28242
807.472	28440
807.614	28196
807.756	28234
807.898	28166
808.04	28169
808.182	28424
808.324	28679
808.465	28736
808.607	29220
808.749	29729
808.891	29805
809.033	29817
809.174	29577
809.316	29296
809.458	29204
809.6	28778
809.741	28645
809.883	28596
810.025	28611
810.166	28599
810.308	28504
810.45	28489
810.591	28280
810.733	28257
810.875	27991
811.016	28036
811.158	27873
811.299	28036
811.441	28188
811.582	28143
811.724	27994
811.865	27835
812.007	28040
812.148	28006
812.29	28150
812.431	28169
812.573	28322
812.714	28322
812.855	28440
812.997	28504
813.138	28637
813.279	28386
813.421	28401
813.562	28356
813.703	28265
813.845	28128
813.986	27880
814.127	27591
814.268	27599
814.41	27603
814.551	27500
814.692	27439
814.833	27534
814.974	27443
815.115	27473
815.256	27416
815.397	27313
815.539	27378
815.68	27256
815.821	27131
815.962	27329
816.103	27184
816.244	27070
816.385	26883
816.526	26842
816.666	26708
816.807	26613
816.948	26686
817.089	26754
817.23	26731
817.371	26503
817.512	26568
817.653	26549
817.793	26492
817.934	26469
818.075	26473
818.216	26590
818.356	26438
818.497	26431
818.638	26480
818.778	26282
818.919	26301
819.06	26320
819.2	26221
819.341	26408
819.481	26336
819.622	26541
819.762	26842
819.903	26708
820.043	26571
820.184	26518
820.324	26507
820.465	26651
820.605	26461
820.746	26476
820.886	26343
821.026	26385
821.167	26480
821.307	26533
821.447	26415
821.588	26225
821.728	26191
821.868	25997
822.008	26111
822.149	25845
822.289	25826
822.429	25677
822.569	25533
822.709	25537
822.849	25384
822.99	25327
823.13	25175
823.27	25198
823.41	25202
823.55	25080
823.69	25198
823.83	25061
823.97	25042
824.11	24852
824.25	24829
824.389	24962
824.529	24825
824.669	24913
824.809	25008
824.949	24901
825.089	24924
825.228	24871
825.368	24757
825.508	24677
825.648	24639
825.787	24776
825.927	24817
826.067	24570
826.206	24757
826.346	24711
826.485	24715
826.625	24612
826.765	24840
826.904	24707
827.044	24353
827.183	24372
827.323	24273
827.462	24418
827.601	24361
827.741	24353
827.88	24330
828.02	24418
828.159	24414
828.298	24327
828.437	24426
828.577	24323
828.716	24555
828.855	24456
828.994	24060
829.134	23965
829.273	23992
829.412	23893
829.551	24011
829.69	24060
829.829	24068
829.968	24205
830.107	24144
830.246	23984
830.385	23885
830.524	23767
830.663	23771
830.802	23695
830.941	23657
831.08	23615
831.219	23653
831.357	23638
831.496	23836
831.635	23668
831.774	23429
831.913	23516
832.051	23402
832.19	23398
832.329	23440
832.467	23322
832.606	23197
832.744	23227
832.883	23151
833.022	23261
833.16	23250
833.299	23147
833.437	23216
833.576	23402
833.714	23356
833.852	23334
833.991	23288
834.129	23467
834.267	23376
834.406	23364
834.544	23239
834.682	23269
834.821	23239
834.959	23349
835.097	23242
835.235	23185
835.373	23353
835.511	23128
835.65	22984
835.788	23075
835.926	22900
836.064	22824
836.202	22949
836.34	23064
836.478	22972
836.615	23083
836.753	23029
836.891	23056
837.029	23056
837.167	22995
837.305	22965
837.443	22984
837.58	22965
837.718	22934
837.856	22869
837.993	22793
838.131	22774
838.269	22721
838.406	22877
838.544	22577
838.681	22428
838.819	22344
838.956	22306
839.094	22341
839.231	22390
839.369	22382
839.506	22523
839.643	22455
839.781	22322
839.918	22230
840.055	22154
840.193	22223
840.33	22086
840.467	22181
840.604	22246
840.742	22424
840.879	22010
841.016	22059
841.153	22059
841.29	22230
841.427	22070
841.564	22082
841.701	22124
841.838	22055
841.975	21968
842.112	22044
842.249	21918
842.385	21937
842.522	21979
842.659	21930
842.796	21766
842.933	21835
843.069	21808
843.206	21953
843.343	21956
843.479	21770
843.616	21785
843.752	21637
843.889	21625
844.025	21679
844.162	21564
844.298	21732
844.435	21625
844.571	21583
844.708	21656
844.844	21778
844.98	21903
845.117	21854
845.253	21819
845.389	21838
845.525	22124
845.661	22428
845.798	22752
845.934	23398
846.07	23364
846.206	23341
846.342	23086
846.478	22478
846.614	21884
846.75	21568
846.886	21348
847.022	21283
847.158	21279
847.294	21138
847.429	21169
847.565	21085
847.701	21378
847.837	20708
847.972	20712
848.108	20811
848.244	20902
848.379	20625
848.515	20583
848.65	20511
848.786	20667
848.921	20663
849.057	20735
849.192	20651
849.328	20629
849.463	20549
849.598	20465
849.734	20469
849.869	20461
850.004	20381
850.14	20442
850.275	20336
850.41	20313
850.545	20256
850.68	20256
850.815	20480
850.95	20256
851.085	20522
851.22	20366
851.355	20294
851.49	20263
851.625	20400
851.76	20263
851.895	20214
852.03	20122
852.165	20191
852.299	20374
852.434	20366
852.569	20423
852.703	20309
852.838	20210
852.973	20438
853.107	20473
853.242	20115
853.376	20088
853.511	19982
853.645	20054
853.78	20267
853.914	20168
854.048	20122
854.183	20149
854.317	20206
854.451	20309
854.585	20161
854.72	20168
854.854	20202
854.988	20103
855.122	19974
855.256	19955
855.39	20134
855.524	20161
855.658	20168
855.792	20122
855.926	20024
856.06	20050
856.194	20130
856.327	20069
856.461	20031
856.595	19974
856.729	20024
856.862	20282
856.996	20103
857.13	20024
857.263	20183
857.397	20122
857.53	20012
857.664	20111
857.797	20153
857.931	20084
858.064	20077
858.197	20149
858.331	20084
858.464	19967
858.597	19852
858.731	19913
858.864	20039
858.997	20001
859.13	20081
859.263	20130
859.396	20176
859.529	20024
859.662	19947
859.795	19978
859.928	19898
860.061	20138
860.194	20020
860.327	20027
860.46	20012
860.592	20142
860.725	20191
860.858	20119
860.99	20077
861.123	19936
861.256	19868
861.388	19989
861.521	20632
861.653	19917
861.786	19833
861.918	19909
862.05	19940
862.183	20031
862.315	20077
862.447	20161
862.58	19909
862.712	19750
862.844	19822
862.976	19833
863.108	19959
863.24	19997
863.372	19803
863.504	19807
863.636	19662
863.768	19689
863.9	19746
864.032	19681
864.164	19693
864.296	19658
864.428	19761
864.559	19799
864.691	19753
864.823	19742
864.954	19799
865.086	19715
865.217	19590
865.349	19419
865.48	19613
865.612	19556
865.743	19734
865.875	19715
866.006	19510
866.137	19605
866.269	19578
866.4	19693
866.531	19628
866.662	19533
866.793	19552
866.924	19601
867.055	19628
867.186	19575
867.317	19491
867.448	19434
867.579	19529
867.71	19445
867.841	19441
867.972	19559
868.103	19510
868.233	19651
868.364	19464
868.495	19628
868.625	19780
868.756	19947
868.886	19746
869.017	19799
869.147	19852
869.278	19803
869.408	19776
869.539	19822
869.669	19856
869.799	19803
869.929	19925
870.06	19811
870.19	20157
870.32	19993
870.45	20008
870.58	20142
870.71	20294
870.84	20309
870.97	20199
871.1	20145
871.23	20290
871.36	20374
871.489	20233
871.619	20317
871.749	20457
871.879	20362
872.008	20575
872.138	20328
872.267	20343
872.397	20351
872.526	20267
872.656	20229
872.785	20320
872.915	20431
873.044	20518
873.173	20408
873.303	20499
873.432	20499
873.561	20492
873.69	20366
873.819	20473
873.948	20507
874.077	20412
874.206	20374
874.335	20457
874.464	20526
874.593	20678
874.722	20644
874.851	20655
874.979	20667
875.108	20720
875.237	20773
875.365	20663
875.494	20678
875.623	20678
875.751	20640
875.88	20667
876.008	20781
876.136	20872
876.265	21066
876.393	21386
876.521	21291
876.65	21176
876.778	21104
876.906	21135
877.034	21127
877.162	21207
877.29	21093
877.418	21146
877.546	21047
877.674	21081
877.802	21150
877.93	21119
878.058	21203
878.185	21020
878.313	21222
878.441	21169
878.568	21100
878.696	21195
878.824	21416
878.951	21428
879.079	21713
879.206	22082
879.333	22002
879.461	22002
879.588	22310
879.715	22325
879.842	22329
879.97	21945
880.097	21622
880.224	21416
880.351	21416
880.478	21329
880.605	21226
880.732	21203
880.859	21321
880.986	21283
881.112	21241
881.239	21138
881.366	20887
881.493	20914
881.619	20754
881.746	20777
881.872	20834
881.999	20689
882.125	20762
882.252	20788
882.378	20800
882.505	20785
882.631	20625
882.757	20545
882.883	20663
883.01	20564
883.136	20575
883.262	20370
883.388	20396
883.514	20518
883.64	20537
883.766	20461
883.892	20381
884.018	20358
884.143	20431
884.269	20552
884.395	20263
884.52	20183
884.646	20153
884.772	20122
884.897	20096
885.023	20115
885.148	20415
885.274	20317
885.399	20199
885.524	20153
885.65	20084
885.775	20111
885.9	20180
886.025	20237
886.15	20046
886.275	20081
886.4	19986
886.525	20134
886.65	20050
886.775	19947
886.9	20119
887.025	20237
887.149	19989
887.274	19894
887.399	19620
887.523	19894
887.648	19731
887.773	19674
887.897	19883
888.021	19765
888.146	19811
888.27	19814
888.395	19822
888.519	19696
888.643	19814
888.767	19719
888.891	19658
889.015	19521
889.139	19483
889.263	19578
889.387	19594
889.511	19594
889.635	19651
889.759	19544
889.883	19563
890.006	19499
890.13	19586
890.254	19438
890.377	19441
890.501	19270
890.624	19080
890.748	19255
890.871	19270
890.995	19061
891.118	18981
891.241	18981
891.364	19065
891.488	19301
891.611	19065
891.734	19012
891.857	19088
891.98	19042
892.103	19099
892.226	19164
892.349	19126
892.471	18905
892.594	18958
892.717	19019
892.839	19027
892.962	19038
893.085	19000
893.207	18985
893.33	18863
893.452	18993
893.575	19057
893.697	18951
893.819	19099
893.941	19190
894.064	19110
894.186	18958
894.308	18894
894.43	18996
894.552	19301
894.674	19084
894.796	18856
894.918	18863
895.04	18951
895.161	18985
895.283	19091
895.405	18905
895.526	18932
895.648	18920
895.769	18951
895.891	19110
896.012	19015
896.134	18996
896.255	18886
896.376	18878
896.498	18951
896.619	19084
896.74	19027
896.861	19072
896.982	19381
897.103	19544
897.224	19396
897.345	19213
897.466	19179
897.587	19255
897.708	19388
897.828	19236
897.949	19228
898.07	19050
898.19	19228
898.311	19388
898.431	19206
898.552	19282
898.672	19377
898.792	19255
898.913	19285
899.033	19099
899.153	19034
899.273	18935
899.393	19042
899.513	18958
899.633	18939
899.753	19088
899.873	18878
899.993	19080
900.113	18909
900.232	18970
900.352	18909
900.472	18833
900.591	18711
900.711	18738
900.83	18825
900.95	18875
901.069	18943
901.189	18722
901.308	18437
901.427	18490
901.546	18471
901.665	18445
901.784	18486
901.904	18239
902.023	18178
902.141	17935
902.26	17901
902.379	17958
902.498	17996
902.617	17859
902.735	17889
902.854	17828
902.973	17794
903.091	17646
903.21	17543
903.328	17448
903.446	17452
903.565	17448
903.683	17402
903.801	17254
903.919	17311
904.038	17345
904.156	17113
904.274	17261
904.392	17124
904.51	17117
904.627	17174
904.745	17216
904.863	17128
904.981	16900
905.098	16736
905.216	16740
905.334	16862
905.451	16710
905.569	16790
905.686	16698
905.803	16748
905.921	16455
906.038	16683
906.155	16421
906.272	16447
906.389	16417
906.506	16238
906.623	16337
906.74	16257
906.857	16120
906.974	16211
907.091	16325
907.208	16436
907.324	16398
907.441	16188
907.557	15979
907.674	15983
907.79	15994
907.907	15926
908.023	15991
908.139	16040
908.256	15880
908.372	15854
908.488	15793
908.604	15663
908.72	15572
908.836	15614
908.952	15629
909.068	15713
909.184	15812
909.3	15633
909.415	15663
909.531	15629
909.647	15386
909.762	15348
909.878	15313
909.993	15424
910.108	15283
910.224	15294
910.339	15313
910.454	15195
910.57	15233
910.685	15142
910.8	15507
910.915	15233
911.03	15268
911.145	14910
911.259	14960
911.374	14986
911.489	14967
911.604	14819
911.718	14724
911.833	14754
911.947	14541
912.062	14541
912.176	14670
912.291	14571
912.405	14648
912.519	14883
912.633	14800
912.748	14670
912.862	14598
912.976	14473
913.09	14457
913.204	14438
913.318	14492
913.431	14625
913.545	14522
913.659	14716
913.772	14457
913.886	14374
914	14290
914.113	14503
914.226	14427
914.34	14320
914.453	14210
914.566	14332
914.68	14290
914.793	14187
914.906	14153
915.019	14035
915.132	13932
915.245	13913
915.358	14020
915.47	14123
915.583	13989
915.696	13993
915.809	14157
915.921	14126
916.034	14012
916.146	13883
916.259	13909
916.371	14020
916.483	13951
916.595	13822
916.708	13849
916.82	13909
916.932	13772
917.044	13803
917.156	13772
917.268	13677
917.38	13731
917.491	13601
917.603	13616
917.715	13788
917.826	13776
917.938	13677
918.049	13571
918.161	13704
918.272	13750
918.384	13750
918.495	13704
918.606	13525
918.717	13502
918.828	13491
918.939	13445
919.05	13358
919.161	13426
919.272	13236
919.383	13308
919.494	13499
919.604	13693
919.715	13350
919.826	13358
919.936	13419
920.047	13449
920.157	13495
920.267	13605
920.378	13419
920.488	13320
920.598	13609
920.708	13655
920.818	13419
920.928	13502
921.038	13700
921.148	13662
921.258	13343
921.368	13213
921.477	13137
921.587	13202
921.697	13000
921.806	13069
921.916	13015
922.025	12814
922.134	12852
922.244	12802
922.353	12882
922.462	12707
922.571	12684
922.68	12471
922.789	12452
922.898	12395
923.007	12361
923.116	12433
923.224	12471
923.333	12384
923.442	12273
923.55	12235
923.659	12338
923.767	12319
923.876	12262
923.984	12251
924.092	12144
924.201	12258
924.309	12281
924.417	12292
924.525	12095
924.633	12186
924.741	13065
924.849	11958
924.956	12152
925.064	11969
925.172	11980
925.279	11885
925.387	11965
925.494	11912
925.602	11996
925.709	11939
925.816	11779
925.924	11866
926.031	12015
926.138	11859
926.245	11965
926.352	11733
926.459	11923
926.566	11931
926.673	11729
926.779	11733
926.886	11668
926.993	11589
927.099	11619
927.206	11490
927.312	11493
927.419	11592
927.525	11528
927.631	11482
927.737	11398
927.843	11391
927.95	11220
928.056	11433
928.162	11349
928.267	11471
928.373	11939
928.479	11463
928.585	11208
928.69	11395
928.796	11322
928.901	11178
929.007	11018
929.112	11220
929.218	11239
929.323	11216
929.428	11151
929.533	11258
929.638	11052
929.743	11121
929.848	11094
929.953	11094
930.058	11025
930.163	10786
930.267	10862
930.372	10896
930.477	10694
930.581	11022
930.685	10854
930.79	10752
930.894	10706
930.998	10706
931.103	10820
931.207	10497
931.311	10390
931.415	10325
931.519	10090
931.623	10051
