Data from test_V78500241_1224.txt Node
Date: Fri Mar 25 14:42:14 CST 2022
User: usil
Spectrometer: V785-0024
Trigger mode: 0
Integration Time (sec): 4.000000E-1
Scans to average: 1
Nonlinearity correction enabled: false
Boxcar width: 0
Storing dark spectrum: false
XAxis mode: Wavelengths
Number of Pixels in Spectrum: 1024
>>>>>Begin Spectral Data<<<<<
801.071	22481
801.214	22314
801.356	22101
801.499	21930
801.641	21751
801.783	21751
801.926	21766
802.068	21732
802.211	21713
802.353	21519
802.496	21405
802.638	21275
802.78	21245
802.923	21211
803.065	21108
803.208	21161
803.35	21180
803.492	21222
803.635	21272
803.777	21047
803.919	21150
804.061	21412
804.204	21188
804.346	21116
804.488	20849
804.63	21055
804.773	20857
804.915	21085
805.057	21089
805.199	21043
805.341	21214
805.483	21199
805.626	21154
805.768	20979
805.91	21028
806.052	21138
806.194	20902
806.336	21093
806.478	21017
806.62	21017
806.762	21119
806.904	21256
807.046	21408
807.188	21450
807.33	21405
807.472	21466
807.614	21329
807.756	21279
807.898	21298
808.04	21173
808.182	21089
808.324	21291
808.465	21192
808.607	21306
808.749	21515
808.891	21507
809.033	21641
809.174	21618
809.316	21313
809.458	21485
809.6	21374
809.741	21538
809.883	21526
810.025	21599
810.166	21519
810.308	21591
810.45	21652
810.591	21492
810.733	21272
810.875	21298
811.016	21108
811.158	21085
811.299	21291
811.441	21466
811.582	21336
811.724	21272
811.865	21180
812.007	21150
812.148	21173
812.29	21199
812.431	21481
812.573	21530
812.714	21652
812.855	21686
812.997	21800
813.138	21918
813.279	21800
813.421	21709
813.562	21454
813.703	21424
813.845	21389
813.986	21123
814.127	20948
814.268	20883
814.41	20864
814.551	20826
814.692	20849
814.833	20735
814.974	20746
815.115	20705
815.256	20507
815.397	20636
815.539	20617
815.68	20648
815.821	20438
815.962	20511
816.103	20484
816.244	20244
816.385	20233
816.526	20077
816.666	20115
816.807	19909
816.948	19959
817.089	20016
817.23	19951
817.371	19902
817.512	19989
817.653	19879
817.793	19822
817.934	19841
818.075	19959
818.216	19849
818.356	19936
818.497	19731
818.638	19563
818.778	19567
818.919	19502
819.06	19616
819.2	19776
819.341	19811
819.481	19769
819.622	19852
819.762	20100
819.903	19997
820.043	19906
820.184	19883
820.324	19906
820.465	19955
820.605	19917
820.746	19887
820.886	19795
821.026	19928
821.167	19833
821.307	19928
821.447	19864
821.588	19731
821.728	19582
821.868	19495
822.008	19312
822.149	19320
822.289	19297
822.429	19034
822.569	19031
822.709	19008
822.849	18776
822.99	18677
823.13	18734
823.27	18722
823.41	18536
823.55	18677
823.69	18635
823.83	18582
823.97	18593
824.11	18407
824.25	18342
824.389	18365
824.529	18437
824.669	18380
824.809	18490
824.949	18467
825.089	18555
825.228	18235
825.368	18213
825.508	18205
825.648	18159
825.787	18072
825.927	18194
826.067	18098
826.206	18239
826.346	18216
826.485	18262
826.625	18190
826.765	18285
826.904	18239
827.044	17965
827.183	17885
827.323	17828
827.462	17893
827.601	17878
827.741	17760
827.88	17920
828.02	17794
828.159	17764
828.298	17828
828.437	17927
828.577	17859
828.716	18011
828.855	17840
828.994	17551
829.134	17741
829.273	17604
829.412	17604
829.551	17459
829.69	17657
829.829	17585
829.968	17691
830.107	17699
830.246	17615
830.385	17691
830.524	17455
830.663	17360
830.802	17273
830.941	17220
831.08	17216
831.219	17277
831.357	17246
831.496	17509
831.635	17273
831.774	17121
831.913	17174
832.051	17006
832.19	17033
832.329	17098
832.467	16892
832.606	16896
832.744	16972
832.883	16934
833.022	16778
833.16	16923
833.299	16976
833.437	16877
833.576	16889
833.714	16919
833.852	17052
833.991	17102
834.129	17105
834.267	17037
834.406	16968
834.544	17029
834.682	16972
834.821	17010
834.959	17200
835.097	17022
835.235	17014
835.373	16972
835.511	16980
835.65	16908
835.788	16915
835.926	16736
836.064	16721
836.202	16755
836.34	16965
836.478	17025
836.615	16824
836.753	16927
836.891	16961
837.029	16877
837.167	16911
837.305	16900
837.443	16763
837.58	16717
837.718	16873
837.856	16793
837.993	16763
838.131	16862
838.269	16710
838.406	16698
838.544	16664
838.681	16451
838.819	16436
838.956	16284
839.094	16219
839.231	16333
839.369	16554
839.506	16611
839.643	16580
839.781	16261
839.918	16230
840.055	16188
840.193	16348
840.33	16325
840.467	16382
840.604	16402
840.742	16637
840.879	16177
841.016	16314
841.153	16226
841.29	16394
841.427	16371
841.564	16371
841.701	16295
841.838	16322
841.975	16185
842.112	16268
842.249	16025
842.385	16120
842.522	16322
842.659	16188
842.796	16128
842.933	16093
843.069	16097
843.206	16059
843.343	16131
843.479	16116
843.616	16139
843.752	15888
843.889	15823
844.025	15956
844.162	15831
844.298	15895
844.435	15918
844.571	15819
844.708	15911
844.844	16002
844.98	15991
845.117	15960
845.253	15873
845.389	15682
845.525	15876
845.661	15835
845.798	15739
845.934	15812
846.07	15808
846.206	15720
846.342	15934
846.478	15709
846.614	15450
846.75	15496
846.886	15367
847.022	15603
847.158	15519
847.294	15485
847.429	15492
847.565	15416
847.701	15587
847.837	15245
847.972	15108
848.108	15233
848.244	15237
848.379	15051
848.515	15028
848.65	15039
848.786	15043
848.921	15032
849.057	15131
849.192	15077
849.328	15093
849.463	15097
849.598	15097
849.734	14986
849.869	14842
850.004	14883
850.14	14963
850.275	14815
850.41	14769
850.545	14777
850.68	14727
850.815	14880
850.95	14758
851.085	15089
851.22	14971
851.355	14823
851.49	14807
851.625	14811
851.76	14811
851.895	14659
852.03	14754
852.165	14804
852.299	14727
852.434	14876
852.569	14872
852.703	14902
852.838	14952
852.973	14998
853.107	14967
853.242	14777
853.376	14765
853.511	14514
853.645	14629
853.78	14868
853.914	14811
854.048	14667
854.183	14716
854.317	14670
854.451	14864
854.585	14625
854.72	14632
854.854	14800
854.988	14606
855.122	14632
855.256	14583
855.39	14556
855.524	14762
855.658	14686
855.792	14708
855.926	14693
856.06	14686
856.194	14746
856.327	14769
856.461	14716
856.595	14629
856.729	14670
856.862	14754
856.996	14735
857.13	14754
857.263	14773
857.397	14731
857.53	14788
857.664	14678
857.797	14792
857.931	14689
858.064	14697
858.197	14727
858.331	14743
858.464	14689
858.597	14541
858.731	14659
858.864	14674
858.997	14632
859.13	14705
859.263	14701
859.396	14792
859.529	14602
859.662	14594
859.795	14663
859.928	14788
860.061	14720
860.194	14773
860.327	14765
860.46	14526
860.592	14845
860.725	14781
860.858	14868
860.99	14621
861.123	14610
861.256	14621
861.388	14697
861.521	15348
861.653	14587
861.786	14533
861.918	14499
862.05	14617
862.183	14640
862.315	14556
862.447	14651
862.58	14686
862.712	14480
862.844	14377
862.976	14484
863.108	14484
863.24	14899
863.372	14393
863.504	14385
863.636	14465
863.768	14469
863.9	14568
864.032	14332
864.164	14385
864.296	14438
864.428	14579
864.559	14568
864.691	14526
864.823	14522
864.954	14598
865.086	14473
865.217	14457
865.349	14389
865.48	14514
865.612	14393
865.743	14568
865.875	14408
866.006	14484
866.137	14484
866.269	14476
866.4	14366
866.531	14385
866.662	14339
866.793	14434
866.924	14336
867.055	14412
867.186	14374
867.317	14358
867.448	14381
867.579	14351
867.71	14385
867.841	14415
867.972	14358
868.103	14457
868.233	14530
868.364	14465
868.495	14514
868.625	14735
868.756	14735
868.886	14640
869.017	14659
869.147	14758
869.278	14735
869.408	14746
869.539	14720
869.669	14754
869.799	14670
869.929	14891
870.06	14826
870.19	14994
870.32	14933
870.45	15017
870.58	15112
870.71	15211
870.84	15237
870.97	15009
871.1	15036
871.23	15211
871.36	15306
871.489	15173
871.619	15199
871.749	15199
871.879	15340
872.008	15389
872.138	15325
872.267	15287
872.397	15077
872.526	15097
872.656	15097
872.785	15100
872.915	15249
873.044	15351
873.173	15344
873.303	15348
873.432	15408
873.561	15389
873.69	15382
873.819	15310
873.948	15408
874.077	15367
874.206	15294
874.335	15207
874.464	15466
874.593	15656
874.722	15530
874.851	15724
874.979	15705
875.108	15644
875.237	15614
875.365	15572
875.494	15568
875.623	15686
875.751	15713
875.88	15587
876.008	15793
876.136	15880
876.265	16101
876.393	16162
876.521	16090
876.65	16067
876.778	16021
876.906	16109
877.034	15998
877.162	15960
877.29	15994
877.418	16055
877.546	16090
877.674	16044
877.802	16067
877.93	16025
878.058	15972
878.185	15956
878.313	16048
878.441	16055
878.568	15850
878.696	16082
878.824	16150
878.951	16116
879.079	16284
879.206	16379
879.333	16333
879.461	16093
879.588	16223
879.715	16280
879.842	16363
879.97	16154
880.097	15937
880.224	15895
880.351	15926
880.478	15884
880.605	16036
880.732	15934
880.859	16169
880.986	15949
881.112	15945
881.239	15812
881.366	15679
881.493	15648
881.619	15606
881.746	15572
881.872	15584
881.999	15519
882.125	15469
882.252	15542
882.378	15538
882.505	15720
882.631	15405
882.757	15344
882.883	15386
883.01	15359
883.136	15249
883.262	15279
883.388	15245
883.514	15401
883.64	15496
883.766	15374
883.892	15184
884.018	15241
884.143	15310
884.269	15466
884.395	15093
884.52	15104
884.646	15074
884.772	15001
884.897	14956
885.023	15150
885.148	15207
885.274	15237
885.399	15272
885.524	15089
885.65	15135
885.775	15009
885.9	15009
886.025	15214
886.15	15062
886.275	15005
886.4	14994
886.525	15127
886.65	14982
886.775	14925
886.9	15226
887.025	15317
887.149	15116
887.274	14906
887.399	14902
887.523	14807
887.648	14880
887.773	14758
887.897	14998
888.021	14876
888.146	14864
888.27	14902
888.395	15009
888.519	14910
888.643	14895
888.767	14872
888.891	14815
889.015	14667
889.139	14800
889.263	14705
889.387	14872
889.511	15005
889.635	14937
889.759	14678
889.883	14804
890.006	14807
890.13	14883
890.254	14575
890.377	14636
890.501	14583
890.624	14526
890.748	14579
890.871	14541
890.995	14454
891.118	14408
891.241	14461
891.364	14495
891.488	14503
891.611	14454
891.734	14412
891.857	14495
891.98	14412
892.103	14503
892.226	14438
892.349	14450
892.471	14267
892.594	14461
892.717	14438
892.839	14396
892.962	14427
893.085	14518
893.207	14404
893.33	14385
893.452	14423
893.575	14431
893.697	14400
893.819	14575
893.941	14590
894.064	14560
894.186	14465
894.308	14454
894.43	14632
894.552	14537
894.674	14533
894.796	14374
894.918	14465
895.04	14549
895.161	14575
895.283	14533
895.405	14469
895.526	14488
895.648	14499
895.769	14488
895.891	14590
896.012	14598
896.134	14587
896.255	14621
896.376	14575
896.498	14621
896.619	14716
896.74	14575
896.861	14708
896.982	14975
897.103	15032
897.224	14941
897.345	14948
897.466	14758
897.587	14975
897.708	14967
897.828	14864
897.949	14861
898.07	14788
898.19	14796
898.311	14948
898.431	14944
898.552	14906
898.672	15036
898.792	15077
898.913	14941
899.033	14906
899.153	14830
899.273	14724
899.393	14743
899.513	14864
899.633	14727
899.753	14834
899.873	14617
899.993	14830
900.113	14678
900.232	14891
900.352	14708
900.472	14708
900.591	14640
900.711	14602
900.83	14552
900.95	14807
901.069	14758
901.189	14632
901.308	14438
901.427	14328
901.546	14271
901.665	14324
901.784	14370
901.904	14157
902.023	14088
902.141	13845
902.26	13864
902.379	13967
902.498	13788
902.617	13868
902.735	13936
902.854	13868
902.973	13791
903.091	13628
903.21	13567
903.328	13639
903.446	13563
903.565	13381
903.683	13567
903.801	13255
903.919	13468
904.038	13343
904.156	13274
904.274	13289
904.392	13270
904.51	13324
904.627	13175
904.745	13285
904.863	13278
904.981	13129
905.098	12905
905.216	12970
905.334	13061
905.451	12947
905.569	12894
905.686	12916
905.803	12939
905.921	12760
906.038	12837
906.155	12878
906.272	12700
906.389	12787
906.506	12467
906.623	12517
906.74	12483
906.857	12391
906.974	12422
907.091	12684
907.208	12703
907.324	12612
907.441	12517
907.557	12304
907.674	12308
907.79	12285
907.907	12254
908.023	12353
908.139	12323
908.256	12300
908.372	12224
908.488	12155
908.604	12087
908.72	11996
908.836	12083
908.952	11977
909.068	12083
909.184	12140
909.3	12007
909.415	12171
909.531	12117
909.647	11912
909.762	11927
909.878	11748
909.993	11889
910.108	11847
910.224	11798
910.339	11866
910.454	11809
910.57	11684
910.685	11653
910.8	11843
910.915	11794
911.03	11703
911.145	11547
911.259	11562
911.374	11680
911.489	11417
911.604	11452
911.718	11326
911.833	11288
911.947	11178
912.062	11143
912.176	11311
912.291	11280
912.405	11254
912.519	11448
912.633	11490
912.748	11360
912.862	11318
912.976	11162
913.09	11079
913.204	11098
913.318	11204
913.431	11299
913.545	11318
913.659	11235
913.772	11136
913.886	11010
914	11048
914.113	11136
914.226	11166
914.34	11075
914.453	11010
914.566	11162
914.68	10965
914.793	10938
914.906	10805
915.019	10736
915.132	10706
915.245	10778
915.358	10744
915.47	10866
915.583	10748
915.696	10801
915.809	10972
915.921	10946
916.034	10828
916.146	10725
916.259	10710
916.371	10831
916.483	10805
916.595	10675
916.708	10725
916.82	10672
916.932	10744
917.044	10672
917.156	10694
917.268	10584
917.38	10607
917.491	10538
917.603	10596
917.715	10611
917.826	10694
917.938	10615
918.049	10504
918.161	10626
918.272	10672
918.384	10733
918.495	10588
918.606	10489
918.717	10356
918.828	10512
918.939	10394
919.05	10386
919.161	10428
919.272	10341
919.383	10314
919.494	10466
919.604	10672
919.715	10474
919.826	10398
919.936	10424
920.047	10599
920.157	10432
920.267	10714
920.378	10493
920.488	10451
920.598	10710
920.708	10858
920.818	10687
920.928	10706
921.038	10809
921.148	10824
921.258	10489
921.368	10424
921.477	10367
921.587	10257
921.697	10287
921.806	10379
921.916	10211
922.025	10040
922.134	10029
922.244	9949
922.353	10067
922.462	9922
922.571	9915
922.68	9770
922.789	9732
922.898	9652
923.007	9717
923.116	9713
923.224	9751
923.333	9671
923.442	9557
923.55	9584
923.659	9526
923.767	9675
923.876	9549
923.984	9641
924.092	9519
924.201	9629
924.309	9568
924.417	9519
924.525	9580
924.633	9561
924.741	10337
924.849	9374
924.956	9515
925.064	9424
925.172	9233
925.279	9393
925.387	9458
925.494	9370
925.602	9519
925.709	9454
925.816	9351
925.924	9283
926.031	9397
926.138	9325
926.245	9408
926.352	9272
926.459	9447
926.566	9526
926.673	9317
926.779	9211
926.886	9214
926.993	9062
927.099	9043
927.206	8971
927.312	9043
927.419	9085
927.525	9013
927.631	9119
927.737	8944
927.843	8914
927.95	8868
928.056	8883
928.162	8986
928.267	9036
928.373	9538
928.479	9043
928.585	8834
928.69	8948
928.796	8952
928.901	8868
929.007	8739
929.112	8868
929.218	8853
929.323	8785
929.428	8781
929.533	8902
929.638	8667
929.743	8739
929.848	8819
929.953	8769
930.058	8682
930.163	8564
930.267	8541
930.372	8678
930.477	8488
930.581	8777
930.685	8594
930.79	8454
930.894	8541
930.998	8457
931.103	8613
931.207	8267
931.311	8199
931.415	8164
931.519	7978
931.623	7986
