Data from test_V78500241_1673.txt Node
Date: Fri Mar 25 14:45:21 CST 2022
User: usil
Spectrometer: V785-0024
Trigger mode: 0
Integration Time (sec): 4.000000E-1
Scans to average: 1
Nonlinearity correction enabled: false
Boxcar width: 0
Storing dark spectrum: false
XAxis mode: Wavelengths
Number of Pixels in Spectrum: 1024
>>>>>Begin Spectral Data<<<<<
801.071	22295
801.214	22101
801.356	21907
801.499	21793
801.641	21625
801.783	21701
801.926	21739
802.068	21648
802.211	21519
802.353	21439
802.496	21192
802.638	21195
802.78	21157
802.923	21085
803.065	20876
803.208	20914
803.35	20960
803.492	21066
803.635	20998
803.777	21085
803.919	21055
804.061	21272
804.204	21085
804.346	20864
804.488	20815
804.63	20899
804.773	20826
804.915	20952
805.057	21032
805.199	20876
805.341	20956
805.483	20982
805.626	20986
805.768	20967
805.91	20929
806.052	20899
806.194	20804
806.336	21093
806.478	20929
806.62	20861
806.762	21020
806.904	21100
807.046	21382
807.188	21291
807.33	21245
807.472	21336
807.614	21283
807.756	21165
807.898	21119
808.04	20971
808.182	20967
808.324	21013
808.465	21055
808.607	21367
808.749	21389
808.891	21477
809.033	21488
809.174	21359
809.316	21370
809.458	21287
809.6	21363
809.741	21431
809.883	21450
810.025	21496
810.166	21485
810.308	21488
810.45	21435
810.591	21241
810.733	21100
810.875	21131
811.016	21066
811.158	20963
811.299	21211
811.441	21222
811.582	21272
811.724	21154
811.865	21135
812.007	21093
812.148	21005
812.29	21188
812.431	21321
812.573	21477
812.714	21469
812.855	21656
812.997	21614
813.138	21835
813.279	21762
813.421	21561
813.562	21568
813.703	21454
813.845	21203
813.986	20982
814.127	20887
814.268	20655
814.41	20640
814.551	20670
814.692	20785
814.833	20556
814.974	20499
815.115	20636
815.256	20522
815.397	20480
815.539	20522
815.68	20389
815.821	20286
815.962	20412
816.103	20237
816.244	20237
816.385	20111
816.526	20073
816.666	19917
816.807	19719
816.948	19875
817.089	19921
817.23	19947
817.371	19803
817.512	19826
817.653	19734
817.793	19635
817.934	19811
818.075	19753
818.216	19852
818.356	19594
818.497	19537
818.638	19487
818.778	19438
818.919	19377
819.06	19422
819.2	19514
819.341	19571
819.481	19696
819.622	19822
819.762	19871
819.903	19833
820.043	19833
820.184	19723
820.324	19757
820.465	19883
820.605	19731
820.746	19666
820.886	19723
821.026	19818
821.167	19731
821.307	19704
821.447	19860
821.588	19628
821.728	19449
821.868	19308
822.008	19095
822.149	19095
822.289	19053
822.429	18867
822.569	18772
822.709	18886
822.849	18563
822.99	18642
823.13	18631
823.27	18616
823.41	18502
823.55	18433
823.69	18502
823.83	18555
823.97	18426
824.11	18121
824.25	18213
824.389	18342
824.529	18353
824.669	18277
824.809	18296
824.949	18357
825.089	18289
825.228	18182
825.368	17992
825.508	17999
825.648	17980
825.787	18019
825.927	18068
826.067	17935
826.206	17988
826.346	18022
826.485	18030
826.625	17980
826.765	18232
826.904	18026
827.044	17821
827.183	17786
827.323	17611
827.462	17748
827.601	17760
827.741	17729
827.88	17737
828.02	17554
828.159	17672
828.298	17779
828.437	17722
828.577	17596
828.716	17805
828.855	17691
828.994	17520
829.134	17551
829.273	17452
829.412	17372
829.551	17440
829.69	17417
829.829	17501
829.968	17532
830.107	17497
830.246	17577
830.385	17326
830.524	17353
830.663	17349
830.802	17124
830.941	17185
831.08	17071
831.219	17220
831.357	17174
831.496	17318
831.635	17041
831.774	16980
831.913	16946
832.051	16790
832.19	16793
832.329	16873
832.467	16820
832.606	16698
832.744	16778
832.883	16675
833.022	16702
833.16	16858
833.299	16812
833.437	16782
833.576	16816
833.714	16733
833.852	16885
833.991	16782
834.129	16885
834.267	16869
834.406	16786
834.544	16862
834.682	16824
834.821	16786
834.959	17075
835.097	16634
835.235	16892
835.373	16866
835.511	16752
835.65	16797
835.788	16649
835.926	16641
836.064	16535
836.202	16618
836.34	16717
836.478	16774
836.615	16626
836.753	16805
836.891	16767
837.029	16793
837.167	16683
837.305	16641
837.443	16649
837.58	16558
837.718	16660
837.856	16573
837.993	16607
838.131	16493
838.269	16531
838.406	16504
838.544	16489
838.681	16291
838.819	16337
838.956	16101
839.094	16090
839.231	16124
839.369	16246
839.506	16603
839.643	16382
839.781	16215
839.918	16013
840.055	16196
840.193	16112
840.33	16017
840.467	15991
840.604	16207
840.742	16409
840.879	15979
841.016	16067
841.153	16048
841.29	16185
841.427	16071
841.564	16242
841.701	16169
841.838	16169
841.975	15918
842.112	16071
842.249	15937
842.385	15861
842.522	16067
842.659	15941
842.796	15793
842.933	15873
843.069	15854
843.206	15838
843.343	16067
843.479	15880
843.616	15975
843.752	15606
843.889	15713
844.025	15911
844.162	15660
844.298	15705
844.435	15591
844.571	15545
844.708	15800
844.844	15892
844.98	15793
845.117	15789
845.253	15595
845.389	15564
845.525	15572
845.661	15679
845.798	15538
845.934	15523
846.07	15542
846.206	15534
846.342	15667
846.478	15511
846.614	15306
846.75	15226
846.886	15142
847.022	15351
847.158	15237
847.294	15283
847.429	15272
847.565	15138
847.701	15469
847.837	14929
847.972	15001
848.108	15173
848.244	15085
848.379	14845
848.515	14861
848.65	14925
848.786	14811
848.921	14819
849.057	15028
849.192	14883
849.328	14914
849.463	14857
849.598	14838
849.734	14781
849.869	14667
850.004	14686
850.14	14712
850.275	14651
850.41	14564
850.545	14556
850.68	14659
850.815	14705
850.95	14648
851.085	14720
851.22	14594
851.355	14629
851.49	14697
851.625	14564
851.76	14568
851.895	14473
852.03	14495
852.165	14617
852.299	14640
852.434	14708
852.569	14663
852.703	14659
852.838	14640
852.973	14686
853.107	14830
853.242	14564
853.376	14522
853.511	14339
853.645	14408
853.78	14530
853.914	14415
854.048	14427
854.183	14446
854.317	14450
854.451	14693
854.585	14404
854.72	14374
854.854	14598
854.988	14396
855.122	14480
855.256	14374
855.39	14541
855.524	14511
855.658	14545
855.792	14537
855.926	14522
856.06	14511
856.194	14533
856.327	14423
856.461	14377
856.595	14385
856.729	14465
856.862	14610
856.996	14530
857.13	14488
857.263	14537
857.397	14556
857.53	14427
857.664	14499
857.797	14560
857.931	14476
858.064	14541
858.197	14503
858.331	14507
858.464	14427
858.597	14218
858.731	14484
858.864	14446
858.997	14393
859.13	14514
859.263	14488
859.396	14526
859.529	14469
859.662	14488
859.795	14434
859.928	14393
860.061	14648
860.194	14682
860.327	14450
860.46	14480
860.592	14541
860.725	14522
860.858	14621
860.99	14457
861.123	14393
861.256	14438
861.388	14575
861.521	14960
861.653	14244
861.786	14286
861.918	14328
862.05	14419
862.183	14457
862.315	14473
862.447	14583
862.58	14355
862.712	14339
862.844	14271
862.976	14267
863.108	14309
863.24	14655
863.372	14145
863.504	14275
863.636	14256
863.768	14240
863.9	14282
864.032	14195
864.164	14214
864.296	14294
864.428	14370
864.559	14355
864.691	14442
864.823	14298
864.954	14195
865.086	14221
865.217	14271
865.349	14149
865.48	14153
865.612	14225
865.743	14313
865.875	14298
866.006	14176
866.137	14301
866.269	14218
866.4	14149
866.531	14202
866.662	14210
866.793	14035
866.924	14244
867.055	14259
867.186	14191
867.317	14123
867.448	14138
867.579	14119
867.71	14168
867.841	14191
867.972	14237
868.103	14142
868.233	14119
868.364	14225
868.495	14191
868.625	14488
868.756	14602
868.886	14351
869.017	14408
869.147	14587
869.278	14632
869.408	14438
869.539	14400
869.669	14606
869.799	14465
869.929	14575
870.06	14613
870.19	14746
870.32	14754
870.45	14785
870.58	14857
870.71	14914
870.84	15017
870.97	14883
871.1	14830
871.23	15013
871.36	14925
871.489	14971
871.619	15055
871.749	15093
871.879	15108
872.008	15279
872.138	15176
872.267	14998
872.397	14990
872.526	14807
872.656	14914
872.785	14918
872.915	15028
873.044	15192
873.173	15039
873.303	15260
873.432	15138
873.561	15195
873.69	15089
873.819	15123
873.948	15302
874.077	15306
874.206	15093
874.335	15062
874.464	15199
874.593	15454
874.722	15336
874.851	15519
874.979	15447
875.108	15420
875.237	15367
875.365	15386
875.494	15393
875.623	15523
875.751	15458
875.88	15473
876.008	15496
876.136	15679
876.265	15781
876.393	15994
876.521	15865
876.65	15861
876.778	15816
876.906	15774
877.034	15766
877.162	15876
877.29	15747
877.418	15869
877.546	15922
877.674	15778
877.802	15876
877.93	15854
878.058	15747
878.185	15739
878.313	15713
878.441	15884
878.568	15838
878.696	15865
878.824	15869
878.951	15884
879.079	15994
879.206	16230
879.333	15972
879.461	15892
879.588	15972
879.715	16116
879.842	16200
879.97	15895
880.097	15709
880.224	15660
880.351	15679
880.478	15686
880.605	15663
880.732	15743
880.859	15926
880.986	15667
881.112	15759
881.239	15515
881.366	15386
881.493	15359
881.619	15317
881.746	15351
881.872	15386
881.999	15294
882.125	15287
882.252	15393
882.378	15321
882.505	15458
882.631	15306
882.757	15260
882.883	15192
883.01	15131
883.136	15142
883.262	15074
883.388	15043
883.514	15142
883.64	15237
883.766	15036
883.892	15074
884.018	15055
884.143	15089
884.269	15154
884.395	14975
884.52	14792
884.646	14933
884.772	14815
884.897	14743
885.023	14891
885.148	14910
885.274	15017
885.399	15077
885.524	14800
885.65	14876
885.775	14868
885.9	14906
886.025	15047
886.15	15039
886.275	14849
886.4	14773
886.525	14830
886.65	14800
886.775	14868
886.9	14990
887.025	15100
887.149	14861
887.274	14762
887.399	14655
887.523	14655
887.648	14613
887.773	14568
887.897	14819
888.021	14667
888.146	14724
888.27	14819
888.395	14815
888.519	14792
888.643	14674
888.767	14785
888.891	14663
889.015	14537
889.139	14613
889.263	14469
889.387	14651
889.511	14788
889.635	14716
889.759	14552
889.883	14495
890.006	14530
890.13	14621
890.254	14446
890.377	14476
890.501	14347
890.624	14298
890.748	14328
890.871	14252
890.995	14263
891.118	14149
891.241	14256
891.364	14286
891.488	14358
891.611	14275
891.734	14225
891.857	14347
891.98	14278
892.103	14336
892.226	14195
892.349	14180
892.471	14176
892.594	14130
892.717	14225
892.839	14199
892.962	14225
893.085	14336
893.207	14248
893.33	14111
893.452	14240
893.575	14278
893.697	14214
893.819	14450
893.941	14419
894.064	14358
894.186	14164
894.308	14195
894.43	14317
894.552	14446
894.674	14450
894.796	14298
894.918	14275
895.04	14263
895.161	14328
895.283	14286
895.405	14305
895.526	14317
895.648	14309
895.769	14434
895.891	14454
896.012	14427
896.134	14446
896.255	14332
896.376	14298
896.498	14461
896.619	14579
896.74	14442
896.861	14511
896.982	14701
897.103	14998
897.224	14735
897.345	14648
897.466	14598
897.587	14663
897.708	14857
897.828	14712
897.949	14739
898.07	14568
898.19	14590
898.311	14815
898.431	14659
898.552	14678
898.672	14743
898.792	14781
898.913	14754
899.033	14746
899.153	14693
899.273	14492
899.393	14571
899.513	14617
899.633	14613
899.753	14667
899.873	14610
899.993	14705
900.113	14461
900.232	14716
900.352	14549
900.472	14499
900.591	14488
900.711	14465
900.83	14351
900.95	14587
901.069	14583
901.189	14431
901.308	14275
901.427	14218
901.546	14191
901.665	14271
901.784	14256
901.904	13993
902.023	14020
902.141	13932
902.26	13693
902.379	13807
902.498	13700
902.617	13670
902.735	13700
902.854	13742
902.973	13609
903.091	13499
903.21	13563
903.328	13529
903.446	13434
903.565	13312
903.683	13274
903.801	13183
903.919	13232
904.038	13282
904.156	13050
904.274	13149
904.392	13015
904.51	13038
904.627	13069
904.745	13072
904.863	13160
904.981	13012
905.098	12734
905.216	12802
905.334	12825
905.451	12764
905.569	12757
905.686	12878
905.803	12871
905.921	12570
906.038	12745
906.155	12639
906.272	12502
906.389	12608
906.506	12441
906.623	12388
906.74	12334
906.857	12273
906.974	12350
907.091	12452
907.208	12502
907.324	12361
907.441	12254
907.557	12076
907.674	12106
907.79	11992
907.907	12007
908.023	12091
908.139	12072
908.256	12129
908.372	12019
908.488	12114
908.604	12022
908.72	11828
908.836	11939
908.952	11817
909.068	11923
909.184	12007
909.3	11866
909.415	11965
909.531	11901
909.647	11672
909.762	11638
909.878	11661
909.993	11680
910.108	11471
910.224	11577
910.339	11699
910.454	11547
910.57	11425
910.685	11444
910.8	11691
910.915	11779
911.03	11554
911.145	11410
911.259	11372
911.374	11372
911.489	11147
911.604	11269
911.718	11155
911.833	11151
911.947	10991
912.062	10957
912.176	11079
912.291	11105
912.405	11052
912.519	11269
912.633	11280
912.748	11197
912.862	11071
912.976	10942
913.09	10896
913.204	10965
913.318	10991
913.431	11003
913.545	11014
913.659	11098
913.772	10987
913.886	10892
914	10862
914.113	10919
914.226	11006
914.34	10980
914.453	10797
914.566	10900
914.68	10873
914.793	10782
914.906	10675
915.019	10538
915.132	10443
915.245	10542
915.358	10637
915.47	10561
915.583	10558
915.696	10645
915.809	10702
915.921	10763
916.034	10519
916.146	10569
916.259	10531
916.371	10618
916.483	10611
916.595	10428
916.708	10519
916.82	10538
916.932	10466
917.044	10493
917.156	10550
917.268	10363
917.38	10531
917.491	10402
917.603	10455
917.715	10485
917.826	10512
917.938	10409
918.049	10310
918.161	10363
918.272	10554
918.384	10527
918.495	10428
918.606	10284
918.717	10268
918.828	10318
918.939	10405
919.05	10188
919.161	10280
919.272	10071
919.383	10112
919.494	10291
919.604	10538
919.715	10394
919.826	10291
919.936	10329
920.047	10390
920.157	10409
920.267	10500
920.378	10424
920.488	10329
920.598	10440
920.708	10584
920.818	10516
920.928	10538
921.038	10630
921.148	10675
921.258	10382
921.368	10253
921.477	10105
921.587	10234
921.697	10025
921.806	10116
921.916	10006
922.025	9975
922.134	9823
922.244	9778
922.353	9884
922.462	9770
922.571	9694
922.68	9561
922.789	9576
922.898	9572
923.007	9515
923.116	9584
923.224	9549
923.333	9507
923.442	9454
923.55	9439
923.659	9511
923.767	9564
923.876	9420
923.984	9545
924.092	9378
924.201	9435
924.309	9367
924.417	9469
924.525	9348
924.633	9355
924.741	10131
924.849	9173
924.956	9291
925.064	9169
925.172	9135
925.279	9154
925.387	9230
925.494	9256
925.602	9260
925.709	9283
925.816	9089
925.924	9203
926.031	9287
926.138	9256
926.245	9233
926.352	9119
926.459	9237
926.566	9298
926.673	9253
926.779	8986
926.886	9058
926.993	8880
927.099	8944
927.206	8861
927.312	8952
927.419	9036
927.525	8906
927.631	8967
927.737	8826
927.843	8849
927.95	8735
928.056	8834
928.162	8838
928.267	8838
928.373	9351
928.479	8891
928.585	8674
928.69	8830
928.796	8910
928.901	8727
929.007	8602
929.112	8758
929.218	8705
929.323	8610
929.428	8636
929.533	8849
929.638	8640
929.743	8594
929.848	8663
929.953	8564
930.058	8545
930.163	8415
930.267	8446
930.372	8575
930.477	8408
930.581	8575
930.685	8503
930.79	8324
930.894	8343
930.998	8343
931.103	8442
931.207	8180
931.311	8039
931.415	8100
931.519	7864
931.623	7864
