Data from test_V78500241_2019.txt Node
Date: Fri Mar 25 14:47:46 CST 2022
User: usil
Spectrometer: V785-0024
Trigger mode: 0
Integration Time (sec): 4.000000E-1
Scans to average: 1
Nonlinearity correction enabled: false
Boxcar width: 0
Storing dark spectrum: false
XAxis mode: Wavelengths
Number of Pixels in Spectrum: 1024
>>>>>Begin Spectral Data<<<<<
801.071	22082
801.214	22131
801.356	21728
801.499	21618
801.641	21561
801.783	21549
801.926	21469
802.068	21439
802.211	21408
802.353	21321
802.496	21047
802.638	20937
802.78	20914
802.923	20918
803.065	20804
803.208	20727
803.35	20849
803.492	20876
803.635	20929
803.777	20777
803.919	20853
804.061	21169
804.204	20906
804.346	20777
804.488	20750
804.63	20788
804.773	20644
804.915	20842
805.057	20842
805.199	20686
805.341	20701
805.483	20868
805.626	20807
805.768	20701
805.91	20785
806.052	20743
806.194	20621
806.336	20872
806.478	20724
806.62	20682
806.762	20864
806.904	20933
807.046	21154
807.188	21062
807.33	20975
807.472	20994
807.614	20925
807.756	21032
807.898	20937
808.04	20739
808.182	20701
808.324	20716
808.465	20891
808.607	21005
808.749	21203
808.891	21116
809.033	21291
809.174	21268
809.316	21032
809.458	21066
809.6	21051
809.741	21173
809.883	21169
810.025	21325
810.166	21230
810.308	21298
810.45	21298
810.591	21161
810.733	21081
810.875	20895
811.016	20743
811.158	20902
811.299	21001
811.441	21028
811.582	20952
811.724	20883
811.865	20758
812.007	20792
812.148	20918
812.29	20925
812.431	21028
812.573	21230
812.714	21298
812.855	21370
812.997	21408
813.138	21447
813.279	21511
813.421	21466
813.562	21313
813.703	21176
813.845	20982
813.986	20800
814.127	20613
814.268	20530
814.41	20461
814.551	20404
814.692	20571
814.833	20358
814.974	20412
815.115	20381
815.256	20164
815.397	20362
815.539	20332
815.68	20149
815.821	20046
815.962	20130
816.103	20138
816.244	19982
816.385	19917
816.526	19906
816.666	19639
816.807	19639
816.948	19693
817.089	19750
817.23	19761
817.371	19552
817.512	19578
817.653	19582
817.793	19457
817.934	19540
818.075	19567
818.216	19605
818.356	19605
818.497	19354
818.638	19236
818.778	19206
818.919	19232
819.06	19274
819.2	19308
819.341	19464
819.481	19411
819.622	19658
819.762	19689
819.903	19708
820.043	19559
820.184	19552
820.324	19616
820.465	19601
820.605	19499
820.746	19453
820.886	19483
821.026	19468
821.167	19514
821.307	19578
821.447	19476
821.588	19228
821.728	19168
821.868	19129
822.008	18996
822.149	19046
822.289	18970
822.429	18604
822.569	18692
822.709	18639
822.849	18391
822.99	18464
823.13	18452
823.27	18357
823.41	18266
823.55	18136
823.69	18239
823.83	18243
823.97	18148
824.11	17965
824.25	18053
824.389	18041
824.529	18019
824.669	18068
824.809	18125
824.949	18152
825.089	18057
825.228	18034
825.368	17912
825.508	17836
825.648	17904
825.787	17843
825.927	17859
826.067	17805
826.206	17707
826.346	17923
826.485	17805
826.625	17752
826.765	17817
826.904	17775
827.044	17619
827.183	17532
827.323	17520
827.462	17558
827.601	17471
827.741	17467
827.88	17467
828.02	17345
828.159	17452
828.298	17623
828.437	17642
828.577	17459
828.716	17562
828.855	17535
828.994	17315
829.134	17235
829.273	17356
829.412	17140
829.551	17151
829.69	17345
829.829	17189
829.968	17326
830.107	17250
830.246	17376
830.385	17090
830.524	17037
830.663	17048
830.802	17037
830.941	16843
831.08	16778
831.219	16938
831.357	16839
831.496	17056
831.635	16752
831.774	16820
831.913	16725
832.051	16729
832.19	16641
832.329	16626
832.467	16634
832.606	16611
832.744	16428
832.883	16497
833.022	16493
833.16	16440
833.299	16573
833.437	16561
833.576	16641
833.714	16618
833.852	16706
833.991	16664
834.129	16698
834.267	16618
834.406	16561
834.544	16626
834.682	16679
834.821	16584
834.959	16793
835.097	16675
835.235	16641
835.373	16565
835.511	16554
835.65	16618
835.788	16512
835.926	16409
836.064	16344
836.202	16356
836.34	16622
836.478	16656
836.615	16535
836.753	16550
836.891	16573
837.029	16523
837.167	16546
837.305	16398
837.443	16402
837.58	16337
837.718	16428
837.856	16436
837.993	16443
838.131	16402
838.269	16367
838.406	16348
838.544	16299
838.681	16196
838.819	16032
838.956	15922
839.094	15857
839.231	15960
839.369	16013
839.506	16398
839.643	16318
839.781	15884
839.918	15941
840.055	15972
840.193	15899
840.33	15831
840.467	15880
840.604	15972
840.742	16234
840.879	15804
841.016	15907
841.153	15812
841.29	15991
841.427	15926
841.564	15964
841.701	15956
841.838	15884
841.975	15831
842.112	15846
842.249	15743
842.385	15644
842.522	15778
842.659	15869
842.796	15690
842.933	15720
843.069	15641
843.206	15663
843.343	15876
843.479	15686
843.616	15682
843.752	15637
843.889	15557
844.025	15584
844.162	15542
844.298	15587
844.435	15561
844.571	15561
844.708	15523
844.844	15652
844.98	15682
845.117	15473
845.253	15431
845.389	15523
845.525	15496
845.661	15420
845.798	15260
845.934	15325
846.07	15222
846.206	15283
846.342	15428
846.478	15386
846.614	15192
846.75	15036
846.886	15104
847.022	15131
847.158	15085
847.294	15157
847.429	15142
847.565	15154
847.701	15374
847.837	14857
847.972	14861
848.108	14918
848.244	14845
848.379	14758
848.515	14762
848.65	14705
848.786	14705
848.921	14686
849.057	14758
849.192	14857
849.328	14686
849.463	14678
849.598	14701
849.734	14610
849.869	14484
850.004	14415
850.14	14431
850.275	14317
850.41	14404
850.545	14419
850.68	14454
850.815	14461
850.95	14355
851.085	14579
851.22	14568
851.355	14446
851.49	14473
851.625	14503
851.76	14415
851.895	14313
852.03	14362
852.165	14412
852.299	14461
852.434	14564
852.569	14507
852.703	14393
852.838	14480
852.973	14583
853.107	14545
853.242	14415
853.376	14385
853.511	14256
853.645	14237
853.78	14438
853.914	14347
854.048	14298
854.183	14271
854.317	14381
854.451	14530
854.585	14370
854.72	14286
854.854	14454
854.988	14290
855.122	14294
855.256	14240
855.39	14313
855.524	14431
855.658	14355
855.792	14339
855.926	14324
856.06	14351
856.194	14358
856.327	14282
856.461	14214
856.595	14290
856.729	14309
856.862	14396
856.996	14385
857.13	14393
857.263	14484
857.397	14507
857.53	14290
857.664	14339
857.797	14457
857.931	14526
858.064	14351
858.197	14476
858.331	14305
858.464	14301
858.597	14248
858.731	14286
858.864	14381
858.997	14385
859.13	14282
859.263	14320
859.396	14412
859.529	14290
859.662	14282
859.795	14240
859.928	14290
860.061	14434
860.194	14450
860.327	14370
860.46	14248
860.592	14533
860.725	14473
860.858	14415
860.99	14324
861.123	14237
861.256	14183
861.388	14362
861.521	14960
861.653	14168
861.786	14202
861.918	14161
862.05	14237
862.183	14218
862.315	14320
862.447	14400
862.58	14271
862.712	14187
862.844	14107
862.976	14172
863.108	14191
863.24	14412
863.372	14149
863.504	14126
863.636	14062
863.768	14237
863.9	14096
864.032	14084
864.164	14073
864.296	14145
864.428	14259
864.559	14271
864.691	14153
864.823	14134
864.954	14073
865.086	14081
865.217	14069
865.349	13963
865.48	14172
865.612	14119
865.743	14240
865.875	14046
866.006	14100
866.137	14142
866.269	14050
866.4	14043
866.531	13993
866.662	13982
866.793	14005
866.924	14031
867.055	14092
867.186	14005
867.317	14142
867.448	13951
867.579	14001
867.71	14005
867.841	14035
867.972	14145
868.103	14142
868.233	14103
868.364	14092
868.495	14244
868.625	14370
868.756	14370
868.886	14225
869.017	14328
869.147	14400
869.278	14381
869.408	14309
869.539	14339
869.669	14461
869.799	14415
869.929	14381
870.06	14454
870.19	14590
870.32	14598
870.45	14625
870.58	14792
870.71	14743
870.84	14823
870.97	14731
871.1	14579
871.23	14880
871.36	14906
871.489	14842
871.619	14979
871.749	14868
871.879	15009
872.008	15123
872.138	14876
872.267	14845
872.397	14800
872.526	14758
872.656	14750
872.785	14750
872.915	14918
873.044	15009
873.173	15055
873.303	14914
873.432	15024
873.561	14994
873.69	14979
873.819	14982
873.948	14994
874.077	15001
874.206	14971
874.335	14925
874.464	15081
874.593	15325
874.722	15188
874.851	15283
874.979	15298
875.108	15374
875.237	15241
875.365	15195
875.494	15317
875.623	15420
875.751	15283
875.88	15382
876.008	15420
876.136	15496
876.265	15724
876.393	15762
876.521	15705
876.65	15770
876.778	15660
876.906	15637
877.034	15629
877.162	15648
877.29	15629
877.418	15724
877.546	15774
877.674	15629
877.802	15713
877.93	15641
878.058	15648
878.185	15580
878.313	15671
878.441	15686
878.568	15553
878.696	15667
878.824	15728
878.951	15797
879.079	15945
879.206	16025
879.333	15892
879.461	15808
879.588	15842
879.715	15869
879.842	16074
879.97	15755
880.097	15599
880.224	15561
880.351	15610
880.478	15576
880.605	15481
880.732	15519
880.859	15762
880.986	15603
881.112	15523
881.239	15526
881.366	15268
881.493	15199
881.619	15218
881.746	15173
881.872	15226
881.999	15123
882.125	15150
882.252	15256
882.378	15173
882.505	15393
882.631	15138
882.757	15009
882.883	14998
883.01	15055
883.136	14941
883.262	14906
883.388	14887
883.514	15119
883.64	15116
883.766	15001
883.892	14823
884.018	14963
884.143	14982
884.269	15047
884.395	14815
884.52	14693
884.646	14785
884.772	14705
884.897	14617
885.023	14644
885.148	14811
885.274	14872
885.399	14842
885.524	14705
885.65	14735
885.775	14777
885.9	14731
886.025	14807
886.15	14777
886.275	14720
886.4	14617
886.525	14826
886.65	14590
886.775	14560
886.9	14933
887.025	14963
887.149	14667
887.274	14587
887.399	14579
887.523	14533
887.648	14514
887.773	14385
887.897	14636
888.021	14727
888.146	14575
888.27	14708
888.395	14708
888.519	14602
888.643	14640
888.767	14663
888.891	14602
889.015	14423
889.139	14419
889.263	14446
889.387	14564
889.511	14674
889.635	14602
889.759	14431
889.883	14427
890.006	14408
890.13	14545
890.254	14415
890.377	14351
890.501	14290
890.624	14187
890.748	14252
890.871	14199
890.995	14172
891.118	13986
891.241	14149
891.364	14054
891.488	14278
891.611	14050
891.734	14119
891.857	14218
891.98	14103
892.103	14229
892.226	14195
892.349	14100
892.471	13959
892.594	14088
892.717	14157
892.839	14035
892.962	14084
893.085	14168
893.207	14130
893.33	14024
893.452	14016
893.575	14240
893.697	14126
893.819	14233
893.941	14400
894.064	14317
894.186	14081
894.308	14062
894.43	14301
894.552	14301
894.674	14301
894.796	14145
894.918	14168
895.04	14199
895.161	14218
895.283	14320
895.405	14191
895.526	14187
895.648	14206
895.769	14206
895.891	14389
896.012	14294
896.134	14396
896.255	14161
896.376	14290
896.498	14301
896.619	14294
896.74	14343
896.861	14408
896.982	14667
897.103	14792
897.224	14556
897.345	14564
897.466	14465
897.587	14511
897.708	14689
897.828	14636
897.949	14507
898.07	14454
898.19	14522
898.311	14739
898.431	14495
898.552	14590
898.672	14663
898.792	14720
898.913	14716
899.033	14560
899.153	14457
899.273	14446
899.393	14484
899.513	14511
899.633	14461
899.753	14537
899.873	14511
899.993	14511
900.113	14518
900.232	14514
900.352	14431
900.472	14400
900.591	14396
900.711	14404
900.83	14214
900.95	14431
901.069	14415
901.189	14396
901.308	14199
901.427	14027
901.546	14084
901.665	14073
901.784	14088
901.904	13959
902.023	13837
902.141	13681
902.26	13559
902.379	13643
902.498	13677
902.617	13590
902.735	13643
902.854	13643
902.973	13495
903.091	13365
903.21	13282
903.328	13251
903.446	13316
903.565	13190
903.683	13270
903.801	13095
903.919	13152
904.038	13183
904.156	12981
904.274	13023
904.392	12985
904.51	13084
904.627	12935
904.745	12981
904.863	13164
904.981	12772
905.098	12700
905.216	12635
905.334	12703
905.451	12741
905.569	12745
905.686	12783
905.803	12764
905.921	12433
906.038	12665
906.155	12433
906.272	12369
906.389	12395
906.506	12296
906.623	12319
906.74	12232
906.857	12125
906.974	12197
907.091	12399
907.208	12365
907.324	12376
907.441	12182
907.557	12030
907.674	12083
907.79	11939
907.907	11980
908.023	12068
908.139	11969
908.256	11992
908.372	11931
908.488	11874
908.604	11828
908.72	11733
908.836	11741
908.952	11653
909.068	11783
909.184	11802
909.3	11805
909.415	11760
909.531	11733
909.647	11596
909.762	11543
909.878	11608
909.993	11474
910.108	11539
910.224	11459
910.339	11642
910.454	11467
910.57	11410
910.685	11368
910.8	11573
910.915	11554
911.03	11455
911.145	11318
911.259	11231
911.374	11318
911.489	11223
911.604	11071
911.718	10923
911.833	11025
911.947	10999
912.062	10759
912.176	10995
912.291	11041
912.405	11048
912.519	11181
912.633	11258
912.748	11056
912.862	11037
912.976	10911
913.09	10736
913.204	10847
913.318	10835
913.431	11006
913.545	11022
913.659	11025
913.772	10854
913.886	10702
914	10721
914.113	10866
914.226	10908
914.34	10904
914.453	10679
914.566	10904
914.68	10694
914.793	10607
914.906	10447
915.019	10466
915.132	10451
915.245	10459
915.358	10550
915.47	10580
915.583	10523
915.696	10615
915.809	10645
915.921	10611
916.034	10550
916.146	10546
916.259	10424
916.371	10603
916.483	10466
916.595	10413
916.708	10447
916.82	10436
916.932	10367
917.044	10459
917.156	10405
917.268	10253
917.38	10291
917.491	10348
917.603	10386
917.715	10322
917.826	10432
917.938	10352
918.049	10211
918.161	10333
918.272	10428
918.384	10432
918.495	10348
918.606	10219
918.717	10204
918.828	10280
918.939	10223
919.05	10154
919.161	10234
919.272	10029
919.383	10112
919.494	10173
919.604	10459
919.715	10207
919.826	10074
919.936	10192
920.047	10318
920.157	10238
920.267	10405
920.378	10253
920.488	10227
920.598	10459
920.708	10535
920.818	10432
920.928	10390
921.038	10573
921.148	10565
921.258	10329
921.368	10128
921.477	10166
921.587	10048
921.697	9975
921.806	10101
921.916	9937
922.025	9876
922.134	9793
922.244	9720
922.353	9819
922.462	9564
922.571	9629
922.68	9477
922.789	9428
922.898	9488
923.007	9401
923.116	9572
923.224	9530
923.333	9523
923.442	9336
923.55	9374
923.659	9408
923.767	9469
923.876	9313
923.984	9420
924.092	9272
924.201	9294
924.309	9370
924.417	9359
924.525	9199
924.633	9393
924.741	10261
924.849	9039
924.956	9226
925.064	9097
925.172	8994
925.279	9108
925.387	9203
925.494	9226
925.602	9313
925.709	9226
925.816	9085
925.924	9207
926.031	9173
926.138	9154
926.245	9203
926.352	9097
926.459	9150
926.566	9241
926.673	9093
926.779	8971
926.886	8914
926.993	8887
927.099	8876
927.206	8800
927.312	8838
927.419	8918
927.525	8785
927.631	8956
927.737	8758
927.843	8766
927.95	8663
928.056	8746
928.162	8758
928.267	8785
928.373	9344
928.479	8826
928.585	8606
928.69	8750
928.796	8762
928.901	8682
929.007	8541
929.112	8682
929.218	8644
929.323	8587
929.428	8552
929.533	8746
929.638	8541
929.743	8549
929.848	8571
929.953	8530
930.058	8480
930.163	8237
930.267	8343
930.372	8484
930.477	8313
930.581	8575
930.685	8423
930.79	8267
930.894	8328
930.998	8218
931.103	8396
931.207	8103
931.311	8069
931.415	7974
931.519	7750
931.623	7795
