Data from test_V78500241_2725.txt Node
Date: Fri Mar 25 14:52:41 CST 2022
User: usil
Spectrometer: V785-0024
Trigger mode: 0
Integration Time (sec): 4.000000E-1
Scans to average: 1
Nonlinearity correction enabled: false
Boxcar width: 0
Storing dark spectrum: false
XAxis mode: Wavelengths
Number of Pixels in Spectrum: 1024
>>>>>Begin Spectral Data<<<<<
801.071	22067
801.214	22029
801.356	21663
801.499	21549
801.641	21523
801.783	21405
801.926	21389
802.068	21283
802.211	21138
802.353	21161
802.496	20921
802.638	20834
802.78	20724
802.923	20727
803.065	20651
803.208	20556
803.35	20667
803.492	20815
803.635	20895
803.777	20697
803.919	20743
804.061	20975
804.204	20758
804.346	20526
804.488	20511
804.63	20564
804.773	20556
804.915	20579
805.057	20754
805.199	20571
805.341	20636
805.483	20693
805.626	20678
805.768	20636
805.91	20720
806.052	20537
806.194	20511
806.336	20781
806.478	20602
806.62	20549
806.762	20655
806.904	20804
807.046	20937
807.188	20861
807.33	21055
807.472	20902
807.614	20891
807.756	20842
807.898	20853
808.04	20526
808.182	20670
808.324	20606
808.465	20617
808.607	20891
808.749	20834
808.891	21066
809.033	21192
809.174	21058
809.316	20906
809.458	20861
809.6	20956
809.741	21017
809.883	20956
810.025	21119
810.166	21131
810.308	21157
810.45	21093
810.591	20918
810.733	20842
810.875	20712
811.016	20575
811.158	20686
811.299	20739
811.441	20758
811.582	20792
811.724	20697
811.865	20716
812.007	20667
812.148	20651
812.29	20712
812.431	20838
812.573	21093
812.714	21241
812.855	21291
812.997	21313
813.138	21439
813.279	21325
813.421	21260
813.562	21199
813.703	20944
813.845	20861
813.986	20575
814.127	20374
814.268	20396
814.41	20370
814.551	20317
814.692	20332
814.833	20206
814.974	20164
815.115	20221
815.256	20119
815.397	20065
815.539	20134
815.68	20092
815.821	19947
815.962	20096
816.103	19982
816.244	19852
816.385	19685
816.526	19776
816.666	19438
816.807	19495
816.948	19563
817.089	19514
817.23	19426
817.371	19331
817.512	19350
817.653	19335
817.793	19529
817.934	19297
818.075	19335
818.216	19506
818.356	19316
818.497	19247
818.638	19107
818.778	19168
818.919	19164
819.06	19050
819.2	19190
819.341	19304
819.481	19285
819.622	19358
819.762	19643
819.903	19403
820.043	19362
820.184	19422
820.324	19396
820.465	19499
820.605	19362
820.746	19320
820.886	19175
821.026	19384
821.167	19244
821.307	19457
821.447	19255
821.588	19175
821.728	19027
821.868	19031
822.008	18867
822.149	18875
822.289	18677
822.429	18342
822.569	18445
822.709	18506
822.849	18353
822.99	18273
823.13	18285
823.27	18190
823.41	18140
823.55	17980
823.69	18091
823.83	18125
823.97	17897
824.11	17775
824.25	17817
824.389	17855
824.529	17920
824.669	17832
824.809	17828
824.949	17992
825.089	17866
825.228	17901
825.368	17703
825.508	17676
825.648	17764
825.787	17756
825.927	17729
826.067	17630
826.206	17566
826.346	17604
826.485	17676
826.625	17649
826.765	17828
826.904	17649
827.044	17429
827.183	17398
827.323	17250
827.462	17326
827.601	17448
827.741	17303
827.88	17406
828.02	17231
828.159	17398
828.298	17337
828.437	17410
828.577	17307
828.716	17360
828.855	17299
828.994	17128
829.134	17128
829.273	17189
829.412	17064
829.551	17048
829.69	17067
829.829	17277
829.968	17178
830.107	17193
830.246	17006
830.385	17079
830.524	17037
830.663	16995
830.802	16847
830.941	16618
831.08	16717
831.219	16812
831.357	16694
831.496	16965
831.635	16660
831.774	16588
831.913	16542
832.051	16565
832.19	16451
832.329	16508
832.467	16478
832.606	16382
832.744	16405
832.883	16459
833.022	16382
833.16	16462
833.299	16398
833.437	16428
833.576	16424
833.714	16405
833.852	16394
833.991	16580
834.129	16474
834.267	16481
834.406	16402
834.544	16512
834.682	16478
834.821	16417
834.959	16626
835.097	16379
835.235	16630
835.373	16626
835.511	16451
835.65	16428
835.788	16379
835.926	16242
836.064	16287
836.202	16329
836.34	16413
836.478	16436
836.615	16375
836.753	16398
836.891	16478
837.029	16478
837.167	16318
837.305	16325
837.443	16230
837.58	16268
837.718	16344
837.856	16325
837.993	16276
838.131	16166
838.269	16192
838.406	16181
838.544	16219
838.681	15945
838.819	15945
838.956	15804
839.094	15838
839.231	15861
839.369	15991
839.506	16101
839.643	16124
839.781	15804
839.918	15774
840.055	15869
840.193	15743
840.33	15808
840.467	15713
840.604	15854
840.742	15998
840.879	15660
841.016	15724
841.153	15762
841.29	15930
841.427	15857
841.564	15861
841.701	15816
841.838	15713
841.975	15701
842.112	15675
842.249	15580
842.385	15580
842.522	15709
842.659	15519
842.796	15545
842.933	15618
843.069	15564
843.206	15580
843.343	15641
843.479	15705
843.616	15545
843.752	15405
843.889	15325
844.025	15450
844.162	15378
844.298	15523
844.435	15420
844.571	15329
844.708	15428
844.844	15545
844.98	15473
845.117	15462
845.253	15336
845.389	15256
845.525	15214
845.661	15252
845.798	15214
845.934	15260
846.07	15230
846.206	15306
846.342	15351
846.478	15188
846.614	15066
846.75	14902
846.886	14925
847.022	14952
847.158	14952
847.294	14963
847.429	15077
847.565	15013
847.701	15108
847.837	14727
847.972	14708
848.108	14872
848.244	14781
848.379	14651
848.515	14571
848.65	14667
848.786	14610
848.921	14659
849.057	14640
849.192	14674
849.328	14686
849.463	14579
849.598	14530
849.734	14476
849.869	14545
850.004	14271
850.14	14400
850.275	14370
850.41	14267
850.545	14377
850.68	14286
850.815	14492
850.95	14263
851.085	14492
851.22	14434
851.355	14415
851.49	14263
851.625	14351
851.76	14278
851.895	14320
852.03	14164
852.165	14271
852.299	14336
852.434	14473
852.569	14339
852.703	14343
852.838	14454
852.973	14434
853.107	14423
853.242	14267
853.376	14202
853.511	14062
853.645	14183
853.78	14237
853.914	14233
854.048	14187
854.183	14111
854.317	14172
854.451	14370
854.585	14187
854.72	14145
854.854	14271
854.988	14073
855.122	14248
855.256	14024
855.39	14050
855.524	14290
855.658	14221
855.792	14195
855.926	14278
856.06	14233
856.194	14221
856.327	14142
856.461	14092
856.595	14225
856.729	14100
856.862	14313
856.996	14221
857.13	14305
857.263	14263
857.397	14301
857.53	14233
857.664	14195
857.797	14305
857.931	14305
858.064	14244
858.197	14313
858.331	14214
858.464	14149
858.597	14100
858.731	14199
858.864	14134
858.997	14164
859.13	14218
859.263	14267
859.396	14218
859.529	14191
859.662	14199
859.795	14157
859.928	14161
860.061	14374
860.194	14415
860.327	14214
860.46	14180
860.592	14271
860.725	14301
860.858	14355
860.99	14225
861.123	14084
861.256	14130
861.388	14252
861.521	14861
861.653	14008
861.786	13970
861.918	14088
862.05	14130
862.183	14176
862.315	14183
862.447	14252
862.58	14077
862.712	13940
862.844	13890
862.976	14149
863.108	14084
863.24	14511
863.372	13928
863.504	13932
863.636	13963
863.768	14126
863.9	14001
864.032	13906
864.164	13989
864.296	14031
864.428	14073
864.559	13993
864.691	14084
864.823	14119
864.954	13986
865.086	14024
865.217	14012
865.349	13989
865.48	14005
865.612	14008
865.743	14130
865.875	13947
866.006	13860
866.137	13928
866.269	13932
866.4	13871
866.531	13917
866.662	13868
866.793	13955
866.924	13898
867.055	14031
867.186	14024
867.317	13909
867.448	13814
867.579	14001
867.71	13936
867.841	13856
867.972	13917
868.103	14012
868.233	13963
868.364	13932
868.495	13951
868.625	14111
868.756	14336
868.886	14225
869.017	14313
869.147	14351
869.278	14343
869.408	14214
869.539	14290
869.669	14427
869.799	14244
869.929	14408
870.06	14309
870.19	14629
870.32	14507
870.45	14537
870.58	14640
870.71	14674
870.84	14708
870.97	14640
871.1	14507
871.23	14785
871.36	14765
871.489	14655
871.619	14701
871.749	14731
871.879	14921
872.008	14952
872.138	14811
872.267	14952
872.397	14743
872.526	14663
872.656	14621
872.785	14636
872.915	14834
873.044	14948
873.173	14937
873.303	14887
873.432	14899
873.561	14986
873.69	14895
873.819	14823
873.948	15017
874.077	14944
874.206	14788
874.335	14937
874.464	15093
874.593	15108
874.722	15066
874.851	15287
874.979	15180
875.108	15165
875.237	15245
875.365	15112
875.494	15100
875.623	15252
875.751	15176
875.88	15260
876.008	15336
876.136	15424
876.265	15576
876.393	15717
876.521	15713
876.65	15686
876.778	15534
876.906	15504
877.034	15519
877.162	15625
877.29	15618
877.418	15652
877.546	15641
877.674	15564
877.802	15625
877.93	15553
878.058	15599
878.185	15496
878.313	15682
878.441	15644
878.568	15439
878.696	15545
878.824	15660
878.951	15739
879.079	15819
879.206	15857
879.333	15732
879.461	15637
879.588	15641
879.715	15865
879.842	15956
879.97	15622
880.097	15511
880.224	15488
880.351	15450
880.478	15492
880.605	15393
880.732	15420
880.859	15728
880.986	15481
881.112	15462
881.239	15344
881.366	15298
881.493	15127
881.619	15077
881.746	15142
881.872	15074
881.999	15131
882.125	15039
882.252	15272
882.378	15184
882.505	15275
882.631	15142
882.757	14902
882.883	14876
883.01	15055
883.136	14853
883.262	14674
883.388	14697
883.514	14948
883.64	14933
883.766	14914
883.892	14727
884.018	14785
884.143	14975
884.269	15047
884.395	14796
884.52	14579
884.646	14617
884.772	14590
884.897	14541
885.023	14667
885.148	14629
885.274	14792
885.399	14750
885.524	14598
885.65	14587
885.775	14625
885.9	14579
886.025	14750
886.15	14754
886.275	14625
886.4	14469
886.525	14583
886.65	14518
886.775	14617
886.9	14762
887.025	14861
887.149	14693
887.274	14404
887.399	14442
887.523	14400
887.648	14377
887.773	14351
887.897	14495
888.021	14473
888.146	14537
888.27	14625
888.395	14568
888.519	14495
888.643	14533
888.767	14537
888.891	14393
889.015	14221
889.139	14305
889.263	14256
889.387	14396
889.511	14492
889.635	14579
889.759	14263
889.883	14278
890.006	14393
890.13	14438
890.254	14256
890.377	14286
890.501	14157
890.624	14107
890.748	14187
890.871	14088
890.995	13986
891.118	13997
891.241	14134
891.364	14050
891.488	14134
891.611	14046
891.734	14111
891.857	14149
891.98	14043
892.103	14107
892.226	14043
892.349	14069
892.471	13947
892.594	13978
892.717	14020
892.839	14031
892.962	14020
893.085	14123
893.207	14119
893.33	13921
893.452	13921
893.575	14024
893.697	13963
893.819	14149
893.941	14263
894.064	14153
894.186	14073
894.308	13978
894.43	14119
894.552	14259
894.674	14202
894.796	14005
894.918	14027
895.04	14100
895.161	14161
895.283	14153
895.405	14062
895.526	14191
895.648	14206
895.769	14096
895.891	14267
896.012	14221
896.134	14199
896.255	14225
896.376	14252
896.498	14191
896.619	14290
896.74	14180
896.861	14328
896.982	14537
897.103	14636
897.224	14530
897.345	14393
897.466	14339
897.587	14438
897.708	14571
897.828	14476
897.949	14469
898.07	14271
898.19	14476
898.311	14568
898.431	14488
898.552	14560
898.672	14621
898.792	14526
898.913	14533
899.033	14427
899.153	14324
899.273	14233
899.393	14419
899.513	14484
899.633	14484
899.753	14434
899.873	14427
899.993	14404
900.113	14434
900.232	14400
900.352	14400
900.472	14275
900.591	14142
900.711	14278
900.83	14294
900.95	14412
901.069	14442
901.189	14221
901.308	13959
901.427	13925
901.546	13902
901.665	14084
901.784	13940
901.904	13761
902.023	13715
902.141	13597
902.26	13559
902.379	13506
902.498	13586
902.617	13578
902.735	13491
902.854	13597
902.973	13362
903.091	13274
903.21	13263
903.328	13266
903.446	13114
903.565	13023
903.683	13126
903.801	12977
903.919	13069
904.038	12996
904.156	12840
904.274	13084
904.392	12932
904.51	12859
904.627	12863
904.745	12943
904.863	12966
904.981	12692
905.098	12601
905.216	12559
905.334	12593
905.451	12631
905.569	12544
905.686	12635
905.803	12570
905.921	12460
906.038	12582
906.155	12433
906.272	12277
906.389	12399
906.506	12224
906.623	12213
906.74	12201
906.857	12163
906.974	12201
907.091	12175
907.208	12330
907.324	12194
907.441	12030
907.557	11954
907.674	11969
907.79	11882
907.907	11840
908.023	11980
908.139	12034
908.256	11961
908.372	11847
908.488	11889
908.604	11771
908.72	11585
908.836	11665
908.952	11688
909.068	11745
909.184	11714
909.3	11748
909.415	11748
909.531	11828
909.647	11562
909.762	11452
909.878	11448
909.993	11505
910.108	11421
910.224	11410
910.339	11417
910.454	11395
910.57	11322
910.685	11258
910.8	11589
910.915	11452
911.03	11322
911.145	11178
911.259	11216
911.374	11121
911.489	11048
911.604	11117
911.718	10961
911.833	10968
911.947	10835
912.062	10763
912.176	10828
912.291	10908
912.405	10976
912.519	11098
912.633	11086
912.748	10987
912.862	10911
912.976	10786
913.09	10653
913.204	10778
913.318	10774
913.431	10908
913.545	10854
913.659	10961
913.772	10839
913.886	10763
914	10653
914.113	10740
914.226	10786
914.34	10797
914.453	10584
914.566	10771
914.68	10656
914.793	10637
914.906	10402
915.019	10481
915.132	10341
915.245	10466
915.358	10402
915.47	10440
915.583	10603
915.696	10485
915.809	10599
915.921	10554
916.034	10402
916.146	10436
916.259	10356
916.371	10459
916.483	10421
916.595	10451
916.708	10402
916.82	10379
916.932	10428
917.044	10409
917.156	10341
917.268	10246
917.38	10242
917.491	10227
917.603	10257
917.715	10375
917.826	10379
917.938	10291
918.049	10185
918.161	10276
918.272	10337
918.384	10432
918.495	10295
918.606	10150
918.717	10124
918.828	10162
918.939	10219
919.05	10048
919.161	10150
919.272	9934
919.383	10021
919.494	10230
919.604	10348
919.715	10120
919.826	10139
919.936	10071
920.047	10249
920.157	10158
920.267	10363
920.378	10223
920.488	10169
920.598	10413
920.708	10516
920.818	10379
920.928	10344
921.038	10478
921.148	10485
921.258	10169
921.368	10150
921.477	10002
921.587	10013
921.697	9930
921.806	10105
921.916	9930
922.025	9694
922.134	9736
922.244	9644
922.353	9774
922.462	9580
922.571	9587
922.68	9466
922.789	9325
922.898	9412
923.007	9386
923.116	9454
923.224	9443
923.333	9447
923.442	9233
923.55	9279
923.659	9275
923.767	9450
923.876	9302
923.984	9351
924.092	9260
924.201	9233
924.309	9287
924.417	9275
924.525	9253
924.633	9203
924.741	10040
924.849	9009
924.956	9180
925.064	9043
925.172	9028
925.279	9032
925.387	9081
925.494	9070
925.602	9241
925.709	9157
925.816	9085
925.924	9081
926.031	9188
926.138	9074
926.245	9089
926.352	8998
926.459	9169
926.566	9195
926.673	9009
926.779	8861
926.886	8975
926.993	8918
927.099	8758
927.206	8712
927.312	8777
927.419	8849
927.525	8796
927.631	8845
927.737	8773
927.843	8689
927.95	8579
928.056	8640
928.162	8720
928.267	8697
928.373	9408
928.479	8773
928.585	8606
928.69	8701
928.796	8766
928.901	8632
929.007	8503
929.112	8663
929.218	8571
929.323	8541
929.428	8450
929.533	8682
929.638	8526
929.743	8568
929.848	8503
929.953	8537
930.058	8374
930.163	8202
930.267	8332
930.372	8412
930.477	8267
930.581	8511
930.685	8347
930.79	8161
930.894	8263
930.998	8221
931.103	8317
931.207	8039
931.311	7955
931.415	7871
931.519	7727
931.623	7712
