Data from test_V78500241_2620.txt Node
Date: Fri Mar 25 14:51:57 CST 2022
User: usil
Spectrometer: V785-0024
Trigger mode: 0
Integration Time (sec): 4.000000E-1
Scans to average: 1
Nonlinearity correction enabled: false
Boxcar width: 0
Storing dark spectrum: false
XAxis mode: Wavelengths
Number of Pixels in Spectrum: 1024
>>>>>Begin Spectral Data<<<<<
801.071	22021
801.214	21884
801.356	21564
801.499	21561
801.641	21515
801.783	21222
801.926	21439
802.068	21378
802.211	21237
802.353	21214
802.496	20952
802.638	20754
802.78	20868
802.923	20701
803.065	20609
803.208	20731
803.35	20682
803.492	20735
803.635	20933
803.777	20693
803.919	20792
804.061	20994
804.204	20724
804.346	20663
804.488	20625
804.63	20606
804.773	20587
804.915	20602
805.057	20724
805.199	20495
805.341	20769
805.483	20682
805.626	20663
805.768	20560
805.91	20716
806.052	20739
806.194	20560
806.336	20689
806.478	20556
806.62	20682
806.762	20708
806.904	20788
807.046	21024
807.188	20921
807.33	21077
807.472	21001
807.614	20785
807.756	20735
807.898	20651
808.04	20606
808.182	20689
808.324	20746
808.465	20792
808.607	20819
808.749	20925
808.891	21001
809.033	21108
809.174	20986
809.316	20868
809.458	20910
809.6	20937
809.741	20952
809.883	21051
810.025	21100
810.166	21100
810.308	21089
810.45	21146
810.591	20921
810.733	20921
810.875	20724
811.016	20693
811.158	20648
811.299	20845
811.441	20838
811.582	20960
811.724	20686
811.865	20579
812.007	20712
812.148	20769
812.29	20746
812.431	20823
812.573	20990
812.714	21123
812.855	21233
812.997	21268
813.138	21397
813.279	21363
813.421	21135
813.562	21074
813.703	21089
813.845	20914
813.986	20648
814.127	20381
814.268	20320
814.41	20301
814.551	20324
814.692	20290
814.833	20195
814.974	20263
815.115	20248
815.256	20130
815.397	20157
815.539	20107
815.68	19944
815.821	19913
815.962	19932
816.103	19963
816.244	19932
816.385	19818
816.526	19704
816.666	19651
816.807	19362
816.948	19434
817.089	19537
817.23	19480
817.371	19316
817.512	19354
817.653	19343
817.793	19354
817.934	19430
818.075	19369
818.216	19506
818.356	19320
818.497	19103
818.638	19057
818.778	19076
818.919	19137
819.06	18985
819.2	19274
819.341	19274
819.481	19312
819.622	19445
819.762	19556
819.903	19559
820.043	19533
820.184	19468
820.324	19316
820.465	19476
820.605	19415
820.746	19350
820.886	19225
821.026	19297
821.167	19278
821.307	19510
821.447	19324
821.588	19255
821.728	19168
821.868	18894
822.008	18882
822.149	18783
822.289	18802
822.429	18555
822.569	18601
822.709	18559
822.849	18273
822.99	18380
823.13	18319
823.27	18289
823.41	18209
823.55	18015
823.69	18015
823.83	18148
823.97	18072
824.11	17882
824.25	17779
824.389	17908
824.529	17920
824.669	17954
824.809	17965
824.949	17988
825.089	17927
825.228	17931
825.368	17707
825.508	17661
825.648	17649
825.787	17657
825.927	17649
826.067	17528
826.206	17684
826.346	17703
826.485	17680
826.625	17566
826.765	17783
826.904	17786
827.044	17406
827.183	17379
827.323	17216
827.462	17467
827.601	17360
827.741	17318
827.88	17303
828.02	17200
828.159	17296
828.298	17345
828.437	17315
828.577	17345
828.716	17516
828.855	17330
828.994	17208
829.134	17147
829.273	17147
829.412	17174
829.551	17113
829.69	17105
829.829	17193
829.968	17197
830.107	17117
830.246	17246
830.385	17010
830.524	16987
830.663	16942
830.802	16869
830.941	16672
831.08	16679
831.219	16881
831.357	16839
831.496	16930
831.635	16835
831.774	16645
831.913	16759
832.051	16512
832.19	16500
832.329	16569
832.467	16459
832.606	16459
832.744	16363
832.883	16424
833.022	16325
833.16	16481
833.299	16485
833.437	16455
833.576	16565
833.714	16584
833.852	16504
833.991	16569
834.129	16535
834.267	16519
834.406	16516
834.544	16481
834.682	16436
834.821	16596
834.959	16637
835.097	16432
835.235	16440
835.373	16443
835.511	16550
835.65	16516
835.788	16443
835.926	16291
836.064	16257
836.202	16284
836.34	16436
836.478	16462
836.615	16360
836.753	16451
836.891	16538
837.029	16337
837.167	16379
837.305	16409
837.443	16299
837.58	16158
837.718	16367
837.856	16325
837.993	16147
838.131	16276
838.269	16276
838.406	16246
838.544	16128
838.681	15956
838.819	15960
838.956	15880
839.094	15838
839.231	15827
839.369	15960
839.506	16192
839.643	16063
839.781	15804
839.918	15808
840.055	15846
840.193	15800
840.33	15911
840.467	15785
840.604	15838
840.742	15994
840.879	15675
841.016	15823
841.153	15800
841.29	15865
841.427	15930
841.564	15884
841.701	15876
841.838	15770
841.975	15819
842.112	15755
842.249	15622
842.385	15705
842.522	15679
842.659	15587
842.796	15599
842.933	15663
843.069	15648
843.206	15553
843.343	15614
843.479	15652
843.616	15644
843.752	15462
843.889	15313
844.025	15610
844.162	15408
844.298	15549
844.435	15454
844.571	15378
844.708	15473
844.844	15610
844.98	15553
845.117	15492
845.253	15283
845.389	15268
845.525	15329
845.661	15283
845.798	15173
845.934	15370
846.07	15142
846.206	15218
846.342	15313
846.478	15116
846.614	15093
846.75	14956
846.886	14956
847.022	15085
847.158	14937
847.294	14971
847.429	15001
847.565	15039
847.701	15161
847.837	14682
847.972	14648
848.108	14788
848.244	14777
848.379	14568
848.515	14560
848.65	14537
848.786	14587
848.921	14507
849.057	14655
849.192	14632
849.328	14507
849.463	14499
849.598	14560
849.734	14499
849.869	14514
850.004	14389
850.14	14465
850.275	14450
850.41	14282
850.545	14389
850.68	14317
850.815	14275
850.95	14286
851.085	14511
851.22	14389
851.355	14374
851.49	14374
851.625	14309
851.76	14218
851.895	14248
852.03	14237
852.165	14374
852.299	14362
852.434	14473
852.569	14362
852.703	14320
852.838	14419
852.973	14545
853.107	14442
853.242	14256
853.376	14282
853.511	14092
853.645	14149
853.78	14256
853.914	14240
854.048	14138
854.183	14073
854.317	14301
854.451	14374
854.585	14221
854.72	14157
854.854	14282
854.988	14145
855.122	14187
855.256	14062
855.39	14225
855.524	14298
855.658	14290
855.792	14271
855.926	14214
856.06	14225
856.194	14225
856.327	14206
856.461	14138
856.595	14210
856.729	14180
856.862	14317
856.996	14244
857.13	14233
857.263	14374
857.397	14339
857.53	14225
857.664	14225
857.797	14328
857.931	14256
858.064	14324
858.197	14336
858.331	14221
858.464	14210
858.597	14240
858.731	14225
858.864	14126
858.997	14233
859.13	14240
859.263	14256
859.396	14309
859.529	14126
859.662	14187
859.795	14149
859.928	14278
860.061	14259
860.194	14347
860.327	14202
860.46	14183
860.592	14336
860.725	14301
860.858	14290
860.99	14138
861.123	14050
861.256	14202
861.388	14180
861.521	14948
861.653	14054
861.786	14062
861.918	14111
862.05	14092
862.183	14206
862.315	14240
862.447	14286
862.58	14164
862.712	14046
862.844	13845
862.976	14100
863.108	14069
863.24	14488
863.372	13940
863.504	13955
863.636	13970
863.768	14069
863.9	13982
864.032	13978
864.164	13887
864.296	14050
864.428	14050
864.559	14046
864.691	14176
864.823	14020
864.954	14092
865.086	14062
865.217	13925
865.349	13917
865.48	13970
865.612	14005
865.743	14046
865.875	14073
866.006	13982
866.137	14005
866.269	13921
866.4	14020
866.531	13928
866.662	13883
866.793	13928
866.924	13917
867.055	14012
867.186	13955
867.317	13856
867.448	13791
867.579	13925
867.71	13944
867.841	13826
867.972	13944
868.103	14012
868.233	14035
868.364	13917
868.495	14054
868.625	14180
868.756	14263
868.886	14195
869.017	14176
869.147	14336
869.278	14240
869.408	14233
869.539	14290
869.669	14400
869.799	14347
869.929	14446
870.06	14282
870.19	14484
870.32	14488
870.45	14473
870.58	14629
870.71	14727
870.84	14651
870.97	14640
871.1	14602
871.23	14807
871.36	14826
871.489	14815
871.619	14708
871.749	14762
871.879	14857
872.008	14925
872.138	14845
872.267	14918
872.397	14731
872.526	14648
872.656	14632
872.785	14629
872.915	14830
873.044	14914
873.173	14887
873.303	14941
873.432	14918
873.561	14963
873.69	14849
873.819	14872
873.948	14948
874.077	14918
874.206	14819
874.335	14830
874.464	15066
874.593	15203
874.722	15142
874.851	15260
874.979	15173
875.108	15207
875.237	15093
875.365	15104
875.494	15306
875.623	15329
875.751	15154
875.88	15127
876.008	15310
876.136	15454
876.265	15625
876.393	15774
876.521	15717
876.65	15816
876.778	15679
876.906	15549
877.034	15568
877.162	15507
877.29	15656
877.418	15591
877.546	15584
877.674	15671
877.802	15671
877.93	15641
878.058	15606
878.185	15473
878.313	15618
878.441	15652
878.568	15393
878.696	15481
878.824	15667
878.951	15633
879.079	15728
879.206	15907
879.333	15865
879.461	15629
879.588	15675
879.715	15774
879.842	15960
879.97	15686
880.097	15500
880.224	15462
880.351	15515
880.478	15466
880.605	15408
880.732	15428
880.859	15732
880.986	15458
881.112	15428
881.239	15329
881.366	15245
881.493	15127
881.619	15127
881.746	15180
881.872	15150
881.999	15108
882.125	15070
882.252	15135
882.378	15154
882.505	15291
882.631	15062
882.757	14963
882.883	14948
883.01	14887
883.136	14861
883.262	14796
883.388	14834
883.514	15001
883.64	14990
883.766	14891
883.892	14769
884.018	14785
884.143	14921
884.269	15039
884.395	14727
884.52	14667
884.646	14632
884.772	14640
884.897	14575
885.023	14629
885.148	14743
885.274	14804
885.399	14754
885.524	14648
885.65	14632
885.775	14670
885.9	14724
886.025	14773
886.15	14731
886.275	14655
886.4	14522
886.525	14750
886.65	14511
886.775	14556
886.9	14796
887.025	14819
887.149	14720
887.274	14579
887.399	14415
887.523	14412
887.648	14423
887.773	14400
887.897	14511
888.021	14571
888.146	14438
888.27	14533
888.395	14583
888.519	14610
888.643	14488
888.767	14587
888.891	14358
889.015	14290
889.139	14355
889.263	14259
889.387	14374
889.511	14560
889.635	14476
889.759	14301
889.883	14324
890.006	14431
890.13	14473
890.254	14290
890.377	14263
890.501	14149
890.624	14142
890.748	14153
890.871	14069
890.995	14031
891.118	14024
891.241	14069
891.364	14069
891.488	14119
891.611	14153
891.734	14123
891.857	14164
891.98	14092
892.103	14237
892.226	14065
892.349	13978
892.471	13928
892.594	14035
892.717	14115
892.839	14069
892.962	14084
893.085	14183
893.207	14145
893.33	13928
893.452	14001
893.575	14172
893.697	14039
893.819	14305
893.941	14301
894.064	14252
894.186	14062
894.308	14115
894.43	14180
894.552	14210
894.674	14248
894.796	14100
894.918	14115
895.04	14081
895.161	14221
895.283	14180
895.405	14145
895.526	14332
895.648	14195
895.769	14278
895.891	14286
896.012	14332
896.134	14286
896.255	14317
896.376	14202
896.498	14286
896.619	14328
896.74	14225
896.861	14298
896.982	14629
897.103	14731
897.224	14667
897.345	14568
897.466	14415
897.587	14465
897.708	14693
897.828	14590
897.949	14499
898.07	14442
898.19	14465
898.311	14560
898.431	14602
898.552	14590
898.672	14579
898.792	14705
898.913	14583
899.033	14507
899.153	14404
899.273	14328
899.393	14476
899.513	14469
899.633	14450
899.753	14503
899.873	14408
899.993	14610
900.113	14370
900.232	14526
900.352	14442
900.472	14317
900.591	14252
900.711	14172
900.83	14199
900.95	14442
901.069	14434
901.189	14271
901.308	14058
901.427	14084
901.546	14020
901.665	13967
901.784	14005
901.904	13928
902.023	13807
902.141	13609
902.26	13521
902.379	13636
902.498	13575
902.617	13514
902.735	13556
902.854	13556
902.973	13491
903.091	13255
903.21	13312
903.328	13244
903.446	13156
903.565	13164
903.683	13251
903.801	13019
903.919	13080
904.038	13072
904.156	12951
904.274	13027
904.392	12829
904.51	12878
904.627	12913
904.745	12958
904.863	12962
904.981	12715
905.098	12654
905.216	12604
905.334	12681
905.451	12650
905.569	12517
905.686	12692
905.803	12665
905.921	12361
906.038	12574
906.155	12547
906.272	12433
906.389	12448
906.506	12182
906.623	12285
906.74	12235
906.857	12019
906.974	12201
907.091	12235
907.208	12342
907.324	12243
907.441	12235
907.557	11992
907.674	11965
907.79	11939
907.907	11988
908.023	11984
908.139	12041
908.256	11996
908.372	11950
908.488	11832
908.604	11786
908.72	11691
908.836	11745
908.952	11718
909.068	11714
909.184	11878
909.3	11745
909.415	11771
909.531	11707
909.647	11520
909.762	11493
909.878	11482
909.993	11547
910.108	11448
910.224	11455
910.339	11482
910.454	11436
910.57	11356
910.685	11311
910.8	11688
910.915	11592
911.03	11368
911.145	11334
911.259	11147
911.374	11296
911.489	11147
911.604	11193
911.718	10976
911.833	11071
911.947	10843
912.062	10889
912.176	11018
912.291	10953
912.405	11041
912.519	11189
912.633	11147
912.748	11018
912.862	10999
912.976	10904
913.09	10740
913.204	10835
913.318	10797
913.431	10938
913.545	10984
913.659	10919
913.772	10877
913.886	10721
914	10668
914.113	10877
914.226	10854
914.34	10831
914.453	10721
914.566	10869
914.68	10694
914.793	10634
914.906	10542
915.019	10466
915.132	10375
915.245	10421
915.358	10592
915.47	10436
915.583	10516
915.696	10584
915.809	10588
915.921	10664
916.034	10405
916.146	10436
916.259	10413
916.371	10542
916.483	10481
916.595	10409
916.708	10478
916.82	10394
916.932	10402
917.044	10413
917.156	10375
917.268	10276
917.38	10325
917.491	10249
917.603	10337
917.715	10398
917.826	10455
917.938	10306
918.049	10169
918.161	10211
918.272	10474
918.384	10474
918.495	10405
918.606	10257
918.717	10044
918.828	10166
918.939	10211
919.05	10109
919.161	10131
919.272	10048
919.383	10029
919.494	10249
919.604	10386
919.715	10253
919.826	10120
919.936	10192
920.047	10192
920.157	10223
920.267	10405
920.378	10306
920.488	10230
920.598	10409
920.708	10599
920.818	10481
920.928	10398
921.038	10565
921.148	10512
921.258	10337
921.368	10215
921.477	10044
921.587	10032
921.697	9876
921.806	10162
921.916	10032
922.025	9869
922.134	9759
922.244	9762
922.353	9793
922.462	9603
922.571	9595
922.68	9473
922.789	9545
922.898	9507
923.007	9431
923.116	9526
923.224	9416
923.333	9397
923.442	9329
923.55	9302
923.659	9355
923.767	9412
923.876	9264
923.984	9370
924.092	9313
924.201	9359
924.309	9313
924.417	9416
924.525	9249
924.633	9313
924.741	10059
924.849	9112
924.956	9203
925.064	9100
925.172	9074
925.279	9119
925.387	9165
925.494	9074
925.602	9245
925.709	9249
925.816	9093
925.924	9138
926.031	9173
926.138	9116
926.245	9173
926.352	9024
926.459	9146
926.566	9157
926.673	9043
926.779	8948
926.886	8937
926.993	8819
927.099	8804
927.206	8781
927.312	8766
927.419	8906
927.525	8838
927.631	8876
927.737	8754
927.843	8758
927.95	8655
928.056	8670
928.162	8746
928.267	8769
928.373	9458
928.479	8815
928.585	8678
928.69	8697
928.796	8712
928.901	8598
929.007	8457
929.112	8606
929.218	8708
929.323	8541
929.428	8549
929.533	8659
929.638	8461
929.743	8503
929.848	8568
929.953	8568
930.058	8480
930.163	8286
930.267	8381
930.372	8480
930.477	8351
930.581	8537
930.685	8393
930.79	8244
930.894	8298
930.998	8263
931.103	8366
931.207	8100
931.311	8016
931.415	7963
931.519	7727
931.623	7742
