Data from test_V78500241_242.txt Node
Date: Fri Mar 25 14:35:24 CST 2022
User: usil
Spectrometer: V785-0024
Trigger mode: 0
Integration Time (sec): 4.000000E-1
Scans to average: 1
Nonlinearity correction enabled: false
Boxcar width: 0
Storing dark spectrum: false
XAxis mode: Wavelengths
Number of Pixels in Spectrum: 1024
>>>>>Begin Spectral Data<<<<<
801.071	27526
801.214	27435
801.356	27203
801.499	27332
801.641	27009
801.783	27043
801.926	27192
802.068	26952
802.211	26811
802.353	26739
802.496	26731
802.638	26712
802.78	26636
802.923	26533
803.065	26431
803.208	26461
803.35	26564
803.492	26556
803.635	26587
803.777	26590
803.919	26648
804.061	26910
804.204	26648
804.346	26518
804.488	26537
804.63	26507
804.773	26419
804.915	26499
805.057	26629
805.199	26476
805.341	26708
805.483	26701
805.626	26568
805.768	26568
805.91	26640
806.052	26568
806.194	26590
806.336	26811
806.478	26663
806.62	26507
806.762	26602
806.904	26868
807.046	27039
807.188	26956
807.33	27005
807.472	27070
807.614	26948
807.756	26960
807.898	26765
808.04	26769
808.182	26792
808.324	26883
808.465	26830
808.607	27154
808.749	27313
808.891	27344
809.033	27515
809.174	27291
809.316	27401
809.458	27188
809.6	27043
809.741	27279
809.883	27058
810.025	27222
810.166	27359
810.308	27367
810.45	27272
810.591	27131
810.733	27192
810.875	27039
811.016	26876
811.158	26845
811.299	26921
811.441	27070
811.582	27028
811.724	27028
811.865	26956
812.007	26963
812.148	27036
812.29	26960
812.431	27180
812.573	27306
812.714	27279
812.855	27420
812.997	27427
813.138	27663
813.279	27583
813.421	27397
813.562	27306
813.703	27218
813.845	26998
813.986	26796
814.127	26564
814.268	26606
814.41	26431
814.551	26431
814.692	26625
814.833	26465
814.974	26419
815.115	26541
815.256	26374
815.397	26404
815.539	26259
815.68	26191
815.821	26275
815.962	26153
816.103	26240
816.244	25978
816.385	25966
816.526	25970
816.666	25727
816.807	25670
816.948	25818
817.089	25795
817.23	25601
817.371	25658
817.512	25727
817.653	25502
817.793	25628
817.934	25628
818.075	25635
818.216	25514
818.356	25518
818.497	25369
818.638	25327
818.778	25354
818.919	25335
819.06	25350
819.2	25514
819.341	25411
819.481	25499
819.622	25670
819.762	25719
819.903	25822
820.043	25814
820.184	25533
820.324	25510
820.465	25712
820.605	25605
820.746	25548
820.886	25529
821.026	25578
821.167	25483
821.307	25441
821.447	25514
821.588	25263
821.728	25270
821.868	25099
822.008	25107
822.149	24913
822.289	24928
822.429	24654
822.569	24642
822.709	24681
822.849	24395
822.99	24505
823.13	24399
823.27	24422
823.41	24213
823.55	24216
823.69	24323
823.83	24216
823.97	24155
824.11	23840
824.25	24015
824.389	24076
824.529	23996
824.669	23923
824.809	23977
824.949	24076
825.089	23961
825.228	24038
825.368	23885
825.508	23771
825.648	23798
825.787	23809
825.927	23843
826.067	23756
826.206	23733
826.346	23882
826.485	23752
826.625	23783
826.765	23870
826.904	23790
827.044	23547
827.183	23459
827.323	23383
827.462	23421
827.601	23376
827.741	23414
827.88	23414
828.02	23345
828.159	23204
828.298	23493
828.437	23436
828.577	23444
828.716	23433
828.855	23292
828.994	23079
829.134	23071
829.273	23166
829.412	23185
829.551	22991
829.69	23048
829.829	23128
829.968	23181
830.107	23185
830.246	23174
830.385	23056
830.524	22896
830.663	22873
830.802	22843
830.941	22683
831.08	22660
831.219	22801
831.357	22634
831.496	22748
831.635	22721
831.774	22557
831.913	22508
832.051	22428
832.19	22409
832.329	22508
832.467	22402
832.606	22390
832.744	22242
832.883	22424
833.022	22341
833.16	22238
833.299	22405
833.437	22207
833.576	22325
833.714	22303
833.852	22325
833.991	22306
834.129	22333
834.267	22379
834.406	22257
834.544	22443
834.682	22303
834.821	22341
834.959	22538
835.097	22272
835.235	22333
835.373	22223
835.511	22166
835.65	22169
835.788	22036
835.926	22010
836.064	21960
836.202	22021
836.34	22166
836.478	22067
836.615	22124
836.753	22188
836.891	22204
837.029	22116
837.167	22246
837.305	21968
837.443	21994
837.58	21964
837.718	22097
837.856	22074
837.993	21934
838.131	22032
838.269	21789
838.406	21911
838.544	21800
838.681	21576
838.819	21431
838.956	21473
839.094	21378
839.231	21435
839.369	21641
839.506	21797
839.643	21587
839.781	21462
839.918	21332
840.055	21325
840.193	21264
840.33	21237
840.467	21272
840.604	21370
840.742	21511
840.879	21100
841.016	21378
841.153	21199
841.29	21321
841.427	21241
841.564	21310
841.701	21306
841.838	21279
841.975	21081
842.112	21237
842.249	21096
842.385	21028
842.522	21138
842.659	21089
842.796	21157
842.933	20982
843.069	21055
843.206	21055
843.343	21081
843.479	20986
843.616	21043
843.752	20906
843.889	20842
844.025	20918
844.162	20845
844.298	20773
844.435	20804
844.571	20781
844.708	20811
844.844	20994
844.98	20941
845.117	20826
845.253	20705
845.389	20693
845.525	20792
845.661	20769
845.798	20762
845.934	20918
846.07	20819
846.206	20853
846.342	20861
846.478	20689
846.614	20541
846.75	20339
846.886	20305
847.022	20396
847.158	20305
847.294	20282
847.429	20237
847.565	20126
847.701	20419
847.837	20065
847.972	19955
848.108	20058
848.244	19974
848.379	19921
848.515	19791
848.65	19780
848.786	19761
848.921	19788
849.057	19837
849.192	19879
849.328	19860
849.463	19814
849.598	19715
849.734	19704
849.869	19575
850.004	19567
850.14	19563
850.275	19506
850.41	19582
850.545	19537
850.68	19575
850.815	19632
850.95	19540
851.085	19628
851.22	19563
851.355	19521
851.49	19468
851.625	19457
851.76	19449
851.895	19480
852.03	19419
852.165	19419
852.299	19613
852.434	19575
852.569	19540
852.703	19419
852.838	19468
852.973	19601
853.107	19613
853.242	19544
853.376	19354
853.511	19217
853.645	19289
853.78	19377
853.914	19259
854.048	19270
854.183	19339
854.317	19312
854.451	19384
854.585	19263
854.72	19274
854.854	19407
854.988	19263
855.122	19312
855.256	19190
855.39	19213
855.524	19365
855.658	19312
855.792	19301
855.926	19400
856.06	19316
856.194	19407
856.327	19289
856.461	19244
856.595	19266
856.729	19213
856.862	19441
856.996	19392
857.13	19354
857.263	19381
857.397	19377
857.53	19308
857.664	19324
857.797	19289
857.931	19400
858.064	19259
858.197	19426
858.331	19251
858.464	19183
858.597	19198
858.731	19228
858.864	19206
858.997	19206
859.13	19274
859.263	19247
859.396	19327
859.529	19133
859.662	19175
859.795	19202
859.928	19228
860.061	19472
860.194	19407
860.327	19171
860.46	19160
860.592	19343
860.725	19381
860.858	19441
860.99	19148
861.123	19194
861.256	19133
861.388	19221
861.521	19864
861.653	19133
861.786	19012
861.918	19118
862.05	19171
862.183	19198
862.315	19285
862.447	19491
862.58	19228
862.712	19084
862.844	18905
862.976	19076
863.108	19019
863.24	19255
863.372	18863
863.504	19015
863.636	18905
863.768	18916
863.9	18928
864.032	18878
864.164	19023
864.296	18916
864.428	18977
864.559	18928
864.691	19076
864.823	19050
864.954	19004
865.086	18954
865.217	18867
865.349	18715
865.48	18795
865.612	18844
865.743	19004
865.875	18897
866.006	18829
866.137	18791
866.269	18920
866.4	18833
866.531	18787
866.662	18802
866.793	18722
866.924	18859
867.055	18810
867.186	18787
867.317	18711
867.448	18738
867.579	18779
867.71	18814
867.841	18684
867.972	18741
868.103	18837
868.233	18856
868.364	18791
868.495	18859
868.625	19038
868.756	19088
868.886	18806
869.017	19072
869.147	19148
869.278	19198
869.408	19152
869.539	19019
869.669	19126
869.799	18996
869.929	19236
870.06	19133
870.19	19285
870.32	19217
870.45	19472
870.58	19346
870.71	19567
870.84	19540
870.97	19354
871.1	19487
871.23	19597
871.36	19628
871.489	19449
871.619	19483
871.749	19559
871.879	19601
872.008	19731
872.138	19601
872.267	19613
872.397	19571
872.526	19449
872.656	19476
872.785	19415
872.915	19514
873.044	19590
873.173	19575
873.303	19700
873.432	19715
873.561	19871
873.69	19662
873.819	19590
873.948	19639
874.077	19651
874.206	19609
874.335	19715
874.464	19772
874.593	19860
874.722	19845
874.851	19887
874.979	20005
875.108	20008
875.237	19818
875.365	19830
875.494	19875
875.623	20012
875.751	19875
875.88	19997
876.008	20058
876.136	20050
876.265	20336
876.393	20431
876.521	20400
876.65	20263
876.778	20362
876.906	20233
877.034	20313
877.162	20347
877.29	20263
877.418	20355
877.546	20313
877.674	20305
877.802	20294
877.93	20320
878.058	20195
878.185	20286
878.313	20244
878.441	20332
878.568	20111
878.696	20355
878.824	20427
878.951	20423
879.079	20587
879.206	20636
879.333	20609
879.461	20488
879.588	20564
879.715	20549
879.842	20758
879.97	20446
880.097	20180
880.224	20221
880.351	20161
880.478	20210
880.605	20107
880.732	20130
880.859	20454
880.986	20145
881.112	20199
881.239	20058
881.366	19932
881.493	19818
881.619	19841
881.746	19811
881.872	19799
881.999	19738
882.125	19681
882.252	19814
882.378	19826
882.505	19944
882.631	19677
882.757	19453
882.883	19582
883.01	19571
883.136	19468
883.262	19438
883.388	19297
883.514	19533
883.64	19662
883.766	19518
883.892	19202
884.018	19407
884.143	19609
884.269	19597
884.395	19206
884.52	19164
884.646	19255
884.772	19065
884.897	19099
885.023	19133
885.148	19274
885.274	19392
885.399	19350
885.524	19129
885.65	19244
885.775	19343
885.9	19164
886.025	19255
886.15	19312
886.275	19160
886.4	19000
886.525	19023
886.65	19050
886.775	19004
886.9	19297
887.025	19324
887.149	19126
887.274	18954
887.399	18935
887.523	18916
887.648	18913
887.773	18833
887.897	19069
888.021	18970
888.146	18909
888.27	18985
888.395	18993
888.519	18897
888.643	18859
888.767	18939
888.891	18787
889.015	18719
889.139	18897
889.263	18722
889.387	18863
889.511	18825
889.635	18833
889.759	18673
889.883	18627
890.006	18646
890.13	18840
890.254	18665
890.377	18547
890.501	18380
890.624	18395
890.748	18445
890.871	18384
890.995	18342
891.118	18353
891.241	18323
891.364	18338
891.488	18391
891.611	18365
891.734	18376
891.857	18418
891.98	18369
892.103	18338
892.226	18289
892.349	18300
892.471	18155
892.594	18251
892.717	18273
892.839	18262
892.962	18266
893.085	18262
893.207	18384
893.33	18079
893.452	18045
893.575	18292
893.697	18289
893.819	18395
893.941	18448
894.064	18452
894.186	18186
894.308	18163
894.43	18391
894.552	18441
894.674	18410
894.796	18258
894.918	18251
895.04	18239
895.161	18372
895.283	18380
895.405	18148
895.526	18300
895.648	18266
895.769	18342
895.891	18266
896.012	18357
896.134	18407
896.255	18369
896.376	18346
896.498	18426
896.619	18426
896.74	18376
896.861	18479
896.982	18749
897.103	18734
897.224	18589
897.345	18631
897.466	18589
897.587	18475
897.708	18604
897.828	18684
897.949	18452
898.07	18418
898.19	18414
898.311	18616
898.431	18582
898.552	18544
898.672	18669
898.792	18601
898.913	18521
899.033	18433
899.153	18342
899.273	18117
899.393	18296
899.513	18296
899.633	18254
899.753	18342
899.873	18216
899.993	18323
900.113	18247
900.232	18304
900.352	18270
900.472	18102
900.591	18064
900.711	18178
900.83	18087
900.95	18262
901.069	18300
901.189	18064
901.308	17802
901.427	17676
901.546	17882
901.665	17745
901.784	17760
901.904	17551
902.023	17585
902.141	17395
902.26	17341
902.379	17334
902.498	17299
902.617	17284
902.735	17452
902.854	17208
902.973	17151
903.091	16987
903.21	17003
903.328	16927
903.446	16949
903.565	16721
903.683	16786
903.801	16744
903.919	16626
904.038	16771
904.156	16558
904.274	16550
904.392	16599
904.51	16481
904.627	16478
904.745	16527
904.863	16577
904.981	16238
905.098	16105
905.216	16181
905.334	16192
905.451	16219
905.569	16287
905.686	16234
905.803	16169
905.921	16032
906.038	16071
906.155	16211
906.272	15972
906.389	15831
906.506	15774
906.623	15667
906.74	15717
906.857	15576
906.974	15663
907.091	15831
907.208	15816
907.324	15785
907.441	15682
907.557	15458
907.674	15416
907.79	15424
907.907	15424
908.023	15469
908.139	15348
908.256	15401
908.372	15268
908.488	15287
908.604	15184
908.72	15131
908.836	15138
908.952	14971
909.068	15055
909.184	15188
909.3	15036
909.415	15116
909.531	15097
909.647	14853
909.762	14842
909.878	14777
909.993	14876
910.108	14800
910.224	14758
910.339	14758
910.454	14720
910.57	14678
910.685	14533
910.8	14845
910.915	14746
911.03	14583
911.145	14484
911.259	14480
911.374	14442
911.489	14343
911.604	14366
911.718	14202
911.833	14218
911.947	14031
912.062	14016
912.176	14142
912.291	14103
912.405	14218
912.519	14332
912.633	14404
912.748	14199
912.862	14161
912.976	14115
913.09	13997
913.204	13947
913.318	14069
913.431	14130
913.545	14157
913.659	14058
913.772	13925
913.886	13814
914	13852
914.113	13936
914.226	13902
914.34	13887
914.453	13708
914.566	13913
914.68	13750
914.793	13689
914.906	13658
915.019	13491
915.132	13434
915.245	13460
915.358	13472
915.47	13506
915.583	13506
915.696	13468
915.809	13575
915.921	13655
916.034	13449
916.146	13441
916.259	13316
916.371	13449
916.483	13472
916.595	13403
916.708	13369
916.82	13377
916.932	13221
917.044	13228
917.156	13358
917.268	13149
917.38	13209
917.491	13202
917.603	13206
917.715	13259
917.826	13285
917.938	13198
918.049	13110
918.161	13179
918.272	13339
918.384	13301
918.495	13149
918.606	13046
918.717	12890
918.828	12981
918.939	12993
919.05	12875
919.161	12939
919.272	12688
919.383	12848
919.494	12977
919.604	13133
919.715	12939
919.826	12863
919.936	12886
920.047	13050
920.157	12913
920.267	13023
920.378	12973
920.488	12977
920.598	13031
920.708	13308
920.818	13069
920.928	12996
921.038	13255
921.148	13160
921.258	12924
921.368	12856
921.477	12757
921.587	12745
921.697	12639
921.806	12749
921.916	12525
922.025	12384
922.134	12452
922.244	12300
922.353	12372
922.462	12262
922.571	12194
922.68	12007
922.789	12049
922.898	11980
923.007	11965
923.116	12064
923.224	12022
923.333	11980
923.442	11794
923.55	11901
923.659	11882
923.767	11973
923.876	11688
923.984	11870
924.092	11718
924.201	11878
924.309	11790
924.417	11832
924.525	11767
924.633	11779
924.741	12677
924.849	11581
924.956	11699
925.064	11486
925.172	11532
925.279	11501
925.387	11478
925.494	11611
925.602	11714
925.709	11577
925.816	11433
925.924	11486
926.031	11512
926.138	11501
926.245	11478
926.352	11383
926.459	11577
926.566	11566
926.673	11421
926.779	11227
926.886	11315
926.993	11185
927.099	11147
927.206	11113
927.312	11090
927.419	11197
927.525	11197
927.631	11246
927.737	11029
927.843	10980
927.95	10911
928.056	10938
928.162	10934
928.267	11033
928.373	11581
928.479	11083
928.585	10805
928.69	10911
928.796	11067
928.901	10881
929.007	10694
929.112	10908
929.218	10847
929.323	10752
929.428	10714
929.533	10824
929.638	10634
929.743	10656
929.848	10782
929.953	10637
930.058	10618
930.163	10474
930.267	10459
930.372	10630
930.477	10352
930.581	10664
930.685	10500
930.79	10360
930.894	10363
930.998	10272
931.103	10470
931.207	10158
931.311	10055
931.415	9922
931.519	9819
931.623	9797
