Data from test_V78500241_1324.txt Node
Date: Fri Mar 25 14:42:56 CST 2022
User: usil
Spectrometer: V785-0024
Trigger mode: 0
Integration Time (sec): 4.000000E-1
Scans to average: 1
Nonlinearity correction enabled: false
Boxcar width: 0
Storing dark spectrum: false
XAxis mode: Wavelengths
Number of Pixels in Spectrum: 1024
>>>>>Begin Spectral Data<<<<<
801.071	22531
801.214	22371
801.356	22097
801.499	21865
801.641	21751
801.783	21644
801.926	21762
802.068	21690
802.211	21572
802.353	21519
802.496	21302
802.638	21245
802.78	21169
802.923	21241
803.065	21096
803.208	21093
803.35	21074
803.492	21313
803.635	21241
803.777	21085
803.919	21104
804.061	21336
804.204	21108
804.346	21043
804.488	21112
804.63	21089
804.773	20910
804.915	21032
805.057	21249
805.199	21005
805.341	21211
805.483	21161
805.626	21100
805.768	20982
805.91	20998
806.052	20948
806.194	20914
806.336	21169
806.478	20956
806.62	20967
806.762	21001
806.904	21363
807.046	21416
807.188	21310
807.33	21401
807.472	21481
807.614	21157
807.756	21466
807.898	21230
808.04	21089
808.182	21226
808.324	21157
808.465	21230
808.607	21469
808.749	21561
808.891	21583
809.033	21884
809.174	21698
809.316	21485
809.458	21606
809.6	21283
809.741	21572
809.883	21572
810.025	21667
810.166	21534
810.308	21538
810.45	21583
810.591	21389
810.733	21249
810.875	21260
811.016	21119
811.158	21047
811.299	21287
811.441	21218
811.582	21283
811.724	21275
811.865	21142
812.007	21256
812.148	21154
812.29	21218
812.431	21393
812.573	21576
812.714	21485
812.855	21595
812.997	21915
813.138	21884
813.279	21743
813.421	21656
813.562	21660
813.703	21439
813.845	21424
813.986	21108
814.127	20937
814.268	20811
814.41	20861
814.551	20765
814.692	20746
814.833	20651
814.974	20663
815.115	20735
815.256	20686
815.397	20575
815.539	20545
815.68	20454
815.821	20381
815.962	20598
816.103	20499
816.244	20351
816.385	20244
816.526	20187
816.666	19951
816.807	19925
816.948	19936
817.089	20092
817.23	19970
817.371	19917
817.512	19856
817.653	19860
817.793	19925
817.934	19841
818.075	19947
818.216	19830
818.356	19811
818.497	19731
818.638	19544
818.778	19499
818.919	19620
819.06	19655
819.2	19738
819.341	19795
819.481	19776
819.622	19890
819.762	20077
819.903	20096
820.043	19940
820.184	19833
820.324	20024
820.465	19959
820.605	19818
820.746	19852
820.886	19712
821.026	19750
821.167	19780
821.307	19868
821.447	19761
821.588	19734
821.728	19571
821.868	19392
822.008	19263
822.149	19209
822.289	19247
822.429	18970
822.569	18871
822.709	19008
822.849	18738
822.99	18719
823.13	18734
823.27	18696
823.41	18673
823.55	18494
823.69	18642
823.83	18566
823.97	18494
824.11	18498
824.25	18342
824.389	18399
824.529	18414
824.669	18388
824.809	18544
824.949	18437
825.089	18372
825.228	18311
825.368	18110
825.508	18201
825.648	18110
825.787	18262
825.927	18159
826.067	18091
826.206	18155
826.346	18224
826.485	18136
826.625	18003
826.765	18235
826.904	18095
827.044	17824
827.183	17767
827.323	17821
827.462	17965
827.601	17771
827.741	17847
827.88	17904
828.02	17767
828.159	17821
828.298	17832
828.437	17847
828.577	17824
828.716	17832
828.855	17824
828.994	17543
829.134	17646
829.273	17642
829.412	17634
829.551	17532
829.69	17543
829.829	17535
829.968	17646
830.107	17630
830.246	17566
830.385	17589
830.524	17585
830.663	17372
830.802	17284
830.941	17220
831.08	17200
831.219	17280
831.357	17258
831.496	17543
831.635	17254
831.774	17094
831.913	17018
832.051	16911
832.19	16980
832.329	17075
832.467	16927
832.606	16812
832.744	16877
832.883	16850
833.022	16934
833.16	17048
833.299	17010
833.437	16919
833.576	16923
833.714	16987
833.852	17003
833.991	17029
834.129	17071
834.267	17041
834.406	16999
834.544	16984
834.682	16999
834.821	16987
834.959	17067
835.097	16892
835.235	17029
835.373	16934
835.511	16984
835.65	16793
835.788	16805
835.926	16755
836.064	16622
836.202	16607
836.34	16847
836.478	16934
836.615	16786
836.753	16839
836.891	16934
837.029	16976
837.167	16847
837.305	16744
837.443	16691
837.58	16759
837.718	16710
837.856	16767
837.993	16664
838.131	16740
838.269	16637
838.406	16668
838.544	16615
838.681	16462
838.819	16443
838.956	16139
839.094	16257
839.231	16238
839.369	16413
839.506	16596
839.643	16569
839.781	16272
839.918	16257
840.055	16226
840.193	16306
840.33	16249
840.467	16348
840.604	16360
840.742	16508
840.879	16154
841.016	16181
841.153	16173
841.29	16375
841.427	16257
841.564	16226
841.701	16238
841.838	16272
841.975	16204
842.112	16177
842.249	16147
842.385	16067
842.522	16249
842.659	16078
842.796	16044
842.933	16040
843.069	16013
843.206	15949
843.343	15983
843.479	16048
843.616	16120
843.752	15838
843.889	15793
844.025	16002
844.162	15679
844.298	15907
844.435	15823
844.571	15778
844.708	15899
844.844	15975
844.98	16097
845.117	15930
845.253	15778
845.389	15793
845.525	15778
845.661	15759
845.798	15823
845.934	15838
846.07	15850
846.206	15937
846.342	15975
846.478	15728
846.614	15614
846.75	15405
846.886	15359
847.022	15519
847.158	15405
847.294	15367
847.429	15526
847.565	15336
847.701	15656
847.837	15169
847.972	14986
848.108	15249
848.244	15283
848.379	15081
848.515	15024
848.65	14883
848.786	14929
848.921	14994
849.057	15089
849.192	15077
849.328	15146
849.463	14990
849.598	14971
849.734	14910
849.869	14815
850.004	14731
850.14	14811
850.275	14773
850.41	14689
850.545	14663
850.68	14788
850.815	14796
850.95	14743
851.085	14960
851.22	14849
851.355	14811
851.49	14735
851.625	14686
851.76	14800
851.895	14560
852.03	14689
852.165	14785
852.299	14853
852.434	14838
852.569	14834
852.703	14864
852.838	14921
852.973	14914
853.107	14975
853.242	14708
853.376	14708
853.511	14587
853.645	14720
853.78	14697
853.914	14659
854.048	14617
854.183	14610
854.317	14583
854.451	14842
854.585	14693
854.72	14590
854.854	14739
854.988	14511
855.122	14613
855.256	14526
855.39	14613
855.524	14689
855.658	14746
855.792	14602
855.926	14705
856.06	14625
856.194	14663
856.327	14621
856.461	14412
856.595	14560
856.729	14629
856.862	14777
856.996	14655
857.13	14724
857.263	14705
857.397	14705
857.53	14693
857.664	14613
857.797	14655
857.931	14792
858.064	14746
858.197	14792
858.331	14594
858.464	14610
858.597	14598
858.731	14583
858.864	14583
858.997	14686
859.13	14670
859.263	14701
859.396	14689
859.529	14602
859.662	14606
859.795	14625
859.928	14682
860.061	14746
860.194	14765
860.327	14606
860.46	14667
860.592	14735
860.725	14777
860.858	14731
860.99	14625
861.123	14499
861.256	14442
861.388	14708
861.521	15374
861.653	14457
861.786	14434
861.918	14571
862.05	14636
862.183	14514
862.315	14575
862.447	14636
862.58	14571
862.712	14396
862.844	14271
862.976	14408
863.108	14423
863.24	14815
863.372	14393
863.504	14328
863.636	14400
863.768	14503
863.9	14370
864.032	14374
864.164	14450
864.296	14400
864.428	14499
864.559	14507
864.691	14495
864.823	14552
864.954	14415
865.086	14446
865.217	14556
865.349	14332
865.48	14305
865.612	14450
865.743	14423
865.875	14355
866.006	14347
866.137	14423
866.269	14415
866.4	14427
866.531	14377
866.662	14298
866.793	14301
866.924	14374
867.055	14419
867.186	14427
867.317	14286
867.448	14290
867.579	14286
867.71	14343
867.841	14248
867.972	14301
868.103	14385
868.233	14412
868.364	14434
868.495	14438
868.625	14541
868.756	14777
868.886	14579
869.017	14480
869.147	14735
869.278	14727
869.408	14579
869.539	14568
869.669	14746
869.799	14697
869.929	14762
870.06	14792
870.19	14967
870.32	14830
870.45	14845
870.58	14971
870.71	15233
870.84	15093
870.97	15001
871.1	14986
871.23	15184
871.36	15161
871.489	15203
871.619	15203
871.749	15127
871.879	15195
872.008	15359
872.138	15154
872.267	15184
872.397	15138
872.526	15017
872.656	15077
872.785	15043
872.915	15256
873.044	15408
873.173	15291
873.303	15256
873.432	15298
873.561	15374
873.69	15275
873.819	15317
873.948	15355
874.077	15287
874.206	15268
874.335	15294
874.464	15469
874.593	15572
874.722	15462
874.851	15614
874.979	15641
875.108	15606
875.237	15534
875.365	15500
875.494	15606
875.623	15694
875.751	15599
875.88	15591
876.008	15698
876.136	15720
876.265	15945
876.393	16090
876.521	16124
876.65	16090
876.778	15964
876.906	15953
877.034	15945
877.162	16086
877.29	16002
877.418	16078
877.546	16071
877.674	16063
877.802	16002
877.93	15998
878.058	15937
878.185	15895
878.313	16067
878.441	16025
878.568	15842
878.696	16010
878.824	16059
878.951	16173
879.079	16109
879.206	16371
879.333	16265
879.461	16124
879.588	16325
879.715	16253
879.842	16360
879.97	16116
880.097	15915
880.224	15884
880.351	15800
880.478	15968
880.605	15747
880.732	15804
880.859	16044
880.986	15827
881.112	15869
881.239	15705
881.366	15561
881.493	15610
881.619	15500
881.746	15511
881.872	15561
881.999	15405
882.125	15405
882.252	15591
882.378	15610
882.505	15656
882.631	15526
882.757	15252
882.883	15389
883.01	15424
883.136	15397
883.262	15241
883.388	15230
883.514	15306
883.64	15348
883.766	15256
883.892	15150
884.018	15188
884.143	15241
884.269	15428
884.395	15108
884.52	15020
884.646	15039
884.772	15036
884.897	15005
885.023	15100
885.148	15199
885.274	15165
885.399	15116
885.524	14967
885.65	15108
885.775	15047
885.9	15039
886.025	15112
886.15	15028
886.275	15043
886.4	14933
886.525	14998
886.65	14925
886.775	14948
886.9	15214
887.025	15325
887.149	15066
887.274	14925
887.399	14804
887.523	14876
887.648	14678
887.773	14689
887.897	14781
888.021	14921
888.146	14758
888.27	14902
888.395	14960
888.519	14872
888.643	14876
888.767	14906
888.891	14792
889.015	14693
889.139	14724
889.263	14720
889.387	14823
889.511	14842
889.635	14800
889.759	14739
889.883	14693
890.006	14727
890.13	14857
890.254	14644
890.377	14613
890.501	14499
890.624	14499
890.748	14545
890.871	14495
890.995	14343
891.118	14317
891.241	14461
891.364	14461
891.488	14442
891.611	14374
891.734	14396
891.857	14465
891.98	14442
892.103	14473
892.226	14415
892.349	14351
892.471	14191
892.594	14457
892.717	14377
892.839	14377
892.962	14351
893.085	14545
893.207	14495
893.33	14195
893.452	14267
893.575	14461
893.697	14370
893.819	14613
893.941	14488
894.064	14454
894.186	14301
894.308	14355
894.43	14583
894.552	14579
894.674	14621
894.796	14328
894.918	14415
895.04	14366
895.161	14545
895.283	14465
895.405	14404
895.526	14488
895.648	14503
895.769	14503
895.891	14507
896.012	14545
896.134	14499
896.255	14526
896.376	14682
896.498	14560
896.619	14545
896.74	14575
896.861	14617
896.982	14804
897.103	15157
897.224	14899
897.345	14899
897.466	14830
897.587	14807
897.708	14956
897.828	14872
897.949	14769
898.07	14674
898.19	14765
898.311	14975
898.431	14785
898.552	14899
898.672	15039
898.792	14956
898.913	14944
899.033	14826
899.153	14785
899.273	14613
899.393	14720
899.513	14769
899.633	14720
899.753	14735
899.873	14712
899.993	14796
900.113	14823
900.232	14724
900.352	14735
900.472	14629
900.591	14564
900.711	14689
900.83	14598
900.95	14773
901.069	14705
901.189	14568
901.308	14370
901.427	14309
901.546	14317
901.665	14286
901.784	14362
901.904	14199
902.023	14111
902.141	13898
902.26	13811
902.379	13921
902.498	13860
902.617	13909
902.735	13788
902.854	13837
902.973	13723
903.091	13651
903.21	13582
903.328	13460
903.446	13533
903.565	13457
903.683	13491
903.801	13377
903.919	13392
904.038	13304
904.156	13122
904.274	13255
904.392	13183
904.51	13221
904.627	13099
904.745	13217
904.863	13240
904.981	13050
905.098	12913
905.216	12905
905.334	12932
905.451	12924
905.569	12981
905.686	12935
905.803	12840
905.921	12779
906.038	12798
906.155	12715
906.272	12635
906.389	12681
906.506	12445
906.623	12445
906.74	12437
906.857	12342
906.974	12479
907.091	12544
907.208	12703
907.324	12551
907.441	12441
907.557	12323
907.674	12224
907.79	12167
907.907	12171
908.023	12300
908.139	12262
908.256	12171
908.372	12110
908.488	12110
908.604	12068
908.72	11935
908.836	11984
908.952	11950
909.068	12019
909.184	12079
909.3	11958
909.415	12064
909.531	11999
909.647	11745
909.762	11802
909.878	11714
909.993	11802
910.108	11775
910.224	11707
910.339	11775
910.454	11676
910.57	11627
910.685	11554
910.8	11836
910.915	11733
911.03	11672
911.145	11452
911.259	11406
911.374	11360
911.489	11353
911.604	11311
911.718	11231
911.833	11189
911.947	11086
912.062	11014
912.176	11174
912.291	11216
912.405	11231
912.519	11376
912.633	11379
912.748	11303
912.862	11231
912.976	11124
913.09	10942
913.204	11075
913.318	11045
913.431	11159
913.545	11181
913.659	11242
913.772	11132
913.886	10961
914	11037
914.113	10972
914.226	11086
914.34	11014
914.453	10896
914.566	10995
914.68	10889
914.793	10938
914.906	10778
915.019	10748
915.132	10607
915.245	10675
915.358	10626
915.47	10744
915.583	10717
915.696	10801
915.809	10835
915.921	10824
916.034	10672
916.146	10649
916.259	10641
916.371	10687
916.483	10630
916.595	10675
916.708	10675
916.82	10645
916.932	10592
917.044	10622
917.156	10554
917.268	10531
917.38	10550
917.491	10481
917.603	10440
917.715	10634
917.826	10691
917.938	10531
918.049	10489
918.161	10497
918.272	10626
918.384	10672
918.495	10531
918.606	10379
918.717	10360
918.828	10341
918.939	10344
919.05	10238
919.161	10314
919.272	10204
919.383	10284
919.494	10447
919.604	10668
919.715	10428
919.826	10295
919.936	10371
920.047	10470
920.157	10394
920.267	10596
920.378	10497
920.488	10440
920.598	10637
920.708	10733
920.818	10554
920.928	10607
921.038	10752
921.148	10801
921.258	10478
921.368	10443
921.477	10268
921.587	10246
921.697	10150
921.806	10329
921.916	10135
922.025	9987
922.134	9975
922.244	9922
922.353	10025
922.462	9865
922.571	9823
922.68	9698
922.789	9629
922.898	9705
923.007	9641
923.116	9717
923.224	9656
923.333	9694
923.442	9606
923.55	9511
923.659	9473
923.767	9679
923.876	9534
923.984	9545
924.092	9473
924.201	9542
924.309	9496
924.417	9488
924.525	9481
924.633	9492
924.741	10375
924.849	9317
924.956	9359
925.064	9260
925.172	9237
925.279	9161
925.387	9260
925.494	9291
925.602	9530
925.709	9393
925.816	9218
925.924	9279
926.031	9408
926.138	9279
926.245	9325
926.352	9260
926.459	9336
926.566	9351
926.673	9218
926.779	9169
926.886	9142
926.993	9070
927.099	8944
927.206	8998
927.312	9001
927.419	9020
927.525	8990
927.631	9077
927.737	8864
927.843	8864
927.95	8777
928.056	8842
928.162	8895
928.267	8937
928.373	9534
928.479	8990
928.585	8746
928.69	8933
928.796	8952
928.901	8815
929.007	8648
929.112	8815
929.218	8785
929.323	8750
929.428	8769
929.533	8876
929.638	8674
929.743	8712
929.848	8781
929.953	8762
930.058	8610
930.163	8484
930.267	8480
930.372	8655
930.477	8461
930.581	8670
930.685	8545
930.79	8381
930.894	8404
930.998	8381
931.103	8537
931.207	8199
931.311	8138
931.415	8115
931.519	7925
931.623	7947
