Data from test_V78500241_3640.txt Node
Date: Fri Mar 25 14:59:03 CST 2022
User: usil
Spectrometer: V785-0024
Trigger mode: 0
Integration Time (sec): 4.000000E-1
Scans to average: 1
Nonlinearity correction enabled: false
Boxcar width: 0
Storing dark spectrum: false
XAxis mode: Wavelengths
Number of Pixels in Spectrum: 1024
>>>>>Begin Spectral Data<<<<<
801.071	21949
801.214	21838
801.356	21553
801.499	21492
801.641	21363
801.783	21321
801.926	21230
802.068	21032
802.211	21192
802.353	21005
802.496	20838
802.638	20758
802.78	20792
802.923	20541
803.065	20499
803.208	20530
803.35	20716
803.492	20792
803.635	20625
803.777	20590
803.919	20693
804.061	20887
804.204	20712
804.346	20636
804.488	20480
804.63	20689
804.773	20415
804.915	20533
805.057	20583
805.199	20454
805.341	20571
805.483	20629
805.626	20655
805.768	20469
805.91	20511
806.052	20560
806.194	20374
806.336	20667
806.478	20469
806.62	20476
806.762	20564
806.904	20800
807.046	20857
807.188	20785
807.33	20823
807.472	20830
807.614	20636
807.756	20739
807.898	20644
808.04	20495
808.182	20469
808.324	20514
808.465	20644
808.607	20720
808.749	20899
808.891	21005
809.033	21096
809.174	20982
809.316	20853
809.458	20804
809.6	20758
809.741	20823
809.883	20864
810.025	20994
810.166	21051
810.308	20941
810.45	20998
810.591	20857
810.733	20697
810.875	20670
811.016	20514
811.158	20465
811.299	20693
811.441	20731
811.582	20651
811.724	20617
811.865	20541
812.007	20514
812.148	20674
812.29	20549
812.431	20731
812.573	20933
812.714	20990
812.855	21032
812.997	21081
813.138	21443
813.279	21241
813.421	21081
813.562	21009
813.703	20830
813.845	20754
813.986	20488
814.127	20301
814.268	20271
814.41	20180
814.551	20115
814.692	20176
814.833	20111
814.974	20020
815.115	20111
815.256	20096
815.397	20020
815.539	20096
815.68	19822
815.821	19780
815.962	19868
816.103	19890
816.244	19616
816.385	19738
816.526	19575
816.666	19472
816.807	19228
816.948	19308
817.089	19419
817.23	19388
817.371	19316
817.512	19362
817.653	19327
817.793	19270
817.934	19217
818.075	19209
818.216	19335
818.356	19304
818.497	19072
818.638	18825
818.778	18947
818.919	18951
819.06	19050
819.2	19038
819.341	19099
819.481	19107
819.622	19225
819.762	19400
819.903	19339
820.043	19278
820.184	19247
820.324	19209
820.465	19179
820.605	19225
820.746	19251
820.886	19152
821.026	19324
821.167	19259
821.307	19274
821.447	19141
821.588	19080
821.728	18966
821.868	18939
822.008	18684
822.149	18612
822.289	18669
822.429	18414
822.569	18350
822.709	18445
822.849	18125
822.99	18190
823.13	18178
823.27	18148
823.41	17931
823.55	17988
823.69	17939
823.83	18003
823.97	17897
824.11	17805
824.25	17684
824.389	17737
824.529	17733
824.669	17684
824.809	17805
824.949	17855
825.089	17745
825.228	17748
825.368	17577
825.508	17554
825.648	17467
825.787	17535
825.927	17604
826.067	17512
826.206	17433
826.346	17516
826.485	17600
826.625	17543
826.765	17661
826.904	17608
827.044	17372
827.183	17193
827.323	17231
827.462	17220
827.601	17140
827.741	17204
827.88	17250
828.02	17067
828.159	17193
828.298	17254
828.437	17311
828.577	17162
828.716	17288
828.855	17151
828.994	16984
829.134	16980
829.273	16984
829.412	16976
829.551	16949
829.69	16961
829.829	16972
829.968	17052
830.107	16961
830.246	16999
830.385	16953
830.524	16892
830.663	16877
830.802	16786
830.941	16611
831.08	16542
831.219	16748
831.357	16736
831.496	16748
831.635	16440
831.774	16478
831.913	16538
832.051	16413
832.19	16440
832.329	16504
832.467	16363
832.606	16226
832.744	16363
832.883	16322
833.022	16276
833.16	16185
833.299	16375
833.437	16337
833.576	16402
833.714	16379
833.852	16386
833.991	16348
834.129	16432
834.267	16421
834.406	16417
834.544	16432
834.682	16382
834.821	16375
834.959	16668
835.097	16409
835.235	16436
835.373	16421
835.511	16432
835.65	16287
835.788	16261
835.926	16181
836.064	16101
836.202	16135
836.34	16287
836.478	16390
836.615	16287
836.753	16356
836.891	16325
837.029	16318
837.167	16185
837.305	16272
837.443	16211
837.58	16158
837.718	16196
837.856	16112
837.993	16090
838.131	16150
838.269	16025
838.406	16128
838.544	15949
838.681	15895
838.819	15918
838.956	15774
839.094	15739
839.231	15732
839.369	15827
839.506	16154
839.643	16029
839.781	15717
839.918	15667
840.055	15690
840.193	15698
840.33	15679
840.467	15660
840.604	15713
840.742	15964
840.879	15572
841.016	15553
841.153	15587
841.29	15854
841.427	15637
841.564	15846
841.701	15682
841.838	15663
841.975	15720
842.112	15584
842.249	15439
842.385	15454
842.522	15599
842.659	15572
842.796	15454
842.933	15500
843.069	15447
843.206	15412
843.343	15523
843.479	15435
843.616	15580
843.752	15260
843.889	15157
844.025	15462
844.162	15294
844.298	15416
844.435	15207
844.571	15233
844.708	15332
844.844	15462
844.98	15473
845.117	15397
845.253	15173
845.389	15138
845.525	15230
845.661	15169
845.798	15119
845.934	15154
846.07	15154
846.206	15131
846.342	15173
846.478	15093
846.614	14986
846.75	14815
846.886	14750
847.022	14880
847.158	14906
847.294	14952
847.429	14880
847.565	14823
847.701	14994
847.837	14644
847.972	14545
848.108	14701
848.244	14640
848.379	14488
848.515	14408
848.65	14423
848.786	14511
848.921	14476
849.057	14514
849.192	14549
849.328	14526
849.463	14549
849.598	14438
849.734	14465
849.869	14290
850.004	14218
850.14	14225
850.275	14229
850.41	14180
850.545	14191
850.68	14252
850.815	14115
850.95	14187
851.085	14351
851.22	14317
851.355	14172
851.49	14244
851.625	14134
851.76	14248
851.895	14157
852.03	14096
852.165	14195
852.299	14263
852.434	14252
852.569	14206
852.703	14225
852.838	14317
852.973	14374
853.107	14351
853.242	14084
853.376	14046
853.511	14012
853.645	14062
853.78	14263
853.914	14111
854.048	14031
854.183	14054
854.317	14088
854.451	14210
854.585	14092
854.72	14088
854.854	14073
854.988	13997
855.122	14012
855.256	13970
855.39	14077
855.524	14187
855.658	14092
855.792	14058
855.926	14168
856.06	14134
856.194	14191
856.327	14077
856.461	14058
856.595	14020
856.729	14039
856.862	14123
856.996	14138
857.13	14183
857.263	14142
857.397	14278
857.53	14065
857.664	14134
857.797	14142
857.931	14206
858.064	14084
858.197	14149
858.331	14134
858.464	14008
858.597	14027
858.731	14043
858.864	14050
858.997	14065
859.13	14123
859.263	14134
859.396	14180
859.529	14077
859.662	14126
859.795	14096
859.928	14176
860.061	14229
860.194	14233
860.327	14176
860.46	14176
860.592	14225
860.725	14248
860.858	14237
860.99	14035
861.123	13928
861.256	13967
861.388	14088
861.521	14864
861.653	14005
861.786	14001
861.918	14054
862.05	14001
862.183	14050
862.315	13989
862.447	14008
862.58	13967
862.712	13936
862.844	13841
862.976	13978
863.108	13906
863.24	14309
863.372	13742
863.504	13913
863.636	13803
863.768	13932
863.9	13871
864.032	13837
864.164	13871
864.296	13921
864.428	14058
864.559	13883
864.691	13932
864.823	13997
864.954	13890
865.086	13963
865.217	13887
865.349	13875
865.48	13841
865.612	13852
865.743	14088
865.875	13947
866.006	13845
866.137	13856
866.269	13860
866.4	13856
866.531	13894
866.662	13742
866.793	13909
866.924	13860
867.055	13894
867.186	13902
867.317	13791
867.448	13761
867.579	13852
867.71	13784
867.841	13803
867.972	13936
868.103	13830
868.233	13852
868.364	13818
868.495	13906
868.625	14088
868.756	14073
868.886	14111
869.017	14134
869.147	14267
869.278	14210
869.408	14153
869.539	14126
869.669	14191
869.799	14123
869.929	14164
870.06	14240
870.19	14454
870.32	14461
870.45	14434
870.58	14499
870.71	14560
870.84	14461
870.97	14556
871.1	14457
871.23	14689
871.36	14686
871.489	14667
871.619	14651
871.749	14781
871.879	14708
872.008	14872
872.138	14689
872.267	14716
872.397	14526
872.526	14511
872.656	14568
872.785	14575
872.915	14724
873.044	14788
873.173	14804
873.303	14788
873.432	14743
873.561	14804
873.69	14807
873.819	14670
873.948	14891
874.077	14819
874.206	14857
874.335	14777
874.464	14902
874.593	15119
874.722	14994
874.851	15119
874.979	15188
875.108	15150
875.237	15097
875.365	15093
875.494	15058
875.623	15203
875.751	15066
875.88	15214
876.008	15142
876.136	15249
876.265	15397
876.393	15709
876.521	15526
876.65	15564
876.778	15584
876.906	15408
877.034	15462
877.162	15454
877.29	15386
877.418	15526
877.546	15447
877.674	15496
877.802	15561
877.93	15492
878.058	15553
878.185	15405
878.313	15450
878.441	15492
878.568	15287
878.696	15473
878.824	15530
878.951	15580
879.079	15679
879.206	15724
879.333	15682
879.461	15553
879.588	15542
879.715	15682
879.842	15770
879.97	15561
880.097	15435
880.224	15344
880.351	15325
880.478	15439
880.605	15370
880.732	15279
880.859	15580
880.986	15367
881.112	15416
881.239	15348
881.366	15211
881.493	15112
881.619	14975
881.746	15138
881.872	14994
881.999	15047
882.125	14921
882.252	15093
882.378	15039
882.505	15108
882.631	15005
882.757	14864
882.883	14960
883.01	14868
883.136	14762
883.262	14769
883.388	14640
883.514	14792
883.64	14838
883.766	14697
883.892	14674
884.018	14651
884.143	14910
884.269	14971
884.395	14621
884.52	14476
884.646	14632
884.772	14625
884.897	14389
885.023	14644
885.148	14724
885.274	14617
885.399	14625
885.524	14541
885.65	14568
885.775	14499
885.9	14537
886.025	14545
886.15	14625
886.275	14598
886.4	14457
886.525	14503
886.65	14514
886.775	14484
886.9	14629
887.025	14883
887.149	14503
887.274	14336
887.399	14404
887.523	14385
887.648	14221
887.773	14271
887.897	14385
888.021	14412
888.146	14438
888.27	14389
888.395	14442
888.519	14374
888.643	14442
888.767	14427
888.891	14278
889.015	14248
889.139	14309
889.263	14229
889.387	14381
889.511	14362
889.635	14419
889.759	14202
889.883	14290
890.006	14313
890.13	14374
890.254	14142
890.377	14237
890.501	14039
890.624	13970
890.748	14088
890.871	13970
890.995	13883
891.118	13841
891.241	13940
891.364	13974
891.488	14069
891.611	13997
891.734	13909
891.857	13986
891.98	13967
892.103	14005
892.226	14005
892.349	13909
892.471	13811
892.594	13982
892.717	13982
892.839	13871
892.962	13970
893.085	14054
893.207	14024
893.33	13894
893.452	13947
893.575	13967
893.697	13963
893.819	14119
893.941	14233
894.064	14012
894.186	13936
894.308	13921
894.43	14035
894.552	14123
894.674	14100
894.796	13849
894.918	13951
895.04	14043
895.161	14142
895.283	14065
895.405	14046
895.526	14027
895.648	14069
895.769	13993
895.891	14107
896.012	14164
896.134	14088
896.255	14199
896.376	14130
896.498	14130
896.619	14149
896.74	14138
896.861	14202
896.982	14587
897.103	14617
897.224	14450
897.345	14400
897.466	14412
897.587	14415
897.708	14579
897.828	14469
897.949	14377
898.07	14263
898.19	14339
898.311	14541
898.431	14332
898.552	14415
898.672	14507
898.792	14537
898.913	14476
899.033	14400
899.153	14301
899.273	14191
899.393	14271
899.513	14408
899.633	14355
899.753	14370
899.873	14324
899.993	14347
900.113	14256
900.232	14393
900.352	14286
900.472	14267
900.591	14107
900.711	14069
900.83	14206
900.95	14252
901.069	14446
901.189	14031
901.308	13902
901.427	13814
901.546	13871
901.665	14008
901.784	13856
901.904	13769
902.023	13643
902.141	13575
902.26	13487
902.379	13495
902.498	13411
902.617	13426
902.735	13510
902.854	13426
902.973	13358
903.091	13156
903.21	13122
903.328	13114
903.446	13107
903.565	12939
903.683	13019
903.801	12894
903.919	13008
904.038	12947
904.156	12878
904.274	12871
904.392	12764
904.51	12795
904.627	12802
904.745	12894
904.863	12935
904.981	12612
905.098	12525
905.216	12551
905.334	12547
905.451	12494
905.569	12456
905.686	12471
905.803	12521
905.921	12391
906.038	12528
906.155	12357
906.272	12254
906.389	12300
906.506	12125
906.623	12091
906.74	12125
906.857	12041
906.974	12038
907.091	12247
907.208	12224
907.324	12175
907.441	12072
907.557	11916
907.674	11790
907.79	11767
907.907	11805
908.023	11885
908.139	11885
908.256	11798
908.372	11863
908.488	11824
908.604	11665
908.72	11649
908.836	11668
908.952	11638
909.068	11657
909.184	11752
909.3	11729
909.415	11688
909.531	11672
909.647	11440
909.762	11398
909.878	11311
909.993	11410
910.108	11414
910.224	11356
910.339	11402
910.454	11231
910.57	11231
910.685	11288
910.8	11490
910.915	11368
911.03	11239
911.145	11052
911.259	11090
911.374	11147
911.489	11048
911.604	11010
911.718	10824
911.833	10934
911.947	10759
912.062	10615
912.176	10801
912.291	10892
912.405	10957
912.519	11155
912.633	11048
912.748	10908
912.862	10877
912.976	10736
913.09	10656
913.204	10721
913.318	10767
913.431	10850
913.545	10793
913.659	10839
913.772	10797
913.886	10668
914	10710
914.113	10717
914.226	10744
914.34	10717
914.453	10550
914.566	10767
914.68	10599
914.793	10550
914.906	10443
915.019	10352
915.132	10249
915.245	10360
915.358	10367
915.47	10390
915.583	10432
915.696	10413
915.809	10508
915.921	10497
916.034	10310
916.146	10276
916.259	10329
916.371	10417
916.483	10390
916.595	10341
916.708	10284
916.82	10314
916.932	10219
917.044	10276
917.156	10143
917.268	10128
917.38	10158
917.491	10185
917.603	10272
917.715	10329
917.826	10337
917.938	10173
918.049	10090
918.161	10246
918.272	10341
918.384	10299
918.495	10204
918.606	10131
918.717	10059
918.828	10131
918.939	10211
919.05	9998
919.161	10109
919.272	9888
919.383	9857
919.494	10135
919.604	10306
919.715	10147
919.826	10097
919.936	10101
920.047	10105
920.157	10192
920.267	10284
920.378	10139
920.488	10067
920.598	10333
920.708	10398
920.818	10352
920.928	10295
921.038	10580
921.148	10428
921.258	10185
921.368	10078
921.477	9991
921.587	9983
921.697	9915
921.806	10036
921.916	10002
922.025	9751
922.134	9610
922.244	9698
922.353	9667
922.462	9614
922.571	9519
922.68	9325
922.789	9359
922.898	9340
923.007	9332
923.116	9389
923.224	9412
923.333	9317
923.442	9245
923.55	9283
923.659	9214
923.767	9283
923.876	9230
923.984	9306
924.092	9165
924.201	9214
924.309	9253
924.417	9249
924.525	9169
924.633	9184
924.741	9968
924.849	9020
924.956	9138
925.064	8994
925.172	8956
925.279	8944
925.387	9093
925.494	9028
925.602	9161
925.709	9150
925.816	8982
925.924	9024
926.031	9036
926.138	9013
926.245	9104
926.352	8937
926.459	9055
926.566	9093
926.673	9005
926.779	8868
926.886	8906
926.993	8777
927.099	8716
927.206	8762
927.312	8701
927.419	8739
927.525	8716
927.631	8766
927.737	8720
927.843	8636
927.95	8499
928.056	8575
928.162	8617
928.267	8632
928.373	9222
928.479	8750
928.585	8495
928.69	8579
928.796	8651
928.901	8560
929.007	8434
929.112	8579
929.218	8537
929.323	8507
929.428	8446
929.533	8571
929.638	8370
929.743	8514
929.848	8446
929.953	8476
930.058	8377
930.163	8233
930.267	8244
930.372	8374
930.477	8240
930.581	8526
930.685	8279
930.79	8111
930.894	8210
930.998	8199
931.103	8339
931.207	7944
931.311	7894
931.415	7852
931.519	7723
931.623	7674
