Data from test_V78500241_1404.txt Node
Date: Fri Mar 25 14:43:29 CST 2022
User: usil
Spectrometer: V785-0024
Trigger mode: 0
Integration Time (sec): 4.000000E-1
Scans to average: 1
Nonlinearity correction enabled: false
Boxcar width: 0
Storing dark spectrum: false
XAxis mode: Wavelengths
Number of Pixels in Spectrum: 1024
>>>>>Begin Spectral Data<<<<<
801.071	22337
801.214	22382
801.356	22143
801.499	21930
801.641	21800
801.783	21819
801.926	21884
802.068	21778
802.211	21656
802.353	21610
802.496	21359
802.638	21485
802.78	21321
802.923	21173
803.065	21154
803.208	21017
803.35	21161
803.492	21252
803.635	21325
803.777	21119
803.919	21161
804.061	21485
804.204	21287
804.346	21173
804.488	21093
804.63	21074
804.773	20998
804.915	21039
805.057	21233
805.199	21062
805.341	21222
805.483	21195
805.626	21230
805.768	20990
805.91	21116
806.052	21123
806.194	20986
806.336	21226
806.478	21058
806.62	21043
806.762	21039
806.904	21336
807.046	21370
807.188	21534
807.33	21473
807.472	21534
807.614	21500
807.756	21473
807.898	21336
808.04	21173
808.182	21283
808.324	21336
808.465	21348
808.607	21542
808.749	21618
808.891	21865
809.033	21915
809.174	21778
809.316	21637
809.458	21625
809.6	21561
809.741	21583
809.883	21595
810.025	21713
810.166	21633
810.308	21538
810.45	21492
810.591	21526
810.733	21359
810.875	21310
811.016	21218
811.158	21192
811.299	21302
811.441	21344
811.582	21393
811.724	21241
811.865	21279
812.007	21173
812.148	21268
812.29	21249
812.431	21382
812.573	21542
812.714	21519
812.855	21728
812.997	21816
813.138	21930
813.279	21797
813.421	21778
813.562	21591
813.703	21386
813.845	21458
813.986	21180
814.127	20792
814.268	20876
814.41	20880
814.551	20792
814.692	20861
814.833	20632
814.974	20712
815.115	20693
815.256	20598
815.397	20708
815.539	20651
815.68	20541
815.821	20412
815.962	20526
816.103	20495
816.244	20347
816.385	20233
816.526	20183
816.666	20191
816.807	19947
816.948	20020
817.089	20130
817.23	20065
817.371	19917
817.512	19826
817.653	19902
817.793	19928
817.934	19837
818.075	19986
818.216	19913
818.356	19932
818.497	19807
818.638	19700
818.778	19689
818.919	19601
819.06	19655
819.2	19704
819.341	19841
819.481	19909
819.622	19936
819.762	20126
819.903	20081
820.043	19860
820.184	19928
820.324	19898
820.465	19959
820.605	19955
820.746	19951
820.886	19830
821.026	19898
821.167	19928
821.307	19898
821.447	19780
821.588	19670
821.728	19518
821.868	19487
822.008	19285
822.149	19381
822.289	19301
822.429	19076
822.569	19050
822.709	19012
822.849	18817
822.99	18768
823.13	18684
823.27	18776
823.41	18703
823.55	18616
823.69	18681
823.83	18589
823.97	18559
824.11	18422
824.25	18376
824.389	18338
824.529	18536
824.669	18490
824.809	18536
824.949	18494
825.089	18475
825.228	18369
825.368	18311
825.508	18174
825.648	18300
825.787	18197
825.927	18228
826.067	18095
826.206	18194
826.346	18228
826.485	18194
826.625	18163
826.765	18155
826.904	18091
827.044	18034
827.183	17885
827.323	17836
827.462	17931
827.601	17893
827.741	17908
827.88	17889
828.02	17642
828.159	17874
828.298	17904
828.437	17866
828.577	17775
828.716	17935
828.855	17824
828.994	17657
829.134	17562
829.273	17691
829.412	17585
829.551	17410
829.69	17695
829.829	17680
829.968	17707
830.107	17646
830.246	17638
830.385	17532
830.524	17558
830.663	17448
830.802	17246
830.941	17242
831.08	17200
831.219	17379
831.357	17334
831.496	17490
831.635	17216
831.774	17220
831.913	17071
832.051	17014
832.19	17010
832.329	17033
832.467	16972
832.606	16877
832.744	16892
832.883	16942
833.022	16984
833.16	16938
833.299	17102
833.437	16854
833.576	16915
833.714	16938
833.852	17033
833.991	17014
834.129	16999
834.267	17181
834.406	16877
834.544	16965
834.682	17079
834.821	17029
834.959	17147
835.097	16900
835.235	17041
835.373	16980
835.511	17041
835.65	16892
835.788	16831
835.926	16668
836.064	16656
836.202	16717
836.34	16843
836.478	16995
836.615	16843
836.753	16820
836.891	17056
837.029	16904
837.167	16877
837.305	16904
837.443	16713
837.58	16725
837.718	16828
837.856	16812
837.993	16752
838.131	16771
838.269	16656
838.406	16641
838.544	16637
838.681	16424
838.819	16341
838.956	16215
839.094	16257
839.231	16284
839.369	16500
839.506	16733
839.643	16500
839.781	16291
839.918	16337
840.055	16341
840.193	16306
840.33	16185
840.467	16337
840.604	16299
840.742	16519
840.879	16147
841.016	16139
841.153	16177
841.29	16371
841.427	16246
841.564	16299
841.701	16329
841.838	16276
841.975	16162
842.112	16188
842.249	16147
842.385	16128
842.522	16284
842.659	16078
842.796	15975
842.933	16032
843.069	15975
843.206	15975
843.343	16131
843.479	16036
843.616	16051
843.752	15869
843.889	15797
844.025	16025
844.162	15899
844.298	15892
844.435	15854
844.571	15846
844.708	15869
844.844	15941
844.98	16063
845.117	15972
845.253	15861
845.389	15819
845.525	15842
845.661	15873
845.798	15854
845.934	16032
846.07	15876
846.206	15941
846.342	15968
846.478	15774
846.614	15644
846.75	15382
846.886	15389
847.022	15534
847.158	15393
847.294	15401
847.429	15549
847.565	15348
847.701	15663
847.837	15195
847.972	15108
848.108	15317
848.244	15192
848.379	15020
848.515	14960
848.65	14994
848.786	15039
848.921	15062
849.057	15097
849.192	15093
849.328	15043
849.463	15097
849.598	14982
849.734	14944
849.869	14880
850.004	14689
850.14	14883
850.275	14731
850.41	14674
850.545	14689
850.68	14727
850.815	14804
850.95	14716
851.085	14944
851.22	14918
851.355	14857
851.49	14857
851.625	14678
851.76	14849
851.895	14651
852.03	14758
852.165	14682
852.299	14727
852.434	14895
852.569	14773
852.703	14796
852.838	14815
852.973	14891
853.107	14895
853.242	14705
853.376	14773
853.511	14556
853.645	14511
853.78	14830
853.914	14663
854.048	14674
854.183	14636
854.317	14640
854.451	14727
854.585	14568
854.72	14602
854.854	14716
854.988	14503
855.122	14594
855.256	14461
855.39	14564
855.524	14632
855.658	14632
855.792	14556
855.926	14670
856.06	14632
856.194	14773
856.327	14606
856.461	14617
856.595	14545
856.729	14598
856.862	14735
856.996	14739
857.13	14708
857.263	14800
857.397	14758
857.53	14659
857.664	14720
857.797	14674
857.931	14602
858.064	14697
858.197	14735
858.331	14724
858.464	14613
858.597	14533
858.731	14682
858.864	14579
858.997	14594
859.13	14587
859.263	14583
859.396	14617
859.529	14587
859.662	14590
859.795	14598
859.928	14720
860.061	14765
860.194	14769
860.327	14667
860.46	14655
860.592	14708
860.725	14781
860.858	14754
860.99	14640
861.123	14507
861.256	14545
861.388	14667
861.521	15424
861.653	14499
861.786	14454
861.918	14533
862.05	14450
862.183	14575
862.315	14610
862.447	14667
862.58	14598
862.712	14427
862.844	14404
862.976	14492
863.108	14461
863.24	14796
863.372	14358
863.504	14381
863.636	14434
863.768	14499
863.9	14492
864.032	14393
864.164	14336
864.296	14396
864.428	14556
864.559	14552
864.691	14560
864.823	14450
864.954	14358
865.086	14404
865.217	14298
865.349	14377
865.48	14313
865.612	14431
865.743	14423
865.875	14374
866.006	14328
866.137	14267
866.269	14336
866.4	14336
866.531	14400
866.662	14324
866.793	14377
866.924	14278
867.055	14492
867.186	14366
867.317	14389
867.448	14305
867.579	14305
867.71	14271
867.841	14313
867.972	14355
868.103	14343
868.233	14309
868.364	14404
868.495	14427
868.625	14552
868.756	14583
868.886	14625
869.017	14541
869.147	14765
869.278	14823
869.408	14678
869.539	14621
869.669	14834
869.799	14754
869.929	14777
870.06	14807
870.19	14941
870.32	14895
870.45	14921
870.58	14971
870.71	15089
870.84	15112
870.97	15108
871.1	14971
871.23	15173
871.36	15275
871.489	15058
871.619	15264
871.749	15165
871.879	15233
872.008	15302
872.138	15207
872.267	15287
872.397	15047
872.526	14990
872.656	15062
872.785	14994
872.915	15218
873.044	15283
873.173	15313
873.303	15340
873.432	15291
873.561	15435
873.69	15317
873.819	15294
873.948	15264
874.077	15348
874.206	15310
874.335	15313
874.464	15401
874.593	15564
874.722	15519
874.851	15644
874.979	15644
875.108	15625
875.237	15644
875.365	15424
875.494	15568
875.623	15656
875.751	15553
875.88	15572
876.008	15778
876.136	15785
876.265	15960
876.393	16097
876.521	16078
876.65	16040
876.778	16044
876.906	15915
877.034	16002
877.162	16013
877.29	15869
877.418	15926
877.546	16071
877.674	15888
877.802	15998
877.93	16040
878.058	15953
878.185	15915
878.313	16013
878.441	16078
878.568	15926
878.696	15968
878.824	16006
878.951	16150
879.079	16211
879.206	16371
879.333	16299
879.461	16238
879.588	16337
879.715	16356
879.842	16402
879.97	16196
880.097	15895
880.224	15823
880.351	15907
880.478	15732
880.605	15918
880.732	15884
880.859	16097
880.986	15922
881.112	15915
881.239	15774
881.366	15637
881.493	15492
881.619	15549
881.746	15542
881.872	15481
881.999	15488
882.125	15477
882.252	15606
882.378	15614
882.505	15584
882.631	15462
882.757	15435
882.883	15386
883.01	15355
883.136	15401
883.262	15226
883.388	15214
883.514	15424
883.64	15523
883.766	15344
883.892	15207
884.018	15226
884.143	15256
884.269	15435
884.395	15176
884.52	15074
884.646	15211
884.772	15081
884.897	14941
885.023	14967
885.148	15142
885.274	15180
885.399	15127
885.524	14971
885.65	15051
885.775	15085
885.9	15100
886.025	15169
886.15	15077
886.275	14986
886.4	14952
886.525	15039
886.65	14902
886.775	15058
886.9	15150
887.025	15237
887.149	15119
887.274	14979
887.399	14735
887.523	14956
887.648	14838
887.773	14830
887.897	14845
888.021	14883
888.146	14811
888.27	14895
888.395	14929
888.519	14857
888.643	14914
888.767	14910
888.891	14849
889.015	14621
889.139	14819
889.263	14693
889.387	14765
889.511	14815
889.635	14785
889.759	14731
889.883	14807
890.006	14712
890.13	14773
890.254	14644
890.377	14708
890.501	14564
890.624	14431
890.748	14530
890.871	14465
890.995	14370
891.118	14343
891.241	14400
891.364	14514
891.488	14560
891.611	14355
891.734	14393
891.857	14415
891.98	14408
892.103	14454
892.226	14358
892.349	14461
892.471	14221
892.594	14442
892.717	14442
892.839	14446
892.962	14400
893.085	14450
893.207	14381
893.33	14214
893.452	14336
893.575	14457
893.697	14381
893.819	14568
893.941	14545
894.064	14461
894.186	14381
894.308	14393
894.43	14431
894.552	14560
894.674	14503
894.796	14347
894.918	14389
895.04	14400
895.161	14590
895.283	14465
895.405	14400
895.526	14355
895.648	14488
895.769	14564
895.891	14526
896.012	14583
896.134	14579
896.255	14499
896.376	14613
896.498	14564
896.619	14549
896.74	14579
896.861	14716
896.982	14834
897.103	14937
897.224	14838
897.345	14769
897.466	14720
897.587	14807
897.708	14910
897.828	14845
897.949	14800
898.07	14651
898.19	14735
898.311	14899
898.431	14880
898.552	14815
898.672	14994
898.792	14963
898.913	14975
899.033	14788
899.153	14765
899.273	14667
899.393	14686
899.513	14731
899.633	14716
899.753	14796
899.873	14731
899.993	14861
900.113	14796
900.232	14739
900.352	14777
900.472	14651
900.591	14556
900.711	14541
900.83	14518
900.95	14689
901.069	14819
901.189	14552
901.308	14336
901.427	14271
901.546	14240
901.665	14252
901.784	14332
901.904	14149
902.023	14115
902.141	13875
902.26	13776
902.379	13906
902.498	13769
902.617	13799
902.735	13860
902.854	13852
902.973	13830
903.091	13613
903.21	13510
903.328	13594
903.446	13472
903.565	13438
903.683	13373
903.801	13362
903.919	13384
904.038	13441
904.156	13164
904.274	13308
904.392	13137
904.51	13190
904.627	13255
904.745	13228
904.863	13217
904.981	12985
905.098	12886
905.216	12928
905.334	13015
905.451	12981
905.569	12867
905.686	12859
905.803	12981
905.921	12673
906.038	12757
906.155	12745
906.272	12639
906.389	12547
906.506	12426
906.623	12513
906.74	12475
906.857	12445
906.974	12350
907.091	12551
907.208	12616
907.324	12513
907.441	12441
907.557	12235
907.674	12311
907.79	12121
907.907	12182
908.023	12304
908.139	12213
908.256	12136
908.372	12148
908.488	12167
908.604	12076
908.72	12022
908.836	12030
908.952	11988
909.068	11992
909.184	12030
909.3	12068
909.415	12045
909.531	12060
909.647	11813
909.762	11760
909.878	11691
909.993	11756
910.108	11703
910.224	11737
910.339	11802
910.454	11661
910.57	11619
910.685	11581
910.8	11832
910.915	11756
911.03	11638
911.145	11444
911.259	11474
911.374	11425
911.489	11349
911.604	11356
911.718	11155
911.833	11288
911.947	11090
912.062	10995
912.176	11159
912.291	11140
912.405	11246
912.519	11429
912.633	11368
912.748	11337
912.862	11140
912.976	11045
913.09	10957
913.204	11067
913.318	11140
913.431	11132
913.545	11136
913.659	11204
913.772	11083
913.886	10965
914	10892
914.113	11010
914.226	11079
914.34	11071
914.453	10957
914.566	11098
914.68	10885
914.793	10866
914.906	10672
915.019	10687
915.132	10626
915.245	10687
915.358	10740
915.47	10691
915.583	10752
915.696	10702
915.809	10850
915.921	10839
916.034	10816
916.146	10653
916.259	10641
916.371	10729
916.483	10691
916.595	10580
916.708	10622
916.82	10660
916.932	10569
917.044	10596
917.156	10634
917.268	10470
917.38	10523
917.491	10527
917.603	10611
917.715	10596
917.826	10641
917.938	10538
918.049	10386
918.161	10500
918.272	10634
918.384	10691
918.495	10554
918.606	10459
918.717	10356
918.828	10352
918.939	10413
919.05	10287
919.161	10306
919.272	10227
919.383	10291
919.494	10489
919.604	10611
919.715	10508
919.826	10375
919.936	10394
920.047	10497
920.157	10504
920.267	10558
920.378	10451
920.488	10379
920.598	10611
920.708	10778
920.818	10630
920.928	10649
921.038	10828
921.148	10752
921.258	10436
921.368	10417
921.477	10265
921.587	10272
921.697	10207
921.806	10341
921.916	10200
922.025	10048
922.134	9937
922.244	9861
922.353	9953
922.462	9937
922.571	9835
922.68	9595
922.789	9610
922.898	9667
923.007	9641
923.116	9713
923.224	9656
923.333	9641
923.442	9557
923.55	9561
923.659	9568
923.767	9587
923.876	9496
923.984	9622
924.092	9454
924.201	9481
924.309	9492
924.417	9564
924.525	9435
924.633	9519
924.741	10363
924.849	9279
924.956	9420
925.064	9260
925.172	9241
925.279	9287
925.387	9325
925.494	9294
925.602	9382
925.709	9450
925.816	9294
925.924	9298
926.031	9370
926.138	9306
926.245	9302
926.352	9249
926.459	9340
926.566	9294
926.673	9272
926.779	9218
926.886	9093
926.993	9074
927.099	9001
927.206	9043
927.312	8921
927.419	9062
927.525	9005
927.631	9024
927.737	8948
927.843	8952
927.95	8849
928.056	8857
928.162	8826
928.267	8948
928.373	9530
928.479	8975
928.585	8769
928.69	8891
928.796	8914
928.901	8746
929.007	8682
929.112	8857
929.218	8754
929.323	8750
929.428	8727
929.533	8956
929.638	8663
929.743	8697
929.848	8743
929.953	8727
930.058	8549
930.163	8454
930.267	8526
930.372	8640
930.477	8480
930.581	8735
930.685	8602
930.79	8419
930.894	8465
930.998	8427
931.103	8602
931.207	8153
931.311	8157
931.415	8111
931.519	7978
931.623	7951
