Data from test_V78500241_300.txt Node
Date: Fri Mar 25 14:35:48 CST 2022
User: usil
Spectrometer: V785-0024
Trigger mode: 0
Integration Time (sec): 4.000000E-1
Scans to average: 1
Nonlinearity correction enabled: false
Boxcar width: 0
Storing dark spectrum: false
XAxis mode: Wavelengths
Number of Pixels in Spectrum: 1024
>>>>>Begin Spectral Data<<<<<
801.071	27135
801.214	27051
801.356	26800
801.499	26819
801.641	26602
801.783	26621
801.926	26598
802.068	26545
802.211	26457
802.353	26347
802.496	26161
802.638	26126
802.78	26195
802.923	26134
803.065	25963
803.208	25989
803.35	26183
803.492	26073
803.635	26088
803.777	26180
803.919	26191
804.061	26495
804.204	26164
804.346	26012
804.488	26065
804.63	26176
804.773	26046
804.915	26062
805.057	26191
805.199	25993
805.341	26050
805.483	26320
805.626	26286
805.768	26168
805.91	26168
806.052	26206
806.194	26218
806.336	26347
806.478	26259
806.62	26210
806.762	26290
806.904	26522
807.046	26564
807.188	26651
807.33	26522
807.472	26697
807.614	26438
807.756	26434
807.898	26419
808.04	26259
808.182	26393
808.324	26427
808.465	26351
808.607	26541
808.749	26796
808.891	26754
809.033	26807
809.174	26697
809.316	26769
809.458	26815
809.6	26682
809.741	26712
809.883	26674
810.025	26800
810.166	27047
810.308	26819
810.45	26788
810.591	26686
810.733	26670
810.875	26564
811.016	26442
811.158	26492
811.299	26446
811.441	26731
811.582	26484
811.724	26590
811.865	26560
812.007	26522
812.148	26541
812.29	26549
812.431	26587
812.573	26750
812.714	26868
812.855	26956
812.997	27142
813.138	27165
813.279	27127
813.421	27123
813.562	26948
813.703	26845
813.845	26773
813.986	26393
814.127	26278
814.268	26161
814.41	26168
814.551	26058
814.692	26142
814.833	26092
814.974	26088
815.115	25921
815.256	25814
815.397	25826
815.539	25989
815.68	25811
815.821	25681
815.962	25693
816.103	25811
816.244	25670
816.385	25609
816.526	25441
816.666	25476
816.807	25251
816.948	25289
817.089	25316
817.23	25209
817.371	25156
817.512	25175
817.653	25183
817.793	25091
817.934	25202
818.075	25179
818.216	25065
818.356	25080
818.497	24852
818.638	24806
818.778	24943
818.919	25000
819.06	24909
819.2	24935
819.341	24977
819.481	25031
819.622	25198
819.762	25400
819.903	25297
820.043	25251
820.184	25232
820.324	25190
820.465	25171
820.605	25194
820.746	25126
820.886	25012
821.026	25213
821.167	25034
821.307	25129
821.447	25129
821.588	24867
821.728	24795
821.868	24616
822.008	24498
822.149	24627
822.289	24418
822.429	24292
822.569	24152
822.709	24148
822.849	24022
822.99	24068
823.13	23878
823.27	23939
823.41	23661
823.55	23840
823.69	23752
823.83	23786
823.97	23619
824.11	23577
824.25	23524
824.389	23486
824.529	23642
824.669	23474
824.809	23570
824.949	23570
825.089	23619
825.228	23657
825.368	23296
825.508	23235
825.648	23402
825.787	23360
825.927	23296
826.067	23315
826.206	23318
826.346	23410
826.485	23353
826.625	23296
826.765	23372
826.904	23391
827.044	23174
827.183	23136
827.323	22999
827.462	23178
827.601	23124
827.741	22976
827.88	23010
828.02	22850
828.159	22995
828.298	22847
828.437	23121
828.577	22930
828.716	22968
828.855	22866
828.994	22843
829.134	22729
829.273	22710
829.412	22702
829.551	22649
829.69	22668
829.829	22668
829.968	22786
830.107	22767
830.246	22634
830.385	22611
830.524	22538
830.663	22485
830.802	22424
830.941	22276
831.08	22215
831.219	22314
831.357	22215
831.496	22413
831.635	22310
831.774	22158
831.913	22120
832.051	22029
832.19	21991
832.329	21987
832.467	21918
832.606	21876
832.744	21930
832.883	21926
833.022	21846
833.16	21949
833.299	21903
833.437	21953
833.576	21987
833.714	21945
833.852	21964
833.991	21926
834.129	21994
834.267	22036
834.406	21918
834.544	21956
834.682	22070
834.821	21857
834.959	22093
835.097	21819
835.235	21846
835.373	21835
835.511	21922
835.65	21739
835.788	21698
835.926	21572
836.064	21568
836.202	21587
836.34	21720
836.478	21656
836.615	21713
836.753	21816
836.891	21774
837.029	21679
837.167	21751
837.305	21694
837.443	21576
837.58	21610
837.718	21690
837.856	21572
837.993	21496
838.131	21641
838.269	21389
838.406	21477
838.544	21386
838.681	21222
838.819	21100
838.956	21093
839.094	20998
839.231	21058
839.369	21203
839.506	21462
839.643	21287
839.781	21074
839.918	20948
840.055	20994
840.193	20998
840.33	20807
840.467	20838
840.604	21005
840.742	21214
840.879	20800
841.016	20792
841.153	20834
841.29	21100
841.427	20887
841.564	20986
841.701	20826
841.838	20792
841.975	20804
842.112	20868
842.249	20800
842.385	20632
842.522	20823
842.659	20769
842.796	20705
842.933	20724
843.069	20606
843.206	20564
843.343	20667
843.479	20686
843.616	20705
843.752	20473
843.889	20511
844.025	20522
844.162	20438
844.298	20537
844.435	20404
844.571	20370
844.708	20568
844.844	20545
844.98	20537
845.117	20476
845.253	20339
845.389	20328
845.525	20362
845.661	20385
845.798	20294
845.934	20225
846.07	20256
846.206	20351
846.342	20305
846.478	20301
846.614	19936
846.75	19822
846.886	19890
847.022	19967
847.158	19944
847.294	19947
847.429	19902
847.565	19917
847.701	20119
847.837	19548
847.972	19575
848.108	19632
848.244	19666
848.379	19556
848.515	19403
848.65	19392
848.786	19350
848.921	19331
849.057	19537
849.192	19472
849.328	19464
849.463	19502
849.598	19346
849.734	19407
849.869	19297
850.004	19175
850.14	19228
850.275	19206
850.41	19225
850.545	19103
850.68	19107
850.815	19137
850.95	19118
851.085	19316
851.22	19289
851.355	19206
851.49	19126
851.625	19118
851.76	19088
851.895	19072
852.03	19042
852.165	19133
852.299	19053
852.434	19247
852.569	19168
852.703	19160
852.838	19179
852.973	19232
853.107	19316
853.242	19072
853.376	19107
853.511	18901
853.645	18894
853.78	19053
853.914	18909
854.048	19008
854.183	18947
854.317	18882
854.451	19168
854.585	18928
854.72	18958
854.854	19031
854.988	18890
855.122	18844
855.256	18757
855.39	18981
855.524	18989
855.658	19031
855.792	18993
855.926	19004
856.06	19099
856.194	19015
856.327	18878
856.461	18829
856.595	18840
856.729	19019
856.862	19023
856.996	18962
857.13	19027
857.263	19156
857.397	19069
857.53	18928
857.664	19034
857.797	19042
857.931	18890
858.064	18924
858.197	19057
858.331	18875
858.464	18977
858.597	18817
858.731	18791
858.864	18947
858.997	18802
859.13	18943
859.263	19015
859.396	19027
859.529	18840
859.662	18863
859.795	18837
859.928	18852
860.061	19069
860.194	19012
860.327	18909
860.46	18909
860.592	19012
860.725	19050
860.858	18875
860.99	18856
861.123	18840
861.256	18738
861.388	18928
861.521	19419
861.653	18848
861.786	18688
861.918	18802
862.05	18791
862.183	18825
862.315	18920
862.447	18977
862.58	18894
862.712	18696
862.844	18585
862.976	18783
863.108	18570
863.24	19004
863.372	18555
863.504	18525
863.636	18536
863.768	18661
863.9	18563
864.032	18532
864.164	18555
864.296	18661
864.428	18707
864.559	18604
864.691	18642
864.823	18551
864.954	18623
865.086	18551
865.217	18608
865.349	18494
865.48	18623
865.612	18574
865.743	18665
865.875	18528
866.006	18467
866.137	18486
866.269	18547
866.4	18437
866.531	18380
866.662	18483
866.793	18429
866.924	18471
867.055	18445
867.186	18570
867.317	18479
867.448	18452
867.579	18433
867.71	18350
867.841	18395
867.972	18391
868.103	18429
868.233	18494
868.364	18498
868.495	18483
868.625	18669
868.756	18779
868.886	18494
869.017	18696
869.147	18688
869.278	18821
869.408	18738
869.539	18608
869.669	18715
869.799	18745
869.929	18810
870.06	18764
870.19	19042
870.32	18996
870.45	19023
870.58	18993
870.71	19217
870.84	19164
870.97	18989
871.1	19148
871.23	19263
871.36	19392
871.489	19244
871.619	19282
871.749	19255
871.879	19339
872.008	19441
872.138	19274
872.267	19266
872.397	19240
872.526	19095
872.656	19118
872.785	19137
872.915	19274
873.044	19308
873.173	19373
873.303	19407
873.432	19449
873.561	19396
873.69	19285
873.819	19346
873.948	19403
874.077	19388
874.206	19324
874.335	19350
874.464	19468
874.593	19635
874.722	19502
874.851	19635
874.979	19620
875.108	19594
875.237	19533
875.365	19422
875.494	19590
875.623	19651
875.751	19689
875.88	19605
876.008	19723
876.136	19887
876.265	20084
876.393	20134
876.521	20199
876.65	20107
876.778	20016
876.906	19906
877.034	19982
877.162	19940
877.29	19856
877.418	19921
877.546	20054
877.674	19856
877.802	19917
877.93	19925
878.058	20020
878.185	19940
878.313	19909
878.441	19932
878.568	19849
878.696	19913
878.824	20046
878.951	20065
879.079	20130
879.206	20259
879.333	20210
879.461	20065
879.588	20271
879.715	20267
879.842	20355
879.97	20107
880.097	19906
880.224	19883
880.351	19822
880.478	19837
880.605	19761
880.732	19841
880.859	20077
880.986	19776
881.112	19772
881.239	19746
881.366	19643
881.493	19426
881.619	19483
881.746	19544
881.872	19460
881.999	19365
882.125	19384
882.252	19453
882.378	19521
882.505	19575
882.631	19377
882.757	19263
882.883	19179
883.01	19225
883.136	19206
883.262	19076
883.388	19099
883.514	19171
883.64	19297
883.766	19084
883.892	18947
884.018	19110
884.143	19251
884.269	19175
884.395	18852
884.52	18909
884.646	18795
884.772	18833
884.897	18734
885.023	18821
885.148	19012
885.274	18993
885.399	18932
885.524	18867
885.65	18859
885.775	18966
885.9	18837
886.025	18989
886.15	18871
886.275	18795
886.4	18859
886.525	18650
886.65	18757
886.775	18715
886.9	18924
887.025	19004
887.149	18894
887.274	18616
887.399	18467
887.523	18555
887.648	18547
887.773	18570
887.897	18555
888.021	18646
888.146	18601
888.27	18696
888.395	18631
888.519	18620
888.643	18612
888.767	18642
888.891	18426
889.015	18452
889.139	18384
889.263	18452
889.387	18479
889.511	18601
889.635	18528
889.759	18395
889.883	18323
890.006	18437
890.13	18433
890.254	18361
890.377	18296
890.501	18163
890.624	18095
890.748	18228
890.871	18095
890.995	18019
891.118	17999
891.241	17969
891.364	18038
891.488	18060
891.611	18098
891.734	17984
891.857	18114
891.98	17927
892.103	18102
892.226	17973
892.349	17874
892.471	17737
892.594	18019
892.717	17973
892.839	17961
892.962	17965
893.085	18045
893.207	18083
893.33	17863
893.452	17950
893.575	17939
893.697	17973
893.819	18083
893.941	18148
894.064	18159
894.186	17893
894.308	17847
894.43	18072
894.552	18095
894.674	18129
894.796	17794
894.918	17927
895.04	17893
895.161	18026
895.283	17954
895.405	18011
895.526	18034
895.648	17984
895.769	18045
895.891	18083
896.012	18091
896.134	18083
896.255	17999
896.376	18072
896.498	18064
896.619	17999
896.74	18011
896.861	18087
896.982	18346
897.103	18483
897.224	18372
897.345	18292
897.466	18213
897.587	18235
897.708	18296
897.828	18292
897.949	18262
898.07	18095
898.19	18144
898.311	18315
898.431	18235
898.552	18228
898.672	18346
898.792	18357
898.913	18296
899.033	18220
899.153	17961
899.273	17950
899.393	17984
899.513	17980
899.633	18060
899.753	18019
899.873	17996
899.993	18011
900.113	17988
900.232	17954
900.352	17946
900.472	17939
900.591	17729
900.711	17893
900.83	17752
900.95	17969
901.069	17942
901.189	17722
901.308	17535
901.427	17474
901.546	17459
901.665	17535
901.784	17558
901.904	17284
902.023	17235
902.141	17102
902.26	16999
902.379	17075
902.498	16991
902.617	17029
902.735	17048
902.854	16961
902.973	16911
903.091	16763
903.21	16618
903.328	16645
903.446	16615
903.565	16466
903.683	16481
903.801	16337
903.919	16538
904.038	16432
904.156	16173
904.274	16341
904.392	16299
904.51	16211
904.627	16204
904.745	16299
904.863	16329
904.981	16093
905.098	15922
905.216	15892
905.334	15941
905.451	16032
905.569	15941
905.686	16025
905.803	15903
905.921	15701
906.038	15728
906.155	15850
906.272	15644
906.389	15679
906.506	15591
906.623	15450
906.74	15530
906.857	15306
906.974	15291
907.091	15469
907.208	15679
907.324	15511
907.441	15355
907.557	15180
907.674	15146
907.79	15116
907.907	15157
908.023	15256
908.139	15089
908.256	15142
908.372	15032
908.488	15043
908.604	14944
908.72	14887
908.836	14914
908.952	14823
909.068	14921
909.184	14979
909.3	14861
909.415	14975
909.531	14819
909.647	14682
909.762	14644
909.878	14667
909.993	14598
910.108	14564
910.224	14499
910.339	14602
910.454	14495
910.57	14412
910.685	14381
910.8	14617
910.915	14476
911.03	14473
911.145	14275
911.259	14229
911.374	14138
911.489	14103
911.604	14077
911.718	13879
911.833	14016
911.947	13852
912.062	13780
912.176	13864
912.291	14008
912.405	13883
912.519	14073
912.633	14130
912.748	14100
912.862	13852
912.976	13784
913.09	13700
913.204	13776
913.318	13757
913.431	13936
913.545	13864
913.659	13936
913.772	13712
913.886	13712
914	13582
914.113	13712
914.226	13776
914.34	13715
914.453	13563
914.566	13795
914.68	13575
914.793	13510
914.906	13381
915.019	13259
915.132	13194
915.245	13263
915.358	13362
915.47	13308
915.583	13377
915.696	13350
915.809	13377
915.921	13441
916.034	13293
916.146	13145
916.259	13171
916.371	13266
916.483	13232
916.595	13076
916.708	13080
916.82	13171
916.932	13183
917.044	13137
917.156	13129
917.268	13061
917.38	13004
917.491	12989
917.603	13072
917.715	13095
917.826	13133
917.938	12958
918.049	12806
918.161	13012
918.272	13107
918.384	13175
918.495	12890
918.606	12810
918.717	12806
918.828	12802
918.939	12878
919.05	12700
919.161	12757
919.272	12544
919.383	12711
919.494	12795
919.604	12886
919.715	12787
919.826	12654
919.936	12650
920.047	12840
920.157	12757
920.267	13027
920.378	12783
920.488	12749
920.598	12829
920.708	13072
920.818	12837
920.928	12844
921.038	12993
921.148	12973
921.258	12722
921.368	12593
921.477	12563
921.587	12460
921.697	12300
921.806	12555
921.916	12388
922.025	12262
922.134	12110
922.244	12098
922.353	12197
922.462	12133
922.571	11980
922.68	11855
922.789	11840
922.898	11874
923.007	11786
923.116	11828
923.224	11756
923.333	11836
923.442	11627
923.55	11646
923.659	11722
923.767	11783
923.876	11615
923.984	11771
924.092	11543
924.201	11680
924.309	11733
924.417	11589
924.525	11608
924.633	11657
924.741	12429
924.849	11440
924.956	11516
925.064	11398
925.172	11353
925.279	11288
925.387	11341
925.494	11353
925.602	11490
925.709	11364
925.816	11261
925.924	11288
926.031	11391
926.138	11330
926.245	11383
926.352	11239
926.459	11349
926.566	11421
926.673	11254
926.779	11151
926.886	11185
926.993	11098
927.099	11067
927.206	10930
927.312	10942
927.419	11086
927.525	11083
927.631	11029
927.737	10938
927.843	10877
927.95	10721
928.056	10881
928.162	10915
928.267	10938
928.373	11410
928.479	10934
928.585	10755
928.69	10869
928.796	10911
928.901	10786
929.007	10599
929.112	10797
929.218	10748
929.323	10626
929.428	10611
929.533	10801
929.638	10542
929.743	10558
929.848	10698
929.953	10535
930.058	10565
930.163	10306
930.267	10402
930.372	10512
930.477	10337
930.581	10500
930.685	10363
930.79	10268
930.894	10295
930.998	10207
931.103	10360
931.207	10002
931.311	9892
931.415	9892
931.519	9682
931.623	9682
