Data from test_V78500241_1645.txt Node
Date: Fri Mar 25 14:45:10 CST 2022
User: usil
Spectrometer: V785-0024
Trigger mode: 0
Integration Time (sec): 4.000000E-1
Scans to average: 1
Nonlinearity correction enabled: false
Boxcar width: 0
Storing dark spectrum: false
XAxis mode: Wavelengths
Number of Pixels in Spectrum: 1024
>>>>>Begin Spectral Data<<<<<
801.071	22272
801.214	22150
801.356	21953
801.499	21838
801.641	21641
801.783	21656
801.926	21671
802.068	21660
802.211	21576
802.353	21355
802.496	21310
802.638	21150
802.78	21093
802.923	21032
803.065	21051
803.208	20925
803.35	20960
803.492	21104
803.635	21066
803.777	20971
803.919	20944
804.061	21359
804.204	21013
804.346	20918
804.488	20910
804.63	20937
804.773	20906
804.915	20937
805.057	21192
805.199	20899
805.341	21039
805.483	21127
805.626	20971
805.768	20777
805.91	20933
806.052	20960
806.194	20765
806.336	21085
806.478	20914
806.62	20826
806.762	20845
806.904	21104
807.046	21237
807.188	21260
807.33	21142
807.472	21431
807.614	21294
807.756	21176
807.898	21154
808.04	20963
808.182	21043
808.324	21272
808.465	21116
808.607	21321
808.749	21450
808.891	21477
809.033	21542
809.174	21523
809.316	21287
809.458	21374
809.6	21306
809.741	21351
809.883	21401
810.025	21591
810.166	21504
810.308	21393
810.45	21477
810.591	21389
810.733	21146
810.875	21176
811.016	21055
811.158	21001
811.299	21230
811.441	21214
811.582	21420
811.724	21138
811.865	21009
812.007	21024
812.148	21017
812.29	21081
812.431	21245
812.573	21408
812.714	21408
812.855	21519
812.997	21713
813.138	21804
813.279	21618
813.421	21625
813.562	21485
813.703	21424
813.845	21321
813.986	20944
814.127	20758
814.268	20670
814.41	20720
814.551	20659
814.692	20762
814.833	20526
814.974	20587
815.115	20663
815.256	20526
815.397	20473
815.539	20545
815.68	20423
815.821	20336
815.962	20434
816.103	20377
816.244	20233
816.385	20081
816.526	20088
816.666	19989
816.807	19818
816.948	19967
817.089	20001
817.23	19860
817.371	19852
817.512	19715
817.653	19780
817.793	19833
817.934	19750
818.075	19799
818.216	19799
818.356	19731
818.497	19563
818.638	19453
818.778	19457
818.919	19369
819.06	19438
819.2	19582
819.341	19712
819.481	19693
819.622	19864
819.762	19890
819.903	19791
820.043	19932
820.184	19738
820.324	19753
820.465	19822
820.605	19647
820.746	19666
820.886	19651
821.026	19761
821.167	19761
821.307	19765
821.447	19734
821.588	19552
821.728	19457
821.868	19278
822.008	19171
822.149	19114
822.289	19183
822.429	18859
822.569	18882
822.709	18840
822.849	18665
822.99	18593
823.13	18677
823.27	18555
823.41	18471
823.55	18395
823.69	18494
823.83	18460
823.97	18441
824.11	18224
824.25	18292
824.389	18258
824.529	18277
824.669	18121
824.809	18247
824.949	18273
825.089	18186
825.228	18186
825.368	18003
825.508	18034
825.648	18038
825.787	18057
825.927	18129
826.067	18083
826.206	17977
826.346	18003
826.485	17996
826.625	17973
826.765	18148
826.904	18102
827.044	17767
827.183	17805
827.323	17657
827.462	17745
827.601	17752
827.741	17619
827.88	17604
828.02	17585
828.159	17687
828.298	17707
828.437	17748
828.577	17661
828.716	17798
828.855	17703
828.994	17497
829.134	17486
829.273	17543
829.412	17490
829.551	17383
829.69	17482
829.829	17467
829.968	17497
830.107	17539
830.246	17467
830.385	17398
830.524	17246
830.663	17204
830.802	17121
830.941	17102
831.08	16995
831.219	17056
831.357	17132
831.496	17200
831.635	17105
831.774	16934
831.913	16919
832.051	16869
832.19	16854
832.329	16835
832.467	16752
832.606	16649
832.744	16790
832.883	16717
833.022	16660
833.16	16809
833.299	16828
833.437	16828
833.576	16877
833.714	16869
833.852	16820
833.991	16809
834.129	16847
834.267	16835
834.406	16771
834.544	16862
834.682	16915
834.821	16782
834.959	16881
835.097	16767
835.235	16942
835.373	16752
835.511	16725
835.65	16752
835.788	16668
835.926	16489
836.064	16508
836.202	16440
836.34	16679
836.478	16771
836.615	16713
836.753	16694
836.891	16774
837.029	16736
837.167	16706
837.305	16634
837.443	16500
837.58	16535
837.718	16634
837.856	16561
837.993	16512
838.131	16554
838.269	16402
838.406	16516
838.544	16375
838.681	16162
838.819	16200
838.956	16135
839.094	15987
839.231	16093
839.369	16314
839.506	16485
839.643	16318
839.781	16124
839.918	15956
840.055	16090
840.193	16059
840.33	16093
840.467	16071
840.604	16082
840.742	16344
840.879	16036
841.016	15956
841.153	15983
841.29	16177
841.427	16071
841.564	16230
841.701	16116
841.838	16010
841.975	16025
842.112	16074
842.249	15930
842.385	15781
842.522	16036
842.659	15968
842.796	15812
842.933	15846
843.069	15899
843.206	15857
843.343	15953
843.479	15899
843.616	15800
843.752	15675
843.889	15587
844.025	15800
844.162	15781
844.298	15713
844.435	15694
844.571	15622
844.708	15644
844.844	15785
844.98	15930
845.117	15701
845.253	15576
845.389	15587
845.525	15530
845.661	15656
845.798	15477
845.934	15633
846.07	15393
846.206	15648
846.342	15667
846.478	15511
846.614	15226
846.75	15268
846.886	15222
847.022	15321
847.158	15203
847.294	15180
847.429	15226
847.565	15165
847.701	15492
847.837	14929
847.972	14990
848.108	14998
848.244	15005
848.379	14819
848.515	14921
848.65	14823
848.786	14830
848.921	14830
849.057	14967
849.192	14868
849.328	14883
849.463	14868
849.598	14804
849.734	14678
849.869	14640
850.004	14663
850.14	14590
850.275	14606
850.41	14541
850.545	14537
850.68	14541
850.815	14602
850.95	14549
851.085	14781
851.22	14712
851.355	14606
851.49	14602
851.625	14541
851.76	14526
851.895	14476
852.03	14514
852.165	14606
852.299	14670
852.434	14678
852.569	14621
852.703	14632
852.838	14693
852.973	14765
853.107	14754
853.242	14571
853.376	14488
853.511	14366
853.645	14427
853.78	14533
853.914	14465
854.048	14514
854.183	14480
854.317	14499
854.451	14522
854.585	14488
854.72	14313
854.854	14610
854.988	14431
855.122	14469
855.256	14419
855.39	14457
855.524	14560
855.658	14480
855.792	14442
855.926	14518
856.06	14442
856.194	14594
856.327	14461
856.461	14427
856.595	14438
856.729	14362
856.862	14522
856.996	14507
857.13	14598
857.263	14476
857.397	14617
857.53	14511
857.664	14564
857.797	14594
857.931	14537
858.064	14450
858.197	14469
858.331	14480
858.464	14465
858.597	14309
858.731	14492
858.864	14492
858.997	14465
859.13	14518
859.263	14454
859.396	14526
859.529	14446
859.662	14457
859.795	14377
859.928	14526
860.061	14689
860.194	14610
860.327	14495
860.46	14526
860.592	14640
860.725	14473
860.858	14503
860.99	14431
861.123	14404
861.256	14324
861.388	14396
861.521	15138
861.653	14237
861.786	14339
861.918	14298
862.05	14450
862.183	14358
862.315	14484
862.447	14522
862.58	14400
862.712	14320
862.844	14202
862.976	14336
863.108	14275
863.24	14735
863.372	14153
863.504	14290
863.636	14191
863.768	14339
863.9	14256
864.032	14149
864.164	14183
864.296	14294
864.428	14286
864.559	14336
864.691	14259
864.823	14324
864.954	14259
865.086	14377
865.217	14130
865.349	14206
865.48	14161
865.612	14248
865.743	14442
865.875	14206
866.006	14210
866.137	14168
866.269	14301
866.4	14210
866.531	14115
866.662	14275
866.793	14172
866.924	14164
867.055	14244
867.186	14176
867.317	14115
867.448	14123
867.579	14157
867.71	14050
867.841	14119
867.972	14191
868.103	14221
868.233	14214
868.364	14233
868.495	14290
868.625	14473
868.756	14564
868.886	14404
869.017	14351
869.147	14594
869.278	14571
869.408	14533
869.539	14518
869.669	14674
869.799	14423
869.929	14575
870.06	14499
870.19	14804
870.32	14815
870.45	14773
870.58	14899
870.71	14921
870.84	14979
870.97	14807
871.1	14872
871.23	14990
871.36	15051
871.489	14937
871.619	15001
871.749	15017
871.879	15009
872.008	15222
872.138	15085
872.267	15001
872.397	14948
872.526	14887
872.656	14834
872.785	14868
872.915	15055
873.044	15089
873.173	15077
873.303	15142
873.432	15108
873.561	15188
873.69	15127
873.819	15173
873.948	15127
874.077	15222
874.206	15173
874.335	15116
874.464	15355
874.593	15450
874.722	15340
874.851	15431
874.979	15458
875.108	15496
875.237	15321
875.365	15336
875.494	15351
875.623	15469
875.751	15359
875.88	15488
876.008	15663
876.136	15641
876.265	15895
876.393	15991
876.521	15937
876.65	15972
876.778	15895
876.906	15804
877.034	15660
877.162	15907
877.29	15762
877.418	15785
877.546	15873
877.674	15747
877.802	15717
877.93	15892
878.058	15720
878.185	15747
878.313	15827
878.441	15865
878.568	15762
878.696	15759
878.824	15926
878.951	15972
879.079	15964
879.206	16169
879.333	15998
879.461	15930
879.588	15926
879.715	16036
879.842	16185
879.97	15918
880.097	15759
880.224	15591
880.351	15606
880.478	15762
880.605	15701
880.732	15644
880.859	15876
880.986	15682
881.112	15743
881.239	15545
881.366	15477
881.493	15386
881.619	15260
881.746	15344
881.872	15408
881.999	15332
882.125	15306
882.252	15374
882.378	15382
882.505	15488
882.631	15298
882.757	15176
882.883	15180
883.01	15214
883.136	15135
883.262	15020
883.388	15127
883.514	15070
883.64	15161
883.766	15119
883.892	15017
884.018	15001
884.143	15131
884.269	15222
884.395	14929
884.52	14727
884.646	14971
884.772	14887
884.897	14743
885.023	14933
885.148	15009
885.274	15036
885.399	14994
885.524	14975
885.65	14921
885.775	14845
885.9	14861
886.025	14899
886.15	14849
886.275	14800
886.4	14830
886.525	14811
886.65	14807
886.775	14670
886.9	15142
887.025	15093
887.149	14921
887.274	14796
887.399	14735
887.523	14659
887.648	14594
887.773	14507
887.897	14735
888.021	14758
888.146	14632
888.27	14785
888.395	14819
888.519	14792
888.643	14708
888.767	14739
888.891	14636
889.015	14480
889.139	14602
889.263	14541
889.387	14575
889.511	14872
889.635	14678
889.759	14507
889.883	14480
890.006	14598
890.13	14621
890.254	14556
890.377	14450
890.501	14355
890.624	14393
890.748	14446
890.871	14278
890.995	14221
891.118	14214
891.241	14191
891.364	14214
891.488	14362
891.611	14229
891.734	14362
891.857	14366
891.98	14263
892.103	14298
892.226	14305
892.349	14233
892.471	14168
892.594	14176
892.717	14286
892.839	14138
892.962	14218
893.085	14328
893.207	14206
893.33	14218
893.452	14199
893.575	14313
893.697	14225
893.819	14446
893.941	14419
894.064	14320
894.186	14145
894.308	14153
894.43	14347
894.552	14434
894.674	14393
894.796	14119
894.918	14267
895.04	14263
895.161	14332
895.283	14343
895.405	14199
895.526	14286
895.648	14423
895.769	14419
895.891	14381
896.012	14450
896.134	14438
896.255	14385
896.376	14484
896.498	14355
896.619	14423
896.74	14343
896.861	14431
896.982	14727
897.103	14880
897.224	14773
897.345	14678
897.466	14583
897.587	14716
897.708	14800
897.828	14750
897.949	14533
898.07	14537
898.19	14781
898.311	14765
898.431	14701
898.552	14701
898.672	14830
898.792	14838
898.913	14765
899.033	14788
899.153	14632
899.273	14476
899.393	14575
899.513	14594
899.633	14655
899.753	14617
899.873	14617
899.993	14629
900.113	14511
900.232	14602
900.352	14625
900.472	14499
900.591	14499
900.711	14522
900.83	14457
900.95	14674
901.069	14522
901.189	14404
901.308	14248
901.427	14130
901.546	14092
901.665	14157
901.784	14168
901.904	14008
902.023	13883
902.141	13849
902.26	13719
902.379	13799
902.498	13674
902.617	13658
902.735	13727
902.854	13742
902.973	13616
903.091	13460
903.21	13487
903.328	13407
903.446	13430
903.565	13266
903.683	13316
903.801	13175
903.919	13270
904.038	13206
904.156	13114
904.274	13198
904.392	13118
904.51	13080
904.627	13042
904.745	13129
904.863	13027
904.981	12867
905.098	12806
905.216	12760
905.334	12875
905.451	12837
905.569	12768
905.686	12779
905.803	12760
905.921	12604
906.038	12700
906.155	12616
906.272	12536
906.389	12513
906.506	12357
906.623	12357
906.74	12426
906.857	12277
906.974	12380
907.091	12327
907.208	12540
907.324	12437
907.441	12273
907.557	12159
907.674	12136
907.79	11999
907.907	12235
908.023	12171
908.139	12178
908.256	12072
908.372	12038
908.488	11927
908.604	11836
908.72	11984
908.836	11901
908.952	11866
909.068	11908
909.184	11935
909.3	11882
909.415	11954
909.531	11859
909.647	11653
909.762	11611
909.878	11630
909.993	11630
910.108	11680
910.224	11608
910.339	11604
910.454	11535
910.57	11505
910.685	11486
910.8	11710
910.915	11604
911.03	11505
911.145	11372
911.259	11391
911.374	11345
911.489	11284
911.604	11208
911.718	11140
911.833	11067
911.947	11056
912.062	10885
912.176	11136
912.291	11045
912.405	11162
912.519	11277
912.633	11330
912.748	11155
912.862	11067
912.976	11025
913.09	10896
913.204	10957
913.318	11025
913.431	11048
913.545	11075
913.659	11155
913.772	10980
913.886	10881
914	10854
914.113	10930
914.226	10987
914.34	10972
914.453	10858
914.566	10965
914.68	10854
914.793	10786
914.906	10622
915.019	10565
915.132	10668
915.245	10573
915.358	10634
915.47	10656
915.583	10588
915.696	10622
915.809	10744
915.921	10744
916.034	10622
916.146	10535
916.259	10554
916.371	10634
916.483	10584
916.595	10535
916.708	10577
916.82	10474
916.932	10455
917.044	10519
917.156	10512
917.268	10352
917.38	10432
917.491	10386
917.603	10382
917.715	10516
917.826	10535
917.938	10424
918.049	10344
918.161	10451
918.272	10603
918.384	10599
918.495	10481
918.606	10238
918.717	10310
918.828	10333
918.939	10318
919.05	10192
919.161	10318
919.272	10147
919.383	10185
919.494	10413
919.604	10516
919.715	10318
919.826	10238
919.936	10314
920.047	10413
920.157	10310
920.267	10474
920.378	10333
920.488	10303
920.598	10535
920.708	10694
920.818	10478
920.928	10451
921.038	10675
921.148	10653
921.258	10417
921.368	10284
921.477	10204
921.587	10166
921.697	10105
921.806	10181
921.916	10006
922.025	9892
922.134	9892
922.244	9823
922.353	9819
922.462	9774
922.571	9724
922.68	9530
922.789	9538
922.898	9500
923.007	9496
923.116	9591
923.224	9557
923.333	9462
923.442	9351
923.55	9469
923.659	9424
923.767	9428
923.876	9458
923.984	9511
924.092	9260
924.201	9348
924.309	9458
924.417	9481
924.525	9412
924.633	9348
924.741	10105
924.849	9226
924.956	9344
925.064	9253
925.172	9192
925.279	9173
925.387	9199
925.494	9268
925.602	9332
925.709	9260
925.816	9135
925.924	9203
926.031	9374
926.138	9203
926.245	9283
926.352	9195
926.459	9351
926.566	9374
926.673	9233
926.779	9093
926.886	9074
926.993	8960
927.099	8887
927.206	8895
927.312	8853
927.419	8960
927.525	8902
927.631	8937
927.737	8769
927.843	8815
927.95	8724
928.056	8727
928.162	8944
928.267	8872
928.373	9332
928.479	8899
928.585	8640
928.69	8819
928.796	8868
928.901	8712
929.007	8621
929.112	8743
929.218	8712
929.323	8636
929.428	8705
929.533	8777
929.638	8518
929.743	8568
929.848	8640
929.953	8583
930.058	8530
930.163	8393
930.267	8473
930.372	8522
930.477	8389
930.581	8674
930.685	8469
930.79	8324
930.894	8377
930.998	8423
931.103	8465
931.207	8145
931.311	8073
931.415	7982
931.519	7837
931.623	7845
