Data from test_V78500241_1844.txt Node
Date: Fri Mar 25 14:46:33 CST 2022
User: usil
Spectrometer: V785-0024
Trigger mode: 0
Integration Time (sec): 4.000000E-1
Scans to average: 1
Nonlinearity correction enabled: false
Boxcar width: 0
Storing dark spectrum: false
XAxis mode: Wavelengths
Number of Pixels in Spectrum: 1024
>>>>>Begin Spectral Data<<<<<
801.071	22200
801.214	22090
801.356	21732
801.499	21644
801.641	21458
801.783	21545
801.926	21587
802.068	21412
802.211	21393
802.353	21233
802.496	21077
802.638	21028
802.78	21058
802.923	20902
803.065	20823
803.208	20773
803.35	20785
803.492	20952
803.635	20906
803.777	20823
803.919	20986
804.061	21252
804.204	20857
804.346	20785
804.488	20754
804.63	20857
804.773	20682
804.915	20716
805.057	20777
805.199	20731
805.341	20746
805.483	21009
805.626	20880
805.768	20819
805.91	20731
806.052	20845
806.194	20739
806.336	20857
806.478	20621
806.62	20781
806.762	20792
806.904	20925
807.046	21275
807.188	21096
807.33	21047
807.472	21127
807.614	20975
807.756	21024
807.898	20899
808.04	20845
808.182	20765
808.324	20811
808.465	20785
808.607	21047
808.749	21096
808.891	21264
809.033	21283
809.174	21142
809.316	21131
809.458	21176
809.6	21131
809.741	21112
809.883	21195
810.025	21321
810.166	21302
810.308	21260
810.45	21146
810.591	21100
810.733	21055
810.875	20963
811.016	20720
811.158	20781
811.299	20925
811.441	21062
811.582	21116
811.724	20933
811.865	20887
812.007	20864
812.148	20887
812.29	20933
812.431	21013
812.573	21245
812.714	21344
812.855	21500
812.997	21492
813.138	21671
813.279	21534
813.421	21329
813.562	21332
813.703	21032
813.845	21138
813.986	20868
814.127	20644
814.268	20488
814.41	20415
814.551	20438
814.692	20511
814.833	20305
814.974	20408
815.115	20499
815.256	20176
815.397	20218
815.539	20313
815.68	20259
815.821	20103
815.962	20225
816.103	20107
816.244	20050
816.385	19906
816.526	19932
816.666	19731
816.807	19590
816.948	19708
817.089	19753
817.23	19571
817.371	19578
817.512	19616
817.653	19556
817.793	19480
817.934	19571
818.075	19556
818.216	19586
818.356	19476
818.497	19411
818.638	19407
818.778	19373
818.919	19225
819.06	19297
819.2	19346
819.341	19537
819.481	19460
819.622	19670
819.762	19868
819.903	19731
820.043	19674
820.184	19586
820.324	19635
820.465	19571
820.605	19518
820.746	19487
820.886	19495
821.026	19590
821.167	19460
821.307	19662
821.447	19510
821.588	19327
821.728	19266
821.868	19141
822.008	18878
822.149	18985
822.289	19012
822.429	18703
822.569	18688
822.709	18669
822.849	18441
822.99	18517
823.13	18456
823.27	18399
823.41	18197
823.55	18205
823.69	18277
823.83	18266
823.97	18163
824.11	18129
824.25	18034
824.389	18076
824.529	18129
824.669	18072
824.809	18076
824.949	18114
825.089	18072
825.228	18026
825.368	17878
825.508	17847
825.648	17836
825.787	17794
825.927	17817
826.067	17836
826.206	17878
826.346	17779
826.485	17908
826.625	17889
826.765	17912
826.904	17775
827.044	17467
827.183	17524
827.323	17486
827.462	17592
827.601	17410
827.741	17471
827.88	17608
828.02	17421
828.159	17512
828.298	17501
828.437	17570
828.577	17528
828.716	17611
828.855	17551
828.994	17235
829.134	17223
829.273	17318
829.412	17265
829.551	17075
829.69	17193
829.829	17326
829.968	17436
830.107	17345
830.246	17299
830.385	17322
830.524	17155
830.663	17143
830.802	17064
830.941	16854
831.08	16889
831.219	16961
831.357	16991
831.496	17086
831.635	16877
831.774	16820
831.913	16778
832.051	16706
832.19	16755
832.329	16740
832.467	16675
832.606	16546
832.744	16489
832.883	16512
833.022	16596
833.16	16603
833.299	16603
833.437	16550
833.576	16694
833.714	16626
833.852	16641
833.991	16588
834.129	16771
834.267	16668
834.406	16603
834.544	16835
834.682	16596
834.821	16664
834.959	16854
835.097	16634
835.235	16664
835.373	16653
835.511	16736
835.65	16611
835.788	16603
835.926	16565
836.064	16405
836.202	16341
836.34	16622
836.478	16656
836.615	16538
836.753	16615
836.891	16618
837.029	16592
837.167	16592
837.305	16455
837.443	16413
837.58	16356
837.718	16462
837.856	16344
837.993	16356
838.131	16356
838.269	16215
838.406	16451
838.544	16424
838.681	16124
838.819	16055
838.956	16013
839.094	15964
839.231	16013
839.369	16086
839.506	16306
839.643	16162
839.781	16036
839.918	15907
840.055	16036
840.193	15918
840.33	15994
840.467	16029
840.604	16048
840.742	16173
840.879	15846
841.016	15861
841.153	15857
841.29	16150
841.427	15987
841.564	15922
841.701	15945
841.838	16086
841.975	15983
842.112	15953
842.249	15800
842.385	15633
842.522	15915
842.659	15720
842.796	15762
842.933	15641
843.069	15701
843.206	15728
843.343	15922
843.479	15770
843.616	15789
843.752	15629
843.889	15511
844.025	15747
844.162	15587
844.298	15755
844.435	15519
844.571	15447
844.708	15549
844.844	15701
844.98	15682
845.117	15660
845.253	15500
845.389	15424
845.525	15534
845.661	15458
845.798	15325
845.934	15435
846.07	15363
846.206	15367
846.342	15310
846.478	15332
846.614	15302
846.75	15112
846.886	15104
847.022	15214
847.158	15150
847.294	15116
847.429	15119
847.565	15157
847.701	15252
847.837	14868
847.972	14891
848.108	14906
848.244	14941
848.379	14823
848.515	14636
848.65	14686
848.786	14663
848.921	14792
849.057	14902
849.192	14739
849.328	14712
849.463	14758
849.598	14655
849.734	14667
849.869	14625
850.004	14469
850.14	14537
850.275	14526
850.41	14454
850.545	14362
850.68	14442
850.815	14533
850.95	14393
851.085	14621
851.22	14629
851.355	14480
851.49	14495
851.625	14419
851.76	14419
851.895	14240
852.03	14419
852.165	14575
852.299	14514
852.434	14602
852.569	14526
852.703	14522
852.838	14537
852.973	14629
853.107	14587
853.242	14507
853.376	14320
853.511	14275
853.645	14278
853.78	14560
853.914	14332
854.048	14362
854.183	14339
854.317	14366
854.451	14530
854.585	14320
854.72	14332
854.854	14454
854.988	14339
855.122	14286
855.256	14221
855.39	14366
855.524	14450
855.658	14358
855.792	14298
855.926	14446
856.06	14408
856.194	14450
856.327	14309
856.461	14275
856.595	14290
856.729	14343
856.862	14526
856.996	14457
857.13	14533
857.263	14434
857.397	14419
857.53	14339
857.664	14415
857.797	14412
857.931	14423
858.064	14355
858.197	14389
858.331	14400
858.464	14244
858.597	14225
858.731	14389
858.864	14332
858.997	14362
859.13	14393
859.263	14484
859.396	14476
859.529	14309
859.662	14301
859.795	14237
859.928	14351
860.061	14431
860.194	14636
860.327	14415
860.46	14358
860.592	14495
860.725	14465
860.858	14495
860.99	14396
861.123	14377
861.256	14164
861.388	14347
861.521	15017
861.653	14187
861.786	14180
861.918	14240
862.05	14298
862.183	14259
862.315	14332
862.447	14385
862.58	14271
862.712	14107
862.844	14107
862.976	14123
863.108	14115
863.24	14492
863.372	14183
863.504	14100
863.636	14081
863.768	14168
863.9	14111
864.032	14111
864.164	14046
864.296	14206
864.428	14161
864.559	14176
864.691	14218
864.823	14183
864.954	14180
865.086	14206
865.217	14103
865.349	14088
865.48	14088
865.612	14149
865.743	14252
865.875	14161
866.006	14092
866.137	14145
866.269	14123
866.4	14043
866.531	14065
866.662	14031
866.793	14096
866.924	14126
867.055	14092
867.186	14062
867.317	14001
867.448	14100
867.579	14077
867.71	14039
867.841	14103
867.972	14168
868.103	14191
868.233	14164
868.364	14126
868.495	14237
868.625	14408
868.756	14476
868.886	14138
869.017	14301
869.147	14522
869.278	14549
869.408	14400
869.539	14377
869.669	14408
869.799	14404
869.929	14450
870.06	14408
870.19	14705
870.32	14640
870.45	14701
870.58	14819
870.71	14918
870.84	14857
870.97	14807
871.1	14746
871.23	14979
871.36	14921
871.489	14883
871.619	15020
871.749	14914
871.879	15005
872.008	15127
872.138	15009
872.267	14899
872.397	14868
872.526	14769
872.656	14830
872.785	14781
872.915	14979
873.044	15165
873.173	15001
873.303	15032
873.432	15066
873.561	15077
873.69	15074
873.819	15051
873.948	15104
874.077	15005
874.206	14994
874.335	14948
874.464	15161
874.593	15275
874.722	15222
874.851	15435
874.979	15363
875.108	15252
875.237	15306
875.365	15332
875.494	15222
875.623	15382
875.751	15313
875.88	15321
876.008	15401
876.136	15523
876.265	15751
876.393	15762
876.521	15789
876.65	15747
876.778	15816
876.906	15644
877.034	15709
877.162	15682
877.29	15671
877.418	15751
877.546	15835
877.674	15694
877.802	15770
877.93	15785
878.058	15686
878.185	15576
878.313	15656
878.441	15766
878.568	15652
878.696	15576
878.824	15789
878.951	15793
879.079	15960
879.206	16021
879.333	15907
879.461	15850
879.588	15778
879.715	15857
879.842	15983
879.97	15873
880.097	15713
880.224	15545
880.351	15587
880.478	15591
880.605	15618
880.732	15606
880.859	15819
880.986	15679
881.112	15663
881.239	15542
881.366	15367
881.493	15313
881.619	15222
881.746	15287
881.872	15268
881.999	15275
882.125	15233
882.252	15294
882.378	15283
882.505	15416
882.631	15245
882.757	15112
882.883	15169
883.01	15074
883.136	14925
883.262	14910
883.388	14956
883.514	15089
883.64	15199
883.766	15081
883.892	14937
884.018	14967
884.143	15119
884.269	15123
884.395	14834
884.52	14842
884.646	14689
884.772	14758
884.897	14697
885.023	14716
885.148	14838
885.274	14895
885.399	14815
885.524	14735
885.65	14655
885.775	14815
885.9	14773
886.025	14815
886.15	14838
886.275	14739
886.4	14670
886.525	14792
886.65	14583
886.775	14651
886.9	14868
887.025	14910
887.149	14792
887.274	14651
887.399	14457
887.523	14632
887.648	14469
887.773	14492
887.897	14640
888.021	14621
888.146	14495
888.27	14697
888.395	14773
888.519	14636
888.643	14701
888.767	14594
888.891	14602
889.015	14408
889.139	14537
889.263	14408
889.387	14594
889.511	14689
889.635	14594
889.759	14442
889.883	14415
890.006	14541
890.13	14590
890.254	14427
890.377	14484
890.501	14187
890.624	14320
890.748	14358
890.871	14111
890.995	14119
891.118	14092
891.241	14134
891.364	14164
891.488	14256
891.611	14199
891.734	14191
891.857	14202
891.98	14191
892.103	14221
892.226	14191
892.349	14191
892.471	13951
892.594	14054
892.717	14176
892.839	14153
892.962	14145
893.085	14229
893.207	14218
893.33	14024
893.452	14065
893.575	14096
893.697	14176
893.819	14332
893.941	14267
894.064	14282
894.186	14092
894.308	14191
894.43	14336
894.552	14473
894.674	14256
894.796	14183
894.918	14172
895.04	14275
895.161	14305
895.283	14271
895.405	14153
895.526	14252
895.648	14263
895.769	14301
895.891	14313
896.012	14415
896.134	14412
896.255	14343
896.376	14343
896.498	14301
896.619	14339
896.74	14259
896.861	14442
896.982	14682
897.103	14785
897.224	14629
897.345	14598
897.466	14556
897.587	14606
897.708	14632
897.828	14632
897.949	14594
898.07	14488
898.19	14560
898.311	14785
898.431	14545
898.552	14670
898.672	14754
898.792	14731
898.913	14762
899.033	14610
899.153	14454
899.273	14465
899.393	14450
899.513	14579
899.633	14488
899.753	14598
899.873	14556
899.993	14583
900.113	14549
900.232	14587
900.352	14537
900.472	14412
900.591	14298
900.711	14404
900.83	14275
900.95	14522
901.069	14549
901.189	14358
901.308	14035
901.427	14001
901.546	14107
901.665	14115
901.784	14130
901.904	13959
902.023	13887
902.141	13719
902.26	13563
902.379	13681
902.498	13624
902.617	13624
902.735	13662
902.854	13586
902.973	13620
903.091	13392
903.21	13403
903.328	13396
903.446	13270
903.565	13190
903.683	13308
903.801	13137
903.919	13152
904.038	13103
904.156	12989
904.274	13069
904.392	13000
904.51	12890
904.627	12920
904.745	13042
904.863	13046
904.981	12867
905.098	12734
905.216	12635
905.334	12787
905.451	12738
905.569	12684
905.686	12821
905.803	12665
905.921	12525
906.038	12566
906.155	12551
906.272	12414
906.389	12456
906.506	12338
906.623	12277
906.74	12247
906.857	12133
906.974	12277
907.091	12327
907.208	12407
907.324	12285
907.441	12220
907.557	12114
907.674	12102
907.79	11969
907.907	11965
908.023	12117
908.139	12079
908.256	12022
908.372	11954
908.488	11961
908.604	11840
908.72	11707
908.836	11870
908.952	11775
909.068	11798
909.184	11958
909.3	11779
909.415	11935
909.531	11809
909.647	11566
909.762	11619
909.878	11619
909.993	11627
910.108	11623
910.224	11551
910.339	11596
910.454	11455
910.57	11372
910.685	11353
910.8	11642
910.915	11600
911.03	11493
911.145	11307
911.259	11360
911.374	11231
911.489	11151
911.604	11079
911.718	10927
911.833	11025
911.947	10904
912.062	10908
912.176	11086
912.291	11048
912.405	11045
912.519	11239
912.633	11197
912.748	11014
912.862	11060
912.976	10942
913.09	10778
913.204	10854
913.318	10885
913.431	10995
913.545	10980
913.659	11018
913.772	10927
913.886	10847
914	10744
914.113	10877
914.226	10953
914.34	10911
914.453	10694
914.566	10919
914.68	10752
914.793	10694
914.906	10580
915.019	10432
915.132	10413
915.245	10535
915.358	10512
915.47	10622
915.583	10645
915.696	10596
915.809	10630
915.921	10694
916.034	10474
916.146	10436
916.259	10500
916.371	10679
916.483	10527
916.595	10386
916.708	10531
916.82	10489
916.932	10443
917.044	10413
917.156	10375
917.268	10367
917.38	10421
917.491	10363
917.603	10584
917.715	10443
917.826	10474
917.938	10382
918.049	10211
918.161	10322
918.272	10580
918.384	10538
918.495	10329
918.606	10158
918.717	10223
918.828	10257
918.939	10253
919.05	10173
919.161	10211
919.272	10044
919.383	10086
919.494	10318
919.604	10440
919.715	10341
919.826	10230
919.936	10219
920.047	10402
920.157	10246
920.267	10459
920.378	10306
920.488	10329
920.598	10497
920.708	10675
920.818	10474
920.928	10424
921.038	10615
921.148	10500
921.258	10303
921.368	10219
921.477	10150
921.587	10093
921.697	9953
921.806	10112
921.916	10048
922.025	9911
922.134	9835
922.244	9823
922.353	9846
922.462	9755
922.571	9736
922.68	9458
922.789	9530
922.898	9545
923.007	9435
923.116	9587
923.224	9492
923.333	9386
923.442	9416
923.55	9405
923.659	9393
923.767	9431
923.876	9386
923.984	9526
924.092	9329
924.201	9367
924.309	9363
924.417	9344
924.525	9283
924.633	9355
924.741	10242
924.849	9169
924.956	9283
925.064	9195
925.172	9039
925.279	9089
925.387	9157
925.494	9123
925.602	9310
925.709	9306
925.816	9070
925.924	9138
926.031	9195
926.138	9165
926.245	9203
926.352	9142
926.459	9256
926.566	9313
926.673	9127
926.779	9089
926.886	8929
926.993	8876
927.099	8872
927.206	8834
927.312	8773
927.419	8952
927.525	8918
927.631	8872
927.737	8826
927.843	8746
927.95	8701
928.056	8788
928.162	8826
928.267	8800
928.373	9408
928.479	8819
928.585	8617
928.69	8769
928.796	8838
928.901	8701
929.007	8552
929.112	8689
929.218	8640
929.323	8590
929.428	8625
929.533	8773
929.638	8495
929.743	8610
929.848	8613
929.953	8564
930.058	8484
930.163	8419
930.267	8385
930.372	8533
930.477	8305
930.581	8575
930.685	8412
930.79	8282
930.894	8328
930.998	8267
931.103	8423
931.207	8103
931.311	8107
931.415	7940
931.519	7833
931.623	7822
