Data from test_V78500241_1688.txt Node
Date: Fri Mar 25 14:45:28 CST 2022
User: usil
Spectrometer: V785-0024
Trigger mode: 0
Integration Time (sec): 4.000000E-1
Scans to average: 1
Nonlinearity correction enabled: false
Boxcar width: 0
Storing dark spectrum: false
XAxis mode: Wavelengths
Number of Pixels in Spectrum: 1024
>>>>>Begin Spectral Data<<<<<
801.071	22276
801.214	22173
801.356	21884
801.499	21892
801.641	21724
801.783	21667
801.926	21774
802.068	21618
802.211	21458
802.353	21416
802.496	21214
802.638	21237
802.78	21157
802.923	21024
803.065	20971
803.208	20971
803.35	21032
803.492	21032
803.635	21074
803.777	21001
803.919	21112
804.061	21416
804.204	21009
804.346	20929
804.488	20845
804.63	20933
804.773	20914
804.915	21032
805.057	20994
805.199	20887
805.341	20921
805.483	21184
805.626	21093
805.768	20918
805.91	20880
806.052	20861
806.194	20937
806.336	21043
806.478	20906
806.62	20838
806.762	21135
806.904	21135
807.046	21291
807.188	21195
807.33	21188
807.472	21222
807.614	21138
807.756	21192
807.898	21066
808.04	21024
808.182	21093
808.324	21074
808.465	21135
808.607	21294
808.749	21378
808.891	21408
809.033	21454
809.174	21412
809.316	21363
809.458	21249
809.6	21252
809.741	21420
809.883	21466
810.025	21633
810.166	21428
810.308	21462
810.45	21382
810.591	21359
810.733	21226
810.875	21173
811.016	20982
811.158	21043
811.299	21150
811.441	21123
811.582	21237
811.724	21096
811.865	21066
812.007	21005
812.148	21028
812.29	21051
812.431	21264
812.573	21351
812.714	21439
812.855	21580
812.997	21724
813.138	21774
813.279	21663
813.421	21561
813.562	21542
813.703	21355
813.845	21279
813.986	20899
814.127	20819
814.268	20769
814.41	20708
814.551	20564
814.692	20629
814.833	20613
814.974	20590
815.115	20644
815.256	20484
815.397	20454
815.539	20530
815.68	20381
815.821	20381
815.962	20377
816.103	20240
816.244	20263
816.385	20081
816.526	20050
816.666	19936
816.807	19658
816.948	19940
817.089	19841
817.23	19822
817.371	19852
817.512	19761
817.653	19643
817.793	19811
817.934	19734
818.075	19784
818.216	19731
818.356	19643
818.497	19571
818.638	19377
818.778	19453
818.919	19620
819.06	19518
819.2	19632
819.341	19696
819.481	19582
819.622	19868
819.762	19940
819.903	19989
820.043	19791
820.184	19837
820.324	19708
820.465	19757
820.605	19734
820.746	19757
820.886	19620
821.026	19704
821.167	19681
821.307	19715
821.447	19525
821.588	19563
821.728	19426
821.868	19369
822.008	19156
822.149	19133
822.289	19080
822.429	18852
822.569	18848
822.709	18802
822.849	18726
822.99	18578
823.13	18730
823.27	18612
823.41	18509
823.55	18327
823.69	18426
823.83	18448
823.97	18388
824.11	18098
824.25	18140
824.389	18201
824.529	18399
824.669	18190
824.809	18296
824.949	18273
825.089	18308
825.228	18194
825.368	18015
825.508	18049
825.648	18068
825.787	18068
825.927	18015
826.067	17980
826.206	17999
826.346	17954
826.485	18011
826.625	18030
826.765	18098
826.904	18034
827.044	17901
827.183	17809
827.323	17562
827.462	17661
827.601	17695
827.741	17703
827.88	17634
828.02	17516
828.159	17668
828.298	17592
828.437	17646
828.577	17577
828.716	17805
828.855	17615
828.994	17433
829.134	17345
829.273	17516
829.412	17330
829.551	17330
829.69	17376
829.829	17440
829.968	17554
830.107	17497
830.246	17433
830.385	17501
830.524	17311
830.663	17395
830.802	17204
830.941	17048
831.08	17075
831.219	17117
831.357	17052
831.496	17090
831.635	17010
831.774	16885
831.913	16949
832.051	16812
832.19	16934
832.329	16809
832.467	16679
832.606	16748
832.744	16713
832.883	16744
833.022	16664
833.16	16683
833.299	16831
833.437	16828
833.576	16740
833.714	16816
833.852	16748
833.991	16763
834.129	16873
834.267	16828
834.406	16763
834.544	16816
834.682	16771
834.821	16782
834.959	16972
835.097	16828
835.235	16869
835.373	16790
835.511	16816
835.65	16691
835.788	16797
835.926	16481
836.064	16546
836.202	16516
836.34	16615
836.478	16767
836.615	16622
836.753	16672
836.891	16820
837.029	16733
837.167	16660
837.305	16607
837.443	16481
837.58	16481
837.718	16588
837.856	16523
837.993	16455
838.131	16542
838.269	16398
838.406	16618
838.544	16352
838.681	16284
838.819	16215
838.956	16063
839.094	16090
839.231	16188
839.369	16158
839.506	16523
839.643	16344
839.781	16067
839.918	16017
840.055	16154
840.193	16177
840.33	15968
840.467	16082
840.604	16032
840.742	16287
840.879	16013
841.016	16025
841.153	15994
841.29	16109
841.427	16032
841.564	16150
841.701	16173
841.838	16040
841.975	15926
842.112	16002
842.249	15880
842.385	15880
842.522	16040
842.659	15911
842.796	15835
842.933	15865
843.069	15880
843.206	15842
843.343	15930
843.479	15869
843.616	15926
843.752	15675
843.889	15739
844.025	15838
844.162	15572
844.298	15781
844.435	15705
844.571	15584
844.708	15709
844.844	15880
844.98	15854
845.117	15766
845.253	15686
845.389	15572
845.525	15591
845.661	15519
845.798	15473
845.934	15435
846.07	15428
846.206	15587
846.342	15682
846.478	15511
846.614	15279
846.75	15138
846.886	15222
847.022	15291
847.158	15176
847.294	15237
847.429	15272
847.565	15237
847.701	15431
847.837	14918
847.972	14902
848.108	15036
848.244	15039
848.379	14815
848.515	14739
848.65	14807
848.786	14811
848.921	14864
849.057	14849
849.192	14914
849.328	14826
849.463	14872
849.598	14708
849.734	14773
849.869	14636
850.004	14590
850.14	14594
850.275	14583
850.41	14640
850.545	14473
850.68	14552
850.815	14663
850.95	14674
851.085	14861
851.22	14724
851.355	14598
851.49	14514
851.625	14613
851.76	14598
851.895	14427
852.03	14370
852.165	14602
852.299	14629
852.434	14682
852.569	14625
852.703	14617
852.838	14701
852.973	14663
853.107	14762
853.242	14492
853.376	14389
853.511	14377
853.645	14404
853.78	14537
853.914	14503
854.048	14385
854.183	14431
854.317	14457
854.451	14594
854.585	14457
854.72	14400
854.854	14575
854.988	14355
855.122	14564
855.256	14313
855.39	14377
855.524	14511
855.658	14552
855.792	14480
855.926	14415
856.06	14533
856.194	14526
856.327	14450
856.461	14412
856.595	14377
856.729	14423
856.862	14560
856.996	14415
857.13	14556
857.263	14522
857.397	14594
857.53	14454
857.664	14484
857.797	14533
857.931	14499
858.064	14533
858.197	14518
858.331	14446
858.464	14362
858.597	14332
858.731	14408
858.864	14393
858.997	14446
859.13	14484
859.263	14530
859.396	14454
859.529	14438
859.662	14358
859.795	14400
859.928	14511
860.061	14590
860.194	14659
860.327	14419
860.46	14446
860.592	14568
860.725	14476
860.858	14533
860.99	14507
861.123	14442
861.256	14366
861.388	14457
861.521	14994
861.653	14328
861.786	14320
861.918	14347
862.05	14339
862.183	14454
862.315	14473
862.447	14450
862.58	14332
862.712	14115
862.844	14100
862.976	14275
863.108	14271
863.24	14670
863.372	14043
863.504	14244
863.636	14206
863.768	14275
863.9	14214
864.032	14168
864.164	14225
864.296	14377
864.428	14389
864.559	14332
864.691	14320
864.823	14336
864.954	14298
865.086	14275
865.217	14229
865.349	14195
865.48	14149
865.612	14202
865.743	14419
865.875	14267
866.006	14191
866.137	14237
866.269	14191
866.4	14111
866.531	14233
866.662	14164
866.793	14142
866.924	14233
867.055	14305
867.186	14210
867.317	14191
867.448	14168
867.579	14115
867.71	14164
867.841	14130
867.972	14244
868.103	14202
868.233	14183
868.364	14157
868.495	14275
868.625	14522
868.756	14560
868.886	14355
869.017	14442
869.147	14526
869.278	14541
869.408	14514
869.539	14495
869.669	14583
869.799	14514
869.929	14667
870.06	14575
870.19	14845
870.32	14777
870.45	14868
870.58	14864
870.71	15028
870.84	15024
870.97	14941
871.1	14979
871.23	15104
871.36	15104
871.489	14910
871.619	15116
871.749	15017
871.879	15089
872.008	15199
872.138	15188
872.267	15169
872.397	14960
872.526	14986
872.656	14845
872.785	14914
872.915	15108
873.044	15237
873.173	15131
873.303	15180
873.432	15310
873.561	15165
873.69	15161
873.819	15237
873.948	15195
874.077	15112
874.206	15036
874.335	15066
874.464	15226
874.593	15408
874.722	15462
874.851	15526
874.979	15462
875.108	15466
875.237	15488
875.365	15393
875.494	15462
875.623	15473
875.751	15336
875.88	15603
876.008	15603
876.136	15652
876.265	15808
876.393	15918
876.521	15922
876.65	15876
876.778	15861
876.906	15873
877.034	15846
877.162	15823
877.29	15823
877.418	15918
877.546	15827
877.674	15850
877.802	15926
877.93	15865
878.058	15739
878.185	15827
878.313	15926
878.441	15842
878.568	15736
878.696	15835
878.824	15968
878.951	15884
879.079	16051
879.206	16173
879.333	16006
879.461	15884
879.588	15903
879.715	16021
879.842	16059
879.97	15922
880.097	15789
880.224	15614
880.351	15698
880.478	15808
880.605	15686
880.732	15599
880.859	15888
880.986	15785
881.112	15614
881.239	15622
881.366	15488
881.493	15492
881.619	15302
881.746	15310
881.872	15439
881.999	15321
882.125	15283
882.252	15382
882.378	15458
882.505	15511
882.631	15291
882.757	15146
882.883	15249
883.01	15195
883.136	15005
883.262	15066
883.388	15017
883.514	15272
883.64	15233
883.766	15116
883.892	15047
884.018	15074
884.143	15074
884.269	15260
884.395	15028
884.52	14891
884.646	14868
884.772	14781
884.897	14781
885.023	14891
885.148	14982
885.274	15020
885.399	14902
885.524	14826
885.65	14842
885.775	14872
885.9	14933
886.025	14982
886.15	14990
886.275	14842
886.4	14724
886.525	14796
886.65	14811
886.775	14792
886.9	14979
887.025	15097
887.149	14880
887.274	14754
887.399	14701
887.523	14636
887.648	14674
887.773	14644
887.897	14773
888.021	14811
888.146	14655
888.27	14842
888.395	14876
888.519	14762
888.643	14758
888.767	14739
888.891	14674
889.015	14632
889.139	14564
889.263	14583
889.387	14640
889.511	14750
889.635	14697
889.759	14541
889.883	14594
890.006	14610
890.13	14689
890.254	14492
890.377	14533
890.501	14294
890.624	14370
890.748	14412
890.871	14294
890.995	14176
891.118	14199
891.241	14252
891.364	14275
891.488	14298
891.611	14286
891.734	14267
891.857	14393
891.98	14282
892.103	14339
892.226	14328
892.349	14191
892.471	14164
892.594	14336
892.717	14263
892.839	14271
892.962	14244
893.085	14309
893.207	14191
893.33	14100
893.452	14210
893.575	14313
893.697	14149
893.819	14415
893.941	14457
894.064	14351
894.186	14206
894.308	14149
894.43	14377
894.552	14438
894.674	14469
894.796	14206
894.918	14301
895.04	14278
895.161	14366
895.283	14377
895.405	14305
895.526	14271
895.648	14370
895.769	14393
895.891	14427
896.012	14518
896.134	14495
896.255	14503
896.376	14305
896.498	14419
896.619	14522
896.74	14480
896.861	14545
896.982	14674
897.103	14864
897.224	14640
897.345	14648
897.466	14644
897.587	14758
897.708	14800
897.828	14693
897.949	14678
898.07	14579
898.19	14636
898.311	14876
898.431	14689
898.552	14804
898.672	14838
898.792	14952
898.913	14834
899.033	14712
899.153	14571
899.273	14495
899.393	14590
899.513	14693
899.633	14655
899.753	14568
899.873	14613
899.993	14625
900.113	14667
900.232	14678
900.352	14571
900.472	14511
900.591	14484
900.711	14507
900.83	14450
900.95	14564
901.069	14720
901.189	14469
901.308	14240
901.427	14134
901.546	14153
901.665	14172
901.784	14126
901.904	13970
902.023	13947
902.141	13852
902.26	13731
902.379	13807
902.498	13738
902.617	13719
902.735	13841
902.854	13704
902.973	13769
903.091	13499
903.21	13445
903.328	13540
903.446	13400
903.565	13297
903.683	13301
903.801	13194
903.919	13232
904.038	13282
904.156	13137
904.274	13232
904.392	13110
904.51	13110
904.627	13118
904.745	13217
904.863	13213
904.981	12928
905.098	12848
905.216	12776
905.334	12897
905.451	12863
905.569	12779
905.686	12825
905.803	12692
905.921	12658
906.038	12673
906.155	12631
906.272	12517
906.389	12521
906.506	12426
906.623	12433
906.74	12327
906.857	12342
906.974	12384
907.091	12521
907.208	12528
907.324	12445
907.441	12251
907.557	12171
907.674	12121
907.79	11980
907.907	12121
908.023	12194
908.139	12201
908.256	12133
908.372	12117
908.488	11996
908.604	11920
908.72	11939
908.836	11942
908.952	11866
909.068	11958
909.184	11939
909.3	11984
909.415	11980
909.531	11901
909.647	11672
909.762	11665
909.878	11623
909.993	11589
910.108	11657
910.224	11592
910.339	11585
910.454	11665
910.57	11520
910.685	11452
910.8	11710
910.915	11665
911.03	11581
911.145	11376
911.259	11330
911.374	11440
911.489	11284
911.604	11227
911.718	11083
911.833	11117
911.947	11056
912.062	10919
912.176	11140
912.291	11113
912.405	11083
912.519	11277
912.633	11402
912.748	11265
912.862	11060
912.976	11048
913.09	10900
913.204	10927
913.318	10968
913.431	11060
913.545	11067
913.659	11159
913.772	10965
913.886	10858
914	10869
914.113	10904
914.226	10965
914.34	10934
914.453	10820
914.566	10927
914.68	10752
914.793	10835
914.906	10664
915.019	10558
915.132	10580
915.245	10573
915.358	10603
915.47	10630
915.583	10668
915.696	10755
915.809	10721
915.921	10816
916.034	10615
916.146	10565
916.259	10481
916.371	10691
916.483	10626
916.595	10493
916.708	10573
916.82	10569
916.932	10577
917.044	10527
917.156	10523
917.268	10470
917.38	10443
917.491	10386
917.603	10440
917.715	10573
917.826	10504
917.938	10417
918.049	10284
918.161	10398
918.272	10618
918.384	10531
918.495	10436
918.606	10310
918.717	10242
918.828	10303
918.939	10394
919.05	10257
919.161	10344
919.272	10055
919.383	10185
919.494	10356
919.604	10481
919.715	10325
919.826	10371
919.936	10249
920.047	10325
920.157	10367
920.267	10538
920.378	10417
920.488	10375
920.598	10504
920.708	10615
920.818	10550
920.928	10466
921.038	10641
921.148	10599
921.258	10386
921.368	10322
921.477	10246
921.587	10109
921.697	10017
921.806	10207
921.916	10086
922.025	9892
922.134	9915
922.244	9800
922.353	9918
922.462	9667
922.571	9679
922.68	9549
922.789	9534
922.898	9568
923.007	9564
923.116	9599
923.224	9603
923.333	9492
923.442	9401
923.55	9469
923.659	9538
923.767	9507
923.876	9412
923.984	9496
924.092	9386
924.201	9443
924.309	9332
924.417	9485
924.525	9374
924.633	9401
924.741	10344
924.849	9195
924.956	9340
925.064	9245
925.172	9119
925.279	9195
925.387	9283
925.494	9154
925.602	9408
925.709	9332
925.816	9123
925.924	9214
926.031	9317
926.138	9203
926.245	9298
926.352	9108
926.459	9298
926.566	9272
926.673	9184
926.779	9119
926.886	9127
926.993	9020
927.099	8910
927.206	8941
927.312	8826
927.419	8956
927.525	8921
927.631	9020
927.737	8880
927.843	8815
927.95	8746
928.056	8807
928.162	8842
928.267	8891
928.373	9424
928.479	8906
928.585	8663
928.69	8727
928.796	8925
928.901	8674
929.007	8594
929.112	8674
929.218	8731
929.323	8613
929.428	8651
929.533	8739
929.638	8598
929.743	8621
929.848	8754
929.953	8636
930.058	8552
930.163	8355
930.267	8415
930.372	8522
930.477	8377
930.581	8602
930.685	8507
930.79	8332
930.894	8457
930.998	8343
931.103	8484
931.207	8107
931.311	8126
931.415	8054
931.519	7856
931.623	7811
