Data from test_V78500241_84.txt Node
Date: Fri Mar 25 14:34:18 CST 2022
User: usil
Spectrometer: V785-0024
Trigger mode: 0
Integration Time (sec): 4.000000E-1
Scans to average: 1
Nonlinearity correction enabled: false
Boxcar width: 0
Storing dark spectrum: false
XAxis mode: Wavelengths
Number of Pixels in Spectrum: 1024
>>>>>Begin Spectral Data<<<<<
801.071	28797
801.214	28721
801.356	28481
801.499	28451
801.641	28341
801.783	28257
801.926	28284
802.068	28242
802.211	28246
802.353	28097
802.496	28131
802.638	27789
802.78	27785
802.923	27819
803.065	27800
803.208	27930
803.35	27975
803.492	27949
803.635	28067
803.777	27945
803.919	27983
804.061	28219
804.204	27953
804.346	28017
804.488	27804
804.63	27888
804.773	27690
804.915	27892
805.057	27869
805.199	27865
805.341	27911
805.483	28029
805.626	28078
805.768	27797
805.91	27956
806.052	27945
806.194	27781
806.336	28013
806.478	28010
806.62	27960
806.762	28124
806.904	28211
807.046	28489
807.188	28181
807.33	28303
807.472	28447
807.614	28265
807.756	28329
807.898	28150
808.04	28048
808.182	28048
808.324	28074
808.465	28139
808.607	28287
808.749	28276
808.891	28478
809.033	28596
809.174	28440
809.316	28504
809.458	28360
809.6	28440
809.741	28580
809.883	28645
810.025	28687
810.166	28599
810.308	28645
810.45	28645
810.591	28607
810.733	28573
810.875	28432
811.016	28211
811.158	28398
811.299	28382
811.441	28481
811.582	28527
811.724	28382
811.865	28382
812.007	28280
812.148	28367
812.29	28455
812.431	28500
812.573	28679
812.714	28759
812.855	28763
812.997	28953
813.138	29056
813.279	28900
813.421	28923
813.562	28710
813.703	28626
813.845	28622
813.986	28166
814.127	28147
814.268	28059
814.41	28013
814.551	28029
814.692	27960
814.833	27899
814.974	28002
815.115	27907
815.256	27774
815.397	27899
815.539	27846
815.68	27667
815.821	27637
815.962	27827
816.103	27675
816.244	27572
816.385	27416
816.526	27389
816.666	27237
816.807	26967
816.948	27135
817.089	27256
817.23	27157
817.371	27116
817.512	26979
817.653	27005
817.793	27058
817.934	26994
818.075	26998
818.216	27032
818.356	27047
818.497	26914
818.638	26804
818.778	26819
818.919	26823
819.06	26830
819.2	26887
819.341	26963
819.481	26842
819.622	27070
819.762	27313
819.903	27287
820.043	27142
820.184	27017
820.324	26956
820.465	27112
820.605	27074
820.746	27013
820.886	26872
821.026	26971
821.167	26845
821.307	27062
821.447	26899
821.588	26762
821.728	26667
821.868	26507
822.008	26366
822.149	26305
822.289	26214
822.429	26237
822.569	26027
822.709	25959
822.849	25921
822.99	25753
823.13	25704
823.27	25753
823.41	25632
823.55	25460
823.69	25655
823.83	25521
823.97	25586
824.11	25316
824.25	25354
824.389	25320
824.529	25438
824.669	25301
824.809	25441
824.949	25426
825.089	25403
825.228	25346
825.368	25171
825.508	25320
825.648	25129
825.787	25187
825.927	25308
826.067	25160
826.206	25160
826.346	25145
826.485	25160
826.625	25141
826.765	25183
826.904	25263
827.044	24989
827.183	24829
827.323	24764
827.462	24882
827.601	24798
827.741	24913
827.88	24875
828.02	24745
828.159	24810
828.298	24779
828.437	24901
828.577	24730
828.716	24989
828.855	24658
828.994	24570
829.134	24547
829.273	24601
829.412	24369
829.551	24460
829.69	24483
829.829	24475
829.968	24555
830.107	24528
830.246	24460
830.385	24361
830.524	24323
830.663	24178
830.802	24194
830.941	24102
831.08	24041
831.219	24098
831.357	24102
831.496	24129
831.635	23996
831.774	23920
831.913	23969
832.051	23821
832.19	23642
832.329	23901
832.467	23627
832.606	23703
832.744	23619
832.883	23714
833.022	23798
833.16	23642
833.299	23615
833.437	23779
833.576	23695
833.714	23657
833.852	23695
833.991	23756
834.129	23764
834.267	23573
834.406	23516
834.544	23722
834.682	23726
834.821	23642
834.959	23802
835.097	23520
835.235	23638
835.373	23668
835.511	23608
835.65	23463
835.788	23562
835.926	23395
836.064	23406
836.202	23223
836.34	23417
836.478	23524
836.615	23436
836.753	23493
836.891	23509
837.029	23570
837.167	23326
837.305	23417
837.443	23337
837.58	23398
837.718	23273
837.856	23398
837.993	23326
838.131	23258
838.269	23098
838.406	23303
838.544	23044
838.681	22873
838.819	22927
838.956	22771
839.094	22740
839.231	22717
839.369	22915
839.506	23075
839.643	22831
839.781	22668
839.918	22599
840.055	22820
840.193	22538
840.33	22763
840.467	22656
840.604	22626
840.742	22911
840.879	22489
841.016	22557
841.153	22451
841.29	22824
841.427	22630
841.564	22687
841.701	22561
841.838	22443
841.975	22440
842.112	22485
842.249	22447
842.385	22295
842.522	22459
842.659	22382
842.796	22295
842.933	22318
843.069	22303
843.206	22173
843.343	22291
843.479	22329
843.616	22261
843.752	22086
843.889	22044
844.025	22105
844.162	22196
844.298	22173
844.435	22067
844.571	21865
844.708	22067
844.844	22158
844.98	22173
845.117	22070
845.253	21827
845.389	21907
845.525	21934
845.661	21838
845.798	21698
845.934	21793
846.07	21717
846.206	21736
846.342	21876
846.478	21732
846.614	21599
846.75	21572
846.886	21458
847.022	21511
847.158	21477
847.294	21580
847.429	21412
847.565	21351
847.701	21778
847.837	21028
847.972	21081
848.108	21154
848.244	21062
848.379	21001
848.515	20975
848.65	21043
848.786	21017
848.921	21066
849.057	21184
849.192	21020
849.328	20998
849.463	21123
849.598	21077
849.734	20864
849.869	20883
850.004	20872
850.14	20826
850.275	20781
850.41	20708
850.545	20549
850.68	20693
850.815	20708
850.95	20792
851.085	20952
851.22	20845
851.355	20724
851.49	20720
851.625	20739
851.76	20667
851.895	20530
852.03	20545
852.165	20575
852.299	20716
852.434	20758
852.569	20655
852.703	20651
852.838	20800
852.973	20815
853.107	20716
853.242	20606
853.376	20621
853.511	20385
853.645	20457
853.78	20651
853.914	20480
854.048	20438
854.183	20454
854.317	20545
854.451	20735
854.585	20385
854.72	20400
854.854	20575
854.988	20450
855.122	20549
855.256	20366
855.39	20522
855.524	20701
855.658	20560
855.792	20621
855.926	20480
856.06	20575
856.194	20492
856.327	20511
856.461	20351
856.595	20400
856.729	20579
856.862	20571
856.996	20575
857.13	20404
857.263	20606
857.397	20480
857.53	20492
857.664	20339
857.797	20541
857.931	20598
858.064	20568
858.197	20636
858.331	20442
858.464	20404
858.597	20438
858.731	20393
858.864	20438
858.997	20415
859.13	20415
859.263	20473
859.396	20507
859.529	20400
859.662	20343
859.795	20442
859.928	20473
860.061	20552
860.194	20530
860.327	20461
860.46	20366
860.592	20461
860.725	20427
860.858	20526
860.99	20332
861.123	20248
861.256	20195
861.388	20377
861.521	21062
861.653	20176
861.786	20256
861.918	20240
862.05	20484
862.183	20476
862.315	20518
862.447	20514
862.58	20366
862.712	20259
862.844	20088
862.976	20263
863.108	20233
863.24	20415
863.372	20092
863.504	20145
863.636	20096
863.768	20138
863.9	20073
864.032	20039
864.164	20115
864.296	20130
864.428	20111
864.559	20149
864.691	20145
864.823	20122
864.954	20111
865.086	20180
865.217	20077
865.349	19928
865.48	20073
865.612	19909
865.743	20134
865.875	20122
866.006	19925
866.137	20012
866.269	20027
866.4	19997
866.531	19978
866.662	19902
866.793	19921
866.924	19871
867.055	19909
867.186	19902
867.317	19951
867.448	19795
867.579	19982
867.71	19811
867.841	19788
867.972	19898
868.103	19955
868.233	19925
868.364	19951
868.495	20035
868.625	20111
868.756	20187
868.886	20077
869.017	20119
869.147	20282
869.278	20267
869.408	20187
869.539	20195
869.669	20282
869.799	20149
869.929	20252
870.06	20237
870.19	20427
870.32	20488
870.45	20461
870.58	20583
870.71	20693
870.84	20537
870.97	20575
871.1	20602
871.23	20792
871.36	20811
871.489	20568
871.619	20720
871.749	20670
871.879	20838
872.008	20769
872.138	20678
872.267	20811
872.397	20689
872.526	20480
872.656	20499
872.785	20564
872.915	20792
873.044	20834
873.173	20720
873.303	20758
873.432	20781
873.561	20739
873.69	20819
873.819	20838
873.948	20861
874.077	20887
874.206	20689
874.335	20758
874.464	20857
874.593	21036
874.722	20861
874.851	21017
874.979	21013
875.108	21085
875.237	21043
875.365	21009
875.494	21081
875.623	21119
875.751	20990
875.88	21009
876.008	21207
876.136	21195
876.265	21306
876.393	21462
876.521	21401
876.65	21454
876.778	21370
876.906	21412
877.034	21378
877.162	21412
877.29	21435
877.418	21317
877.546	21431
877.674	21420
877.802	21397
877.93	21367
878.058	21401
878.185	21344
878.313	21374
878.441	21492
878.568	21241
878.696	21374
878.824	21462
878.951	21378
879.079	21545
879.206	21724
879.333	21515
879.461	21492
879.588	21557
879.715	21568
879.842	21610
879.97	21401
880.097	21199
880.224	21256
880.351	21336
880.478	21313
880.605	21142
880.732	21332
880.859	21408
880.986	21222
881.112	21218
881.239	21165
881.366	20971
881.493	21001
881.619	20796
881.746	20708
881.872	20800
881.999	20781
882.125	20830
882.252	20739
882.378	20815
882.505	20880
882.631	20861
882.757	20564
882.883	20686
883.01	20590
883.136	20499
883.262	20434
883.388	20408
883.514	20568
883.64	20575
883.766	20381
883.892	20385
884.018	20400
884.143	20457
884.269	20609
884.395	20275
884.52	20240
884.646	20282
884.772	20107
884.897	20024
885.023	20210
885.148	20278
885.274	20415
885.399	20172
885.524	20206
885.65	20358
885.775	20237
885.9	20119
886.025	20317
886.15	20237
886.275	20168
886.4	20069
886.525	20035
886.65	20081
886.775	20096
886.9	20317
887.025	20431
887.149	20237
887.274	19970
887.399	19978
887.523	19875
887.648	19856
887.773	19734
887.897	19925
888.021	19921
888.146	19803
888.27	19982
888.395	19978
888.519	19928
888.643	19883
888.767	19928
888.891	19814
889.015	19651
889.139	19791
889.263	19715
889.387	19765
889.511	20008
889.635	19788
889.759	19616
889.883	19605
890.006	19795
890.13	19788
890.254	19643
890.377	19746
890.501	19563
890.624	19540
890.748	19552
890.871	19388
890.995	19289
891.118	19270
891.241	19202
891.364	19320
891.488	19422
891.611	19373
891.734	19335
891.857	19350
891.98	19365
892.103	19369
892.226	19274
892.349	19377
892.471	19244
892.594	19312
892.717	19358
892.839	19217
892.962	19095
893.085	19392
893.207	19190
893.33	19148
893.452	19122
893.575	19358
893.697	19156
893.819	19415
893.941	19453
894.064	19316
894.186	19198
894.308	19228
894.43	19183
894.552	19457
894.674	19324
894.796	19164
894.918	19198
895.04	19160
895.161	19247
895.283	19324
895.405	19206
895.526	19236
895.648	19225
895.769	19301
895.891	19228
896.012	19297
896.134	19320
896.255	19278
896.376	19255
896.498	19251
896.619	19297
896.74	19232
896.861	19350
896.982	19696
897.103	19784
897.224	19499
897.345	19552
897.466	19499
897.587	19575
897.708	19666
897.828	19586
897.949	19388
898.07	19430
898.19	19358
898.311	19495
898.431	19460
898.552	19620
898.672	19586
898.792	19651
898.913	19544
899.033	19373
899.153	19438
899.273	19183
899.393	19236
899.513	19327
899.633	19255
899.753	19190
899.873	19141
899.993	19308
900.113	19209
900.232	19346
900.352	19190
900.472	19137
900.591	19004
900.711	18993
900.83	19080
900.95	19164
901.069	19126
901.189	18996
901.308	18817
901.427	18681
901.546	18707
901.665	18677
901.784	18760
901.904	18578
902.023	18513
902.141	18182
902.26	18178
902.379	18308
902.498	18091
902.617	18235
902.735	18273
902.854	18060
902.973	18155
903.091	17889
903.21	17889
903.328	17847
903.446	17767
903.565	17623
903.683	17710
903.801	17490
903.919	17615
904.038	17611
904.156	17474
904.274	17471
904.392	17410
904.51	17356
904.627	17315
904.745	17433
904.863	17368
904.981	17193
905.098	17045
905.216	17010
905.334	17067
905.451	17003
905.569	16965
905.686	17025
905.803	16961
905.921	16923
906.038	16961
906.155	16801
906.272	16771
906.389	16752
906.506	16580
906.623	16542
906.74	16554
906.857	16466
906.974	16561
907.091	16565
907.208	16683
907.324	16489
907.441	16360
907.557	16192
907.674	16196
907.79	16162
907.907	16234
908.023	16322
908.139	16143
908.256	16154
908.372	16211
908.488	16139
908.604	15907
908.72	15854
908.836	15922
908.952	15911
909.068	16010
909.184	16036
909.3	15941
909.415	15865
909.531	16010
909.647	15698
909.762	15633
909.878	15564
909.993	15599
910.108	15603
910.224	15568
910.339	15690
910.454	15519
910.57	15439
910.685	15310
910.8	15629
910.915	15572
911.03	15340
911.145	15249
911.259	15233
911.374	15184
911.489	15146
911.604	15066
911.718	14960
911.833	15036
911.947	14872
912.062	14735
912.176	14887
912.291	14986
912.405	14937
912.519	15081
912.633	15108
912.748	14929
912.862	14895
912.976	14830
913.09	14640
913.204	14823
913.318	14769
913.431	14834
913.545	14823
913.659	14838
913.772	14739
913.886	14625
914	14617
914.113	14724
914.226	14640
914.34	14655
914.453	14507
914.566	14617
914.68	14442
914.793	14480
914.906	14248
915.019	14180
915.132	14195
915.245	14237
915.358	14202
915.47	14191
915.583	14221
915.696	14278
915.809	14385
915.921	14362
916.034	14195
916.146	14161
916.259	14065
916.371	14229
916.483	14119
916.595	14073
916.708	14134
916.82	14054
916.932	14073
917.044	14096
917.156	14016
917.268	13883
917.38	13864
917.491	13917
917.603	13894
917.715	13982
917.826	13909
917.938	13837
918.049	13681
918.161	13830
918.272	13921
918.384	13936
918.495	13780
918.606	13731
918.717	13578
918.828	13704
918.939	13696
919.05	13537
919.161	13616
919.272	13438
919.383	13415
919.494	13662
919.604	13727
919.715	13582
919.826	13578
919.936	13689
920.047	13643
920.157	13567
920.267	13811
920.378	13597
920.488	13567
920.598	13761
920.708	13932
920.818	13700
920.928	13723
921.038	13909
921.148	13852
921.258	13502
921.368	13495
921.477	13320
921.587	13301
921.697	13270
921.806	13411
921.916	13171
922.025	12985
922.134	12958
922.244	12996
922.353	13000
922.462	12856
922.571	12776
922.68	12696
922.789	12738
922.898	12639
923.007	12662
923.116	12692
923.224	12665
923.333	12563
923.442	12620
923.55	12521
923.659	12506
923.767	12517
923.876	12429
923.984	12502
924.092	12452
924.201	12479
924.309	12407
924.417	12494
924.525	12327
924.633	12334
924.741	13320
924.849	12053
924.956	12285
925.064	12129
925.172	12015
925.279	12091
925.387	12102
925.494	12144
925.602	12148
925.709	12194
925.816	12045
925.924	12068
926.031	12125
926.138	12030
926.245	12041
926.352	11958
926.459	12072
926.566	12140
926.673	11999
926.779	11866
926.886	11904
926.993	11722
927.099	11733
927.206	11611
927.312	11592
927.419	11733
927.525	11684
927.631	11760
927.737	11661
927.843	11539
927.95	11482
928.056	11562
928.162	11577
928.267	11592
928.373	12057
928.479	11543
928.585	11364
928.69	11490
928.796	11520
928.901	11360
929.007	11220
929.112	11383
929.218	11315
929.323	11341
929.428	11337
929.533	11406
929.638	11155
929.743	11250
929.848	11265
929.953	11178
930.058	11155
930.163	10896
930.267	10923
930.372	11071
930.477	10885
930.581	11136
930.685	10957
930.79	10797
930.894	10866
930.998	10862
931.103	11014
931.207	10573
931.311	10447
931.415	10478
931.519	10238
931.623	10139
