Data from test_V78500241_2976.txt Node
Date: Fri Mar 25 14:54:26 CST 2022
User: usil
Spectrometer: V785-0024
Trigger mode: 0
Integration Time (sec): 4.000000E-1
Scans to average: 1
Nonlinearity correction enabled: false
Boxcar width: 0
Storing dark spectrum: false
XAxis mode: Wavelengths
Number of Pixels in Spectrum: 1024
>>>>>Begin Spectral Data<<<<<
801.071	22093
801.214	21934
801.356	21739
801.499	21614
801.641	21428
801.783	21519
801.926	21393
802.068	21408
802.211	21321
802.353	21161
802.496	21062
802.638	20933
802.78	20975
802.923	20739
803.065	20788
803.208	20788
803.35	20823
803.492	20807
803.635	20956
803.777	20731
803.919	20868
804.061	21104
804.204	20921
804.346	20750
804.488	20651
804.63	20746
804.773	20659
804.915	20708
805.057	20823
805.199	20735
805.341	20712
805.483	20785
805.626	20845
805.768	20678
805.91	20705
806.052	20731
806.194	20651
806.336	20864
806.478	20621
806.62	20682
806.762	20788
806.904	20979
807.046	21036
807.188	20960
807.33	20842
807.472	21066
807.614	20933
807.756	20887
807.898	20826
808.04	20785
808.182	20667
808.324	20750
808.465	20796
808.607	20986
808.749	21055
808.891	21214
809.033	21157
809.174	21066
809.316	21055
809.458	21024
809.6	21104
809.741	21108
809.883	21077
810.025	21233
810.166	21214
810.308	21211
810.45	21199
810.591	21180
810.733	20941
810.875	20899
811.016	20636
811.158	20796
811.299	20853
811.441	20941
811.582	20891
811.724	20769
811.865	20842
812.007	20807
812.148	20914
812.29	20834
812.431	21135
812.573	21146
812.714	21154
812.855	21230
812.997	21359
813.138	21507
813.279	21466
813.421	21252
813.562	21233
813.703	21093
813.845	20941
813.986	20693
814.127	20545
814.268	20400
814.41	20495
814.551	20374
814.692	20427
814.833	20381
814.974	20381
815.115	20332
815.256	20214
815.397	20218
815.539	20218
815.68	20149
815.821	20088
815.962	20161
816.103	20092
816.244	19883
816.385	19807
816.526	19799
816.666	19738
816.807	19518
816.948	19639
817.089	19586
817.23	19556
817.371	19613
817.512	19533
817.653	19453
817.793	19464
817.934	19388
818.075	19620
818.216	19529
818.356	19312
818.497	19343
818.638	19194
818.778	19293
818.919	19190
819.06	19263
819.2	19259
819.341	19373
819.481	19438
819.622	19491
819.762	19814
819.903	19590
820.043	19521
820.184	19396
820.324	19464
820.465	19510
820.605	19521
820.746	19396
820.886	19312
821.026	19502
821.167	19430
821.307	19590
821.447	19441
821.588	19282
821.728	19217
821.868	18977
822.008	18943
822.149	18821
822.289	18825
822.429	18620
822.569	18486
822.709	18578
822.849	18239
822.99	18350
823.13	18289
823.27	18273
823.41	18209
823.55	18232
823.69	18216
823.83	18220
823.97	18133
824.11	17999
824.25	17931
824.389	17866
824.529	18076
824.669	17889
824.809	18007
824.949	18003
825.089	17863
825.228	17866
825.368	17828
825.508	17836
825.648	17790
825.787	17676
825.927	17798
826.067	17657
826.206	17653
826.346	17722
826.485	17653
826.625	17707
826.765	17802
826.904	17767
827.044	17570
827.183	17429
827.323	17379
827.462	17554
827.601	17535
827.741	17337
827.88	17414
828.02	17250
828.159	17368
828.298	17326
828.437	17471
828.577	17288
828.716	17493
828.855	17315
828.994	17223
829.134	17197
829.273	17322
829.412	17189
829.551	17170
829.69	17140
829.829	17193
829.968	17250
830.107	17185
830.246	17193
830.385	17079
830.524	17006
830.663	17003
830.802	16919
830.941	16797
831.08	16828
831.219	16782
831.357	16839
831.496	16984
831.635	16748
831.774	16691
831.913	16630
832.051	16603
832.19	16523
832.329	16569
832.467	16451
832.606	16363
832.744	16470
832.883	16379
833.022	16382
833.16	16481
833.299	16481
833.437	16527
833.576	16504
833.714	16489
833.852	16478
833.991	16550
834.129	16717
834.267	16523
834.406	16519
834.544	16577
834.682	16558
834.821	16565
834.959	16698
835.097	16478
835.235	16569
835.373	16569
835.511	16481
835.65	16375
835.788	16356
835.926	16215
836.064	16200
836.202	16234
836.34	16443
836.478	16500
836.615	16470
836.753	16432
836.891	16470
837.029	16428
837.167	16333
837.305	16371
837.443	16356
837.58	16200
837.718	16356
837.856	16318
837.993	16173
838.131	16219
838.269	16246
838.406	16314
838.544	16200
838.681	16097
838.819	15991
838.956	15800
839.094	15785
839.231	15797
839.369	15915
839.506	16067
839.643	16067
839.781	15793
839.918	15724
840.055	15755
840.193	15766
840.33	15808
840.467	15694
840.604	15819
840.742	16013
840.879	15622
841.016	15625
841.153	15720
841.29	15869
841.427	15747
841.564	15789
841.701	15797
841.838	15701
841.975	15778
842.112	15781
842.249	15660
842.385	15591
842.522	15755
842.659	15576
842.796	15591
842.933	15534
843.069	15599
843.206	15515
843.343	15660
843.479	15610
843.616	15652
843.752	15378
843.889	15416
844.025	15523
844.162	15329
844.298	15500
844.435	15386
844.571	15279
844.708	15492
844.844	15530
844.98	15515
845.117	15507
845.253	15325
845.389	15214
845.525	15317
845.661	15279
845.798	15157
845.934	15188
846.07	15135
846.206	15329
846.342	15336
846.478	15195
846.614	15039
846.75	14868
846.886	14880
847.022	14990
847.158	14944
847.294	15009
847.429	15001
847.565	14891
847.701	15184
847.837	14720
847.972	14644
848.108	14788
848.244	14739
848.379	14541
848.515	14511
848.65	14415
848.786	14552
848.921	14571
849.057	14602
849.192	14674
849.328	14522
849.463	14583
849.598	14484
849.734	14514
849.869	14476
850.004	14347
850.14	14286
850.275	14294
850.41	14298
850.545	14301
850.68	14324
850.815	14259
850.95	14248
851.085	14530
851.22	14446
851.355	14278
851.49	14328
851.625	14290
851.76	14294
851.895	14187
852.03	14126
852.165	14355
852.299	14240
852.434	14423
852.569	14313
852.703	14309
852.838	14461
852.973	14473
853.107	14347
853.242	14347
853.376	14313
853.511	14020
853.645	14233
853.78	14336
853.914	14164
854.048	14161
854.183	14195
854.317	14126
854.451	14267
854.585	14142
854.72	14237
854.854	14221
854.988	14092
855.122	14214
855.256	14012
855.39	14282
855.524	14214
855.658	14206
855.792	14263
855.926	14244
856.06	14225
856.194	14267
856.327	14164
856.461	14081
856.595	14233
856.729	14142
856.862	14301
856.996	14237
857.13	14286
857.263	14256
857.397	14225
857.53	14111
857.664	14317
857.797	14347
857.931	14366
858.064	14305
858.197	14305
858.331	14214
858.464	14115
858.597	14065
858.731	14191
858.864	14084
858.997	14084
859.13	14248
859.263	14187
859.396	14271
859.529	14096
859.662	14134
859.795	14012
859.928	14176
860.061	14351
860.194	14298
860.327	14149
860.46	14164
860.592	14309
860.725	14252
860.858	14290
860.99	14214
861.123	14039
861.256	14088
861.388	14172
861.521	14872
861.653	14062
861.786	14024
861.918	13993
862.05	14031
862.183	14126
862.315	14153
862.447	14252
862.58	14195
862.712	13940
862.844	13951
862.976	14020
863.108	14069
863.24	14522
863.372	13890
863.504	13898
863.636	13921
863.768	13925
863.9	14077
864.032	13917
864.164	13932
864.296	13989
864.428	14084
864.559	14107
864.691	13959
864.823	14039
864.954	14016
865.086	13993
865.217	13963
865.349	13788
865.48	13928
865.612	13993
865.743	14081
865.875	13944
866.006	13879
866.137	13947
866.269	13936
866.4	14001
866.531	13959
866.662	13947
866.793	13936
866.924	13928
867.055	13868
867.186	13925
867.317	13860
867.448	13841
867.579	13871
867.71	13811
867.841	13932
867.972	13940
868.103	13974
868.233	13947
868.364	13947
868.495	13955
868.625	14062
868.756	14278
868.886	14043
869.017	14180
869.147	14237
869.278	14347
869.408	14244
869.539	14126
869.669	14290
869.799	14278
869.929	14381
870.06	14298
870.19	14446
870.32	14579
870.45	14560
870.58	14640
870.71	14674
870.84	14613
870.97	14587
871.1	14587
871.23	14788
871.36	14743
871.489	14682
871.619	14769
871.749	14807
871.879	14769
872.008	14902
872.138	14720
872.267	14712
872.397	14712
872.526	14602
872.656	14488
872.785	14659
872.915	14800
873.044	14906
873.173	14807
873.303	14838
873.432	14880
873.561	14910
873.69	14739
873.819	14899
873.948	14853
874.077	14861
874.206	14830
874.335	14853
874.464	14998
874.593	15173
874.722	15066
874.851	15207
874.979	15184
875.108	15161
875.237	15169
875.365	15116
875.494	15135
875.623	15351
875.751	15047
875.88	15154
876.008	15264
876.136	15447
876.265	15599
876.393	15663
876.521	15595
876.65	15690
876.778	15618
876.906	15614
877.034	15523
877.162	15473
877.29	15458
877.418	15637
877.546	15610
877.674	15523
877.802	15603
877.93	15458
878.058	15458
878.185	15481
878.313	15500
878.441	15637
878.568	15462
878.696	15450
878.824	15538
878.951	15682
879.079	15804
879.206	15861
879.333	15671
879.461	15667
879.588	15736
879.715	15770
879.842	15903
879.97	15534
880.097	15428
880.224	15416
880.351	15431
880.478	15428
880.605	15428
880.732	15374
880.859	15580
880.986	15439
881.112	15538
881.239	15317
881.366	15230
881.493	15077
881.619	15055
881.746	14990
881.872	15154
881.999	15127
882.125	15093
882.252	15142
882.378	15036
882.505	15180
882.631	15058
882.757	14910
882.883	14887
883.01	14906
883.136	14811
883.262	14819
883.388	14667
883.514	14899
883.64	14956
883.766	14842
883.892	14785
884.018	14785
884.143	14842
884.269	14944
884.395	14659
884.52	14579
884.646	14552
884.772	14476
884.897	14560
885.023	14606
885.148	14663
885.274	14754
885.399	14670
885.524	14648
885.65	14636
885.775	14632
885.9	14632
886.025	14769
886.15	14621
886.275	14571
886.4	14518
886.525	14598
886.65	14465
886.775	14594
886.9	14724
887.025	14899
887.149	14667
887.274	14450
887.399	14423
887.523	14423
887.648	14396
887.773	14294
887.897	14457
888.021	14476
888.146	14427
888.27	14537
888.395	14533
888.519	14522
888.643	14518
888.767	14431
888.891	14377
889.015	14374
889.139	14305
889.263	14328
889.387	14438
889.511	14446
889.635	14362
889.759	14324
889.883	14256
890.006	14484
890.13	14423
890.254	14180
890.377	14225
890.501	14084
890.624	14005
890.748	14092
890.871	14005
890.995	13947
891.118	13944
891.241	14005
891.364	13978
891.488	14084
891.611	14062
891.734	14027
891.857	14065
891.98	13959
892.103	14077
892.226	14016
892.349	13978
892.471	13791
892.594	13959
892.717	14031
892.839	14050
892.962	13944
893.085	14058
893.207	13978
893.33	13913
893.452	13890
893.575	14119
893.697	13963
893.819	14172
893.941	14237
894.064	14195
894.186	13989
894.308	13947
894.43	14164
894.552	14195
894.674	14149
894.796	14035
894.918	14020
895.04	14043
895.161	14149
895.283	14138
895.405	13944
895.526	14111
895.648	14100
895.769	14161
895.891	14263
896.012	14282
896.134	14119
896.255	14267
896.376	14157
896.498	14259
896.619	14214
896.74	14176
896.861	14248
896.982	14575
897.103	14648
897.224	14431
897.345	14415
897.466	14408
897.587	14415
897.708	14625
897.828	14469
897.949	14317
898.07	14328
898.19	14442
898.311	14583
898.431	14404
898.552	14492
898.672	14625
898.792	14598
898.913	14503
899.033	14545
899.153	14377
899.273	14301
899.393	14469
899.513	14438
899.633	14423
899.753	14408
899.873	14480
899.993	14362
900.113	14484
900.232	14533
900.352	14431
900.472	14202
900.591	14218
900.711	14248
900.83	14225
900.95	14381
901.069	14404
901.189	14214
901.308	13970
901.427	13932
901.546	13940
901.665	13982
901.784	14027
901.904	13791
902.023	13795
902.141	13548
902.26	13533
902.379	13620
902.498	13529
902.617	13464
902.735	13571
902.854	13582
902.973	13453
903.091	13259
903.21	13263
903.328	13194
903.446	13072
903.565	13046
903.683	13069
903.801	13053
903.919	13107
904.038	12981
904.156	12973
904.274	13031
904.392	12909
904.51	12825
904.627	12932
904.745	12973
904.863	13031
904.981	12798
905.098	12620
905.216	12623
905.334	12631
905.451	12570
905.569	12521
905.686	12585
905.803	12532
905.921	12353
906.038	12494
906.155	12365
906.272	12315
906.389	12384
906.506	12220
906.623	12285
906.74	12220
906.857	12053
906.974	11999
907.091	12163
907.208	12391
907.324	12201
907.441	12133
907.557	11935
907.674	11893
907.79	11878
907.907	11885
908.023	11931
908.139	11992
908.256	11927
908.372	11828
908.488	11878
908.604	11703
908.72	11729
908.836	11630
908.952	11634
909.068	11718
909.184	11802
909.3	11714
909.415	11775
909.531	11638
909.647	11558
909.762	11471
909.878	11459
909.993	11379
910.108	11505
910.224	11395
910.339	11452
910.454	11368
910.57	11299
910.685	11273
910.8	11524
910.915	11436
911.03	11334
911.145	11197
911.259	11181
911.374	11094
911.489	11094
911.604	11033
911.718	10923
911.833	10946
911.947	10736
912.062	10660
912.176	10862
912.291	10873
912.405	10923
912.519	11113
912.633	11022
912.748	10949
912.862	10881
912.976	10820
913.09	10721
913.204	10736
913.318	10797
913.431	10778
913.545	10892
913.659	10908
913.772	10839
913.886	10736
914	10630
914.113	10691
914.226	10759
914.34	10767
914.453	10535
914.566	10721
914.68	10607
914.793	10554
914.906	10504
915.019	10318
915.132	10344
915.245	10337
915.358	10417
915.47	10386
915.583	10409
915.696	10493
915.809	10550
915.921	10535
916.034	10295
916.146	10367
916.259	10322
916.371	10474
916.483	10519
916.595	10318
916.708	10303
916.82	10287
916.932	10363
917.044	10291
917.156	10367
917.268	10207
917.38	10154
917.491	10154
917.603	10238
917.715	10428
917.826	10390
917.938	10329
918.049	10124
918.161	10181
918.272	10371
918.384	10390
918.495	10306
918.606	10177
918.717	9972
918.828	10177
918.939	10154
919.05	10002
919.161	10029
919.272	9956
919.383	10044
919.494	10166
919.604	10409
919.715	10097
919.826	10071
919.936	10109
920.047	10223
920.157	10200
920.267	10329
920.378	10303
920.488	10105
920.598	10348
920.708	10478
920.818	10402
920.928	10367
921.038	10508
921.148	10512
921.258	10223
921.368	10093
921.477	10063
921.587	10010
921.697	9979
921.806	10021
921.916	9831
922.025	9740
922.134	9694
922.244	9671
922.353	9671
922.462	9633
922.571	9545
922.68	9500
922.789	9469
922.898	9447
923.007	9332
923.116	9439
923.224	9389
923.333	9389
923.442	9344
923.55	9275
923.659	9332
923.767	9321
923.876	9287
923.984	9291
924.092	9226
924.201	9249
924.309	9256
924.417	9268
924.525	9230
924.633	9272
924.741	10200
924.849	9077
924.956	9203
925.064	8986
925.172	8963
925.279	9085
925.387	9097
925.494	9051
925.602	9150
925.709	9116
925.816	8967
925.924	9077
926.031	9222
926.138	9070
926.245	9123
926.352	8967
926.459	9154
926.566	9218
926.673	8963
926.779	9009
926.886	8971
926.993	8769
927.099	8804
927.206	8766
927.312	8674
927.419	8815
927.525	8758
927.631	8887
927.737	8777
927.843	8651
927.95	8568
928.056	8629
928.162	8716
928.267	8804
928.373	9313
928.479	8727
928.585	8499
928.69	8731
928.796	8720
928.901	8583
929.007	8454
929.112	8606
929.218	8598
929.323	8556
929.428	8457
929.533	8659
929.638	8473
929.743	8556
929.848	8465
929.953	8476
930.058	8396
930.163	8210
930.267	8233
930.372	8431
930.477	8256
930.581	8492
930.685	8381
930.79	8290
930.894	8282
930.998	8153
931.103	8336
931.207	8043
931.311	7997
931.415	7849
931.519	7715
931.623	7662
