Data from test_V78500241_2348.txt Node
Date: Fri Mar 25 14:50:03 CST 2022
User: usil
Spectrometer: V785-0024
Trigger mode: 0
Integration Time (sec): 4.000000E-1
Scans to average: 1
Nonlinearity correction enabled: false
Boxcar width: 0
Storing dark spectrum: false
XAxis mode: Wavelengths
Number of Pixels in Spectrum: 1024
>>>>>Begin Spectral Data<<<<<
801.071	22242
801.214	22002
801.356	21926
801.499	21660
801.641	21519
801.783	21580
801.926	21724
802.068	21462
802.211	21389
802.353	21306
802.496	21135
802.638	20910
802.78	21112
802.923	20971
803.065	20845
803.208	20914
803.35	20899
803.492	20857
803.635	20937
803.777	20861
803.919	20868
804.061	21150
804.204	21020
804.346	20785
804.488	20651
804.63	20880
804.773	20705
804.915	20807
805.057	20804
805.199	20781
805.341	20834
805.483	20914
805.626	20864
805.768	20731
805.91	20758
806.052	20800
806.194	20735
806.336	20910
806.478	20746
806.62	20606
806.762	20743
806.904	21001
807.046	21173
807.188	21066
807.33	21150
807.472	21195
807.614	21058
807.756	21020
807.898	20944
808.04	20838
808.182	20929
808.324	20872
808.465	20986
808.607	20979
808.749	21154
808.891	21264
809.033	21386
809.174	21188
809.316	21112
809.458	21154
809.6	21085
809.741	21222
809.883	21275
810.025	21226
810.166	21329
810.308	21298
810.45	21214
810.591	21256
810.733	21077
810.875	20937
811.016	20853
811.158	20754
811.299	20914
811.441	21020
811.582	20979
811.724	21043
811.865	20952
812.007	21017
812.148	20876
812.29	20998
812.431	21169
812.573	21138
812.714	21370
812.855	21462
812.997	21382
813.138	21660
813.279	21606
813.421	21481
813.562	21336
813.703	21150
813.845	21096
813.986	20762
814.127	20629
814.268	20575
814.41	20545
814.551	20412
814.692	20625
814.833	20404
814.974	20549
815.115	20442
815.256	20408
815.397	20355
815.539	20328
815.68	20214
815.821	20153
815.962	20130
816.103	20149
816.244	20027
816.385	19940
816.526	20046
816.666	19651
816.807	19601
816.948	19639
817.089	19772
817.23	19582
817.371	19594
817.512	19597
817.653	19556
817.793	19590
817.934	19533
818.075	19537
818.216	19548
818.356	19464
818.497	19415
818.638	19301
818.778	19160
818.919	19270
819.06	19339
819.2	19460
819.341	19552
819.481	19480
819.622	19586
819.762	19826
819.903	19788
820.043	19719
820.184	19700
820.324	19559
820.465	19616
820.605	19632
820.746	19510
820.886	19407
821.026	19601
821.167	19537
821.307	19582
821.447	19499
821.588	19392
821.728	19301
821.868	19213
822.008	18989
822.149	18920
822.289	18947
822.429	18764
822.569	18654
822.709	18688
822.849	18464
822.99	18399
823.13	18464
823.27	18380
823.41	18304
823.55	18266
823.69	18292
823.83	18311
823.97	18148
824.11	18007
824.25	17992
824.389	18140
824.529	18186
824.669	18060
824.809	18178
824.949	18079
825.089	18114
825.228	18053
825.368	17901
825.508	17878
825.648	17923
825.787	17813
825.927	17961
826.067	17882
826.206	17866
826.346	17836
826.485	17859
826.625	17863
826.765	17946
826.904	17779
827.044	17611
827.183	17558
827.323	17478
827.462	17524
827.601	17490
827.741	17497
827.88	17524
828.02	17467
828.159	17611
828.298	17482
828.437	17615
828.577	17452
828.716	17611
828.855	17497
828.994	17265
829.134	17189
829.273	17311
829.412	17181
829.551	17155
829.69	17318
829.829	17277
829.968	17448
830.107	17223
830.246	17345
830.385	17181
830.524	17128
830.663	17128
830.802	17003
830.941	16892
831.08	16881
831.219	16908
831.357	16965
831.496	17018
831.635	16778
831.774	16873
831.913	16809
832.051	16645
832.19	16664
832.329	16759
832.467	16607
832.606	16573
832.744	16554
832.883	16550
833.022	16577
833.16	16637
833.299	16622
833.437	16607
833.576	16588
833.714	16611
833.852	16599
833.991	16634
834.129	16653
834.267	16637
834.406	16622
834.544	16637
834.682	16637
834.821	16679
834.959	16748
835.097	16516
835.235	16687
835.373	16641
835.511	16596
835.65	16558
835.788	16527
835.926	16306
836.064	16333
836.202	16344
836.34	16573
836.478	16546
836.615	16478
836.753	16592
836.891	16584
837.029	16569
837.167	16417
837.305	16447
837.443	16428
837.58	16314
837.718	16432
837.856	16421
837.993	16382
838.131	16379
838.269	16287
838.406	16337
838.544	16185
838.681	16128
838.819	15964
838.956	15895
839.094	15926
839.231	16036
839.369	16059
839.506	16268
839.643	16097
839.781	15823
839.918	15861
840.055	15911
840.193	15937
840.33	15831
840.467	15972
840.604	15953
840.742	16112
840.879	15850
841.016	15816
841.153	15778
841.29	16097
841.427	16010
841.564	15949
841.701	15922
841.838	15895
841.975	15793
842.112	15888
842.249	15755
842.385	15652
842.522	15793
842.659	15739
842.796	15652
842.933	15705
843.069	15625
843.206	15641
843.343	15663
843.479	15584
843.616	15759
843.752	15473
843.889	15473
844.025	15682
844.162	15405
844.298	15572
844.435	15519
844.571	15523
844.708	15564
844.844	15652
844.98	15652
845.117	15557
845.253	15485
845.389	15348
845.525	15363
845.661	15382
845.798	15294
845.934	15272
846.07	15332
846.206	15256
846.342	15443
846.478	15348
846.614	15173
846.75	14986
846.886	14986
847.022	15154
847.158	15028
847.294	15104
847.429	15093
847.565	14937
847.701	15294
847.837	14826
847.972	14769
848.108	14929
848.244	14857
848.379	14670
848.515	14697
848.65	14579
848.786	14648
848.921	14636
849.057	14743
849.192	14785
849.328	14651
849.463	14697
849.598	14697
849.734	14499
849.869	14492
850.004	14396
850.14	14442
850.275	14454
850.41	14252
850.545	14324
850.68	14423
850.815	14454
850.95	14545
851.085	14575
851.22	14522
851.355	14465
851.49	14473
851.625	14434
851.76	14476
851.895	14282
852.03	14313
852.165	14370
852.299	14438
852.434	14533
852.569	14492
852.703	14381
852.838	14541
852.973	14522
853.107	14571
853.242	14347
853.376	14324
853.511	14229
853.645	14252
853.78	14339
853.914	14210
854.048	14191
854.183	14229
854.317	14244
854.451	14404
854.585	14259
854.72	14267
854.854	14374
854.988	14218
855.122	14176
855.256	14046
855.39	14252
855.524	14385
855.658	14400
855.792	14320
855.926	14282
856.06	14362
856.194	14412
856.327	14294
856.461	14153
856.595	14263
856.729	14343
856.862	14336
856.996	14263
857.13	14393
857.263	14389
857.397	14465
857.53	14298
857.664	14298
857.797	14450
857.931	14351
858.064	14294
858.197	14438
858.331	14305
858.464	14256
858.597	14176
858.731	14324
858.864	14358
858.997	14263
859.13	14263
859.263	14317
859.396	14396
859.529	14214
859.662	14252
859.795	14256
859.928	14248
860.061	14446
860.194	14454
860.327	14370
860.46	14324
860.592	14355
860.725	14339
860.858	14381
860.99	14172
861.123	14183
861.256	14305
861.388	14237
861.521	14819
861.653	14221
861.786	14142
861.918	14218
862.05	14252
862.183	14244
862.315	14229
862.447	14317
862.58	14221
862.712	14062
862.844	13986
862.976	14092
863.108	14081
863.24	14427
863.372	13982
863.504	14062
863.636	14035
863.768	14172
863.9	14096
864.032	13982
864.164	14001
864.296	14058
864.428	14210
864.559	14103
864.691	14164
864.823	14153
864.954	14092
865.086	14107
865.217	13936
865.349	13879
865.48	14058
865.612	14035
865.743	14229
865.875	14039
866.006	14016
866.137	14084
866.269	14069
866.4	13963
866.531	14001
866.662	13940
866.793	13993
866.924	14077
867.055	14062
867.186	13967
867.317	14020
867.448	13921
867.579	13959
867.71	13944
867.841	14062
867.972	14092
868.103	14005
868.233	14024
868.364	14054
868.495	14149
868.625	14218
868.756	14366
868.886	14172
869.017	14248
869.147	14415
869.278	14389
869.408	14358
869.539	14355
869.669	14355
869.799	14419
869.929	14427
870.06	14400
870.19	14651
870.32	14579
870.45	14625
870.58	14590
870.71	14708
870.84	14796
870.97	14674
871.1	14701
871.23	14861
871.36	14899
871.489	14773
871.619	14792
871.749	14864
871.879	14861
872.008	14960
872.138	14902
872.267	14902
872.397	14746
872.526	14682
872.656	14678
872.785	14739
872.915	14948
873.044	14994
873.173	14982
873.303	15017
873.432	14971
873.561	15001
873.69	14982
873.819	14963
873.948	14952
874.077	15009
874.206	14937
874.335	14979
874.464	15070
874.593	15176
874.722	15211
874.851	15291
874.979	15279
875.108	15336
875.237	15256
875.365	15176
875.494	15195
875.623	15279
875.751	15169
875.88	15237
876.008	15507
876.136	15462
876.265	15644
876.393	15759
876.521	15766
876.65	15770
876.778	15675
876.906	15584
877.034	15622
877.162	15644
877.29	15538
877.418	15587
877.546	15641
877.674	15682
877.802	15717
877.93	15584
878.058	15633
878.185	15739
878.313	15622
878.441	15698
878.568	15485
878.696	15618
878.824	15675
878.951	15705
879.079	15869
879.206	15960
879.333	15823
879.461	15728
879.588	15816
879.715	15808
879.842	15838
879.97	15762
880.097	15523
880.224	15534
880.351	15534
880.478	15534
880.605	15553
880.732	15492
880.859	15743
880.986	15466
881.112	15576
881.239	15424
881.366	15264
881.493	15188
881.619	15112
881.746	15226
881.872	15249
881.999	15093
882.125	15146
882.252	15192
882.378	15154
882.505	15256
882.631	15104
882.757	14956
882.883	15005
883.01	14956
883.136	14861
883.262	14868
883.388	14815
883.514	15070
883.64	15138
883.766	14956
883.892	14823
884.018	14735
884.143	14982
884.269	15043
884.395	14785
884.52	14746
884.646	14682
884.772	14632
884.897	14579
885.023	14735
885.148	14762
885.274	14842
885.399	14716
885.524	14788
885.65	14697
885.775	14743
885.9	14678
886.025	14796
886.15	14762
886.275	14629
886.4	14682
886.525	14720
886.65	14602
886.775	14606
886.9	14804
887.025	14982
887.149	14735
887.274	14454
887.399	14545
887.523	14514
887.648	14465
887.773	14423
887.897	14674
888.021	14613
888.146	14385
888.27	14594
888.395	14648
888.519	14587
888.643	14575
888.767	14587
888.891	14396
889.015	14389
889.139	14419
889.263	14412
889.387	14533
889.511	14560
889.635	14571
889.759	14370
889.883	14370
890.006	14366
890.13	14507
890.254	14370
890.377	14294
890.501	14202
890.624	14229
890.748	14336
890.871	14096
890.995	13947
891.118	14100
891.241	14027
891.364	14096
891.488	14183
891.611	14077
891.734	14142
891.857	14199
891.98	14142
892.103	14180
892.226	14149
892.349	14062
892.471	13917
892.594	14024
892.717	14054
892.839	14073
892.962	14142
893.085	14115
893.207	13997
893.33	13970
893.452	13986
893.575	14084
893.697	14100
893.819	14290
893.941	14320
894.064	14195
894.186	14073
894.308	14050
894.43	14157
894.552	14305
894.674	14233
894.796	14145
894.918	14126
895.04	14103
895.161	14191
895.283	14168
895.405	14161
895.526	14153
895.648	14210
895.769	14168
895.891	14240
896.012	14332
896.134	14191
896.255	14259
896.376	14267
896.498	14267
896.619	14206
896.74	14328
896.861	14336
896.982	14598
897.103	14804
897.224	14606
897.345	14560
897.466	14492
897.587	14495
897.708	14617
897.828	14564
897.949	14518
898.07	14404
898.19	14556
898.311	14625
898.431	14590
898.552	14678
898.672	14606
898.792	14678
898.913	14629
899.033	14473
899.153	14457
899.273	14374
899.393	14442
899.513	14457
899.633	14503
899.753	14537
899.873	14450
899.993	14446
900.113	14507
900.232	14564
900.352	14404
900.472	14358
900.591	14248
900.711	14412
900.83	14286
900.95	14393
901.069	14324
901.189	14275
901.308	14027
901.427	13959
901.546	14096
901.665	14096
901.784	14031
901.904	13986
902.023	13860
902.141	13575
902.26	13651
902.379	13613
902.498	13521
902.617	13491
902.735	13590
902.854	13571
902.973	13521
903.091	13369
903.21	13293
903.328	13164
903.446	13209
903.565	13171
903.683	13149
903.801	13027
903.919	13149
904.038	13198
904.156	13038
904.274	13034
904.392	13008
904.51	12913
904.627	13031
904.745	12859
904.863	13008
904.981	12798
905.098	12631
905.216	12703
905.334	12639
905.451	12639
905.569	12642
905.686	12642
905.803	12627
905.921	12391
906.038	12597
906.155	12456
906.272	12281
906.389	12506
906.506	12201
906.623	12224
906.74	12182
906.857	11984
906.974	12159
907.091	12304
907.208	12353
907.324	12243
907.441	12121
907.557	12049
907.674	11897
907.79	11908
907.907	11939
908.023	12102
908.139	11999
908.256	11950
908.372	11942
908.488	11874
908.604	11805
908.72	11672
908.836	11843
908.952	11775
909.068	11775
909.184	11805
909.3	11771
909.415	11790
909.531	11634
909.647	11558
909.762	11532
909.878	11467
909.993	11581
910.108	11505
910.224	11524
910.339	11436
910.454	11383
910.57	11387
910.685	11330
910.8	11570
910.915	11547
911.03	11448
911.145	11239
911.259	11242
911.374	11166
911.489	11162
911.604	11105
911.718	10949
911.833	10999
911.947	10885
912.062	10801
912.176	10892
912.291	11041
912.405	11006
912.519	11178
912.633	11113
912.748	11155
912.862	10976
912.976	10915
913.09	10763
913.204	10835
913.318	10843
913.431	10900
913.545	11014
913.659	11010
913.772	10908
913.886	10801
914	10687
914.113	10809
914.226	10816
914.34	10820
914.453	10626
914.566	10793
914.68	10675
914.793	10714
914.906	10512
915.019	10390
915.132	10360
915.245	10443
915.358	10508
915.47	10508
915.583	10523
915.696	10538
915.809	10645
915.921	10630
916.034	10489
916.146	10485
916.259	10390
916.371	10546
916.483	10497
916.595	10402
916.708	10455
916.82	10405
916.932	10375
917.044	10405
917.156	10398
917.268	10314
917.38	10379
917.491	10265
917.603	10322
917.715	10367
917.826	10462
917.938	10314
918.049	10200
918.161	10352
918.272	10432
918.384	10428
918.495	10333
918.606	10211
918.717	10204
918.828	10215
918.939	10238
919.05	10120
919.161	10166
919.272	9991
919.383	10071
919.494	10261
919.604	10459
919.715	10276
919.826	10181
919.936	10147
920.047	10272
920.157	10219
920.267	10382
920.378	10215
920.488	10139
920.598	10394
920.708	10573
920.818	10459
920.928	10371
921.038	10569
921.148	10550
921.258	10272
921.368	10181
921.477	10093
921.587	9956
921.697	9991
921.806	10101
921.916	9899
922.025	9778
922.134	9743
922.244	9751
922.353	9869
922.462	9663
922.571	9595
922.68	9435
922.789	9439
922.898	9439
923.007	9378
923.116	9485
923.224	9447
923.333	9424
923.442	9336
923.55	9302
923.659	9321
923.767	9424
923.876	9245
923.984	9405
924.092	9249
924.201	9355
924.309	9287
924.417	9355
924.525	9283
924.633	9325
924.741	10071
924.849	9097
924.956	9268
925.064	9195
925.172	9085
925.279	8998
925.387	9112
925.494	9097
925.602	9256
925.709	9157
925.816	9123
925.924	9123
926.031	9188
926.138	9169
926.245	9173
926.352	8982
926.459	9184
926.566	9264
926.673	9097
926.779	9036
926.886	8887
926.993	8845
927.099	8857
927.206	8804
927.312	8811
927.419	8944
927.525	8766
927.631	8960
927.737	8766
927.843	8708
927.95	8667
928.056	8674
928.162	8766
928.267	8807
928.373	9374
928.479	8830
928.585	8632
928.69	8754
928.796	8785
928.901	8629
929.007	8461
929.112	8701
929.218	8583
929.323	8568
929.428	8541
929.533	8689
929.638	8446
929.743	8518
929.848	8659
929.953	8549
930.058	8404
930.163	8282
930.267	8389
930.372	8499
930.477	8298
930.581	8476
930.685	8415
930.79	8237
930.894	8313
930.998	8187
931.103	8423
931.207	8046
931.311	8062
931.415	7906
931.519	7757
931.623	7708
