Data from test_V78500241_1207.txt Node
Date: Fri Mar 25 14:42:07 CST 2022
User: usil
Spectrometer: V785-0024
Trigger mode: 0
Integration Time (sec): 4.000000E-1
Scans to average: 1
Nonlinearity correction enabled: false
Boxcar width: 0
Storing dark spectrum: false
XAxis mode: Wavelengths
Number of Pixels in Spectrum: 1024
>>>>>Begin Spectral Data<<<<<
801.071	22478
801.214	22329
801.356	22200
801.499	22036
801.641	21736
801.783	21797
801.926	21823
802.068	21835
802.211	21732
802.353	21530
802.496	21424
802.638	21199
802.78	21252
802.923	21100
803.065	21146
803.208	21051
803.35	21173
803.492	21317
803.635	21268
803.777	21211
803.919	21173
804.061	21401
804.204	21195
804.346	21093
804.488	21062
804.63	21131
804.773	21062
804.915	21119
805.057	21214
805.199	21096
805.341	21256
805.483	21119
805.626	21176
805.768	21024
805.91	21039
806.052	21070
806.194	20971
806.336	21287
806.478	21013
806.62	21055
806.762	21256
806.904	21256
807.046	21591
807.188	21454
807.33	21386
807.472	21473
807.614	21431
807.756	21454
807.898	21382
808.04	21173
808.182	21211
808.324	21260
808.465	21085
808.607	21344
808.749	21504
808.891	21606
809.033	21713
809.174	21580
809.316	21473
809.458	21523
809.6	21477
809.741	21641
809.883	21580
810.025	21622
810.166	21698
810.308	21633
810.45	21583
810.591	21488
810.733	21306
810.875	21279
811.016	21135
811.158	21116
811.299	21268
811.441	21431
811.582	21386
811.724	21336
811.865	21272
812.007	21294
812.148	21370
812.29	21393
812.431	21454
812.573	21523
812.714	21610
812.855	21713
812.997	21728
813.138	22010
813.279	21823
813.421	21675
813.562	21743
813.703	21450
813.845	21424
813.986	21077
814.127	20933
814.268	20811
814.41	20861
814.551	20743
814.692	20716
814.833	20823
814.974	20807
815.115	20754
815.256	20655
815.397	20659
815.539	20594
815.68	20583
815.821	20358
815.962	20530
816.103	20476
816.244	20389
816.385	20404
816.526	20259
816.666	20168
816.807	19868
816.948	20016
817.089	20016
817.23	20115
817.371	19913
817.512	19986
817.653	20016
817.793	19951
817.934	20024
818.075	20043
818.216	19932
818.356	19807
818.497	19845
818.638	19689
818.778	19655
818.919	19674
819.06	19765
819.2	19693
819.341	19902
819.481	19879
819.622	19959
819.762	20130
819.903	20027
820.043	20031
820.184	19947
820.324	19955
820.465	20134
820.605	19982
820.746	19868
820.886	19898
821.026	19826
821.167	19917
821.307	20005
821.447	19826
821.588	19712
821.728	19651
821.868	19571
822.008	19392
822.149	19377
822.289	19316
822.429	19031
822.569	19042
822.709	18970
822.849	18837
822.99	18909
823.13	18844
823.27	18669
823.41	18646
823.55	18661
823.69	18639
823.83	18608
823.97	18506
824.11	18410
824.25	18388
824.389	18460
824.529	18475
824.669	18471
824.809	18429
824.949	18426
825.089	18460
825.228	18395
825.368	18262
825.508	18152
825.648	18182
825.787	18281
825.927	18224
826.067	18247
826.206	18144
826.346	18110
826.485	18220
826.625	18197
826.765	18410
826.904	18174
827.044	17916
827.183	17901
827.323	17824
827.462	17863
827.601	17969
827.741	17836
827.88	17863
828.02	17821
828.159	17885
828.298	17893
828.437	18015
828.577	17691
828.716	18076
828.855	17866
828.994	17623
829.134	17786
829.273	17668
829.412	17672
829.551	17676
829.69	17657
829.829	17672
829.968	17817
830.107	17737
830.246	17684
830.385	17684
830.524	17509
830.663	17509
830.802	17391
830.941	17250
831.08	17246
831.219	17368
831.357	17334
831.496	17425
831.635	17303
831.774	17265
831.913	17208
832.051	17124
832.19	16972
832.329	17147
832.467	16889
832.606	16904
832.744	17010
832.883	17041
833.022	17006
833.16	17014
833.299	17113
833.437	17045
833.576	16987
833.714	17006
833.852	17067
833.991	16999
834.129	17121
834.267	17048
834.406	17010
834.544	17056
834.682	17121
834.821	17094
834.959	17200
835.097	16991
835.235	17041
835.373	17086
835.511	17010
835.65	16976
835.788	16889
835.926	16797
836.064	16820
836.202	16649
836.34	16999
836.478	17048
836.615	16938
836.753	16919
836.891	17014
837.029	17033
837.167	16946
837.305	16835
837.443	16881
837.58	16771
837.718	16904
837.856	16831
837.993	16786
838.131	16801
838.269	16694
838.406	16934
838.544	16683
838.681	16382
838.819	16550
838.956	16265
839.094	16424
839.231	16417
839.369	16402
839.506	16752
839.643	16550
839.781	16314
839.918	16344
840.055	16417
840.193	16485
840.33	16352
840.467	16394
840.604	16318
840.742	16679
840.879	16185
841.016	16162
841.153	16223
841.29	16485
841.427	16363
841.564	16409
841.701	16291
841.838	16246
841.975	16318
842.112	16306
842.249	16242
842.385	16051
842.522	16417
842.659	16173
842.796	16192
842.933	16154
843.069	16112
843.206	16055
843.343	16192
843.479	16173
843.616	16230
843.752	15915
843.889	15846
844.025	16082
844.162	15937
844.298	16105
844.435	15994
844.571	15797
844.708	15922
844.844	16067
844.98	16082
845.117	16112
845.253	15968
845.389	15854
845.525	15850
845.661	15804
845.798	15709
845.934	15823
846.07	15759
846.206	15812
846.342	15899
846.478	15766
846.614	15618
846.75	15530
846.886	15557
847.022	15576
847.158	15481
847.294	15466
847.429	15515
847.565	15412
847.701	15701
847.837	15268
847.972	15192
848.108	15412
848.244	15298
848.379	15085
848.515	15157
848.65	15100
848.786	14979
848.921	15085
849.057	15211
849.192	15283
849.328	15150
849.463	15009
849.598	15001
849.734	15058
849.869	14967
850.004	14891
850.14	14864
850.275	14845
850.41	14769
850.545	14758
850.68	14811
850.815	14792
850.95	14910
851.085	15028
851.22	14937
851.355	14906
851.49	14838
851.625	14720
851.76	14826
851.895	14800
852.03	14785
852.165	14899
852.299	14864
852.434	14918
852.569	14944
852.703	14868
852.838	14842
852.973	14941
853.107	14963
853.242	14830
853.376	14739
853.511	14648
853.645	14712
853.78	14807
853.914	14648
854.048	14682
854.183	14667
854.317	14689
854.451	14891
854.585	14708
854.72	14644
854.854	14785
854.988	14629
855.122	14659
855.256	14545
855.39	14640
855.524	14807
855.658	14777
855.792	14792
855.926	14727
856.06	14663
856.194	14804
856.327	14800
856.461	14667
856.595	14731
856.729	14682
856.862	14792
856.996	14811
857.13	14826
857.263	14754
857.397	14925
857.53	14720
857.664	14830
857.797	14750
857.931	14785
858.064	14777
858.197	14853
858.331	14667
858.464	14648
858.597	14564
858.731	14716
858.864	14705
858.997	14746
859.13	14765
859.263	14716
859.396	14891
859.529	14613
859.662	14792
859.795	14651
859.928	14708
860.061	14872
860.194	14895
860.327	14682
860.46	14765
860.592	14876
860.725	14849
860.858	14815
860.99	14735
861.123	14636
861.256	14716
861.388	14796
861.521	15405
861.653	14575
861.786	14514
861.918	14720
862.05	14716
862.183	14632
862.315	14663
862.447	14708
862.58	14610
862.712	14522
862.844	14473
862.976	14560
863.108	14583
863.24	14906
863.372	14393
863.504	14450
863.636	14480
863.768	14545
863.9	14469
864.032	14385
864.164	14450
864.296	14499
864.428	14530
864.559	14556
864.691	14659
864.823	14423
864.954	14568
865.086	14568
865.217	14530
865.349	14351
865.48	14522
865.612	14465
865.743	14556
865.875	14457
866.006	14480
866.137	14511
866.269	14461
866.4	14526
866.531	14492
866.662	14339
866.793	14457
866.924	14476
867.055	14499
867.186	14476
867.317	14393
867.448	14366
867.579	14488
867.71	14370
867.841	14320
867.972	14587
868.103	14454
868.233	14518
868.364	14450
868.495	14526
868.625	14724
868.756	14823
868.886	14693
869.017	14663
869.147	14773
869.278	14792
869.408	14712
869.539	14735
869.669	14769
869.799	14781
869.929	14880
870.06	14842
870.19	15070
870.32	14948
870.45	15009
870.58	15097
870.71	15112
870.84	15256
870.97	15112
871.1	15051
871.23	15332
871.36	15389
871.489	15192
871.619	15321
871.749	15321
871.879	15359
872.008	15424
872.138	15237
872.267	15268
872.397	15218
872.526	15131
872.656	15260
872.785	15157
872.915	15367
873.044	15389
873.173	15428
873.303	15367
873.432	15359
873.561	15370
873.69	15447
873.819	15313
873.948	15462
874.077	15386
874.206	15241
874.335	15397
874.464	15481
874.593	15606
874.722	15576
874.851	15690
874.979	15694
875.108	15705
875.237	15576
875.365	15644
875.494	15690
875.623	15732
875.751	15618
875.88	15713
876.008	15827
876.136	15865
876.265	16063
876.393	16219
876.521	16196
876.65	16268
876.778	16093
876.906	15953
877.034	15991
877.162	16071
877.29	15972
877.418	16116
877.546	16032
877.674	16036
877.802	15956
877.93	16093
878.058	15987
878.185	15968
878.313	16082
878.441	16128
878.568	16002
878.696	15911
878.824	16051
878.951	16124
879.079	16238
879.206	16436
879.333	16306
879.461	16135
879.588	16188
879.715	16314
879.842	16417
879.97	16249
880.097	15964
880.224	15888
880.351	15854
880.478	15953
880.605	15846
880.732	15850
880.859	16181
880.986	16002
881.112	16029
881.239	15888
881.366	15717
881.493	15736
881.619	15553
881.746	15549
881.872	15553
881.999	15492
882.125	15557
882.252	15793
882.378	15557
882.505	15724
882.631	15511
882.757	15420
882.883	15466
883.01	15401
883.136	15386
883.262	15287
883.388	15287
883.514	15405
883.64	15389
883.766	15428
883.892	15214
884.018	15184
884.143	15374
884.269	15485
884.395	15264
884.52	15032
884.646	15097
884.772	15047
884.897	14986
885.023	15131
885.148	15203
885.274	15256
885.399	15275
885.524	15066
885.65	15062
885.775	15146
885.9	15169
886.025	15218
886.15	15173
886.275	15112
886.4	14998
886.525	15024
886.65	15043
886.775	14994
886.9	15207
887.025	15336
887.149	15077
887.274	15013
887.399	14982
887.523	14800
887.648	14750
887.773	14826
887.897	15001
888.021	15024
888.146	14819
888.27	15055
888.395	15074
888.519	14963
888.643	14960
888.767	14941
888.891	14842
889.015	14842
889.139	14800
889.263	14750
889.387	14826
889.511	14975
889.635	14906
889.759	14689
889.883	14857
890.006	14876
890.13	14883
890.254	14708
890.377	14686
890.501	14602
890.624	14545
890.748	14583
890.871	14545
890.995	14457
891.118	14370
891.241	14476
891.364	14457
891.488	14514
891.611	14434
891.734	14431
891.857	14556
891.98	14530
892.103	14514
892.226	14583
892.349	14507
892.471	14374
892.594	14313
892.717	14469
892.839	14381
892.962	14419
893.085	14530
893.207	14480
893.33	14336
893.452	14400
893.575	14533
893.697	14396
893.819	14575
893.941	14644
894.064	14530
894.186	14514
894.308	14514
894.43	14526
894.552	14663
894.674	14670
894.796	14393
894.918	14594
895.04	14431
895.161	14568
895.283	14564
895.405	14590
895.526	14541
895.648	14579
895.769	14602
895.891	14670
896.012	14640
896.134	14613
896.255	14636
896.376	14552
896.498	14484
896.619	14731
896.74	14590
896.861	14674
896.982	14960
897.103	15028
897.224	14880
897.345	14979
897.466	14834
897.587	14830
897.708	14994
897.828	14861
897.949	14777
898.07	14796
898.19	14804
898.311	14982
898.431	14902
898.552	14937
898.672	14956
898.792	15062
898.913	14906
899.033	14921
899.153	14853
899.273	14765
899.393	14842
899.513	14819
899.633	14838
899.753	14872
899.873	14781
899.993	14838
900.113	14697
900.232	14796
900.352	14705
900.472	14663
900.591	14629
900.711	14727
900.83	14560
900.95	14758
901.069	14716
901.189	14571
901.308	14381
901.427	14415
901.546	14259
901.665	14377
901.784	14358
901.904	14187
902.023	14134
902.141	13967
902.26	13925
902.379	13902
902.498	13890
902.617	13856
902.735	13963
902.854	13833
902.973	13909
903.091	13601
903.21	13537
903.328	13594
903.446	13601
903.565	13430
903.683	13514
903.801	13422
903.919	13457
904.038	13422
904.156	13209
904.274	13411
904.392	13183
904.51	13251
904.627	13194
904.745	13327
904.863	13339
904.981	13107
905.098	12985
905.216	12909
905.334	12985
905.451	12993
905.569	12886
905.686	12993
905.803	12932
905.921	12802
906.038	12875
906.155	12764
906.272	12650
906.389	12722
906.506	12620
906.623	12555
906.74	12479
906.857	12494
906.974	12513
907.091	12616
907.208	12646
907.324	12635
907.441	12460
907.557	12311
907.674	12266
907.79	12319
907.907	12178
908.023	12289
908.139	12361
908.256	12224
908.372	12194
908.488	12152
908.604	12072
908.72	12007
908.836	12015
908.952	12026
909.068	12095
909.184	12171
909.3	12072
909.415	12079
909.531	12007
909.647	11889
909.762	11832
909.878	11790
909.993	11859
910.108	11737
910.224	11767
910.339	11840
910.454	11668
910.57	11745
910.685	11638
910.8	11984
910.915	11855
911.03	11695
911.145	11497
911.259	11490
911.374	11543
911.489	11471
911.604	11455
911.718	11277
911.833	11220
911.947	11181
912.062	11094
912.176	11277
912.291	11296
912.405	11277
912.519	11448
912.633	11493
912.748	11307
912.862	11258
912.976	11117
913.09	11010
913.204	11147
913.318	11143
913.431	11212
913.545	11280
913.659	11261
913.772	11086
913.886	11025
914	10968
914.113	11159
914.226	11178
914.34	11109
914.453	10904
914.566	11102
914.68	10942
914.793	10957
914.906	10771
915.019	10763
915.132	10714
915.245	10740
915.358	10759
915.47	10801
915.583	10786
915.696	10809
915.809	10862
915.921	10946
916.034	10763
916.146	10641
916.259	10668
916.371	10862
916.483	10824
916.595	10694
916.708	10668
916.82	10656
916.932	10641
917.044	10611
917.156	10637
917.268	10565
917.38	10580
917.491	10618
917.603	10531
917.715	10565
917.826	10649
917.938	10569
918.049	10459
918.161	10546
918.272	10752
918.384	10706
918.495	10546
918.606	10504
918.717	10310
918.828	10447
918.939	10436
919.05	10333
919.161	10371
919.272	10143
919.383	10230
919.494	10417
919.604	10740
919.715	10493
919.826	10299
919.936	10417
920.047	10516
920.157	10455
920.267	10664
920.378	10466
920.488	10413
920.598	10653
920.708	10774
920.818	10634
920.928	10668
921.038	10774
921.148	10748
921.258	10558
921.368	10379
921.477	10341
921.587	10268
921.697	10177
921.806	10306
921.916	10200
922.025	10097
922.134	9926
922.244	9956
922.353	10082
922.462	9907
922.571	9949
922.68	9785
922.789	9686
922.898	9740
923.007	9603
923.116	9774
923.224	9675
923.333	9686
923.442	9610
923.55	9549
923.659	9603
923.767	9652
923.876	9488
923.984	9660
924.092	9496
924.201	9523
924.309	9492
924.417	9473
924.525	9504
924.633	9450
924.741	10207
924.849	9355
924.956	9431
925.064	9336
925.172	9218
925.279	9291
925.387	9412
925.494	9306
925.602	9412
925.709	9428
925.816	9317
925.924	9287
926.031	9412
926.138	9348
926.245	9336
926.352	9218
926.459	9397
926.566	9462
926.673	9294
926.779	9233
926.886	9226
926.993	9108
927.099	9062
927.206	8971
927.312	9051
927.419	9116
927.525	9047
927.631	9028
927.737	8872
927.843	8906
927.95	8785
928.056	8952
928.162	8906
928.267	9020
928.373	9580
928.479	9047
928.585	8823
928.69	9013
928.796	8986
928.901	8872
929.007	8701
929.112	8853
929.218	8838
929.323	8811
929.428	8746
929.533	8819
929.638	8731
929.743	8701
929.848	8785
929.953	8697
930.058	8629
930.163	8503
930.267	8465
930.372	8682
930.477	8480
930.581	8758
930.685	8625
930.79	8423
930.894	8503
930.998	8499
931.103	8602
931.207	8225
931.311	8145
931.415	8054
931.519	8005
931.623	7947
