Data from test_V78500241_3681.txt Node
Date: Fri Mar 25 14:59:20 CST 2022
User: usil
Spectrometer: V785-0024
Trigger mode: 0
Integration Time (sec): 4.000000E-1
Scans to average: 1
Nonlinearity correction enabled: false
Boxcar width: 0
Storing dark spectrum: false
XAxis mode: Wavelengths
Number of Pixels in Spectrum: 1024
>>>>>Begin Spectral Data<<<<<
801.071	21918
801.214	21808
801.356	21515
801.499	21462
801.641	21412
801.783	21252
801.926	21268
802.068	21294
802.211	21237
802.353	21058
802.496	20944
802.638	20887
802.78	20621
802.923	20689
803.065	20632
803.208	20686
803.35	20533
803.492	20621
803.635	20762
803.777	20735
803.919	20644
804.061	21039
804.204	20579
804.346	20571
804.488	20571
804.63	20587
804.773	20446
804.915	20651
805.057	20518
805.199	20393
805.341	20552
805.483	20526
805.626	20507
805.768	20404
805.91	20537
806.052	20564
806.194	20541
806.336	20724
806.478	20476
806.62	20480
806.762	20583
806.904	20549
807.046	20876
807.188	20895
807.33	20705
807.472	20830
807.614	20785
807.756	20796
807.898	20590
808.04	20560
808.182	20552
808.324	20537
808.465	20606
808.607	20682
808.749	20853
808.891	20941
809.033	21001
809.174	20975
809.316	20792
809.458	20849
809.6	20773
809.741	20941
809.883	20906
810.025	21051
810.166	21116
810.308	20998
810.45	20948
810.591	20948
810.733	20750
810.875	20716
811.016	20560
811.158	20560
811.299	20663
811.441	20785
811.582	20708
811.724	20644
811.865	20594
812.007	20533
812.148	20621
812.29	20663
812.431	20785
812.573	20895
812.714	20899
812.855	21123
812.997	21180
813.138	21382
813.279	21123
813.421	21077
813.562	21051
813.703	20925
813.845	20830
813.986	20438
814.127	20244
814.268	20332
814.41	20309
814.551	20145
814.692	20149
814.833	20077
814.974	20225
815.115	20202
815.256	20005
815.397	19978
815.539	20111
815.68	19879
815.821	19811
815.962	19818
816.103	19769
816.244	19841
816.385	19514
816.526	19662
816.666	19388
816.807	19316
816.948	19472
817.089	19480
817.23	19506
817.371	19225
817.512	19358
817.653	19304
817.793	19240
817.934	19274
818.075	19202
818.216	19304
818.356	19263
818.497	19213
818.638	19091
818.778	19012
818.919	19133
819.06	18993
819.2	19190
819.341	19225
819.481	19247
819.622	19266
819.762	19422
819.903	19434
820.043	19407
820.184	19274
820.324	19278
820.465	19335
820.605	19244
820.746	19270
820.886	19156
821.026	19187
821.167	19282
821.307	19316
821.447	19175
821.588	19118
821.728	19038
821.868	18863
822.008	18745
822.149	18688
822.289	18684
822.429	18559
822.569	18399
822.709	18323
822.849	18140
822.99	18064
823.13	18087
823.27	18125
823.41	18068
823.55	18049
823.69	18011
823.83	18041
823.97	17851
824.11	17771
824.25	17665
824.389	17859
824.529	17779
824.669	17726
824.809	18003
824.949	17817
825.089	17722
825.228	17802
825.368	17566
825.508	17528
825.648	17566
825.787	17638
825.927	17551
826.067	17501
826.206	17436
826.346	17535
826.485	17493
826.625	17459
826.765	17619
826.904	17627
827.044	17250
827.183	17326
827.323	17242
827.462	17341
827.601	17250
827.741	17239
827.88	17208
828.02	17075
828.159	17299
828.298	17303
828.437	17337
828.577	17132
828.716	17223
828.855	17060
828.994	16915
829.134	16946
829.273	16949
829.412	16949
829.551	16968
829.69	17056
829.829	16991
829.968	17090
830.107	17037
830.246	17029
830.385	16881
830.524	16915
830.663	16847
830.802	16736
830.941	16615
831.08	16592
831.219	16767
831.357	16664
831.496	16885
831.635	16599
831.774	16508
831.913	16554
832.051	16489
832.19	16394
832.329	16451
832.467	16325
832.606	16295
832.744	16272
832.883	16333
833.022	16268
833.16	16295
833.299	16367
833.437	16318
833.576	16363
833.714	16348
833.852	16333
833.991	16405
834.129	16402
834.267	16523
834.406	16333
834.544	16360
834.682	16405
834.821	16333
834.959	16527
835.097	16310
835.235	16436
835.373	16356
835.511	16333
835.65	16344
835.788	16291
835.926	16101
836.064	16093
836.202	16192
836.34	16329
836.478	16413
836.615	16207
836.753	16318
836.891	16451
837.029	16363
837.167	16249
837.305	16230
837.443	16226
837.58	16025
837.718	16154
837.856	16257
837.993	16116
838.131	16200
838.269	16215
838.406	16097
838.544	16044
838.681	15945
838.819	15892
838.956	15663
839.094	15701
839.231	15812
839.369	15797
839.506	16166
839.643	15934
839.781	15625
839.918	15648
840.055	15713
840.193	15739
840.33	15739
840.467	15686
840.604	15774
840.742	16044
840.879	15564
841.016	15587
841.153	15660
841.29	15964
841.427	15747
841.564	15736
841.701	15656
841.838	15694
841.975	15629
842.112	15644
842.249	15515
842.385	15477
842.522	15717
842.659	15606
842.796	15348
842.933	15393
843.069	15485
843.206	15408
843.343	15568
843.479	15591
843.616	15507
843.752	15329
843.889	15332
844.025	15450
844.162	15252
844.298	15344
844.435	15233
844.571	15287
844.708	15370
844.844	15458
844.98	15454
845.117	15431
845.253	15287
845.389	15199
845.525	15287
845.661	15195
845.798	15062
845.934	15135
846.07	15077
846.206	15169
846.342	15252
846.478	15100
846.614	14861
846.75	14857
846.886	14872
847.022	14864
847.158	14804
847.294	14880
847.429	14811
847.565	14937
847.701	15142
847.837	14686
847.972	14682
848.108	14739
848.244	14667
848.379	14560
848.515	14495
848.65	14408
848.786	14408
848.921	14518
849.057	14476
849.192	14522
849.328	14454
849.463	14454
849.598	14442
849.734	14434
849.869	14419
850.004	14263
850.14	14282
850.275	14248
850.41	14073
850.545	14199
850.68	14172
850.815	14229
850.95	14221
851.085	14400
851.22	14332
851.355	14259
851.49	14240
851.625	14240
851.76	14221
851.895	14233
852.03	14092
852.165	14229
852.299	14301
852.434	14206
852.569	14286
852.703	14183
852.838	14347
852.973	14400
853.107	14305
853.242	14320
853.376	14043
853.511	14103
853.645	14046
853.78	14351
853.914	14172
854.048	14103
854.183	14039
854.317	14191
854.451	14267
854.585	14164
854.72	14084
854.854	14221
854.988	14096
855.122	14043
855.256	13989
855.39	14180
855.524	14164
855.658	14062
855.792	14103
855.926	14206
856.06	14100
856.194	14290
856.327	14130
856.461	14062
856.595	13989
856.729	14103
856.862	14206
856.996	14168
857.13	14157
857.263	14286
857.397	14187
857.53	14183
857.664	14180
857.797	14161
857.931	14096
858.064	14214
858.197	14168
858.331	14149
858.464	14123
858.597	14035
858.731	14020
858.864	14168
858.997	14077
859.13	14157
859.263	14119
859.396	14199
859.529	14069
859.662	14103
859.795	14130
859.928	14161
860.061	14244
860.194	14278
860.327	14088
860.46	14149
860.592	14206
860.725	14157
860.858	14084
860.99	14225
861.123	14062
861.256	14012
861.388	14202
861.521	14815
861.653	14001
861.786	13830
861.918	14065
862.05	13909
862.183	14027
862.315	14103
862.447	14077
862.58	13932
862.712	13959
862.844	13750
862.976	13947
863.108	13887
863.24	14419
863.372	13837
863.504	13932
863.636	13906
863.768	13860
863.9	13898
864.032	13841
864.164	13913
864.296	13868
864.428	13955
864.559	13974
864.691	14046
864.823	14111
864.954	13947
865.086	13963
865.217	13978
865.349	13830
865.48	13902
865.612	13868
865.743	14039
865.875	13947
866.006	13944
866.137	13856
866.269	13898
866.4	13826
866.531	13845
866.662	13761
866.793	13837
866.924	13818
867.055	13982
867.186	13902
867.317	13860
867.448	13765
867.579	13841
867.71	13795
867.841	13674
867.972	13890
868.103	13974
868.233	13814
868.364	13856
868.495	14016
868.625	14092
868.756	14267
868.886	14054
869.017	14103
869.147	14168
869.278	14294
869.408	14259
869.539	14259
869.669	14237
869.799	14214
869.929	14256
870.06	14286
870.19	14488
870.32	14396
870.45	14450
870.58	14560
870.71	14659
870.84	14686
870.97	14579
871.1	14499
871.23	14689
871.36	14781
871.489	14705
871.619	14667
871.749	14769
871.879	14807
872.008	14872
872.138	14746
872.267	14781
872.397	14560
872.526	14708
872.656	14571
872.785	14636
872.915	14750
873.044	14872
873.173	14796
873.303	14819
873.432	14872
873.561	15032
873.69	14826
873.819	14861
873.948	14937
874.077	14895
874.206	14788
874.335	14845
874.464	14929
874.593	15081
874.722	15077
874.851	15039
874.979	15112
875.108	15222
875.237	15039
875.365	15043
875.494	15150
875.623	15195
875.751	15135
875.88	15119
876.008	15306
876.136	15378
876.265	15526
876.393	15591
876.521	15698
876.65	15633
876.778	15526
876.906	15511
877.034	15538
877.162	15576
877.29	15549
877.418	15549
877.546	15557
877.674	15591
877.802	15519
877.93	15595
878.058	15488
878.185	15439
878.313	15568
878.441	15549
878.568	15405
878.696	15454
878.824	15603
878.951	15606
879.079	15816
879.206	15759
879.333	15732
879.461	15641
879.588	15599
879.715	15812
879.842	15808
879.97	15637
880.097	15359
880.224	15473
880.351	15538
880.478	15378
880.605	15492
880.732	15336
880.859	15663
880.986	15420
881.112	15492
881.239	15336
881.366	15184
881.493	15108
881.619	15001
881.746	15036
881.872	15062
881.999	15062
882.125	15024
882.252	15226
882.378	15203
882.505	15230
882.631	14925
882.757	14834
882.883	14883
883.01	14857
883.136	14868
883.262	14773
883.388	14735
883.514	14899
883.64	15001
883.766	14800
883.892	14712
884.018	14842
884.143	14891
884.269	15024
884.395	14693
884.52	14610
884.646	14648
884.772	14571
884.897	14431
885.023	14606
885.148	14682
885.274	14739
885.399	14708
885.524	14579
885.65	14571
885.775	14556
885.9	14644
886.025	14727
886.15	14632
886.275	14549
886.4	14492
886.525	14552
886.65	14560
886.775	14518
886.9	14613
887.025	14769
887.149	14598
887.274	14499
887.399	14351
887.523	14396
887.648	14355
887.773	14336
887.897	14575
888.021	14355
888.146	14423
888.27	14537
888.395	14644
888.519	14412
888.643	14469
888.767	14450
888.891	14298
889.015	14202
889.139	14286
889.263	14282
889.387	14370
889.511	14469
889.635	14450
889.759	14286
889.883	14328
890.006	14446
890.13	14457
890.254	14248
890.377	14172
890.501	14111
890.624	14149
890.748	14195
890.871	13997
890.995	13913
891.118	13974
891.241	13913
891.364	14031
891.488	14134
891.611	13986
891.734	14039
891.857	13989
891.98	14145
892.103	14027
892.226	14012
892.349	13993
892.471	13822
892.594	13947
892.717	14077
892.839	14016
892.962	13989
893.085	14115
893.207	14043
893.33	13849
893.452	13928
893.575	14138
893.697	13909
893.819	14199
893.941	14259
894.064	14164
894.186	14050
894.308	14016
894.43	14107
894.552	14252
894.674	14180
894.796	14012
894.918	14054
895.04	14027
895.161	14065
895.283	14130
895.405	13997
895.526	14161
895.648	14233
895.769	14164
895.891	14123
896.012	14240
896.134	14256
896.255	14248
896.376	14218
896.498	14172
896.619	14164
896.74	14187
896.861	14123
896.982	14499
897.103	14629
897.224	14419
897.345	14362
897.466	14427
897.587	14461
897.708	14575
897.828	14545
897.949	14366
898.07	14309
898.19	14480
898.311	14499
898.431	14488
898.552	14522
898.672	14556
898.792	14625
898.913	14636
899.033	14423
899.153	14484
899.273	14290
899.393	14355
899.513	14324
899.633	14271
899.753	14328
899.873	14385
899.993	14412
900.113	14427
900.232	14412
900.352	14328
900.472	14278
900.591	14183
900.711	14172
900.83	14134
900.95	14332
901.069	14298
901.189	14119
901.308	13986
901.427	13849
901.546	13913
901.665	13879
901.784	14001
901.904	13887
902.023	13696
902.141	13480
902.26	13499
902.379	13544
902.498	13411
902.617	13464
902.735	13563
902.854	13415
902.973	13392
903.091	13270
903.21	13202
903.328	13183
903.446	13099
903.565	13084
903.683	13038
903.801	12901
903.919	13088
904.038	13095
904.156	12882
904.274	12932
904.392	12894
904.51	12863
904.627	12840
904.745	12932
904.863	12890
904.981	12654
905.098	12494
905.216	12585
905.334	12684
905.451	12547
905.569	12578
905.686	12593
905.803	12589
905.921	12464
906.038	12544
906.155	12426
906.272	12342
906.389	12414
906.506	12167
906.623	12235
906.74	12136
906.857	12091
906.974	12011
907.091	12232
907.208	12346
907.324	12102
907.441	12091
907.557	11908
907.674	11916
907.79	11923
907.907	11942
908.023	11973
908.139	11923
908.256	11882
908.372	11851
908.488	11794
908.604	11714
908.72	11642
908.836	11657
908.952	11649
909.068	11672
909.184	11737
909.3	11592
909.415	11733
909.531	11661
909.647	11398
909.762	11421
909.878	11376
909.993	11509
910.108	11440
910.224	11322
910.339	11433
910.454	11387
910.57	11326
910.685	11250
910.8	11524
910.915	11410
911.03	11349
911.145	11155
911.259	11159
911.374	11143
911.489	11045
911.604	11022
911.718	10957
911.833	10850
911.947	10934
912.062	10755
912.176	10873
912.291	10976
912.405	10850
912.519	11166
912.633	11052
912.748	11056
912.862	10908
912.976	10820
913.09	10641
913.204	10748
913.318	10729
913.431	10877
913.545	10915
913.659	10927
913.772	10805
913.886	10546
914	10622
914.113	10698
914.226	10809
914.34	10782
914.453	10558
914.566	10790
914.68	10649
914.793	10573
914.906	10462
915.019	10352
915.132	10371
915.245	10451
915.358	10470
915.47	10436
915.583	10386
915.696	10436
915.809	10573
915.921	10519
916.034	10382
916.146	10379
916.259	10341
916.371	10447
916.483	10402
916.595	10382
916.708	10375
916.82	10246
916.932	10371
917.044	10337
917.156	10356
917.268	10246
917.38	10207
917.491	10246
917.603	10356
917.715	10306
917.826	10303
917.938	10166
918.049	10109
918.161	10211
918.272	10421
918.384	10356
918.495	10322
918.606	10109
918.717	10044
918.828	10158
918.939	10196
919.05	10044
919.161	10040
919.272	9918
919.383	10025
919.494	10177
919.604	10341
919.715	10071
919.826	10036
919.936	10124
920.047	10211
920.157	10158
920.267	10379
920.378	10177
920.488	10090
920.598	10322
920.708	10481
920.818	10375
920.928	10310
921.038	10577
921.148	10489
921.258	10185
921.368	10124
921.477	10086
921.587	9998
921.697	9884
921.806	9972
921.916	9892
922.025	9713
922.134	9709
922.244	9618
922.353	9728
922.462	9629
922.571	9656
922.68	9469
922.789	9424
922.898	9389
923.007	9370
923.116	9458
923.224	9378
923.333	9389
923.442	9310
923.55	9256
923.659	9329
923.767	9310
923.876	9222
923.984	9359
924.092	9207
924.201	9230
924.309	9302
924.417	9272
924.525	9268
924.633	9211
924.741	9941
924.849	9020
924.956	9192
925.064	9028
925.172	8998
925.279	9077
925.387	9077
925.494	9058
925.602	9192
925.709	9142
925.816	9062
925.924	9032
926.031	9032
926.138	9013
926.245	9131
926.352	8971
926.459	9119
926.566	9161
926.673	8990
926.779	8845
926.886	8952
926.993	8785
927.099	8701
927.206	8754
927.312	8735
927.419	8895
927.525	8807
927.631	8857
927.737	8670
927.843	8674
927.95	8571
928.056	8651
928.162	8636
928.267	8712
928.373	9188
928.479	8746
928.585	8530
928.69	8739
928.796	8724
928.901	8659
929.007	8492
929.112	8568
929.218	8549
929.323	8526
929.428	8511
929.533	8632
929.638	8484
929.743	8412
929.848	8488
929.953	8476
930.058	8412
930.163	8298
930.267	8324
930.372	8415
930.477	8187
930.581	8465
930.685	8309
930.79	8145
930.894	8202
930.998	8229
931.103	8332
931.207	7970
931.311	7932
931.415	7845
931.519	7666
931.623	7696
