Data from test_V78500241_1045.txt Node
Date: Fri Mar 25 14:40:59 CST 2022
User: usil
Spectrometer: V785-0024
Trigger mode: 0
Integration Time (sec): 4.000000E-1
Scans to average: 1
Nonlinearity correction enabled: false
Boxcar width: 0
Storing dark spectrum: false
XAxis mode: Wavelengths
Number of Pixels in Spectrum: 1024
>>>>>Begin Spectral Data<<<<<
801.071	22930
801.214	22733
801.356	22618
801.499	22523
801.641	22337
801.783	22242
801.926	22333
802.068	22284
802.211	22025
802.353	22059
802.496	21705
802.638	21789
802.78	21603
802.923	21599
803.065	21599
803.208	21542
803.35	21515
803.492	21591
803.635	21644
803.777	21671
803.919	21557
804.061	21895
804.204	21614
804.346	21526
804.488	21416
804.63	21466
804.773	21450
804.915	21622
805.057	21633
805.199	21523
805.341	21591
805.483	21526
805.626	21675
805.768	21439
805.91	21587
806.052	21561
806.194	21504
806.336	21850
806.478	21648
806.62	21405
806.762	21656
806.904	21789
807.046	22177
807.188	21953
807.33	21987
807.472	21960
807.614	22006
807.756	22002
807.898	21895
808.04	21918
808.182	21880
808.324	22032
808.465	22116
808.607	22546
808.749	22626
808.891	22725
809.033	22824
809.174	22672
809.316	22535
809.458	22375
809.6	22242
809.741	22242
809.883	22177
810.025	22318
810.166	22318
810.308	22329
810.45	22150
810.591	22051
810.733	21987
810.875	21884
811.016	21831
811.158	21690
811.299	21831
811.441	21964
811.582	21934
811.724	21667
811.865	21728
812.007	21686
812.148	21766
812.29	21717
812.431	21892
812.573	22177
812.714	22059
812.855	22249
812.997	22299
813.138	22440
813.279	22466
813.421	22249
813.562	22143
813.703	22196
813.845	21903
813.986	21523
814.127	21496
814.268	21412
814.41	21332
814.551	21245
814.692	21367
814.833	21283
814.974	21173
815.115	21378
815.256	21081
815.397	21058
815.539	21173
815.68	21062
815.821	21009
815.962	21077
816.103	20994
816.244	20823
816.385	20849
816.526	20796
816.666	20549
816.807	20431
816.948	20530
817.089	20495
817.23	20374
817.371	20549
817.512	20423
817.653	20400
817.793	20431
817.934	20457
818.075	20507
818.216	20457
818.356	20427
818.497	20168
818.638	20153
818.778	20164
818.919	20161
819.06	20172
819.2	20119
819.341	20290
819.481	20278
819.622	20408
819.762	20495
819.903	20617
820.043	20484
820.184	20461
820.324	20366
820.465	20488
820.605	20499
820.746	20423
820.886	20248
821.026	20389
821.167	20412
821.307	20473
821.447	20336
821.588	20248
821.728	19959
821.868	19940
822.008	19689
822.149	19852
822.289	19723
822.429	19624
822.569	19381
822.709	19502
822.849	19373
822.99	19316
823.13	19320
823.27	19266
823.41	19019
823.55	19012
823.69	19110
823.83	19072
823.97	19065
824.11	18867
824.25	18802
824.389	18905
824.529	18897
824.669	18829
824.809	19023
824.949	18913
825.089	18882
825.228	18897
825.368	18692
825.508	18661
825.648	18719
825.787	18677
825.927	18688
826.067	18627
826.206	18608
826.346	18741
826.485	18665
826.625	18658
826.765	18635
826.904	18741
827.044	18601
827.183	18525
827.323	18247
827.462	18391
827.601	18292
827.741	18266
827.88	18460
828.02	18277
828.159	18277
828.298	18384
828.437	18376
828.577	18338
828.716	18502
828.855	18224
828.994	18201
829.134	18186
829.273	18057
829.412	18076
829.551	17992
829.69	18087
829.829	18194
829.968	18106
830.107	18098
830.246	18083
830.385	18083
830.524	18079
830.663	17973
830.802	17851
830.941	17699
831.08	17649
831.219	17745
831.357	17771
831.496	17874
831.635	17668
831.774	17585
831.913	17726
832.051	17463
832.19	17627
832.329	17516
832.467	17493
832.606	17429
832.744	17337
832.883	17364
833.022	17440
833.16	17520
833.299	17520
833.437	17429
833.576	17463
833.714	17490
833.852	17383
833.991	17493
834.129	17493
834.267	17581
834.406	17566
834.544	17539
834.682	17532
834.821	17474
834.959	17630
835.097	17471
835.235	17516
835.373	17490
835.511	17444
835.65	17353
835.788	17326
835.926	17258
836.064	17212
836.202	17311
836.34	17341
836.478	17398
836.615	17326
836.753	17376
836.891	17471
837.029	17414
837.167	17330
837.305	17258
837.443	17345
837.58	17166
837.718	17349
837.856	17132
837.993	17140
838.131	17254
838.269	17193
838.406	17193
838.544	17006
838.681	16896
838.819	16877
838.956	16854
839.094	16729
839.231	16725
839.369	16915
839.506	17140
839.643	17010
839.781	16748
839.918	16694
840.055	16710
840.193	16771
840.33	16641
840.467	16805
840.604	16752
840.742	16976
840.879	16626
841.016	16573
841.153	16580
841.29	16828
841.427	16767
841.564	16603
841.701	16782
841.838	16622
841.975	16717
842.112	16645
842.249	16706
842.385	16447
842.522	16858
842.659	16561
842.796	16481
842.933	16569
843.069	16569
843.206	16535
843.343	16611
843.479	16447
843.616	16516
843.752	16207
843.889	16310
844.025	16485
844.162	16272
844.298	16421
844.435	16242
844.571	16280
844.708	16268
844.844	16489
844.98	16504
845.117	16432
845.253	16390
845.389	16265
845.525	16413
845.661	16713
845.798	16691
845.934	16866
846.07	16908
846.206	16991
846.342	16972
846.478	16611
846.614	16280
846.75	15987
846.886	15876
847.022	15979
847.158	15918
847.294	15930
847.429	15854
847.565	15804
847.701	16166
847.837	15667
847.972	15469
848.108	15747
848.244	15625
848.379	15507
848.515	15332
848.65	15412
848.786	15481
848.921	15454
849.057	15545
849.192	15580
849.328	15500
849.463	15515
849.598	15477
849.734	15408
849.869	15264
850.004	15264
850.14	15321
850.275	15214
850.41	15112
850.545	15176
850.68	15176
850.815	15230
850.95	15085
851.085	15389
851.22	15249
851.355	15180
851.49	15294
851.625	15199
851.76	15108
851.895	15119
852.03	15058
852.165	15169
852.299	15203
852.434	15192
852.569	15180
852.703	15268
852.838	15283
852.973	15275
853.107	15313
853.242	15097
853.376	15104
853.511	15001
853.645	14982
853.78	15195
853.914	15154
854.048	14998
854.183	15032
854.317	15173
854.451	15150
854.585	15013
854.72	14967
854.854	15081
854.988	15017
855.122	15039
855.256	14944
855.39	15077
855.524	15222
855.658	15077
855.792	15146
855.926	15100
856.06	15169
856.194	15142
856.327	15100
856.461	15062
856.595	15047
856.729	15032
856.862	15157
856.996	15154
857.13	15195
857.263	15135
857.397	15154
857.53	15093
857.664	15150
857.797	15081
857.931	15135
858.064	15085
858.197	15192
858.331	15039
858.464	14929
858.597	14994
858.731	15077
858.864	15017
858.997	14990
859.13	15157
859.263	15036
859.396	15051
859.529	15001
859.662	15112
859.795	14979
859.928	15116
860.061	15176
860.194	15203
860.327	15077
860.46	14994
860.592	15161
860.725	15131
860.858	15146
860.99	15058
861.123	15074
861.256	14971
861.388	15024
861.521	15732
861.653	14929
861.786	14990
861.918	14937
862.05	15062
862.183	14929
862.315	14975
862.447	15062
862.58	15032
862.712	14902
862.844	14785
862.976	14834
863.108	14788
863.24	15264
863.372	14746
863.504	14834
863.636	14796
863.768	14773
863.9	14842
864.032	14830
864.164	14739
864.296	14868
864.428	14883
864.559	14979
864.691	14838
864.823	14861
864.954	14853
865.086	14807
865.217	14762
865.349	14754
865.48	14811
865.612	14800
865.743	14826
865.875	14815
866.006	14746
866.137	14826
866.269	14849
866.4	14762
866.531	14727
866.662	14613
866.793	14720
866.924	14697
867.055	14758
867.186	14663
867.317	14746
867.448	14689
867.579	14689
867.71	14613
867.841	14545
867.972	14769
868.103	14792
868.233	14880
868.364	14758
868.495	14872
868.625	14982
868.756	15131
868.886	14929
869.017	15043
869.147	15108
869.278	15268
869.408	15062
869.539	15047
869.669	15142
869.799	15058
869.929	15226
870.06	15146
870.19	15389
870.32	15351
870.45	15332
870.58	15450
870.71	15424
870.84	15595
870.97	15389
871.1	15424
871.23	15622
871.36	15576
871.489	15591
871.619	15553
871.749	15542
871.879	15625
872.008	15736
872.138	15690
872.267	15660
872.397	15538
872.526	15431
872.656	15466
872.785	15603
872.915	15701
873.044	15816
873.173	15713
873.303	15682
873.432	15717
873.561	15743
873.69	15797
873.819	15728
873.948	15717
874.077	15778
874.206	15686
874.335	15724
874.464	15911
874.593	16017
874.722	15884
874.851	15960
874.979	16071
875.108	16055
875.237	15991
875.365	15937
875.494	16029
875.623	16051
875.751	16029
875.88	16044
876.008	16093
876.136	16291
876.265	16443
876.393	16584
876.521	16527
876.65	16440
876.778	16421
876.906	16481
877.034	16375
877.162	16402
877.29	16367
877.418	16470
877.546	16504
877.674	16443
877.802	16409
877.93	16462
878.058	16409
878.185	16379
878.313	16474
878.441	16523
878.568	16295
878.696	16512
878.824	16493
878.951	16622
879.079	16778
879.206	16976
879.333	16801
879.461	16831
879.588	16854
879.715	17010
879.842	17056
879.97	16816
880.097	16436
880.224	16398
880.351	16565
880.478	16344
880.605	16295
880.732	16447
880.859	16542
880.986	16580
881.112	16390
881.239	16303
881.366	16109
881.493	15979
881.619	16017
881.746	16044
881.872	16036
881.999	15968
882.125	15949
882.252	16040
882.378	16048
882.505	16147
882.631	15846
882.757	15816
882.883	15865
883.01	15762
883.136	15739
883.262	15713
883.388	15736
883.514	15838
883.64	16021
883.766	15789
883.892	15610
884.018	15743
884.143	15850
884.269	15934
884.395	15549
884.52	15622
884.646	15538
884.772	15428
884.897	15435
885.023	15507
885.148	15622
885.274	15732
885.399	15599
885.524	15507
885.65	15545
885.775	15595
885.9	15450
886.025	15603
886.15	15599
886.275	15431
886.4	15363
886.525	15424
886.65	15443
886.775	15458
886.9	15584
887.025	15690
887.149	15511
887.274	15180
887.399	15226
887.523	15272
887.648	15222
887.773	15138
887.897	15412
888.021	15378
888.146	15260
888.27	15340
888.395	15435
888.519	15325
888.643	15332
888.767	15393
888.891	15173
889.015	15112
889.139	15180
889.263	15112
889.387	15252
889.511	15233
889.635	15161
889.759	15131
889.883	15131
890.006	15131
890.13	15173
890.254	15077
890.377	15123
890.501	14960
890.624	14849
890.748	15020
890.871	14800
890.995	14750
891.118	14724
891.241	14868
891.364	14823
891.488	14887
891.611	14765
891.734	14838
891.857	14773
891.98	14788
892.103	14918
892.226	14891
892.349	14769
892.471	14667
892.594	14834
892.717	14823
892.839	14670
892.962	14811
893.085	14819
893.207	14800
893.33	14708
893.452	14659
893.575	14941
893.697	14697
893.819	14933
893.941	15036
894.064	14937
894.186	14765
894.308	14731
894.43	14941
894.552	14971
894.674	14914
894.796	14697
894.918	14861
895.04	14823
895.161	14910
895.283	14857
895.405	14792
895.526	14826
895.648	14868
895.769	14918
895.891	14906
896.012	14891
896.134	14986
896.255	15001
896.376	14952
896.498	14880
896.619	15058
896.74	14891
896.861	14902
896.982	15169
897.103	15420
897.224	15123
897.345	15135
897.466	15161
897.587	15062
897.708	15310
897.828	15207
897.949	15123
898.07	15032
898.19	15218
898.311	15283
898.431	15173
898.552	15279
898.672	15332
898.792	15416
898.913	15359
899.033	15279
899.153	15131
899.273	15131
899.393	15028
899.513	15127
899.633	15089
899.753	15184
899.873	15089
899.993	15165
900.113	15173
900.232	15207
900.352	15085
900.472	14963
900.591	14937
900.711	14986
900.83	14925
900.95	15013
901.069	15093
901.189	15066
901.308	14583
901.427	14632
901.546	14583
901.665	14708
901.784	14617
901.904	14465
902.023	14434
902.141	14202
902.26	14248
902.379	14275
902.498	14199
902.617	14088
902.735	14256
902.854	14126
902.973	14161
903.091	13833
903.21	13921
903.328	13875
903.446	13864
903.565	13734
903.683	13746
903.801	13594
903.919	13700
904.038	13655
904.156	13537
904.274	13674
904.392	13525
904.51	13552
904.627	13502
904.745	13594
904.863	13613
904.981	13377
905.098	13187
905.216	13183
905.334	13232
905.451	13346
905.569	13221
905.686	13206
905.803	13160
905.921	12981
906.038	13103
906.155	13114
906.272	12928
906.389	12958
906.506	12734
906.623	12875
906.74	12776
906.857	12684
906.974	12722
907.091	12760
907.208	12856
907.324	12833
907.441	12776
907.557	12574
907.674	12574
907.79	12498
907.907	12452
908.023	12517
908.139	12544
908.256	12532
908.372	12437
908.488	12513
908.604	12270
908.72	12239
908.836	12277
908.952	12201
909.068	12311
909.184	12452
909.3	12323
909.415	12342
909.531	12270
909.647	12076
909.762	12102
909.878	11992
909.993	12060
910.108	11992
910.224	12091
910.339	12087
910.454	11912
910.57	11942
910.685	11809
910.8	12106
910.915	11999
911.03	11980
911.145	11737
911.259	11718
911.374	11836
911.489	11680
911.604	11642
911.718	11486
911.833	11414
911.947	11360
912.062	11436
912.176	11554
912.291	11512
912.405	11535
912.519	11661
912.633	11676
912.748	11520
912.862	11585
912.976	11436
913.09	11235
913.204	11364
913.318	11440
913.431	11471
913.545	11463
913.659	11543
913.772	11463
913.886	11307
914	11269
914.113	11379
914.226	11429
914.34	11474
914.453	11261
914.566	11364
914.68	11170
914.793	11193
914.906	11086
915.019	10942
915.132	10927
915.245	11003
915.358	11075
915.47	11105
915.583	11022
915.696	11098
915.809	11204
915.921	11178
916.034	10968
916.146	10873
916.259	10938
916.371	10965
916.483	10987
916.595	10835
916.708	10873
916.82	10934
916.932	10885
917.044	10995
917.156	10965
917.268	10809
917.38	10866
917.491	10835
917.603	10915
917.715	10885
917.826	10923
917.938	10755
918.049	10698
918.161	10835
918.272	10934
918.384	10957
918.495	10839
918.606	10725
918.717	10569
918.828	10717
918.939	10767
919.05	10694
919.161	10660
919.272	10466
919.383	10618
919.494	10702
919.604	10915
919.715	10679
919.826	10584
919.936	10641
920.047	10828
920.157	10725
920.267	10881
920.378	10801
920.488	10664
920.598	10949
920.708	11003
920.818	10892
920.928	10904
921.038	11094
921.148	10968
921.258	10687
921.368	10618
921.477	10527
921.587	10489
921.697	10440
921.806	10573
921.916	10504
922.025	10234
922.134	10291
922.244	10219
922.353	10344
922.462	10116
922.571	10093
922.68	9972
922.789	9953
922.898	9930
923.007	9869
923.116	9926
923.224	9922
923.333	9922
923.442	9819
923.55	9816
923.659	9785
923.767	9838
923.876	9778
923.984	9835
924.092	9759
924.201	9800
924.309	9770
924.417	9797
924.525	9740
924.633	9759
924.741	10664
924.849	9523
924.956	9686
925.064	9511
925.172	9549
925.279	9469
925.387	9587
925.494	9526
925.602	9675
925.709	9637
925.816	9530
925.924	9519
926.031	9599
926.138	9610
926.245	9644
926.352	9443
926.459	9656
926.566	9584
926.673	9481
926.779	9367
926.886	9428
926.993	9207
927.099	9275
927.206	9146
927.312	9233
927.419	9336
927.525	9241
927.631	9241
927.737	9157
927.843	9173
927.95	9017
928.056	9093
928.162	9169
928.267	9211
928.373	9846
928.479	9218
928.585	8986
928.69	9085
928.796	9226
928.901	9039
929.007	8891
929.112	9089
929.218	9055
929.323	8956
929.428	8933
929.533	9154
929.638	8906
929.743	8910
929.848	8963
929.953	8914
930.058	8899
930.163	8629
930.267	8773
930.372	8830
930.477	8648
930.581	8906
930.685	8872
930.79	8640
930.894	8727
930.998	8625
931.103	8750
931.207	8488
931.311	8381
931.415	8317
931.519	8149
931.623	8180
