Data from test_V78500241_1374.txt Node
Date: Fri Mar 25 14:43:16 CST 2022
User: usil
Spectrometer: V785-0024
Trigger mode: 0
Integration Time (sec): 4.000000E-1
Scans to average: 1
Nonlinearity correction enabled: false
Boxcar width: 0
Storing dark spectrum: false
XAxis mode: Wavelengths
Number of Pixels in Spectrum: 1024
>>>>>Begin Spectral Data<<<<<
801.071	22519
801.214	22276
801.356	22166
801.499	21975
801.641	21732
801.783	21793
801.926	21781
802.068	21762
802.211	21614
802.353	21545
802.496	21397
802.638	21302
802.78	21173
802.923	21192
803.065	21116
803.208	21077
803.35	20960
803.492	21135
803.635	21157
803.777	21131
803.919	21214
804.061	21553
804.204	21180
804.346	20975
804.488	20933
804.63	21047
804.773	21017
804.915	21055
805.057	21096
805.199	21047
805.341	21245
805.483	21161
805.626	21180
805.768	21085
805.91	21089
806.052	21032
806.194	20986
806.336	21222
806.478	21123
806.62	21058
806.762	21039
806.904	21135
807.046	21523
807.188	21382
807.33	21401
807.472	21496
807.614	21351
807.756	21340
807.898	21252
808.04	21230
808.182	21306
808.324	21294
808.465	21374
808.607	21511
808.749	21793
808.891	21865
809.033	21884
809.174	21781
809.316	21705
809.458	21739
809.6	21553
809.741	21572
809.883	21564
810.025	21701
810.166	21614
810.308	21679
810.45	21637
810.591	21458
810.733	21256
810.875	21321
811.016	21176
811.158	21165
811.299	21313
811.441	21325
811.582	21279
811.724	21192
811.865	21176
812.007	21325
812.148	21272
812.29	21317
812.431	21485
812.573	21450
812.714	21564
812.855	21698
812.997	21804
813.138	21975
813.279	21774
813.421	21789
813.562	21682
813.703	21519
813.845	21370
813.986	21176
814.127	20998
814.268	20864
814.41	20823
814.551	20731
814.692	20811
814.833	20640
814.974	20739
815.115	20792
815.256	20484
815.397	20583
815.539	20636
815.68	20621
815.821	20499
815.962	20530
816.103	20511
816.244	20374
816.385	20252
816.526	20320
816.666	20081
816.807	19868
816.948	20008
817.089	20043
817.23	19925
817.371	19909
817.512	19818
817.653	20024
817.793	19860
817.934	20031
818.075	20031
818.216	19932
818.356	19837
818.497	19662
818.638	19597
818.778	19658
818.919	19597
819.06	19712
819.2	19723
819.341	19715
819.481	19795
819.622	19921
819.762	20115
819.903	20084
820.043	19902
820.184	19951
820.324	19849
820.465	19970
820.605	19902
820.746	19879
820.886	19715
821.026	19833
821.167	19837
821.307	19921
821.447	19871
821.588	19681
821.728	19597
821.868	19407
822.008	19335
822.149	19240
822.289	19255
822.429	19072
822.569	18993
822.709	19072
822.849	18848
822.99	18814
823.13	18646
823.27	18665
823.41	18608
823.55	18460
823.69	18585
823.83	18627
823.97	18608
824.11	18433
824.25	18441
824.389	18353
824.529	18433
824.669	18456
824.809	18509
824.949	18464
825.089	18532
825.228	18399
825.368	18152
825.508	18182
825.648	18251
825.787	18167
825.927	18228
826.067	18194
826.206	18171
826.346	18159
826.485	18163
826.625	18174
826.765	18243
826.904	18186
827.044	17973
827.183	17980
827.323	17802
827.462	17901
827.601	17832
827.741	17786
827.88	17908
828.02	17889
828.159	17764
828.298	17965
828.437	17927
828.577	17779
828.716	17996
828.855	17661
828.994	17668
829.134	17630
829.273	17653
829.412	17604
829.551	17566
829.69	17566
829.829	17680
829.968	17775
830.107	17577
830.246	17657
830.385	17562
830.524	17505
830.663	17497
830.802	17341
830.941	17174
831.08	17258
831.219	17345
831.357	17231
831.496	17493
831.635	17254
831.774	17212
831.913	17140
832.051	17048
832.19	17025
832.329	17018
832.467	16946
832.606	16927
832.744	16930
832.883	16972
833.022	16991
833.16	17006
833.299	16999
833.437	16965
833.576	17010
833.714	17025
833.852	16995
833.991	16995
834.129	17102
834.267	17147
834.406	17014
834.544	17117
834.682	17075
834.821	17113
834.959	17170
835.097	16987
835.235	17098
835.373	17029
835.511	17075
835.65	16911
835.788	16869
835.926	16782
836.064	16767
836.202	16793
836.34	16919
836.478	16938
836.615	16946
836.753	16930
836.891	16889
837.029	16927
837.167	16858
837.305	16862
837.443	16790
837.58	16725
837.718	16805
837.856	16767
837.993	16744
838.131	16793
838.269	16691
838.406	16656
838.544	16634
838.681	16466
838.819	16432
838.956	16268
839.094	16322
839.231	16394
839.369	16504
839.506	16653
839.643	16588
839.781	16432
839.918	16257
840.055	16360
840.193	16207
840.33	16371
840.467	16226
840.604	16398
840.742	16592
840.879	16192
841.016	16188
841.153	16333
841.29	16443
841.427	16284
841.564	16299
841.701	16265
841.838	16318
841.975	16131
842.112	16215
842.249	16025
842.385	16040
842.522	16284
842.659	16173
842.796	16071
842.933	16112
843.069	16093
843.206	15972
843.343	16192
843.479	16071
843.616	15994
843.752	15854
843.889	15823
844.025	16044
844.162	15945
844.298	15953
844.435	15934
844.571	15846
844.708	15876
844.844	16025
844.98	16013
845.117	16044
845.253	15956
845.389	15755
845.525	15903
845.661	15975
845.798	15964
845.934	15956
846.07	15934
846.206	15911
846.342	16078
846.478	15816
846.614	15542
846.75	15397
846.886	15477
847.022	15466
847.158	15447
847.294	15519
847.429	15481
847.565	15420
847.701	15580
847.837	15104
847.972	15077
848.108	15275
848.244	15214
848.379	14925
848.515	14990
848.65	15017
848.786	15043
848.921	15028
849.057	15131
849.192	15192
849.328	15077
849.463	15070
849.598	15024
849.734	14876
849.869	14937
850.004	14899
850.14	14929
850.275	14819
850.41	14716
850.545	14705
850.68	14796
850.815	14826
850.95	14785
851.085	14933
851.22	14880
851.355	14731
851.49	14807
851.625	14773
851.76	14731
851.895	14678
852.03	14632
852.165	14807
852.299	14758
852.434	14914
852.569	14823
852.703	14731
852.838	15009
852.973	14960
853.107	14902
853.242	14735
853.376	14689
853.511	14549
853.645	14648
853.78	14743
853.914	14682
854.048	14678
854.183	14636
854.317	14651
854.451	14781
854.585	14693
854.72	14686
854.854	14811
854.988	14610
855.122	14670
855.256	14469
855.39	14708
855.524	14659
855.658	14762
855.792	14606
855.926	14705
856.06	14716
856.194	14868
856.327	14693
856.461	14587
856.595	14629
856.729	14640
856.862	14705
856.996	14659
857.13	14689
857.263	14727
857.397	14876
857.53	14674
857.664	14697
857.797	14758
857.931	14796
858.064	14678
858.197	14785
858.331	14708
858.464	14667
858.597	14575
858.731	14678
858.864	14651
858.997	14625
859.13	14640
859.263	14765
859.396	14758
859.529	14663
859.662	14606
859.795	14587
859.928	14693
860.061	14781
860.194	14899
860.327	14804
860.46	14625
860.592	14762
860.725	14800
860.858	14739
860.99	14667
861.123	14598
861.256	14564
861.388	14712
861.521	15329
861.653	14473
861.786	14446
861.918	14583
862.05	14518
862.183	14602
862.315	14689
862.447	14674
862.58	14617
862.712	14423
862.844	14358
862.976	14408
863.108	14469
863.24	14807
863.372	14408
863.504	14389
863.636	14412
863.768	14492
863.9	14431
864.032	14366
864.164	14347
864.296	14549
864.428	14526
864.559	14533
864.691	14545
864.823	14454
864.954	14526
865.086	14476
865.217	14480
865.349	14343
865.48	14404
865.612	14381
865.743	14495
865.875	14412
866.006	14427
866.137	14450
866.269	14442
866.4	14362
866.531	14351
866.662	14431
866.793	14313
866.924	14339
867.055	14396
867.186	14377
867.317	14374
867.448	14256
867.579	14374
867.71	14366
867.841	14286
867.972	14400
868.103	14377
868.233	14374
868.364	14427
868.495	14400
868.625	14575
868.756	14716
868.886	14598
869.017	14610
869.147	14785
869.278	14834
869.408	14670
869.539	14670
869.669	14735
869.799	14678
869.929	14773
870.06	14777
870.19	15001
870.32	14986
870.45	15036
870.58	15085
870.71	15135
870.84	15104
870.97	15070
871.1	15062
871.23	15249
871.36	15230
871.489	15165
871.619	15211
871.749	15218
871.879	15245
872.008	15344
872.138	15287
872.267	15180
872.397	15097
872.526	15142
872.656	15112
872.785	15199
872.915	15287
873.044	15321
873.173	15249
873.303	15268
873.432	15378
873.561	15321
873.69	15272
873.819	15405
873.948	15367
874.077	15340
874.206	15230
874.335	15298
874.464	15454
874.593	15633
874.722	15542
874.851	15622
874.979	15679
875.108	15648
875.237	15534
875.365	15549
875.494	15610
875.623	15739
875.751	15637
875.88	15675
876.008	15812
876.136	15842
876.265	15983
876.393	16173
876.521	16063
876.65	16135
876.778	16158
876.906	15964
877.034	15911
877.162	16055
877.29	15975
877.418	16021
877.546	15915
877.674	16044
877.802	16139
877.93	16055
878.058	16002
878.185	15892
878.313	15994
878.441	16051
878.568	15857
878.696	16105
878.824	16040
878.951	16207
879.079	16363
879.206	16478
879.333	16299
879.461	16143
879.588	16268
879.715	16341
879.842	16424
879.97	16215
880.097	15979
880.224	15960
880.351	16044
880.478	15983
880.605	15892
880.732	15892
880.859	16097
880.986	16010
881.112	15964
881.239	15922
881.366	15785
881.493	15610
881.619	15584
881.746	15629
881.872	15466
881.999	15576
882.125	15477
882.252	15614
882.378	15618
882.505	15785
882.631	15534
882.757	15420
882.883	15420
883.01	15355
883.136	15294
883.262	15233
883.388	15203
883.514	15397
883.64	15428
883.766	15332
883.892	15146
884.018	15154
884.143	15405
884.269	15424
884.395	15127
884.52	15039
884.646	15097
884.772	15043
884.897	14914
885.023	15047
885.148	15218
885.274	15214
885.399	15169
885.524	15081
885.65	15154
885.775	15119
885.9	15100
886.025	15245
886.15	15218
886.275	15009
886.4	15017
886.525	15028
886.65	15036
886.775	15051
886.9	15233
887.025	15256
887.149	15039
887.274	14998
887.399	14819
887.523	14815
887.648	14785
887.773	14731
887.897	14880
888.021	14960
888.146	14788
888.27	14967
888.395	14960
888.519	14986
888.643	14979
888.767	15020
888.891	14918
889.015	14792
889.139	14804
889.263	14602
889.387	14971
889.511	15043
889.635	14880
889.759	14678
889.883	14689
890.006	14773
890.13	14845
890.254	14678
890.377	14579
890.501	14492
890.624	14438
890.748	14640
890.871	14362
890.995	14355
891.118	14355
891.241	14465
891.364	14469
891.488	14560
891.611	14438
891.734	14461
891.857	14495
891.98	14347
892.103	14404
892.226	14377
892.349	14476
892.471	14176
892.594	14408
892.717	14503
892.839	14438
892.962	14408
893.085	14518
893.207	14415
893.33	14317
893.452	14347
893.575	14549
893.697	14328
893.819	14549
893.941	14575
894.064	14545
894.186	14381
894.308	14374
894.43	14594
894.552	14575
894.674	14564
894.796	14427
894.918	14461
895.04	14480
895.161	14583
895.283	14503
895.405	14427
895.526	14518
895.648	14495
895.769	14571
895.891	14537
896.012	14621
896.134	14564
896.255	14579
896.376	14511
896.498	14514
896.619	14705
896.74	14644
896.861	14674
896.982	14914
897.103	15051
897.224	14872
897.345	14777
897.466	14769
897.587	14781
897.708	14971
897.828	14918
897.949	14880
898.07	14727
898.19	14826
898.311	15017
898.431	14925
898.552	14872
898.672	14956
898.792	14952
898.913	14887
899.033	14872
899.153	14765
899.273	14708
899.393	14807
899.513	14769
899.633	14834
899.753	14868
899.873	14716
899.993	14796
900.113	14842
900.232	14823
900.352	14708
900.472	14750
900.591	14530
900.711	14606
900.83	14568
900.95	14792
901.069	14834
901.189	14598
901.308	14358
901.427	14244
901.546	14267
901.665	14324
901.784	14263
901.904	14138
902.023	14138
902.141	13883
902.26	13868
902.379	13909
902.498	13879
902.617	13795
902.735	13947
902.854	13894
902.973	13807
903.091	13556
903.21	13563
903.328	13677
903.446	13480
903.565	13308
903.683	13441
903.801	13320
903.919	13339
904.038	13449
904.156	13316
904.274	13263
904.392	13251
904.51	13301
904.627	13194
904.745	13282
904.863	13232
904.981	13069
905.098	12916
905.216	12977
905.334	12871
905.451	12875
905.569	12856
905.686	13027
905.803	12890
905.921	12783
906.038	12939
906.155	12749
906.272	12711
906.389	12650
906.506	12452
906.623	12494
906.74	12547
906.857	12460
906.974	12418
907.091	12604
907.208	12639
907.324	12494
907.441	12494
907.557	12197
907.674	12194
907.79	12304
907.907	12178
908.023	12395
908.139	12247
908.256	12178
908.372	12163
908.488	12144
908.604	12022
908.72	11973
908.836	12007
908.952	11874
909.068	12045
909.184	12106
909.3	11992
909.415	12114
909.531	12057
909.647	11756
909.762	11741
909.878	11771
909.993	11870
910.108	11786
910.224	11695
910.339	11764
910.454	11676
910.57	11649
910.685	11516
910.8	11840
910.915	11805
911.03	11573
911.145	11501
911.259	11425
911.374	11547
911.489	11391
911.604	11345
911.718	11181
911.833	11296
911.947	11105
912.062	11090
912.176	11166
912.291	11201
912.405	11193
912.519	11440
912.633	11395
912.748	11337
912.862	11216
912.976	11022
913.09	10987
913.204	11079
913.318	11136
913.431	11178
913.545	11178
913.659	11197
913.772	11102
913.886	10965
914	10980
914.113	11102
914.226	11090
914.34	11117
914.453	10919
914.566	11071
914.68	10896
914.793	10946
914.906	10687
915.019	10736
915.132	10702
915.245	10702
915.358	10778
915.47	10786
915.583	10774
915.696	10812
915.809	10828
915.921	10816
916.034	10641
916.146	10622
916.259	10672
916.371	10736
916.483	10717
916.595	10691
916.708	10653
916.82	10645
916.932	10538
917.044	10603
917.156	10592
917.268	10523
917.38	10443
917.491	10512
917.603	10546
917.715	10637
917.826	10664
917.938	10447
918.049	10424
918.161	10462
918.272	10596
918.384	10694
918.495	10584
918.606	10428
918.717	10443
918.828	10447
918.939	10421
919.05	10257
919.161	10398
919.272	10154
919.383	10234
919.494	10538
919.604	10653
919.715	10489
919.826	10299
919.936	10352
920.047	10512
920.157	10493
920.267	10637
920.378	10455
920.488	10379
920.598	10649
920.708	10824
920.818	10618
920.928	10641
921.038	10782
921.148	10752
921.258	10428
921.368	10367
921.477	10200
921.587	10242
921.697	10116
921.806	10211
921.916	10227
922.025	9956
922.134	9972
922.244	9915
922.353	10051
922.462	9781
922.571	9812
922.68	9648
922.789	9633
922.898	9644
923.007	9633
923.116	9701
923.224	9663
923.333	9561
923.442	9462
923.55	9561
923.659	9599
923.767	9584
923.876	9496
923.984	9648
924.092	9458
924.201	9488
924.309	9462
924.417	9523
924.525	9469
924.633	9504
924.741	10451
924.849	9260
924.956	9367
925.064	9298
925.172	9260
925.279	9256
925.387	9340
925.494	9302
925.602	9485
925.709	9355
925.816	9184
925.924	9306
926.031	9359
926.138	9317
926.245	9294
926.352	9199
926.459	9370
926.566	9397
926.673	9226
926.779	9192
926.886	9131
926.993	8994
927.099	8925
927.206	8918
927.312	8979
927.419	9028
927.525	8979
927.631	9066
927.737	8941
927.843	8895
927.95	8819
928.056	8891
928.162	8891
928.267	8921
928.373	9595
928.479	9028
928.585	8735
928.69	8956
928.796	8948
928.901	8838
929.007	8659
929.112	8838
929.218	8811
929.323	8724
929.428	8674
929.533	8891
929.638	8659
929.743	8689
929.848	8693
929.953	8651
930.058	8648
930.163	8476
930.267	8484
930.372	8606
930.477	8431
930.581	8674
930.685	8590
930.79	8526
930.894	8442
930.998	8366
931.103	8564
931.207	8168
931.311	8153
931.415	8096
931.519	7936
931.623	7955
