Data from test_V78500241_1463.txt Node
Date: Fri Mar 25 14:43:54 CST 2022
User: usil
Spectrometer: V785-0024
Trigger mode: 0
Integration Time (sec): 4.000000E-1
Scans to average: 1
Nonlinearity correction enabled: false
Boxcar width: 0
Storing dark spectrum: false
XAxis mode: Wavelengths
Number of Pixels in Spectrum: 1024
>>>>>Begin Spectral Data<<<<<
801.071	22443
801.214	22360
801.356	22181
801.499	21899
801.641	21880
801.783	21709
801.926	21892
802.068	21770
802.211	21618
802.353	21644
802.496	21435
802.638	21382
802.78	21355
802.923	21150
803.065	21104
803.208	21066
803.35	21161
803.492	21226
803.635	21237
803.777	21127
803.919	21275
804.061	21439
804.204	21241
804.346	21043
804.488	21070
804.63	21043
804.773	20986
804.915	21074
805.057	21199
805.199	21051
805.341	21104
805.483	21237
805.626	21237
805.768	20998
805.91	21100
806.052	20998
806.194	20883
806.336	21138
806.478	21028
806.62	20982
806.762	21165
806.904	21291
807.046	21507
807.188	21389
807.33	21332
807.472	21447
807.614	21325
807.756	21332
807.898	21310
808.04	21252
808.182	21405
808.324	21233
808.465	21389
808.607	21583
808.749	21599
808.891	21713
809.033	21861
809.174	21728
809.316	21591
809.458	21671
809.6	21576
809.741	21641
809.883	21686
810.025	21705
810.166	21701
810.308	21625
810.45	21492
810.591	21534
810.733	21332
810.875	21401
811.016	21142
811.158	21131
811.299	21275
811.441	21450
811.582	21348
811.724	21283
811.865	21165
812.007	21249
812.148	21173
812.29	21279
812.431	21382
812.573	21542
812.714	21736
812.855	21709
812.997	21903
813.138	22093
813.279	21781
813.421	21800
813.562	21667
813.703	21549
813.845	21279
813.986	21192
814.127	20937
814.268	20853
814.41	20830
814.551	20754
814.692	20815
814.833	20708
814.974	20807
815.115	20868
815.256	20769
815.397	20602
815.539	20651
815.68	20564
815.821	20473
815.962	20450
816.103	20564
816.244	20355
816.385	20256
816.526	20286
816.666	20103
816.807	19967
816.948	20073
817.089	20031
817.23	19959
817.371	19860
817.512	19989
817.653	19822
817.793	19898
817.934	19951
818.075	19951
818.216	19947
818.356	19803
818.497	19738
818.638	19620
818.778	19590
818.919	19586
819.06	19712
819.2	19685
819.341	19731
819.481	19807
819.622	19974
819.762	20058
819.903	20065
820.043	20001
820.184	19902
820.324	19951
820.465	19917
820.605	19883
820.746	19917
820.886	19780
821.026	19860
821.167	19784
821.307	19856
821.447	19807
821.588	19795
821.728	19605
821.868	19548
822.008	19445
822.149	19266
822.289	19350
822.429	19042
822.569	19050
822.709	19084
822.849	18772
822.99	18764
823.13	18772
823.27	18764
823.41	18593
823.55	18547
823.69	18620
823.83	18563
823.97	18589
824.11	18429
824.25	18315
824.389	18494
824.529	18414
824.669	18296
824.809	18574
824.949	18547
825.089	18426
825.228	18304
825.368	18182
825.508	18174
825.648	18220
825.787	18220
825.927	18174
826.067	18148
826.206	18216
826.346	18220
826.485	18258
826.625	18022
826.765	18319
826.904	18140
827.044	18019
827.183	18015
827.323	17843
827.462	17931
827.601	17927
827.741	17745
827.88	17767
828.02	17718
828.159	17851
828.298	18026
828.437	17961
828.577	17889
828.716	17832
828.855	17821
828.994	17695
829.134	17653
829.273	17760
829.412	17634
829.551	17570
829.69	17604
829.829	17726
829.968	17687
830.107	17634
830.246	17672
830.385	17486
830.524	17474
830.663	17417
830.802	17395
830.941	17315
831.08	17132
831.219	17277
831.357	17239
831.496	17391
831.635	17220
831.774	17033
831.913	16991
832.051	17045
832.19	17071
832.329	17041
832.467	17022
832.606	16885
832.744	16949
832.883	16980
833.022	16908
833.16	17018
833.299	16957
833.437	16919
833.576	16923
833.714	16965
833.852	17064
833.991	17006
834.129	17045
834.267	17071
834.406	16877
834.544	17064
834.682	16987
834.821	17006
834.959	17094
835.097	16919
835.235	17098
835.373	17083
835.511	17025
835.65	16809
835.788	16847
835.926	16748
836.064	16634
836.202	16691
836.34	16889
836.478	16957
836.615	16854
836.753	16892
836.891	16938
837.029	16900
837.167	16778
837.305	16763
837.443	16752
837.58	16664
837.718	16812
837.856	16649
837.993	16702
838.131	16717
838.269	16634
838.406	16691
838.544	16664
838.681	16417
838.819	16371
838.956	16215
839.094	16230
839.231	16295
839.369	16493
839.506	16664
839.643	16565
839.781	16344
839.918	16230
840.055	16314
840.193	16329
840.33	16295
840.467	16306
840.604	16253
840.742	16542
840.879	16150
841.016	16131
841.153	16200
841.29	16466
841.427	16344
841.564	16352
841.701	16223
841.838	16124
841.975	16139
842.112	16154
842.249	16055
842.385	15991
842.522	16249
842.659	16036
842.796	16067
842.933	16029
843.069	16048
843.206	16002
843.343	16158
843.479	16048
843.616	16017
843.752	15899
843.889	15846
844.025	16017
844.162	15743
844.298	15857
844.435	15892
844.571	15717
844.708	15888
844.844	15937
844.98	15945
845.117	16013
845.253	15823
845.389	15656
845.525	15857
845.661	15800
845.798	15823
845.934	15968
846.07	15812
846.206	15987
846.342	16021
846.478	15736
846.614	15523
846.75	15420
846.886	15428
847.022	15454
847.158	15473
847.294	15443
847.429	15477
847.565	15450
847.701	15667
847.837	15199
847.972	15039
848.108	15294
848.244	15135
848.379	15104
848.515	15009
848.65	15039
848.786	15070
848.921	15001
849.057	15112
849.192	15116
849.328	15020
849.463	15020
849.598	14933
849.734	14902
849.869	14994
850.004	14773
850.14	14746
850.275	14758
850.41	14686
850.545	14659
850.68	14792
850.815	14724
850.95	14765
851.085	14883
851.22	14811
851.355	14769
851.49	14769
851.625	14697
851.76	14693
851.895	14678
852.03	14590
852.165	14758
852.299	14781
852.434	14815
852.569	14705
852.703	14750
852.838	14861
852.973	14899
853.107	14963
853.242	14788
853.376	14590
853.511	14495
853.645	14568
853.78	14834
853.914	14594
854.048	14594
854.183	14606
854.317	14621
854.451	14758
854.585	14625
854.72	14640
854.854	14659
854.988	14484
855.122	14617
855.256	14408
855.39	14541
855.524	14735
855.658	14674
855.792	14651
855.926	14663
856.06	14670
856.194	14716
856.327	14670
856.461	14659
856.595	14533
856.729	14670
856.862	14769
856.996	14606
857.13	14663
857.263	14686
857.397	14746
857.53	14693
857.664	14724
857.797	14712
857.931	14705
858.064	14571
858.197	14701
858.331	14629
858.464	14587
858.597	14511
858.731	14659
858.864	14648
858.997	14560
859.13	14655
859.263	14579
859.396	14667
859.529	14640
859.662	14613
859.795	14552
859.928	14571
860.061	14720
860.194	14720
860.327	14579
860.46	14583
860.592	14727
860.725	14724
860.858	14811
860.99	14636
861.123	14556
861.256	14545
861.388	14632
861.521	15218
861.653	14423
861.786	14469
861.918	14552
862.05	14568
862.183	14579
862.315	14590
862.447	14636
862.58	14564
862.712	14317
862.844	14298
862.976	14545
863.108	14473
863.24	14842
863.372	14328
863.504	14374
863.636	14488
863.768	14454
863.9	14434
864.032	14332
864.164	14267
864.296	14446
864.428	14552
864.559	14488
864.691	14423
864.823	14461
864.954	14446
865.086	14446
865.217	14461
865.349	14278
865.48	14275
865.612	14389
865.743	14556
865.875	14389
866.006	14343
866.137	14351
866.269	14377
866.4	14256
866.531	14339
866.662	14142
866.793	14256
866.924	14343
867.055	14317
867.186	14286
867.317	14183
867.448	14199
867.579	14237
867.71	14366
867.841	14347
867.972	14324
868.103	14355
868.233	14294
868.364	14381
868.495	14431
868.625	14606
868.756	14655
868.886	14537
869.017	14495
869.147	14724
869.278	14670
869.408	14568
869.539	14613
869.669	14655
869.799	14739
869.929	14735
870.06	14712
870.19	14853
870.32	14902
870.45	15001
870.58	14967
870.71	15062
870.84	15112
870.97	14937
871.1	14963
871.23	15169
871.36	15256
871.489	15150
871.619	15055
871.749	15074
871.879	15207
872.008	15287
872.138	15195
872.267	15173
872.397	15062
872.526	15055
872.656	15062
872.785	14975
872.915	15252
873.044	15230
873.173	15310
873.303	15332
873.432	15279
873.561	15313
873.69	15317
873.819	15321
873.948	15252
874.077	15283
874.206	15199
874.335	15195
874.464	15416
874.593	15477
874.722	15504
874.851	15523
874.979	15633
875.108	15629
875.237	15576
875.365	15431
875.494	15648
875.623	15641
875.751	15504
875.88	15584
876.008	15709
876.136	15831
876.265	15983
876.393	16124
876.521	15975
876.65	16074
876.778	15926
876.906	16006
877.034	15884
877.162	15983
877.29	15895
877.418	15960
877.546	15953
877.674	15949
877.802	15968
877.93	16040
878.058	15964
878.185	15892
878.313	15956
878.441	15934
878.568	15755
878.696	15968
878.824	15991
878.951	16055
879.079	16299
879.206	16432
879.333	16215
879.461	16169
879.588	16177
879.715	16234
879.842	16325
879.97	16131
880.097	15842
880.224	15945
880.351	15857
880.478	15846
880.605	15892
880.732	15850
880.859	15994
880.986	15854
881.112	15789
881.239	15682
881.366	15648
881.493	15568
881.619	15542
881.746	15523
881.872	15492
881.999	15435
882.125	15523
882.252	15526
882.378	15618
882.505	15568
882.631	15431
882.757	15370
882.883	15329
883.01	15348
883.136	15272
883.262	15264
883.388	15218
883.514	15336
883.64	15344
883.766	15226
883.892	15131
884.018	15207
884.143	15287
884.269	15382
884.395	15116
884.52	15024
884.646	15142
884.772	14902
884.897	14891
885.023	15017
885.148	15135
885.274	15192
885.399	15154
885.524	15005
885.65	14979
885.775	15070
885.9	14944
886.025	15165
886.15	15150
886.275	14956
886.4	14899
886.525	14918
886.65	14933
886.775	14868
886.9	15055
887.025	15294
887.149	14952
887.274	14895
887.399	14819
887.523	14746
887.648	14796
887.773	14743
887.897	14921
888.021	14891
888.146	14845
888.27	14883
888.395	14998
888.519	14861
888.643	14883
888.767	14918
888.891	14670
889.015	14583
889.139	14670
889.263	14640
889.387	14872
889.511	14921
889.635	14807
889.759	14735
889.883	14667
890.006	14697
890.13	14750
890.254	14659
890.377	14606
890.501	14507
890.624	14415
890.748	14621
890.871	14374
890.995	14358
891.118	14355
891.241	14400
891.364	14374
891.488	14442
891.611	14362
891.734	14366
891.857	14461
891.98	14351
892.103	14533
892.226	14442
892.349	14286
892.471	14343
892.594	14278
892.717	14457
892.839	14305
892.962	14313
893.085	14415
893.207	14393
893.33	14309
893.452	14336
893.575	14473
893.697	14374
893.819	14507
893.941	14632
894.064	14549
894.186	14320
894.308	14309
894.43	14492
894.552	14518
894.674	14434
894.796	14358
894.918	14389
895.04	14408
895.161	14488
895.283	14526
895.405	14339
895.526	14480
895.648	14492
895.769	14473
895.891	14495
896.012	14590
896.134	14587
896.255	14560
896.376	14450
896.498	14480
896.619	14530
896.74	14434
896.861	14514
896.982	14849
897.103	15013
897.224	14826
897.345	14845
897.466	14754
897.587	14746
897.708	14948
897.828	14872
897.949	14800
898.07	14720
898.19	14754
898.311	14872
898.431	14758
898.552	14853
898.672	14960
898.792	15039
898.913	14952
899.033	14849
899.153	14663
899.273	14724
899.393	14686
899.513	14849
899.633	14830
899.753	14659
899.873	14705
899.993	14792
900.113	14773
900.232	14773
900.352	14659
900.472	14636
900.591	14484
900.711	14651
900.83	14507
900.95	14686
901.069	14743
901.189	14530
901.308	14374
901.427	14332
901.546	14324
901.665	14294
901.784	14294
901.904	14088
902.023	13978
902.141	13830
902.26	13860
902.379	13830
902.498	13814
902.617	13738
902.735	13879
902.854	13818
902.973	13712
903.091	13670
903.21	13521
903.328	13582
903.446	13388
903.565	13457
903.683	13468
903.801	13251
903.919	13343
904.038	13403
904.156	13255
904.274	13206
904.392	13152
904.51	13145
904.627	13202
904.745	13228
904.863	13343
904.981	13061
905.098	12954
905.216	12932
905.334	12871
905.451	12970
905.569	12894
905.686	12886
905.803	12901
905.921	12791
906.038	12901
906.155	12730
906.272	12631
906.389	12623
906.506	12467
906.623	12578
906.74	12426
906.857	12338
906.974	12380
907.091	12536
907.208	12612
907.324	12578
907.441	12372
907.557	12292
907.674	12175
907.79	12209
907.907	12220
908.023	12388
908.139	12254
908.256	12213
908.372	12106
908.488	12155
908.604	12060
908.72	12064
908.836	12064
908.952	11939
909.068	11958
909.184	12079
909.3	11939
909.415	12019
909.531	12030
909.647	11794
909.762	11760
909.878	11722
909.993	11783
910.108	11661
910.224	11741
910.339	11649
910.454	11604
910.57	11608
910.685	11497
910.8	11851
910.915	11786
911.03	11623
911.145	11372
911.259	11444
911.374	11497
911.489	11364
911.604	11315
911.718	11250
911.833	11261
911.947	11083
912.062	11041
912.176	11220
912.291	11242
912.405	11185
912.519	11337
912.633	11345
912.748	11181
912.862	11201
912.976	11064
913.09	10946
913.204	11102
913.318	11079
913.431	11178
913.545	11132
913.659	11151
913.772	11056
913.886	11067
914	10938
914.113	11014
914.226	11014
914.34	11048
914.453	10919
914.566	11029
914.68	10885
914.793	10904
914.906	10668
915.019	10702
915.132	10675
915.245	10694
915.358	10702
915.47	10698
915.583	10725
915.696	10721
915.809	10786
915.921	10782
916.034	10618
916.146	10618
916.259	10630
916.371	10786
916.483	10793
916.595	10554
916.708	10607
916.82	10603
916.932	10584
917.044	10592
917.156	10516
917.268	10500
917.38	10489
917.491	10535
917.603	10466
917.715	10580
917.826	10622
917.938	10516
918.049	10333
918.161	10531
918.272	10634
918.384	10641
918.495	10535
918.606	10405
918.717	10295
918.828	10371
918.939	10390
919.05	10318
919.161	10322
919.272	10246
919.383	10215
919.494	10375
919.604	10615
919.715	10481
919.826	10284
919.936	10382
920.047	10424
920.157	10470
920.267	10607
920.378	10474
920.488	10386
920.598	10622
920.708	10809
920.818	10599
920.928	10580
921.038	10736
921.148	10774
921.258	10424
921.368	10379
921.477	10162
921.587	10268
921.697	10169
921.806	10272
921.916	10048
922.025	10002
922.134	9937
922.244	9907
922.353	9934
922.462	9797
922.571	9759
922.68	9599
922.789	9629
922.898	9679
923.007	9595
923.116	9580
923.224	9709
923.333	9561
923.442	9572
923.55	9500
923.659	9511
923.767	9629
923.876	9454
923.984	9610
924.092	9500
924.201	9515
924.309	9526
924.417	9587
924.525	9454
924.633	9386
924.741	10341
924.849	9302
924.956	9412
925.064	9321
925.172	9294
925.279	9214
925.387	9378
925.494	9325
925.602	9393
925.709	9420
925.816	9207
925.924	9298
926.031	9355
926.138	9287
926.245	9355
926.352	9188
926.459	9355
926.566	9332
926.673	9275
926.779	9173
926.886	9192
926.993	8971
927.099	8990
927.206	8925
927.312	8914
927.419	9154
927.525	8956
927.631	9058
927.737	8948
927.843	8849
927.95	8838
928.056	8887
928.162	8948
928.267	8990
928.373	9534
928.479	9020
928.585	8777
928.69	8868
928.796	8899
928.901	8739
929.007	8686
929.112	8838
929.218	8766
929.323	8766
929.428	8693
929.533	8804
929.638	8731
929.743	8651
929.848	8766
929.953	8667
930.058	8575
930.163	8473
930.267	8530
930.372	8670
930.477	8427
930.581	8686
930.685	8530
930.79	8442
930.894	8484
930.998	8404
931.103	8511
931.207	8149
931.311	8138
931.415	8092
931.519	7967
931.623	7909
