Data from test_V78500241_190.txt Node
Date: Fri Mar 25 14:35:02 CST 2022
User: usil
Spectrometer: V785-0024
Trigger mode: 0
Integration Time (sec): 4.000000E-1
Scans to average: 1
Nonlinearity correction enabled: false
Boxcar width: 0
Storing dark spectrum: false
XAxis mode: Wavelengths
Number of Pixels in Spectrum: 1024
>>>>>Begin Spectral Data<<<<<
801.071	28443
801.214	28211
801.356	27979
801.499	28013
801.641	27895
801.783	27827
801.926	27778
802.068	27956
802.211	27652
802.353	27720
802.496	27481
802.638	27515
802.78	27378
802.923	27264
803.065	27264
803.208	27237
803.35	27393
803.492	27485
803.635	27545
803.777	27325
803.919	27648
804.061	27850
804.204	27435
804.346	27443
804.488	27397
804.63	27340
804.773	27230
804.915	27230
805.057	27515
805.199	27226
805.341	27481
805.483	27481
805.626	27363
805.768	27363
805.91	27549
806.052	27355
806.194	27317
806.336	27561
806.478	27511
806.62	27443
806.762	27488
806.904	27804
807.046	28006
807.188	27831
807.33	28021
807.472	28139
807.614	27842
807.756	28017
807.898	27960
808.04	27934
808.182	28173
808.324	28249
808.465	28615
808.607	28843
808.749	28991
808.891	29124
809.033	29250
809.174	29212
809.316	28828
809.458	28687
809.6	28500
809.741	28542
809.883	28291
810.025	28443
810.166	28310
810.308	28265
810.45	28223
810.591	28139
810.733	27934
810.875	27888
811.016	27800
811.158	27736
811.299	27934
811.441	27797
811.582	27994
811.724	27854
811.865	27774
812.007	27857
812.148	27831
812.29	27911
812.431	27953
812.573	27968
812.714	28181
812.855	28238
812.997	28325
813.138	28500
813.279	28417
813.421	28265
813.562	28299
813.703	28109
813.845	27949
813.986	27660
814.127	27625
814.268	27393
814.41	27374
814.551	27412
814.692	27447
814.833	27188
814.974	27222
815.115	27260
815.256	27192
815.397	27230
815.539	27169
815.68	27077
815.821	27062
815.962	27093
816.103	27043
816.244	26956
816.385	26731
816.526	26735
816.666	26598
816.807	26549
816.948	26541
817.089	26606
817.23	26492
817.371	26514
817.512	26328
817.653	26412
817.793	26427
817.934	26492
818.075	26434
818.216	26381
818.356	26362
818.497	26351
818.638	26214
818.778	26164
818.919	26065
819.06	26252
819.2	26214
819.341	26431
819.481	26259
819.622	26434
819.762	26602
819.903	26476
820.043	26419
820.184	26446
820.324	26332
820.465	26442
820.605	26332
820.746	26343
820.886	26202
821.026	26457
821.167	26332
821.307	26332
821.447	26191
821.588	26263
821.728	26027
821.868	25913
822.008	25700
822.149	25769
822.289	25738
822.429	25445
822.569	25403
822.709	25441
822.849	25156
822.99	25129
823.13	25103
823.27	25046
823.41	24962
823.55	24776
823.69	25004
823.83	24932
823.97	24875
824.11	24795
824.25	24734
824.389	24806
824.529	24764
824.669	24669
824.809	24707
824.949	24764
825.089	24840
825.228	24722
825.368	24688
825.508	24593
825.648	24665
825.787	24566
825.927	24448
826.067	24532
826.206	24498
826.346	24525
826.485	24521
826.625	24475
826.765	24665
826.904	24517
827.044	24304
827.183	24346
827.323	24129
827.462	24186
827.601	24136
827.741	24163
827.88	24224
828.02	24049
828.159	24133
828.298	24182
828.437	24277
828.577	24034
828.716	24159
828.855	23988
828.994	23809
829.134	23912
829.273	23996
829.412	23794
829.551	23627
829.69	23714
829.829	23802
829.968	23920
830.107	24022
830.246	23840
830.385	23741
830.524	23691
830.663	23703
830.802	23543
830.941	23364
831.08	23391
831.219	23573
831.357	23535
831.496	23672
831.635	23406
831.774	23311
831.913	23277
832.051	23220
832.19	23288
832.329	23098
832.467	23025
832.606	23052
832.744	22908
832.883	23124
833.022	22999
833.16	23022
833.299	23105
833.437	23033
833.576	23124
833.714	23212
833.852	23086
833.991	23178
834.129	23273
834.267	23250
834.406	23189
834.544	23254
834.682	23170
834.821	23155
834.959	23280
835.097	23010
835.235	22900
835.373	22991
835.511	22934
835.65	22915
835.788	22812
835.926	22778
836.064	22694
836.202	22774
836.34	22850
836.478	23014
836.615	22831
836.753	22915
836.891	22850
837.029	22904
837.167	22866
837.305	22733
837.443	22740
837.58	22782
837.718	22797
837.856	22618
837.993	22538
838.131	22664
838.269	22683
838.406	22565
838.544	22504
838.681	22363
838.819	22291
838.956	22074
839.094	22139
839.231	22169
839.369	22333
839.506	22432
839.643	22478
839.781	22048
839.918	22040
840.055	22093
840.193	22067
840.33	21876
840.467	22067
840.604	21998
840.742	22143
840.879	21739
841.016	21926
841.153	21850
841.29	22147
841.427	22025
841.564	21998
841.701	21949
841.838	21873
841.975	21838
842.112	21895
842.249	21869
842.385	21709
842.522	21911
842.659	21667
842.796	21698
842.933	21667
843.069	21717
843.206	21553
843.343	21808
843.479	21759
843.616	21625
843.752	21587
843.889	21542
844.025	21568
844.162	21458
844.298	21515
844.435	21367
844.571	21344
844.708	21629
844.844	21690
844.98	21622
845.117	21633
845.253	21545
845.389	21576
845.525	21717
845.661	22048
845.798	22299
845.934	22516
846.07	22622
846.206	22740
846.342	22561
846.478	22177
846.614	21583
846.75	21195
846.886	21321
847.022	21100
847.158	21024
847.294	21085
847.429	20914
847.565	20815
847.701	21150
847.837	20705
847.972	20606
848.108	20564
848.244	20609
848.379	20514
848.515	20438
848.65	20408
848.786	20530
848.921	20499
849.057	20549
849.192	20473
849.328	20533
849.463	20339
849.598	20343
849.734	20393
849.869	20328
850.004	20237
850.14	20263
850.275	20210
850.41	20073
850.545	20111
850.68	20062
850.815	20145
850.95	20088
851.085	20351
851.22	20161
851.355	20157
851.49	20081
851.625	20092
851.76	20103
851.895	20096
852.03	20024
852.165	20126
852.299	20153
852.434	20111
852.569	20191
852.703	20138
852.838	20119
852.973	20263
853.107	20366
853.242	20005
853.376	19871
853.511	19902
853.645	19944
853.78	20221
853.914	19974
854.048	19997
854.183	19951
854.317	20058
854.451	20111
854.585	20096
854.72	19887
854.854	20024
854.988	19947
855.122	19982
855.256	19833
855.39	19951
855.524	19947
855.658	20073
855.792	19993
855.926	19986
856.06	20016
856.194	20043
856.327	19947
856.461	19883
856.595	19746
856.729	19921
856.862	20069
856.996	19963
857.13	20039
857.263	19967
857.397	19997
857.53	19921
857.664	20016
857.797	19967
857.931	19967
858.064	19944
858.197	20077
858.331	19909
858.464	19879
858.597	19795
858.731	19849
858.864	19879
858.997	19799
859.13	19875
859.263	19803
859.396	19997
859.529	19902
859.662	19803
859.795	19864
859.928	19898
860.061	19902
860.194	20031
860.327	19898
860.46	19791
860.592	19928
860.725	19887
860.858	19879
860.99	19875
861.123	19753
861.256	19841
861.388	19841
861.521	20499
861.653	19712
861.786	19761
861.918	19742
862.05	19951
862.183	19883
862.315	19932
862.447	20027
862.58	19849
862.712	19590
862.844	19620
862.976	19632
863.108	19670
863.24	20020
863.372	19655
863.504	19609
863.636	19563
863.768	19582
863.9	19544
864.032	19518
864.164	19552
864.296	19540
864.428	19616
864.559	19533
864.691	19510
864.823	19540
864.954	19578
865.086	19506
865.217	19407
865.349	19354
865.48	19495
865.612	19381
865.743	19658
865.875	19518
866.006	19480
866.137	19339
866.269	19480
866.4	19506
866.531	19483
866.662	19320
866.793	19453
866.924	19324
867.055	19396
867.186	19362
867.317	19464
867.448	19335
867.579	19453
867.71	19369
867.841	19369
867.972	19480
868.103	19438
868.233	19354
868.364	19415
868.495	19521
868.625	19582
868.756	19727
868.886	19533
869.017	19563
869.147	19715
869.278	19719
869.408	19662
869.539	19616
869.669	19655
869.799	19708
869.929	19715
870.06	19845
870.19	19974
870.32	19967
870.45	19909
870.58	20005
870.71	20142
870.84	20081
870.97	20073
871.1	20046
871.23	20233
871.36	20176
871.489	20081
871.619	20199
871.749	20206
871.879	20252
872.008	20267
872.138	20313
872.267	20259
872.397	20077
872.526	20043
872.656	20161
872.785	20012
872.915	20229
873.044	20347
873.173	20267
873.303	20328
873.432	20366
873.561	20336
873.69	20180
873.819	20275
873.948	20438
874.077	20362
874.206	20317
874.335	20180
874.464	20419
874.593	20450
874.722	20415
874.851	20556
874.979	20606
875.108	20655
875.237	20499
875.365	20396
875.494	20621
875.623	20587
875.751	20541
875.88	20659
876.008	20796
876.136	20716
876.265	20937
876.393	21077
876.521	20963
876.65	21085
876.778	20880
876.906	20887
877.034	20902
877.162	20918
877.29	20918
877.418	20944
877.546	21013
877.674	21066
877.802	20861
877.93	20975
878.058	20914
878.185	20918
878.313	20921
878.441	21074
878.568	20914
878.696	21051
878.824	21047
878.951	21256
879.079	21466
879.206	21728
879.333	21614
879.461	21717
879.588	21739
879.715	21819
879.842	21911
879.97	21500
880.097	21203
880.224	21150
880.351	21138
880.478	21058
880.605	20952
880.732	20982
880.859	21184
880.986	20906
881.112	20895
881.239	20815
881.366	20769
881.493	20640
881.619	20533
881.746	20568
881.872	20480
881.999	20568
882.125	20503
882.252	20507
882.378	20549
882.505	20686
882.631	20358
882.757	20351
882.883	20377
883.01	20275
883.136	20328
883.262	19997
883.388	20122
883.514	20328
883.64	20366
883.766	20202
883.892	20214
884.018	20138
884.143	20275
884.269	20278
884.395	20153
884.52	19997
884.646	19909
884.772	19951
884.897	19932
885.023	19940
885.148	20039
885.274	20046
885.399	20084
885.524	19913
885.65	19951
885.775	19902
885.9	19932
886.025	19974
886.15	20027
886.275	19883
886.4	19769
886.525	19791
886.65	19803
886.775	19765
886.9	20050
887.025	20031
887.149	19799
887.274	19674
887.399	19567
887.523	19681
887.648	19567
887.773	19480
887.897	19586
888.021	19575
888.146	19575
888.27	19677
888.395	19715
888.519	19586
888.643	19578
888.767	19685
888.891	19426
889.015	19327
889.139	19438
889.263	19354
889.387	19502
889.511	19628
889.635	19388
889.759	19384
889.883	19213
890.006	19373
890.13	19419
890.254	19251
890.377	19244
890.501	19148
890.624	19069
890.748	19160
890.871	19034
890.995	18901
891.118	18878
891.241	18924
891.364	18916
891.488	18989
891.611	18993
891.734	18962
891.857	18985
891.98	18875
892.103	18901
892.226	18932
892.349	18886
892.471	18738
892.594	18840
892.717	18753
892.839	18817
892.962	18810
893.085	18821
893.207	18795
893.33	18802
893.452	18681
893.575	18844
893.697	18795
893.819	18932
893.941	19000
894.064	18970
894.186	18734
894.308	18795
894.43	18951
894.552	18981
894.674	18901
894.796	18844
894.918	18867
895.04	18753
895.161	18837
895.283	18768
895.405	18779
895.526	18878
895.648	18798
895.769	19034
895.891	18817
896.012	18939
896.134	18920
896.255	18939
896.376	18863
896.498	18844
896.619	18958
896.74	18996
896.861	18882
896.982	19141
897.103	19384
897.224	19171
897.345	19126
897.466	18954
897.587	19103
897.708	19255
897.828	19107
897.949	18985
898.07	18962
898.19	19057
898.311	19179
898.431	19072
898.552	19126
898.672	19198
898.792	19122
898.913	19076
899.033	18958
899.153	18951
899.273	18859
899.393	18798
899.513	18882
899.633	18844
899.753	18894
899.873	18825
899.993	18897
900.113	18829
900.232	18848
900.352	18700
900.472	18681
900.591	18612
900.711	18791
900.83	18688
900.95	18840
901.069	18817
901.189	18540
901.308	18437
901.427	18258
901.546	18228
901.665	18197
901.784	18205
901.904	18098
902.023	18034
902.141	17851
902.26	17771
902.379	17893
902.498	17866
902.617	17710
902.735	17821
902.854	17760
902.973	17722
903.091	17425
903.21	17467
903.328	17417
903.446	17261
903.565	17239
903.683	17216
903.801	17189
903.919	17166
904.038	17155
904.156	17064
904.274	17086
904.392	17025
904.51	17033
904.627	16953
904.745	17060
904.863	17094
904.981	16790
905.098	16630
905.216	16713
905.334	16664
905.451	16729
905.569	16542
905.686	16702
905.803	16519
905.921	16500
906.038	16573
906.155	16447
906.272	16341
906.389	16375
906.506	16242
906.623	16219
906.74	16051
906.857	16063
906.974	16112
907.091	16325
907.208	16173
907.324	16204
907.441	16021
907.557	15865
907.674	15869
907.79	15762
907.907	15903
908.023	15835
908.139	15945
908.256	15838
908.372	15739
908.488	15720
908.604	15667
908.72	15549
908.836	15576
908.952	15542
909.068	15584
909.184	15663
909.3	15492
909.415	15549
909.531	15507
909.647	15306
909.762	15294
909.878	15256
909.993	15241
910.108	15222
910.224	15211
910.339	15306
910.454	15131
910.57	15062
910.685	14925
910.8	15306
910.915	15116
911.03	14998
911.145	14838
911.259	14895
911.374	14887
911.489	14800
911.604	14750
911.718	14712
911.833	14621
911.947	14511
912.062	14438
912.176	14598
912.291	14670
912.405	14526
912.519	14735
912.633	14819
912.748	14648
912.862	14522
912.976	14404
913.09	14415
913.204	14370
913.318	14450
913.431	14537
913.545	14514
913.659	14514
913.772	14408
913.886	14206
914	14221
914.113	14214
914.226	14336
914.34	14294
914.453	14153
914.566	14332
914.68	14103
914.793	14172
914.906	13963
915.019	13970
915.132	13841
915.245	13875
915.358	13947
915.47	13955
915.583	14008
915.696	13868
915.809	13967
915.921	14073
916.034	13803
916.146	13814
916.259	13784
916.371	13928
916.483	13814
916.595	13803
916.708	13731
916.82	13776
916.932	13696
917.044	13681
917.156	13647
917.268	13556
917.38	13632
917.491	13521
917.603	13616
917.715	13712
917.826	13696
917.938	13613
918.049	13445
918.161	13495
918.272	13715
918.384	13609
918.495	13483
918.606	13392
918.717	13354
918.828	13384
918.939	13422
919.05	13266
919.161	13339
919.272	13095
919.383	13168
919.494	13365
919.604	13521
919.715	13289
919.826	13107
919.936	13270
920.047	13369
920.157	13358
920.267	13438
920.378	13278
920.488	13244
920.598	13521
920.708	13540
920.818	13499
920.928	13400
921.038	13578
921.148	13582
921.258	13327
921.368	13175
921.477	13152
921.587	13114
921.697	13042
921.806	13038
921.916	12886
922.025	12749
922.134	12741
922.244	12719
922.353	12658
922.462	12585
922.571	12547
922.68	12483
922.789	12414
922.898	12228
923.007	12228
923.116	12342
923.224	12403
923.333	12281
923.442	12251
923.55	12205
923.659	12270
923.767	12323
923.876	12114
923.984	12129
924.092	12064
924.201	12213
924.309	12175
924.417	12091
924.525	12079
924.633	12026
924.741	12970
924.849	11863
924.956	12038
925.064	11946
925.172	11783
925.279	11863
925.387	11863
925.494	11828
925.602	12034
925.709	11897
925.816	11809
925.924	11790
926.031	11916
926.138	11836
926.245	11802
926.352	11695
926.459	11859
926.566	11855
926.673	11718
926.779	11585
926.886	11623
926.993	11429
927.099	11501
927.206	11417
927.312	11402
927.419	11444
927.525	11364
927.631	11505
927.737	11391
927.843	11318
927.95	11151
928.056	11254
928.162	11337
928.267	11417
928.373	11908
928.479	11459
928.585	11128
928.69	11223
928.796	11280
928.901	11216
929.007	11045
929.112	11204
929.218	11090
929.323	11102
929.428	10984
929.533	11151
929.638	10949
929.743	10972
929.848	10934
929.953	11025
930.058	10911
930.163	10774
930.267	10748
930.372	10854
930.477	10675
930.581	10961
930.685	10710
930.79	10550
930.894	10641
930.998	10618
931.103	10706
931.207	10306
931.311	10295
931.415	10238
931.519	10051
931.623	9934
