Data from test_V78500241_799.txt Node
Date: Fri Mar 25 14:39:16 CST 2022
User: usil
Spectrometer: V785-0024
Trigger mode: 0
Integration Time (sec): 4.000000E-1
Scans to average: 1
Nonlinearity correction enabled: false
Boxcar width: 0
Storing dark spectrum: false
XAxis mode: Wavelengths
Number of Pixels in Spectrum: 1024
>>>>>Begin Spectral Data<<<<<
801.071	26457
801.214	26347
801.356	26183
801.499	26100
801.641	25966
801.783	25868
801.926	25845
802.068	25807
802.211	25601
802.353	25616
802.496	25460
802.638	25487
802.78	25426
802.923	25369
803.065	25293
803.208	25282
803.35	25301
803.492	25457
803.635	25438
803.777	25346
803.919	25468
804.061	25719
804.204	25578
804.346	25453
804.488	25540
804.63	25495
804.773	25365
804.915	25491
805.057	25662
805.199	25723
805.341	25674
805.483	25883
805.626	25753
805.768	25837
805.91	25978
806.052	26024
806.194	26126
806.336	26492
806.478	26514
806.62	26598
806.762	26960
806.904	27287
807.046	27739
807.188	27892
807.33	28192
807.472	28637
807.614	29277
807.756	30030
807.898	30905
808.04	32126
808.182	33743
808.324	35691
808.465	38286
808.607	41102
808.749	43194
808.891	44781
809.033	44952
809.174	43476
809.316	41250
809.458	38438
809.6	35718
809.741	33545
809.883	31597
810.025	30623
810.166	29562
810.308	29098
810.45	28413
810.591	27937
810.733	27454
810.875	27150
811.016	26990
811.158	26811
811.299	26792
811.441	26727
811.582	26526
811.724	26313
811.865	26149
812.007	26263
812.148	26252
812.29	26027
812.431	26275
812.573	26320
812.714	26282
812.855	26358
812.997	26412
813.138	26514
813.279	26305
813.421	26172
813.562	26001
813.703	25993
813.845	25845
813.986	25445
814.127	25251
814.268	25171
814.41	25156
814.551	24970
814.692	25129
814.833	24875
814.974	24992
815.115	24848
815.256	24863
815.397	24589
815.539	24715
815.68	24715
815.821	24585
815.962	24559
816.103	24688
816.244	24388
816.385	24315
816.526	24342
816.666	24026
816.807	23897
816.948	24072
817.089	23973
817.23	23889
817.371	23893
817.512	23843
817.653	23977
817.793	23718
817.934	23843
818.075	23904
818.216	23756
818.356	23718
818.497	23783
818.638	23493
818.778	23554
818.919	23516
819.06	23490
819.2	23642
819.341	23714
819.481	23843
819.622	23836
819.762	23961
819.903	23840
820.043	23916
820.184	23851
820.324	23855
820.465	23851
820.605	23661
820.746	23764
820.886	23581
821.026	23661
821.167	23619
821.307	23665
821.447	23649
821.588	23512
821.728	23376
821.868	23269
822.008	23006
822.149	23052
822.289	22968
822.429	22713
822.569	22599
822.709	22615
822.849	22451
822.99	22485
823.13	22287
823.27	22299
823.41	22325
823.55	22112
823.69	22261
823.83	22223
823.97	22219
824.11	21983
824.25	21983
824.389	22044
824.529	22025
824.669	21911
824.809	22219
824.949	22166
825.089	22006
825.228	22017
825.368	21743
825.508	21713
825.648	21797
825.787	21869
825.927	21838
826.067	21755
826.206	21816
826.346	21797
826.485	21709
826.625	21705
826.765	21888
826.904	21812
827.044	21644
827.183	21542
827.323	21538
827.462	21378
827.601	21408
827.741	21462
827.88	21374
828.02	21389
828.159	21363
828.298	21344
828.437	21492
828.577	21291
828.716	21462
828.855	21272
828.994	21062
829.134	21161
829.273	21264
829.412	21096
829.551	21051
829.69	21093
829.829	21188
829.968	21150
830.107	21199
830.246	21081
830.385	21058
830.524	21005
830.663	21032
830.802	20925
830.941	20804
831.08	20663
831.219	20823
831.357	20686
831.496	20944
831.635	20716
831.774	20712
831.913	20598
832.051	20609
832.19	20617
832.329	20583
832.467	20476
832.606	20541
832.744	20564
832.883	20545
833.022	20663
833.16	20727
833.299	20769
833.437	20986
833.576	20941
833.714	21135
833.852	21275
833.991	21317
834.129	21386
834.267	21408
834.406	21336
834.544	21264
834.682	21218
834.821	21188
834.959	21127
835.097	20868
835.235	20857
835.373	20746
835.511	20758
835.65	20629
835.788	20415
835.926	20275
836.064	20218
836.202	20180
836.34	20381
836.478	20499
836.615	20263
836.753	20237
836.891	20446
837.029	20396
837.167	20187
837.305	20195
837.443	20191
837.58	20100
837.718	20088
837.856	20031
837.993	20065
838.131	20088
838.269	19982
838.406	19898
838.544	19951
838.681	19666
838.819	19655
838.956	19449
839.094	19559
839.231	19597
839.369	19674
839.506	19936
839.643	19807
839.781	19533
839.918	19480
840.055	19445
840.193	19495
840.33	19400
840.467	19403
840.604	19499
840.742	19723
840.879	19396
841.016	19365
841.153	19316
841.29	19552
841.427	19468
841.564	19529
841.701	19422
841.838	19510
841.975	19415
842.112	19457
842.249	19228
842.385	19255
842.522	19453
842.659	19217
842.796	19373
842.933	19358
843.069	19324
843.206	19388
843.343	19518
843.479	19384
843.616	19335
843.752	19331
843.889	19251
844.025	19559
844.162	19400
844.298	19662
844.435	19552
844.571	19712
844.708	19894
844.844	20237
844.98	20762
845.117	21241
845.253	21903
845.389	23239
845.525	26210
845.661	30764
845.798	36346
845.934	40519
846.07	42125
846.206	41242
846.342	37464
846.478	32077
846.614	27070
846.75	24018
846.886	22055
847.022	21032
847.158	20275
847.294	19689
847.429	19422
847.565	19320
847.701	19362
847.837	18783
847.972	18631
848.108	18753
848.244	18627
848.379	18547
848.515	18471
848.65	18384
848.786	18315
848.921	18342
849.057	18395
849.192	18433
849.328	18285
849.463	18308
849.598	18235
849.734	18106
849.869	18068
850.004	18015
850.14	17882
850.275	17916
850.41	17965
850.545	17821
850.68	17843
850.815	17988
850.95	17878
851.085	18091
851.22	18041
851.355	18038
851.49	17920
851.625	17695
851.76	17908
851.895	17805
852.03	17840
852.165	17920
852.299	17969
852.434	18003
852.569	18087
852.703	17992
852.838	18041
852.973	18125
853.107	18155
853.242	17920
853.376	17817
853.511	17863
853.645	17897
853.78	18121
853.914	18060
854.048	18034
854.183	18007
854.317	18194
854.451	18266
854.585	18205
854.72	18144
854.854	18197
854.988	17904
855.122	18030
855.256	17980
855.39	17942
855.524	18053
855.658	17965
855.792	17885
855.926	17828
856.06	17927
856.194	17954
856.327	17828
856.461	17756
856.595	17779
856.729	17783
856.862	17882
856.996	17794
857.13	17923
857.263	17767
857.397	17821
857.53	17729
857.664	17828
857.797	17916
857.931	17840
858.064	17676
858.197	17775
858.331	17665
858.464	17619
858.597	17554
858.731	17596
858.864	17619
858.997	17577
859.13	17672
859.263	17634
859.396	17764
859.529	17726
859.662	17520
859.795	17570
859.928	17729
860.061	17779
860.194	17745
860.327	17592
860.46	17562
860.592	17646
860.725	17752
860.858	17775
860.99	17596
861.123	17455
861.256	17497
861.388	17646
861.521	18201
861.653	17490
861.786	17459
861.918	17459
862.05	17551
862.183	17493
862.315	17516
862.447	17516
862.58	17592
862.712	17421
862.844	17299
862.976	17486
863.108	17334
863.24	17775
863.372	17284
863.504	17315
863.636	17269
863.768	17246
863.9	17280
864.032	17235
864.164	17231
864.296	17364
864.428	17436
864.559	17307
864.691	17356
864.823	17284
864.954	17288
865.086	17220
865.217	17269
865.349	17094
865.48	17140
865.612	17322
865.743	17433
865.875	17242
866.006	17147
866.137	17220
866.269	17151
866.4	17174
866.531	17235
866.662	17162
866.793	17159
866.924	17151
867.055	17273
867.186	17140
867.317	17197
867.448	17147
867.579	17010
867.71	17048
867.841	17200
867.972	17200
868.103	17197
868.233	17235
868.364	17136
868.495	17349
868.625	17486
868.756	17452
868.886	17421
869.017	17478
869.147	17573
869.278	17600
869.408	17524
869.539	17410
869.669	17611
869.799	17448
869.929	17600
870.06	17619
870.19	17767
870.32	17733
870.45	17843
870.58	17950
870.71	18049
870.84	17965
870.97	17893
871.1	17935
871.23	18072
871.36	18095
871.489	18030
871.619	18106
871.749	18068
871.879	18125
872.008	18197
872.138	18117
872.267	18167
872.397	18098
872.526	18038
872.656	18102
872.785	18053
872.915	18270
873.044	18266
873.173	18247
873.303	18327
873.432	18319
873.561	18502
873.69	18418
873.819	18357
873.948	18494
874.077	18452
874.206	18418
874.335	18532
874.464	18642
874.593	18768
874.722	18878
874.851	18863
874.979	18882
875.108	18966
875.237	18837
875.365	18810
875.494	18958
875.623	18954
875.751	19076
875.88	19042
876.008	19293
876.136	19400
876.265	19559
876.393	19738
876.521	19708
876.65	19715
876.778	19765
876.906	19807
877.034	19917
877.162	19856
877.29	19909
877.418	20142
877.546	20142
877.674	20183
877.802	20290
877.93	20351
878.058	20571
878.185	20579
878.313	20868
878.441	21230
878.568	21283
878.696	21979
878.824	22413
878.951	23524
879.079	24722
879.206	26480
879.333	28154
879.461	29573
879.588	30346
879.715	30494
879.842	29661
879.97	28173
880.097	26469
880.224	24947
880.351	24095
880.478	23395
880.605	22801
880.732	22527
880.859	22580
880.986	22219
881.112	22177
881.239	22093
881.366	21857
881.493	21793
881.619	21713
881.746	21804
881.872	21743
881.999	21869
882.125	21831
882.252	21994
882.378	21918
882.505	22086
882.631	21930
882.757	21808
882.883	21907
883.01	21743
883.136	21682
883.262	21549
883.388	21507
883.514	21732
883.64	21789
883.766	21663
883.892	21416
884.018	21500
884.143	21660
884.269	21759
884.395	21431
884.52	21386
884.646	21424
884.772	21401
884.897	21279
885.023	21492
885.148	21386
885.274	21530
885.399	21462
885.524	21176
885.65	21211
885.775	21074
885.9	20933
886.025	20834
886.15	20769
886.275	20644
886.4	20339
886.525	20400
886.65	20252
886.775	20069
886.9	20286
887.025	20206
887.149	19921
887.274	19666
887.399	19563
887.523	19544
887.648	19407
887.773	19331
887.897	19350
888.021	19426
888.146	19183
888.27	19304
888.395	19297
888.519	19103
888.643	19095
888.767	19069
888.891	18894
889.015	18703
889.139	18878
889.263	18795
889.387	18798
889.511	18916
889.635	18772
889.759	18490
889.883	18631
890.006	18612
890.13	18707
890.254	18388
890.377	18506
890.501	18152
890.624	18167
890.748	18239
890.871	18133
890.995	18060
891.118	18026
891.241	18026
891.364	17954
891.488	17977
891.611	17984
891.734	18019
891.857	17935
891.98	17855
892.103	17885
892.226	17847
892.349	17764
892.471	17611
892.594	17676
892.717	17699
892.839	17619
892.962	17547
893.085	17699
893.207	17665
893.33	17402
893.452	17570
893.575	17604
893.697	17364
893.819	17600
893.941	17623
894.064	17551
894.186	17402
894.308	17299
894.43	17459
894.552	17585
894.674	17512
894.796	17273
894.918	17326
895.04	17311
895.161	17387
895.283	17349
895.405	17235
895.526	17239
895.648	17299
895.769	17303
895.891	17379
896.012	17425
896.134	17326
896.255	17326
896.376	17334
896.498	17170
896.619	17292
896.74	17395
896.861	17288
896.982	17608
897.103	17665
897.224	17611
897.345	17467
897.466	17414
897.587	17429
897.708	17543
897.828	17520
897.949	17360
898.07	17372
898.19	17383
898.311	17608
898.431	17490
898.552	17455
898.672	17478
898.792	17486
898.913	17566
899.033	17242
899.153	17330
899.273	17220
899.393	17280
899.513	17200
899.633	17334
899.753	17296
899.873	17337
899.993	17265
900.113	17303
900.232	17185
900.352	17143
900.472	17086
900.591	17029
900.711	17083
900.83	17041
900.95	17178
901.069	17132
901.189	16934
901.308	16752
901.427	16736
901.546	16626
901.665	16542
901.784	16660
901.904	16626
902.023	16363
902.141	16257
902.26	16131
902.379	16246
902.498	16143
902.617	16124
902.735	16036
902.854	16067
902.973	16067
903.091	15793
903.21	15755
903.328	15797
903.446	15694
903.565	15545
903.683	15629
903.801	15428
903.919	15618
904.038	15485
904.156	15367
904.274	15466
904.392	15355
904.51	15313
904.627	15336
904.745	15382
904.863	15416
904.981	15138
905.098	15112
905.216	15017
905.334	14990
905.451	15013
905.569	15024
905.686	15028
905.803	15005
905.921	14735
906.038	14868
906.155	14788
906.272	14663
906.389	14613
906.506	14617
906.623	14511
906.74	14507
906.857	14374
906.974	14454
907.091	14621
907.208	14659
907.324	14560
907.441	14370
907.557	14313
907.674	14278
907.79	14256
907.907	14210
908.023	14164
908.139	14301
908.256	14168
908.372	14172
908.488	14096
908.604	14096
908.72	14008
908.836	13989
908.952	13963
909.068	13967
909.184	14065
909.3	13982
909.415	14081
909.531	13993
909.647	13803
909.762	13753
909.878	13757
909.993	13791
910.108	13696
910.224	13681
910.339	13715
910.454	13689
910.57	13499
910.685	13441
910.8	13746
910.915	13689
911.03	13529
911.145	13396
911.259	13350
911.374	13365
911.489	13259
911.604	13213
911.718	13091
911.833	13065
911.947	12996
912.062	12897
912.176	13129
912.291	13133
912.405	13080
912.519	13259
912.633	13278
912.748	13141
912.862	13091
912.976	12954
913.09	12684
913.204	12928
913.318	12958
913.431	13080
913.545	13004
913.659	12973
913.772	12935
913.886	12844
914	12772
914.113	12833
914.226	12924
914.34	12806
914.453	12696
914.566	12867
914.68	12722
914.793	12639
914.906	12585
915.019	12517
915.132	12448
915.245	12597
915.358	12502
915.47	12582
915.583	12479
915.696	12490
915.809	12635
915.921	12616
916.034	12483
916.146	12490
916.259	12452
916.371	12597
916.483	12532
916.595	12483
916.708	12433
916.82	12414
916.932	12460
917.044	12494
917.156	12384
917.268	12289
917.38	12365
917.491	12304
917.603	12361
917.715	12395
917.826	12369
917.938	12247
918.049	12136
918.161	12266
918.272	12388
918.384	12330
918.495	12243
918.606	12083
918.717	11969
918.828	12186
918.939	12083
919.05	11912
919.161	12125
919.272	11813
919.383	11916
919.494	12106
919.604	12266
919.715	12007
919.826	12045
919.936	11999
920.047	12144
920.157	12106
920.267	12186
920.378	12060
920.488	12057
920.598	12270
920.708	12422
920.818	12171
920.928	12220
921.038	12410
921.148	12319
921.258	12110
921.368	12003
921.477	11935
921.587	11851
921.697	11779
921.806	11923
921.916	11707
922.025	11619
922.134	11554
922.244	11471
922.353	11619
922.462	11452
922.571	11387
922.68	11242
922.789	11235
922.898	11246
923.007	11170
923.116	11201
923.224	11299
923.333	11159
923.442	11086
923.55	11121
923.659	11105
923.767	11140
923.876	11037
923.984	11143
924.092	11025
924.201	11083
924.309	11052
924.417	11056
924.525	10953
924.633	11071
924.741	11885
924.849	10717
924.956	10911
925.064	10729
925.172	10733
925.279	10729
925.387	10782
925.494	10767
925.602	10991
925.709	10858
925.816	10702
925.924	10755
926.031	10839
926.138	10790
926.245	10786
926.352	10649
926.459	10774
926.566	10835
926.673	10668
926.779	10561
926.886	10577
926.993	10519
927.099	10436
927.206	10421
927.312	10367
927.419	10447
927.525	10428
927.631	10424
927.737	10306
927.843	10322
927.95	10177
928.056	10227
928.162	10310
928.267	10341
928.373	10885
928.479	10341
928.585	10074
928.69	10242
928.796	10230
928.901	10192
929.007	10010
929.112	10169
929.218	10181
929.323	10082
929.428	9983
929.533	10268
929.638	9994
929.743	9934
929.848	10192
929.953	10067
930.058	9968
930.163	9717
930.267	9827
930.372	9987
930.477	9751
930.581	10025
930.685	9816
930.79	9675
930.894	9679
930.998	9675
931.103	9873
931.207	9447
931.311	9416
931.415	9363
931.519	9169
931.623	9127
