Data from test_V78500241_3525.txt Node
Date: Fri Mar 25 14:58:15 CST 2022
User: usil
Spectrometer: V785-0024
Trigger mode: 0
Integration Time (sec): 4.000000E-1
Scans to average: 1
Nonlinearity correction enabled: false
Boxcar width: 0
Storing dark spectrum: false
XAxis mode: Wavelengths
Number of Pixels in Spectrum: 1024
>>>>>Begin Spectral Data<<<<<
801.071	21930
801.214	21857
801.356	21542
801.499	21473
801.641	21332
801.783	21321
801.926	21245
802.068	21241
802.211	21150
802.353	21009
802.496	20895
802.638	20853
802.78	20678
802.923	20720
803.065	20617
803.208	20678
803.35	20583
803.492	20705
803.635	20613
803.777	20598
803.919	20682
804.061	20918
804.204	20678
804.346	20583
804.488	20446
804.63	20648
804.773	20457
804.915	20431
805.057	20484
805.199	20492
805.341	20564
805.483	20724
805.626	20575
805.768	20465
805.91	20492
806.052	20526
806.194	20609
806.336	20594
806.478	20461
806.62	20473
806.762	20503
806.904	20629
807.046	20823
807.188	20868
807.33	20834
807.472	20891
807.614	20678
807.756	20659
807.898	20731
808.04	20568
808.182	20530
808.324	20484
808.465	20499
808.607	20796
808.749	20788
808.891	21020
809.033	21043
809.174	20899
809.316	20834
809.458	20834
809.6	20834
809.741	20842
809.883	20937
810.025	20986
810.166	21051
810.308	21077
810.45	21001
810.591	20815
810.733	20705
810.875	20579
811.016	20495
811.158	20533
811.299	20640
811.441	20785
811.582	20762
811.724	20503
811.865	20674
812.007	20705
812.148	20564
812.29	20609
812.431	20792
812.573	20861
812.714	20857
812.855	21112
812.997	21199
813.138	21260
813.279	21256
813.421	21028
813.562	21047
813.703	20670
813.845	20705
813.986	20507
814.127	20278
814.268	20149
814.41	20237
814.551	20145
814.692	20286
814.833	20134
814.974	20126
815.115	20286
815.256	20005
815.397	20027
815.539	20005
815.68	19928
815.821	19807
815.962	19883
816.103	19944
816.244	19814
816.385	19734
816.526	19586
816.666	19548
816.807	19263
816.948	19434
817.089	19422
817.23	19316
817.371	19278
817.512	19225
817.653	19137
817.793	19289
817.934	19232
818.075	19377
818.216	19263
818.356	19168
818.497	19091
818.638	18894
818.778	18985
818.919	19023
819.06	18916
819.2	19072
819.341	19236
819.481	19160
819.622	19358
819.762	19499
819.903	19411
820.043	19327
820.184	19354
820.324	19198
820.465	19327
820.605	19282
820.746	19240
820.886	19168
821.026	19228
821.167	19247
821.307	19190
821.447	19217
821.588	19179
821.728	18928
821.868	18814
822.008	18772
822.149	18757
822.289	18688
822.429	18426
822.569	18334
822.709	18407
822.849	18190
822.99	18186
823.13	18155
823.27	18247
823.41	18049
823.55	17977
823.69	17931
823.83	18064
823.97	17859
824.11	17756
824.25	17589
824.389	17764
824.529	17699
824.669	17752
824.809	17802
824.949	17916
825.089	17798
825.228	17840
825.368	17539
825.508	17661
825.648	17596
825.787	17467
825.927	17581
826.067	17543
826.206	17520
826.346	17505
826.485	17570
826.625	17463
826.765	17596
826.904	17539
827.044	17406
827.183	17322
827.323	17185
827.462	17178
827.601	17200
827.741	17223
827.88	17356
828.02	17159
828.159	17178
828.298	17223
828.437	17269
828.577	17193
828.716	17315
828.855	17185
828.994	16957
829.134	17010
829.273	17037
829.412	16995
829.551	16873
829.69	17003
829.829	17117
829.968	17136
830.107	17071
830.246	16976
830.385	16869
830.524	16900
830.663	16797
830.802	16713
830.941	16687
831.08	16618
831.219	16656
831.357	16603
831.496	16850
831.635	16736
831.774	16523
831.913	16428
832.051	16409
832.19	16481
832.329	16474
832.467	16249
832.606	16249
832.744	16261
832.883	16291
833.022	16371
833.16	16234
833.299	16246
833.437	16318
833.576	16386
833.714	16367
833.852	16413
833.991	16417
834.129	16341
834.267	16367
834.406	16386
834.544	16360
834.682	16405
834.821	16451
834.959	16558
835.097	16379
835.235	16367
835.373	16306
835.511	16352
835.65	16291
835.788	16215
835.926	16280
836.064	16185
836.202	16097
836.34	16329
836.478	16428
836.615	16261
836.753	16291
836.891	16367
837.029	16367
837.167	16310
837.305	16268
837.443	16139
837.58	16048
837.718	16287
837.856	16204
837.993	16109
838.131	16082
838.269	16029
838.406	16017
838.544	15979
838.681	15800
838.819	15876
838.956	15660
839.094	15751
839.231	15789
839.369	15865
839.506	16139
839.643	15861
839.781	15720
839.918	15568
840.055	15739
840.193	15778
840.33	15686
840.467	15667
840.604	15698
840.742	15949
840.879	15625
841.016	15637
841.153	15610
841.29	15804
841.427	15743
841.564	15831
841.701	15660
841.838	15648
841.975	15660
842.112	15633
842.249	15553
842.385	15447
842.522	15690
842.659	15545
842.796	15504
842.933	15614
843.069	15557
843.206	15443
843.343	15507
843.479	15530
843.616	15561
843.752	15272
843.889	15283
844.025	15378
844.162	15097
844.298	15317
844.435	15245
844.571	15188
844.708	15382
844.844	15561
844.98	15443
845.117	15393
845.253	15336
845.389	15192
845.525	15249
845.661	15146
845.798	15192
845.934	15100
846.07	15032
846.206	15127
846.342	15157
846.478	15127
846.614	14883
846.75	14781
846.886	14823
847.022	14998
847.158	14838
847.294	14872
847.429	14937
847.565	14887
847.701	15051
847.837	14587
847.972	14613
848.108	14625
848.244	14629
848.379	14473
848.515	14423
848.65	14419
848.786	14457
848.921	14488
849.057	14629
849.192	14564
849.328	14556
849.463	14461
849.598	14450
849.734	14377
849.869	14431
850.004	14206
850.14	14324
850.275	14199
850.41	14191
850.545	14275
850.68	14077
850.815	14263
850.95	14172
851.085	14347
851.22	14347
851.355	14244
851.49	14195
851.625	14290
851.76	14252
851.895	14111
852.03	14187
852.165	14252
852.299	14157
852.434	14370
852.569	14305
852.703	14313
852.838	14343
852.973	14374
853.107	14347
853.242	14237
853.376	14084
853.511	14062
853.645	14054
853.78	14183
853.914	14187
854.048	14103
854.183	14050
854.317	14111
854.451	14271
854.585	14043
854.72	14142
854.854	14107
854.988	14001
855.122	14107
855.256	13997
855.39	14077
855.524	14180
855.658	14142
855.792	14180
855.926	14096
856.06	14142
856.194	14161
856.327	14267
856.461	14008
856.595	14111
856.729	14161
856.862	14202
856.996	14062
857.13	14214
857.263	14168
857.397	14218
857.53	14126
857.664	14172
857.797	14240
857.931	14195
858.064	14176
858.197	14206
858.331	14115
858.464	13982
858.597	13936
858.731	14103
858.864	14142
858.997	14115
859.13	14088
859.263	14088
859.396	14180
859.529	14123
859.662	14092
859.795	14016
859.928	14142
860.061	14244
860.194	14309
860.327	14210
860.46	14058
860.592	14214
860.725	14278
860.858	14282
860.99	14130
861.123	14035
861.256	14054
861.388	14092
861.521	14952
861.653	13928
861.786	13986
861.918	14008
862.05	14077
862.183	14046
862.315	14103
862.447	14130
862.58	14092
862.712	13830
862.844	13738
862.976	13959
863.108	13860
863.24	14206
863.372	13765
863.504	13871
863.636	13830
863.768	13894
863.9	14012
864.032	13818
864.164	13837
864.296	13917
864.428	13947
864.559	13963
864.691	13993
864.823	14012
864.954	13917
865.086	13967
865.217	13887
865.349	13811
865.48	13921
865.612	13879
865.743	14058
865.875	13913
866.006	13860
866.137	13833
866.269	13879
866.4	13894
866.531	13864
866.662	13822
866.793	13883
866.924	13875
867.055	13894
867.186	13875
867.317	13788
867.448	13776
867.579	13852
867.71	13761
867.841	13788
867.972	13894
868.103	13845
868.233	13890
868.364	13913
868.495	13967
868.625	14157
868.756	14176
868.886	14081
869.017	14065
869.147	14164
869.278	14218
869.408	14138
869.539	14183
869.669	14187
869.799	14202
869.929	14313
870.06	14199
870.19	14431
870.32	14454
870.45	14545
870.58	14507
870.71	14663
870.84	14625
870.97	14587
871.1	14594
871.23	14575
871.36	14807
871.489	14674
871.619	14724
871.749	14804
871.879	14792
872.008	14887
872.138	14731
872.267	14788
872.397	14556
872.526	14549
872.656	14522
872.785	14663
872.915	14712
873.044	14853
873.173	14830
873.303	14743
873.432	14754
873.561	14864
873.69	14735
873.819	14781
873.948	14800
874.077	14796
874.206	14727
874.335	14819
874.464	14883
874.593	15074
874.722	14986
874.851	15104
874.979	15058
875.108	15097
875.237	15150
875.365	14994
875.494	15039
875.623	15055
875.751	15081
875.88	15154
876.008	15332
876.136	15367
876.265	15584
876.393	15614
876.521	15576
876.65	15564
876.778	15485
876.906	15530
877.034	15469
877.162	15481
877.29	15488
877.418	15545
877.546	15545
877.674	15511
877.802	15462
877.93	15519
878.058	15507
878.185	15370
878.313	15557
878.441	15576
878.568	15393
878.696	15393
878.824	15568
878.951	15564
879.079	15675
879.206	15789
879.333	15690
879.461	15477
879.588	15538
879.715	15717
879.842	15778
879.97	15530
880.097	15374
880.224	15405
880.351	15462
880.478	15477
880.605	15401
880.732	15363
880.859	15591
880.986	15386
881.112	15382
881.239	15264
881.366	15169
881.493	15097
881.619	14952
881.746	15058
881.872	15036
881.999	15020
882.125	15039
882.252	15093
882.378	15036
882.505	15173
882.631	14952
882.757	14819
882.883	14804
883.01	14800
883.136	14785
883.262	14724
883.388	14731
883.514	14880
883.64	14941
883.766	14823
883.892	14648
884.018	14716
884.143	14800
884.269	14975
884.395	14598
884.52	14537
884.646	14556
884.772	14473
884.897	14427
885.023	14560
885.148	14590
885.274	14720
885.399	14621
885.524	14526
885.65	14526
885.775	14617
885.9	14560
886.025	14663
886.15	14594
886.275	14492
886.4	14408
886.525	14556
886.65	14518
886.775	14518
886.9	14804
887.025	14815
887.149	14518
887.274	14374
887.399	14305
887.523	14237
887.648	14309
887.773	14286
887.897	14389
888.021	14423
888.146	14400
888.27	14442
888.395	14568
888.519	14377
888.643	14454
888.767	14461
888.891	14339
889.015	14218
889.139	14328
889.263	14164
889.387	14381
889.511	14488
889.635	14385
889.759	14214
889.883	14294
890.006	14301
890.13	14381
890.254	14221
890.377	14187
890.501	13978
890.624	14016
890.748	14103
890.871	14092
890.995	13830
891.118	13830
891.241	13955
891.364	13879
891.488	14005
891.611	13917
891.734	13963
891.857	14024
891.98	14050
892.103	13928
892.226	14005
892.349	13890
892.471	13913
892.594	13890
892.717	14012
892.839	13947
892.962	14050
893.085	13997
893.207	13967
893.33	13833
893.452	13989
893.575	13970
893.697	13917
893.819	14168
893.941	14153
894.064	14157
894.186	14016
894.308	13997
894.43	14084
894.552	14161
894.674	14199
894.796	14005
894.918	13936
895.04	14012
895.161	14081
895.283	14062
895.405	14008
895.526	14050
895.648	14142
895.769	14107
895.891	14103
896.012	14172
896.134	14271
896.255	14145
896.376	14084
896.498	14103
896.619	14161
896.74	14161
896.861	14313
896.982	14541
897.103	14617
897.224	14431
897.345	14434
897.466	14332
897.587	14419
897.708	14427
897.828	14530
897.949	14343
898.07	14256
898.19	14419
898.311	14545
898.431	14431
898.552	14404
898.672	14564
898.792	14583
898.913	14499
899.033	14419
899.153	14362
899.273	14218
899.393	14339
899.513	14358
899.633	14294
899.753	14415
899.873	14355
899.993	14431
900.113	14282
900.232	14328
900.352	14313
900.472	14263
900.591	14195
900.711	14221
900.83	14119
900.95	14282
901.069	14328
901.189	14096
901.308	13951
901.427	13822
901.546	13883
901.665	13925
901.784	13974
901.904	13723
902.023	13632
902.141	13510
902.26	13476
902.379	13632
902.498	13460
902.617	13457
902.735	13407
902.854	13441
902.973	13339
903.091	13225
903.21	13183
903.328	13103
903.446	13076
903.565	13031
903.683	13088
903.801	13065
903.919	13069
904.038	13000
904.156	12825
904.274	12806
904.392	12859
904.51	12844
904.627	12863
904.745	12875
904.863	12844
904.981	12612
905.098	12506
905.216	12604
905.334	12563
905.451	12528
905.569	12517
905.686	12593
905.803	12544
905.921	12380
906.038	12471
906.155	12289
906.272	12194
906.389	12190
906.506	12171
906.623	12102
906.74	12110
906.857	12079
906.974	12045
907.091	12186
907.208	12311
907.324	12163
907.441	11969
907.557	11874
907.674	11870
907.79	11771
907.907	11847
908.023	11893
908.139	11980
908.256	11813
908.372	11771
908.488	11745
908.604	11748
908.72	11657
908.836	11657
908.952	11585
909.068	11638
909.184	11722
909.3	11695
909.415	11824
909.531	11634
909.647	11402
909.762	11372
909.878	11395
909.993	11486
910.108	11463
910.224	11376
910.339	11372
910.454	11280
910.57	11254
910.685	11212
910.8	11452
910.915	11429
911.03	11273
911.145	11132
911.259	11128
911.374	11094
911.489	11033
911.604	11029
911.718	10828
911.833	10911
911.947	10812
912.062	10740
912.176	10858
912.291	10858
912.405	10847
912.519	11014
912.633	11121
912.748	10953
912.862	10900
912.976	10824
913.09	10626
913.204	10672
913.318	10748
913.431	10778
913.545	10885
913.659	10805
913.772	10801
913.886	10698
914	10588
914.113	10816
914.226	10702
914.34	10622
914.453	10565
914.566	10740
914.68	10584
914.793	10637
914.906	10367
915.019	10341
915.132	10246
915.245	10394
915.358	10386
915.47	10386
915.583	10466
915.696	10417
915.809	10493
915.921	10500
916.034	10348
916.146	10390
916.259	10333
916.371	10386
916.483	10428
916.595	10352
916.708	10344
916.82	10295
916.932	10295
917.044	10299
917.156	10284
917.268	10147
917.38	10215
917.491	10166
917.603	10246
917.715	10306
917.826	10322
917.938	10219
918.049	10059
918.161	10268
918.272	10356
918.384	10344
918.495	10196
918.606	10071
918.717	9991
918.828	10139
918.939	10143
919.05	10063
919.161	10040
919.272	9915
919.383	9911
919.494	10116
919.604	10299
919.715	10147
919.826	10051
919.936	10025
920.047	10135
920.157	10154
920.267	10348
920.378	10109
920.488	10154
920.598	10375
920.708	10481
920.818	10356
920.928	10246
921.038	10462
921.148	10500
921.258	10185
921.368	10196
921.477	10059
921.587	9930
921.697	9831
921.806	9968
921.916	9846
922.025	9743
922.134	9728
922.244	9652
922.353	9705
922.462	9564
922.571	9447
922.68	9431
922.789	9428
922.898	9435
923.007	9351
923.116	9374
923.224	9359
923.333	9355
923.442	9249
923.55	9329
923.659	9233
923.767	9344
923.876	9233
923.984	9310
924.092	9218
924.201	9359
924.309	9256
924.417	9260
924.525	9142
924.633	9222
924.741	10029
924.849	9055
924.956	9211
925.064	9104
925.172	9036
925.279	8929
925.387	9032
925.494	9017
925.602	9089
925.709	9097
925.816	8952
925.924	9127
926.031	9058
926.138	9047
926.245	9070
926.352	8990
926.459	9161
926.566	9161
926.673	8944
926.779	8963
926.886	8948
926.993	8731
927.099	8762
927.206	8678
927.312	8689
927.419	8830
927.525	8804
927.631	8838
927.737	8629
927.843	8617
927.95	8560
928.056	8659
928.162	8632
928.267	8663
928.373	9386
928.479	8792
928.585	8564
928.69	8712
928.796	8693
928.901	8503
929.007	8499
929.112	8541
929.218	8549
929.323	8495
929.428	8419
929.533	8579
929.638	8434
929.743	8492
929.848	8488
929.953	8419
930.058	8339
930.163	8202
930.267	8256
930.372	8393
930.477	8237
930.581	8522
930.685	8343
930.79	8202
930.894	8259
930.998	8164
931.103	8320
931.207	7955
931.311	7944
931.415	7887
931.519	7696
931.623	7693
