Data from test_V78500241_694.txt Node
Date: Fri Mar 25 14:38:33 CST 2022
User: usil
Spectrometer: V785-0024
Trigger mode: 0
Integration Time (sec): 4.000000E-1
Scans to average: 1
Nonlinearity correction enabled: false
Boxcar width: 0
Storing dark spectrum: false
XAxis mode: Wavelengths
Number of Pixels in Spectrum: 1024
>>>>>Begin Spectral Data<<<<<
801.071	27956
801.214	27789
801.356	27720
801.499	27618
801.641	27427
801.783	27500
801.926	27291
802.068	27321
802.211	27157
802.353	27089
802.496	27081
802.638	27009
802.78	26937
802.923	26902
803.065	26746
803.208	26921
803.35	26796
803.492	27024
803.635	27119
803.777	26937
803.919	26929
804.061	27424
804.204	27184
804.346	27005
804.488	27058
804.63	27218
804.773	27123
804.915	27237
805.057	27462
805.199	27477
805.341	27618
805.483	27523
805.626	27667
805.768	27469
805.91	27907
806.052	27838
806.194	27934
806.336	28436
806.478	28519
806.62	28611
806.762	28866
806.904	29223
807.046	29767
807.188	30136
807.33	30517
807.472	31179
807.614	31791
807.756	32613
807.898	33637
808.04	35307
808.182	37415
808.324	39945
808.465	43053
808.607	46557
808.749	49320
808.891	51070
809.033	51142
809.174	49529
809.316	46599
809.458	43301
809.6	39656
809.741	36905
809.883	34744
810.025	33260
810.166	32183
810.308	31225
810.45	30779
810.591	30117
810.733	29596
810.875	29273
811.016	28885
811.158	28641
811.299	28603
811.441	28603
811.582	28424
811.724	28280
811.865	27949
812.007	27778
812.148	27812
812.29	27914
812.431	27914
812.573	28017
812.714	27949
812.855	27968
812.997	28101
813.138	28177
813.279	28112
813.421	27968
813.562	27888
813.703	27606
813.845	27511
813.986	27108
814.127	26823
814.268	26876
814.41	26823
814.551	26701
814.692	26693
814.833	26746
814.974	26667
815.115	26625
815.256	26431
815.397	26530
815.539	26396
815.68	26351
815.821	26309
815.962	26271
816.103	26271
816.244	26119
816.385	26012
816.526	25955
816.666	25670
816.807	25567
816.948	25586
817.089	25521
817.23	25578
817.371	25491
817.512	25324
817.653	25362
817.793	25350
817.934	25457
818.075	25381
818.216	25343
818.356	25403
818.497	25396
818.638	24996
818.778	25179
818.919	25118
819.06	25129
819.2	25225
819.341	25419
819.481	25202
819.622	25453
819.762	25571
819.903	25571
820.043	25510
820.184	25221
820.324	25350
820.465	25343
820.605	25206
820.746	25228
820.886	25137
821.026	25160
821.167	25316
821.307	25160
821.447	25160
821.588	24916
821.728	24882
821.868	24650
822.008	24467
822.149	24536
822.289	24456
822.429	24300
822.569	24155
822.709	24159
822.849	23901
822.99	24026
823.13	23889
823.27	23893
823.41	23847
823.55	23577
823.69	23741
823.83	23699
823.97	23691
824.11	23570
824.25	23531
824.389	23516
824.529	23600
824.669	23551
824.809	23657
824.949	23452
825.089	23467
825.228	23501
825.368	23326
825.508	23277
825.648	23151
825.787	23155
825.927	23296
826.067	23178
826.206	23261
826.346	23246
826.485	23250
826.625	23341
826.765	23315
826.904	23349
827.044	23003
827.183	23151
827.323	23090
827.462	23075
827.601	22961
827.741	22843
827.88	22927
828.02	22740
828.159	22873
828.298	22984
828.437	22858
828.577	22736
828.716	22900
828.855	22740
828.994	22710
829.134	22588
829.273	22622
829.412	22512
829.551	22402
829.69	22577
829.829	22542
829.968	22637
830.107	22656
830.246	22550
830.385	22500
830.524	22519
830.663	22398
830.802	22371
830.941	22177
831.08	22314
831.219	22265
831.357	22242
831.496	22371
831.635	22192
831.774	22120
831.913	22040
832.051	22090
832.19	22090
832.329	22135
832.467	22128
832.606	22006
832.744	21987
832.883	22070
833.022	22109
833.16	22287
833.299	22306
833.437	22409
833.576	22626
833.714	22786
833.852	22972
833.991	23056
834.129	23170
834.267	23143
834.406	23140
834.544	23010
834.682	23041
834.821	22782
834.959	22919
835.097	22375
835.235	22611
835.373	22341
835.511	22314
835.65	22204
835.788	21953
835.926	21694
836.064	21705
836.202	21755
836.34	21865
836.478	21975
836.615	21743
836.753	21679
836.891	21876
837.029	21838
837.167	21629
837.305	21511
837.443	21644
837.58	21488
837.718	21625
837.856	21614
837.993	21302
838.131	21439
838.269	21306
838.406	21458
838.544	21389
838.681	21077
838.819	21165
838.956	20845
839.094	20910
839.231	21055
839.369	21211
839.506	21287
839.643	21093
839.781	20880
839.918	20925
840.055	20842
840.193	20842
840.33	20876
840.467	20876
840.604	20952
840.742	21112
840.879	20769
841.016	20826
841.153	20765
841.29	21142
841.427	20982
841.564	20838
841.701	20902
841.838	20899
841.975	20769
842.112	20906
842.249	20731
842.385	20720
842.522	20933
842.659	20758
842.796	20697
842.933	20785
843.069	20735
843.206	20632
843.343	20849
843.479	20811
843.616	20929
843.752	20743
843.889	20640
844.025	20990
844.162	20796
844.298	21180
844.435	21074
844.571	21344
844.708	21717
844.844	22150
844.98	22390
845.117	23193
845.253	24117
845.389	25974
845.525	29638
845.661	35630
845.798	42429
845.934	47756
846.07	49696
846.206	48251
846.342	43209
846.478	36315
846.614	30410
846.75	26514
846.886	24304
847.022	23014
847.158	21930
847.294	21374
847.429	21077
847.565	20754
847.701	20800
847.837	20206
847.972	20130
848.108	20157
848.244	20153
848.379	19811
848.515	19856
848.65	19719
848.786	19761
848.921	19658
849.057	19708
849.192	19727
849.328	19742
849.463	19556
849.598	19586
849.734	19449
849.869	19457
850.004	19491
850.14	19335
850.275	19384
850.41	19259
850.545	19335
850.68	19327
850.815	19297
850.95	19278
851.085	19373
851.22	19381
851.355	19327
851.49	19419
851.625	19297
851.76	19312
851.895	19141
852.03	19232
852.165	19320
852.299	19384
852.434	19358
852.569	19419
852.703	19415
852.838	19449
852.973	19460
853.107	19529
853.242	19453
853.376	19327
853.511	19232
853.645	19282
853.78	19430
853.914	19544
854.048	19483
854.183	19476
854.317	19411
854.451	19719
854.585	19575
854.72	19464
854.854	19632
854.988	19339
855.122	19362
855.256	19236
855.39	19190
855.524	19388
855.658	19259
855.792	19278
855.926	19308
856.06	19285
856.194	19213
856.327	19160
856.461	19042
856.595	19160
856.729	19152
856.862	19187
856.996	19255
857.13	19072
857.263	19133
857.397	19084
857.53	19084
857.664	19046
857.797	19126
857.931	19152
858.064	19023
858.197	19114
858.331	18981
858.464	18882
858.597	18913
858.731	18954
858.864	18867
858.997	18863
859.13	18894
859.263	19110
859.396	19088
859.529	18932
859.662	18802
859.795	18878
859.928	18951
860.061	19072
860.194	19137
860.327	18954
860.46	18993
860.592	19015
860.725	19065
860.858	18981
860.99	18848
861.123	18795
861.256	18848
861.388	18890
861.521	19616
861.653	18871
861.786	18757
861.918	18753
862.05	18806
862.183	18795
862.315	18886
862.447	18905
862.58	18859
862.712	18696
862.844	18604
862.976	18688
863.108	18642
863.24	18958
863.372	18479
863.504	18730
863.636	18582
863.768	18608
863.9	18642
864.032	18574
864.164	18574
864.296	18506
864.428	18620
864.559	18574
864.691	18627
864.823	18509
864.954	18642
865.086	18555
865.217	18570
865.349	18445
865.48	18544
865.612	18490
865.743	18555
865.875	18506
866.006	18445
866.137	18448
866.269	18547
866.4	18365
866.531	18502
866.662	18464
866.793	18369
866.924	18395
867.055	18422
867.186	18300
867.317	18350
867.448	18361
867.579	18445
867.71	18361
867.841	18323
867.972	18471
868.103	18380
868.233	18403
868.364	18395
868.495	18623
868.625	18589
868.756	18745
868.886	18673
869.017	18650
869.147	18783
869.278	18795
869.408	18646
869.539	18722
869.669	18810
869.799	18776
869.929	18901
870.06	18894
870.19	19053
870.32	19023
870.45	19122
870.58	19255
870.71	19316
870.84	19301
870.97	19148
871.1	19137
871.23	19324
871.36	19274
871.489	19236
871.619	19293
871.749	19282
871.879	19464
872.008	19499
872.138	19362
872.267	19304
872.397	19358
872.526	19312
872.656	19430
872.785	19377
872.915	19476
873.044	19677
873.173	19594
873.303	19605
873.432	19632
873.561	19765
873.69	19670
873.819	19597
873.948	19753
874.077	19708
874.206	19753
874.335	19757
874.464	20054
874.593	20077
874.722	20065
874.851	20240
874.979	20157
875.108	20317
875.237	20267
875.365	20221
875.494	20210
875.623	20461
875.751	20400
875.88	20423
876.008	20724
876.136	20796
876.265	20952
876.393	21036
876.521	21077
876.65	21268
876.778	21161
876.906	21203
877.034	21195
877.162	21424
877.29	21435
877.418	21515
877.546	21618
877.674	21679
877.802	21922
877.93	22055
878.058	22242
878.185	22333
878.313	22607
878.441	22919
878.568	23273
878.696	23939
878.824	24654
878.951	25849
879.079	27401
879.206	29646
879.333	31590
879.461	33287
879.588	34481
879.715	34565
879.842	33538
879.97	31807
880.097	29543
880.224	27888
880.351	26781
880.478	25913
880.605	25110
880.732	24844
880.859	24806
880.986	24251
881.112	24296
881.239	24140
881.366	23836
881.493	23786
881.619	23752
881.746	23805
881.872	23870
881.999	23980
882.125	23935
882.252	24079
882.378	23893
882.505	24102
882.631	24034
882.757	23855
882.883	23954
883.01	23897
883.136	23790
883.262	23756
883.388	23718
883.514	23775
883.64	23901
883.766	23653
883.892	23570
884.018	23718
884.143	23882
884.269	23790
884.395	23592
884.52	23436
884.646	23596
884.772	23501
884.897	23410
885.023	23520
885.148	23615
885.274	23444
885.399	23547
885.524	23360
885.65	23216
885.775	23052
885.9	22911
886.025	22927
886.15	22744
886.275	22478
886.4	22253
886.525	22097
886.65	22017
886.775	21899
886.9	22097
887.025	21998
887.149	21694
887.274	21165
887.399	21218
887.523	21252
887.648	21081
887.773	20944
887.897	20982
888.021	21013
888.146	20743
888.27	20826
888.395	20880
888.519	20773
888.643	20651
888.767	20655
888.891	20457
889.015	20298
889.139	20252
889.263	20218
889.387	20358
889.511	20248
889.635	20294
889.759	19982
889.883	20024
890.006	20081
890.13	20069
890.254	19849
890.377	19761
890.501	19708
890.624	19594
890.748	19670
890.871	19510
890.995	19384
891.118	19221
891.241	19339
891.364	19289
891.488	19400
891.611	19308
891.734	19373
891.857	19160
891.98	19198
892.103	19133
892.226	19160
892.349	19129
892.471	18810
892.594	18916
892.717	18951
892.839	18905
892.962	18973
893.085	18848
893.207	18867
893.33	18661
893.452	18700
893.575	18764
893.697	18684
893.819	18852
893.941	18840
894.064	18669
894.186	18490
894.308	18479
894.43	18661
894.552	18620
894.674	18665
894.796	18422
894.918	18585
895.04	18445
895.161	18578
895.283	18467
895.405	18407
895.526	18410
895.648	18380
895.769	18418
895.891	18304
896.012	18555
896.134	18292
896.255	18273
896.376	18296
896.498	18426
896.619	18429
896.74	18258
896.861	18194
896.982	18681
897.103	18817
897.224	18604
897.345	18509
897.466	18551
897.587	18334
897.708	18639
897.828	18597
897.949	18399
898.07	18273
898.19	18521
898.311	18642
898.431	18388
898.552	18513
898.672	18574
898.792	18627
898.913	18399
899.033	18498
899.153	18289
899.273	18197
899.393	18323
899.513	18194
899.633	18429
899.753	18266
899.873	18201
899.993	18330
900.113	18171
900.232	18311
900.352	18178
900.472	18224
900.591	18102
900.711	18117
900.83	18041
900.95	18144
901.069	18209
901.189	18019
901.308	17817
901.427	17627
901.546	17649
901.665	17627
901.784	17642
901.904	17398
902.023	17330
902.141	17258
902.26	17197
902.379	17216
902.498	17162
902.617	17045
902.735	17181
902.854	16911
902.973	17052
903.091	16774
903.21	16797
903.328	16691
903.446	16672
903.565	16462
903.683	16664
903.801	16390
903.919	16382
904.038	16436
904.156	16341
904.274	16287
904.392	16257
904.51	16230
904.627	16238
904.745	16154
904.863	16242
904.981	16074
905.098	15994
905.216	15873
905.334	15869
905.451	15831
905.569	15842
905.686	15785
905.803	15846
905.921	15667
906.038	15770
906.155	15652
906.272	15580
906.389	15568
906.506	15363
906.623	15397
906.74	15325
906.857	15340
906.974	15233
907.091	15496
907.208	15534
907.324	15389
907.441	15408
907.557	15066
907.674	15089
907.79	15024
907.907	15070
908.023	15066
908.139	15192
908.256	14937
908.372	14971
908.488	15020
908.604	14861
908.72	14697
908.836	14899
908.952	14750
909.068	14899
909.184	14948
909.3	14906
909.415	14876
909.531	14891
909.647	14514
909.762	14511
909.878	14511
909.993	14396
910.108	14385
910.224	14484
910.339	14507
910.454	14377
910.57	14465
910.685	14301
910.8	14590
910.915	14499
911.03	14343
911.145	14225
911.259	14248
911.374	14180
911.489	14145
911.604	14008
911.718	13955
911.833	13909
911.947	13761
912.062	13769
912.176	13868
912.291	13887
912.405	13928
912.519	14054
912.633	14058
912.748	13875
912.862	13913
912.976	13723
913.09	13651
913.204	13670
913.318	13803
913.431	13890
913.545	13814
913.659	13845
913.772	13742
913.886	13586
914	13567
914.113	13712
914.226	13685
914.34	13655
914.453	13518
914.566	13624
914.68	13457
914.793	13594
914.906	13316
915.019	13251
915.132	13251
915.245	13255
915.358	13308
915.47	13259
915.583	13316
915.696	13362
915.809	13449
915.921	13476
916.034	13236
916.146	13194
916.259	13285
916.371	13320
916.483	13324
916.595	13183
916.708	13244
916.82	13270
916.932	13202
917.044	13217
917.156	13099
917.268	13053
917.38	13110
917.491	12970
917.603	13023
917.715	13187
917.826	12996
917.938	12943
918.049	12814
918.161	13038
918.272	13137
918.384	13057
918.495	12973
918.606	12798
918.717	12741
918.828	12840
918.939	12764
919.05	12715
919.161	12734
919.272	12498
919.383	12650
919.494	12768
919.604	12928
919.715	12798
919.826	12734
919.936	12745
920.047	12783
920.157	12776
920.267	12939
920.378	12787
920.488	12730
920.598	12958
920.708	13012
920.818	12848
920.928	12909
921.038	13004
921.148	13008
921.258	12722
921.368	12574
921.477	12551
921.587	12555
921.697	12289
921.806	12551
921.916	12361
922.025	12342
922.134	12155
922.244	12129
922.353	12194
922.462	12026
922.571	11977
922.68	11885
922.789	11828
922.898	11832
923.007	11752
923.116	11908
923.224	11855
923.333	11745
923.442	11630
923.55	11680
923.659	11729
923.767	11752
923.876	11596
923.984	11718
924.092	11524
924.201	11646
924.309	11604
924.417	11665
924.525	11505
924.633	11532
924.741	12486
924.849	11410
924.956	11482
925.064	11387
925.172	11227
925.279	11265
925.387	11406
925.494	11368
925.602	11547
925.709	11322
925.816	11250
925.924	11303
926.031	11299
926.138	11311
926.245	11318
926.352	11193
926.459	11391
926.566	11280
926.673	11201
926.779	11189
926.886	11121
926.993	10995
927.099	10915
927.206	10949
927.312	10881
927.419	10927
927.525	10957
927.631	10987
927.737	10915
927.843	10771
927.95	10679
928.056	10774
928.162	10733
928.267	10854
928.373	11387
928.479	10847
928.585	10645
928.69	10752
928.796	10755
928.901	10630
929.007	10478
929.112	10656
929.218	10687
929.323	10599
929.428	10504
929.533	10702
929.638	10481
929.743	10474
929.848	10637
929.953	10500
930.058	10409
930.163	10310
930.267	10230
930.372	10417
930.477	10249
930.581	10542
930.685	10386
930.79	10246
930.894	10276
930.998	10112
931.103	10314
931.207	9960
931.311	9911
931.415	9831
931.519	9572
931.623	9629
