Data from test_V78500241_3128.txt Node
Date: Fri Mar 25 14:55:29 CST 2022
User: usil
Spectrometer: V785-0024
Trigger mode: 0
Integration Time (sec): 4.000000E-1
Scans to average: 1
Nonlinearity correction enabled: false
Boxcar width: 0
Storing dark spectrum: false
XAxis mode: Wavelengths
Number of Pixels in Spectrum: 1024
>>>>>Begin Spectral Data<<<<<
801.071	22105
801.214	21979
801.356	21720
801.499	21698
801.641	21454
801.783	21469
801.926	21507
802.068	21310
802.211	21317
802.353	21165
802.496	20982
802.638	20895
802.78	20880
802.923	20872
803.065	20823
803.208	20765
803.35	20849
803.492	20902
803.635	20883
803.777	20876
803.919	20891
804.061	21028
804.204	20811
804.346	20598
804.488	20648
804.63	20659
804.773	20632
804.915	20686
805.057	20689
805.199	20571
805.341	20773
805.483	20796
805.626	20781
805.768	20522
805.91	20625
806.052	20743
806.194	20495
806.336	20880
806.478	20632
806.62	20678
806.762	20682
806.904	20963
807.046	21146
807.188	20979
807.33	20956
807.472	21100
807.614	20758
807.756	20921
807.898	20929
808.04	20686
808.182	20720
808.324	20872
808.465	20925
808.607	20971
808.749	21116
808.891	21150
809.033	21272
809.174	21150
809.316	20948
809.458	21001
809.6	21070
809.741	21055
809.883	21051
810.025	21226
810.166	21119
810.308	21211
810.45	21100
810.591	21066
810.733	20910
810.875	20887
811.016	20712
811.158	20754
811.299	20872
811.441	20845
811.582	20910
811.724	20834
811.865	20834
812.007	20781
812.148	20765
812.29	20777
812.431	20979
812.573	21089
812.714	21142
812.855	21169
812.997	21443
813.138	21587
813.279	21447
813.421	21321
813.562	21260
813.703	21093
813.845	20876
813.986	20693
814.127	20609
814.268	20442
814.41	20454
814.551	20355
814.692	20347
814.833	20248
814.974	20240
815.115	20385
815.256	20286
815.397	20206
815.539	20214
815.68	20126
815.821	20073
815.962	20020
816.103	20012
816.244	19974
816.385	19807
816.526	19833
816.666	19540
816.807	19495
816.948	19575
817.089	19635
817.23	19518
817.371	19620
817.512	19445
817.653	19400
817.793	19441
817.934	19358
818.075	19491
818.216	19552
818.356	19449
818.497	19339
818.638	19065
818.778	19171
818.919	19217
819.06	19228
819.2	19228
819.341	19354
819.481	19365
819.622	19438
819.762	19681
819.903	19586
820.043	19445
820.184	19476
820.324	19483
820.465	19491
820.605	19468
820.746	19369
820.886	19362
821.026	19350
821.167	19327
821.307	19487
821.447	19502
821.588	19308
821.728	19259
821.868	19076
822.008	18882
822.149	18894
822.289	18722
822.429	18620
822.569	18502
822.709	18544
822.849	18448
822.99	18437
823.13	18388
823.27	18285
823.41	18136
823.55	18026
823.69	18197
823.83	18148
823.97	18003
824.11	17946
824.25	17874
824.389	17920
824.529	17984
824.669	17805
824.809	18098
824.949	18076
825.089	17954
825.228	17889
825.368	17764
825.508	17566
825.648	17718
825.787	17718
825.927	17779
826.067	17615
826.206	17710
826.346	17729
826.485	17798
826.625	17737
826.765	17840
826.904	17714
827.044	17493
827.183	17520
827.323	17406
827.462	17444
827.601	17421
827.741	17429
827.88	17493
828.02	17280
828.159	17410
828.298	17360
828.437	17520
828.577	17383
828.716	17528
828.855	17334
828.994	17261
829.134	17204
829.273	17220
829.412	17121
829.551	17159
829.69	17041
829.829	17170
829.968	17326
830.107	17265
830.246	17174
830.385	17143
830.524	16995
830.663	16980
830.802	16900
830.941	16858
831.08	16702
831.219	16946
831.357	16885
831.496	17056
831.635	16740
831.774	16725
831.913	16672
832.051	16550
832.19	16603
832.329	16630
832.467	16428
832.606	16485
832.744	16489
832.883	16523
833.022	16451
833.16	16455
833.299	16550
833.437	16546
833.576	16596
833.714	16599
833.852	16573
833.991	16531
834.129	16626
834.267	16550
834.406	16527
834.544	16558
834.682	16512
834.821	16527
834.959	16611
835.097	16481
835.235	16523
835.373	16683
835.511	16573
835.65	16447
835.788	16402
835.926	16268
836.064	16196
836.202	16329
836.34	16424
836.478	16474
836.615	16382
836.753	16455
836.891	16500
837.029	16459
837.167	16352
837.305	16371
837.443	16284
837.58	16284
837.718	16424
837.856	16325
837.993	16306
838.131	16257
838.269	16242
838.406	16265
838.544	16158
838.681	16044
838.819	15949
838.956	15892
839.094	15854
839.231	15911
839.369	15964
839.506	16143
839.643	16044
839.781	15816
839.918	15804
840.055	15842
840.193	15835
840.33	15755
840.467	15736
840.604	15861
840.742	16093
840.879	15739
841.016	15724
841.153	15766
841.29	16002
841.427	15903
841.564	15876
841.701	15846
841.838	15778
841.975	15732
842.112	15838
842.249	15724
842.385	15614
842.522	15823
842.659	15652
842.796	15584
842.933	15641
843.069	15606
843.206	15580
843.343	15561
843.479	15622
843.616	15625
843.752	15450
843.889	15355
844.025	15515
844.162	15374
844.298	15469
844.435	15405
844.571	15443
844.708	15393
844.844	15500
844.98	15462
845.117	15538
845.253	15367
845.389	15252
845.525	15412
845.661	15348
845.798	15169
845.934	15157
846.07	15108
846.206	15195
846.342	15336
846.478	15233
846.614	15001
846.75	14929
846.886	14872
847.022	15085
847.158	14967
847.294	15066
847.429	14971
847.565	14990
847.701	15275
847.837	14689
847.972	14689
848.108	14750
848.244	14880
848.379	14568
848.515	14545
848.65	14514
848.786	14434
848.921	14594
849.057	14754
849.192	14602
849.328	14598
849.463	14579
849.598	14526
849.734	14495
849.869	14568
850.004	14362
850.14	14419
850.275	14324
850.41	14259
850.545	14267
850.68	14328
850.815	14400
850.95	14336
851.085	14617
851.22	14450
851.355	14347
851.49	14317
851.625	14199
851.76	14256
851.895	14267
852.03	14214
852.165	14248
852.299	14366
852.434	14415
852.569	14290
852.703	14374
852.838	14374
852.973	14511
853.107	14514
853.242	14252
853.376	14176
853.511	14103
853.645	14081
853.78	14347
853.914	14123
854.048	14199
854.183	14244
854.317	14294
854.451	14347
854.585	14214
854.72	14256
854.854	14183
854.988	14084
855.122	14244
855.256	14039
855.39	14123
855.524	14259
855.658	14218
855.792	14168
855.926	14309
856.06	14313
856.194	14259
856.327	14161
856.461	14218
856.595	14111
856.729	14157
856.862	14309
856.996	14214
857.13	14210
857.263	14332
857.397	14339
857.53	14199
857.664	14298
857.797	14153
857.931	14355
858.064	14290
858.197	14313
858.331	14199
858.464	14130
858.597	14088
858.731	14180
858.864	14130
858.997	14206
859.13	14210
859.263	14233
859.396	14339
859.529	14202
859.662	14088
859.795	14168
859.928	14298
860.061	14324
860.194	14434
860.327	14229
860.46	14210
860.592	14438
860.725	14324
860.858	14328
860.99	14195
861.123	14107
861.256	14172
861.388	14142
861.521	14902
861.653	14054
861.786	14046
861.918	14149
862.05	14115
862.183	14237
862.315	14229
862.447	14233
862.58	14161
862.712	13982
862.844	13909
862.976	14058
863.108	14126
863.24	14389
863.372	13837
863.504	13989
863.636	13936
863.768	13951
863.9	13993
864.032	13868
864.164	13982
864.296	14050
864.428	14065
864.559	14043
864.691	13970
864.823	14069
864.954	13978
865.086	13967
865.217	14046
865.349	13830
865.48	13986
865.612	14043
865.743	14096
865.875	13887
866.006	13849
866.137	13955
866.269	13909
866.4	13925
866.531	13902
866.662	13883
866.793	13887
866.924	13917
867.055	13928
867.186	13921
867.317	13955
867.448	13845
867.579	13951
867.71	13925
867.841	13849
867.972	13959
868.103	13921
868.233	13917
868.364	13989
868.495	14050
868.625	14275
868.756	14301
868.886	14176
869.017	14115
869.147	14358
869.278	14229
869.408	14233
869.539	14202
869.669	14271
869.799	14206
869.929	14408
870.06	14358
870.19	14621
870.32	14488
870.45	14583
870.58	14598
870.71	14708
870.84	14629
870.97	14583
871.1	14522
871.23	14754
871.36	14864
871.489	14640
871.619	14686
871.749	14815
871.879	14876
872.008	14979
872.138	14849
872.267	14731
872.397	14617
872.526	14682
872.656	14697
872.785	14735
872.915	14838
873.044	14895
873.173	14876
873.303	14910
873.432	14921
873.561	14986
873.69	14952
873.819	14823
873.948	14986
874.077	14876
874.206	14746
874.335	14887
874.464	15005
874.593	15245
874.722	15066
874.851	15195
874.979	15207
875.108	15260
875.237	15192
875.365	15093
875.494	15138
875.623	15169
875.751	15184
875.88	15237
876.008	15226
876.136	15363
876.265	15599
876.393	15690
876.521	15656
876.65	15709
876.778	15671
876.906	15580
877.034	15519
877.162	15553
877.29	15542
877.418	15488
877.546	15637
877.674	15679
877.802	15545
877.93	15599
878.058	15568
878.185	15507
878.313	15686
878.441	15576
878.568	15401
878.696	15538
878.824	15603
878.951	15618
879.079	15679
879.206	15873
879.333	15724
879.461	15667
879.588	15770
879.715	15671
879.842	15888
879.97	15648
880.097	15538
880.224	15424
880.351	15591
880.478	15530
880.605	15355
880.732	15450
880.859	15667
880.986	15538
881.112	15458
881.239	15393
881.366	15306
881.493	15176
881.619	14986
881.746	15195
881.872	15051
881.999	15104
882.125	15081
882.252	15203
882.378	15142
882.505	15283
882.631	15047
882.757	14929
882.883	14937
883.01	14868
883.136	14815
883.262	14693
883.388	14708
883.514	14960
883.64	14944
883.766	14746
883.892	14724
884.018	14842
884.143	14891
884.269	14979
884.395	14682
884.52	14686
884.646	14651
884.772	14579
884.897	14465
885.023	14712
885.148	14648
885.274	14777
885.399	14758
885.524	14670
885.65	14659
885.775	14629
885.9	14625
886.025	14773
886.15	14720
886.275	14640
886.4	14598
886.525	14549
886.65	14488
886.775	14526
886.9	14758
887.025	14769
887.149	14583
887.274	14442
887.399	14415
887.523	14431
887.648	14374
887.773	14374
887.897	14484
888.021	14549
888.146	14427
888.27	14507
888.395	14655
888.519	14545
888.643	14446
888.767	14583
888.891	14457
889.015	14309
889.139	14423
889.263	14271
889.387	14423
889.511	14533
889.635	14503
889.759	14252
889.883	14412
890.006	14328
890.13	14385
890.254	14324
890.377	14263
890.501	14164
890.624	14092
890.748	14237
890.871	14088
890.995	13906
891.118	13951
891.241	14039
891.364	13967
891.488	14115
891.611	14001
891.734	14043
891.857	14054
891.98	14039
892.103	14012
892.226	14077
892.349	13963
892.471	13845
892.594	13993
892.717	14073
892.839	13974
892.962	13978
893.085	14081
893.207	14027
893.33	13921
893.452	13993
893.575	14069
893.697	13986
893.819	14191
893.941	14298
894.064	14172
894.186	14046
894.308	13963
894.43	14149
894.552	14294
894.674	14199
894.796	13951
894.918	14039
895.04	14043
895.161	14183
895.283	14191
895.405	14077
895.526	14005
895.648	14119
895.769	14164
895.891	14123
896.012	14221
896.134	14225
896.255	14225
896.376	14111
896.498	14077
896.619	14298
896.74	14119
896.861	14229
896.982	14511
897.103	14693
897.224	14495
897.345	14431
897.466	14427
897.587	14579
897.708	14507
897.828	14499
897.949	14423
898.07	14347
898.19	14476
898.311	14552
898.431	14488
898.552	14507
898.672	14670
898.792	14568
898.913	14644
899.033	14556
899.153	14431
899.273	14358
899.393	14351
899.513	14465
899.633	14366
899.753	14442
899.873	14438
899.993	14358
900.113	14419
900.232	14290
900.352	14404
900.472	14351
900.591	14271
900.711	14267
900.83	14176
900.95	14385
901.069	14427
901.189	14172
901.308	13974
901.427	13902
901.546	13986
901.665	13925
901.784	13959
901.904	13822
902.023	13734
902.141	13586
902.26	13529
902.379	13533
902.498	13529
902.617	13472
902.735	13567
902.854	13559
902.973	13396
903.091	13282
903.21	13194
903.328	13225
903.446	13171
903.565	13110
903.683	13206
903.801	13069
903.919	13099
904.038	13069
904.156	12954
904.274	12939
904.392	12913
904.51	12829
904.627	12939
904.745	12947
904.863	13053
904.981	12757
905.098	12563
905.216	12589
905.334	12578
905.451	12593
905.569	12517
905.686	12658
905.803	12506
905.921	12475
906.038	12532
906.155	12376
906.272	12311
906.389	12407
906.506	12213
906.623	12205
906.74	12232
906.857	12060
906.974	12072
907.091	12281
907.208	12262
907.324	12239
907.441	12133
907.557	11931
907.674	11950
907.79	11802
907.907	11847
908.023	11889
908.139	11878
908.256	11863
908.372	11908
908.488	11889
908.604	11771
908.72	11710
908.836	11722
908.952	11722
909.068	11672
909.184	11767
909.3	11627
909.415	11718
909.531	11688
909.647	11471
909.762	11478
909.878	11337
909.993	11543
910.108	11455
910.224	11345
910.339	11383
910.454	11429
910.57	11296
910.685	11181
910.8	11551
910.915	11425
911.03	11360
911.145	11189
911.259	11113
911.374	11170
911.489	11136
911.604	11018
911.718	10980
911.833	10896
911.947	10816
912.062	10778
912.176	10942
912.291	10904
912.405	10976
912.519	11067
912.633	11109
912.748	10991
912.862	10957
912.976	10755
913.09	10683
913.204	10672
913.318	10831
913.431	10900
913.545	10824
913.659	10957
913.772	10759
913.886	10725
914	10710
914.113	10706
914.226	10828
914.34	10786
914.453	10603
914.566	10801
914.68	10588
914.793	10584
914.906	10459
915.019	10363
915.132	10325
915.245	10375
915.358	10367
915.47	10409
915.583	10443
915.696	10531
915.809	10470
915.921	10626
916.034	10462
916.146	10352
916.259	10436
916.371	10424
916.483	10493
916.595	10386
916.708	10352
916.82	10413
916.932	10344
917.044	10348
917.156	10329
917.268	10227
917.38	10227
917.491	10219
917.603	10242
917.715	10341
917.826	10443
917.938	10276
918.049	10139
918.161	10280
918.272	10417
918.384	10390
918.495	10291
918.606	10219
918.717	10051
918.828	10128
918.939	10169
919.05	9987
919.161	10086
919.272	9994
919.383	9907
919.494	10200
919.604	10390
919.715	10169
919.826	10036
919.936	10192
920.047	10223
920.157	10162
920.267	10306
920.378	10150
920.488	10135
920.598	10371
920.708	10512
920.818	10371
920.928	10363
921.038	10588
921.148	10550
921.258	10192
921.368	10158
921.477	10002
921.587	10013
921.697	9857
921.806	10135
921.916	9884
922.025	9728
922.134	9751
922.244	9652
922.353	9770
922.462	9538
922.571	9644
922.68	9367
922.789	9462
922.898	9454
923.007	9412
923.116	9450
923.224	9428
923.333	9348
923.442	9329
923.55	9287
923.659	9359
923.767	9405
923.876	9192
923.984	9363
924.092	9233
924.201	9249
924.309	9329
924.417	9370
924.525	9176
924.633	9203
924.741	10162
924.849	9066
924.956	9214
925.064	9055
925.172	8998
925.279	9001
925.387	9043
925.494	9028
925.602	9176
925.709	9104
925.816	9074
925.924	9104
926.031	9131
926.138	9104
926.245	9093
926.352	9028
926.459	9173
926.566	9165
926.673	9077
926.779	8899
926.886	8941
926.993	8804
927.099	8830
927.206	8754
927.312	8788
927.419	8853
927.525	8815
927.631	8868
927.737	8701
927.843	8750
927.95	8655
928.056	8651
928.162	8693
928.267	8712
928.373	9279
928.479	8864
928.585	8526
928.69	8629
928.796	8686
928.901	8632
929.007	8480
929.112	8640
929.218	8503
929.323	8522
929.428	8545
929.533	8568
929.638	8457
929.743	8438
929.848	8636
929.953	8503
930.058	8419
930.163	8336
930.267	8267
930.372	8434
930.477	8229
930.581	8450
930.685	8256
930.79	8183
930.894	8294
930.998	8187
931.103	8290
931.207	8039
931.311	7917
931.415	7894
931.519	7738
931.623	7772
