Data from test_V78500241_1979.txt Node
Date: Fri Mar 25 14:47:29 CST 2022
User: usil
Spectrometer: V785-0024
Trigger mode: 0
Integration Time (sec): 4.000000E-1
Scans to average: 1
Nonlinearity correction enabled: false
Boxcar width: 0
Storing dark spectrum: false
XAxis mode: Wavelengths
Number of Pixels in Spectrum: 1024
>>>>>Begin Spectral Data<<<<<
801.071	22116
801.214	21926
801.356	21816
801.499	21637
801.641	21428
801.783	21348
801.926	21443
802.068	21279
802.211	21374
802.353	21241
802.496	21020
802.638	20918
802.78	21009
802.923	20921
803.065	20769
803.208	20777
803.35	20876
803.492	20834
803.635	20823
803.777	20750
803.919	20815
804.061	21089
804.204	20986
804.346	20739
804.488	20693
804.63	20708
804.773	20590
804.915	20773
805.057	20963
805.199	20739
805.341	20785
805.483	20960
805.626	20883
805.768	20701
805.91	20788
806.052	20777
806.194	20655
806.336	20902
806.478	20739
806.62	20667
806.762	20842
806.904	21009
807.046	21074
807.188	20998
807.33	21047
807.472	21085
807.614	20899
807.756	20895
807.898	20807
808.04	20826
808.182	20823
808.324	20845
808.465	20712
808.607	21089
808.749	21127
808.891	21161
809.033	21233
809.174	21146
809.316	21036
809.458	21104
809.6	21096
809.741	21233
809.883	21116
810.025	21298
810.166	21230
810.308	21214
810.45	21241
810.591	21104
810.733	20952
810.875	20864
811.016	20762
811.158	20712
811.299	20876
811.441	21020
811.582	20925
811.724	20895
811.865	20845
812.007	20830
812.148	20765
812.29	20830
812.431	21005
812.573	21195
812.714	21325
812.855	21317
812.997	21401
813.138	21526
813.279	21561
813.421	21306
813.562	21291
813.703	21093
813.845	20899
813.986	20754
814.127	20495
814.268	20533
814.41	20423
814.551	20442
814.692	20442
814.833	20336
814.974	20275
815.115	20419
815.256	20324
815.397	20290
815.539	20164
815.68	20164
815.821	20081
815.962	20107
816.103	20035
816.244	19875
816.385	19776
816.526	19936
816.666	19689
816.807	19556
816.948	19613
817.089	19635
817.23	19620
817.371	19651
817.512	19578
817.653	19575
817.793	19441
817.934	19460
818.075	19651
818.216	19571
818.356	19457
818.497	19396
818.638	19202
818.778	19293
818.919	19236
819.06	19240
819.2	19384
819.341	19426
819.481	19339
819.622	19571
819.762	19708
819.903	19708
820.043	19567
820.184	19521
820.324	19548
820.465	19510
820.605	19506
820.746	19567
820.886	19491
821.026	19529
821.167	19518
821.307	19521
821.447	19480
821.588	19346
821.728	19194
821.868	19057
822.008	18935
822.149	18909
822.289	18897
822.429	18783
822.569	18639
822.709	18570
822.849	18429
822.99	18422
823.13	18296
823.27	18350
823.41	18338
823.55	18068
823.69	18289
823.83	18308
823.97	18102
824.11	17908
824.25	18007
824.389	17992
824.529	18121
824.669	18133
824.809	18136
824.949	18129
825.089	18015
825.228	18064
825.368	17695
825.508	17767
825.648	17745
825.787	17851
825.927	17863
826.067	17855
826.206	17729
826.346	17874
826.485	17870
826.625	17802
826.765	17786
826.904	17870
827.044	17581
827.183	17532
827.323	17471
827.462	17619
827.601	17554
827.741	17452
827.88	17493
828.02	17254
828.159	17467
828.298	17638
828.437	17505
828.577	17402
828.716	17718
828.855	17444
828.994	17242
829.134	17128
829.273	17258
829.412	17223
829.551	17185
829.69	17128
829.829	17269
829.968	17387
830.107	17318
830.246	17288
830.385	17250
830.524	17170
830.663	17056
830.802	17018
830.941	16847
831.08	16759
831.219	17006
831.357	16908
831.496	17083
831.635	16873
831.774	16672
831.913	16763
832.051	16603
832.19	16573
832.329	16679
832.467	16607
832.606	16565
832.744	16554
832.883	16656
833.022	16481
833.16	16584
833.299	16618
833.437	16618
833.576	16611
833.714	16622
833.852	16691
833.991	16519
834.129	16607
834.267	16710
834.406	16558
834.544	16641
834.682	16660
834.821	16649
834.959	16672
835.097	16615
835.235	16645
835.373	16577
835.511	16664
835.65	16584
835.788	16535
835.926	16337
836.064	16356
836.202	16318
836.34	16466
836.478	16584
836.615	16470
836.753	16550
836.891	16656
837.029	16550
837.167	16481
837.305	16428
837.443	16417
837.58	16344
837.718	16440
837.856	16424
837.993	16268
838.131	16310
838.269	16314
838.406	16299
838.544	16223
838.681	16063
838.819	16139
838.956	15907
839.094	15949
839.231	16029
839.369	16143
839.506	16284
839.643	16223
839.781	15934
839.918	15937
840.055	15956
840.193	15994
840.33	15915
840.467	16013
840.604	15907
840.742	16306
840.879	15835
841.016	15911
841.153	15895
841.29	16131
841.427	15994
841.564	15949
841.701	15998
841.838	15926
841.975	15770
842.112	15869
842.249	15774
842.385	15606
842.522	15888
842.659	15739
842.796	15747
842.933	15709
843.069	15717
843.206	15663
843.343	15781
843.479	15701
843.616	15751
843.752	15553
843.889	15473
844.025	15584
844.162	15481
844.298	15660
844.435	15587
844.571	15443
844.708	15622
844.844	15618
844.98	15705
845.117	15679
845.253	15428
845.389	15298
845.525	15462
845.661	15420
845.798	15302
845.934	15340
846.07	15226
846.206	15313
846.342	15466
846.478	15329
846.614	15154
846.75	15024
846.886	15108
847.022	15184
847.158	15100
847.294	15116
847.429	15058
847.565	15142
847.701	15275
847.837	14868
847.972	14887
848.108	14826
848.244	14815
848.379	14754
848.515	14811
848.65	14670
848.786	14678
848.921	14587
849.057	14735
849.192	14750
849.328	14727
849.463	14746
849.598	14648
849.734	14587
849.869	14629
850.004	14442
850.14	14511
850.275	14507
850.41	14450
850.545	14385
850.68	14446
850.815	14480
850.95	14473
851.085	14571
851.22	14541
851.355	14415
851.49	14434
851.625	14358
851.76	14465
851.895	14393
852.03	14275
852.165	14415
852.299	14476
852.434	14556
852.569	14552
852.703	14358
852.838	14511
852.973	14533
853.107	14613
853.242	14442
853.376	14259
853.511	14195
853.645	14278
853.78	14415
853.914	14317
854.048	14278
854.183	14248
854.317	14309
854.451	14457
854.585	14286
854.72	14408
854.854	14343
854.988	14290
855.122	14278
855.256	14229
855.39	14339
855.524	14396
855.658	14385
855.792	14362
855.926	14343
856.06	14419
856.194	14389
856.327	14336
856.461	14252
856.595	14244
856.729	14275
856.862	14381
856.996	14282
857.13	14438
857.263	14366
857.397	14492
857.53	14396
857.664	14450
857.797	14526
857.931	14549
858.064	14377
858.197	14446
858.331	14275
858.464	14301
858.597	14214
858.731	14351
858.864	14202
858.997	14309
859.13	14385
859.263	14366
859.396	14400
859.529	14256
859.662	14324
859.795	14267
859.928	14320
860.061	14431
860.194	14476
860.327	14343
860.46	14309
860.592	14446
860.725	14461
860.858	14469
860.99	14282
861.123	14214
861.256	14126
861.388	14339
861.521	14971
861.653	14271
861.786	14149
861.918	14202
862.05	14248
862.183	14252
862.315	14332
862.447	14385
862.58	14366
862.712	14065
862.844	14084
862.976	14123
863.108	14134
863.24	14533
863.372	14069
863.504	14153
863.636	14107
863.768	14103
863.9	14092
864.032	14043
864.164	14054
864.296	14168
864.428	14157
864.559	14187
864.691	14244
864.823	14164
864.954	14195
865.086	14176
865.217	14096
865.349	14096
865.48	14092
865.612	14081
865.743	14225
865.875	14043
866.006	14020
866.137	14164
866.269	14157
866.4	14058
866.531	14062
866.662	13997
866.793	14081
866.924	14050
867.055	14126
867.186	14035
867.317	14084
867.448	13944
867.579	14035
867.71	13997
867.841	14020
867.972	14206
868.103	14172
868.233	14100
868.364	14130
868.495	14145
868.625	14290
868.756	14427
868.886	14332
869.017	14351
869.147	14484
869.278	14602
869.408	14328
869.539	14366
869.669	14469
869.799	14381
869.929	14533
870.06	14412
870.19	14648
870.32	14716
870.45	14705
870.58	14750
870.71	14807
870.84	14853
870.97	14750
871.1	14701
871.23	14933
871.36	14921
871.489	14899
871.619	14864
871.749	14979
871.879	14925
872.008	15024
872.138	14960
872.267	14857
872.397	14724
872.526	14743
872.656	14659
872.785	14758
872.915	14868
873.044	14998
873.173	14929
873.303	14990
873.432	15013
873.561	14994
873.69	14960
873.819	14948
873.948	15020
874.077	14986
874.206	14990
874.335	15074
874.464	15131
874.593	15279
874.722	15203
874.851	15329
874.979	15249
875.108	15317
875.237	15264
875.365	15161
875.494	15207
875.623	15336
875.751	15279
875.88	15329
876.008	15408
876.136	15564
876.265	15705
876.393	15819
876.521	15835
876.65	15789
876.778	15690
876.906	15690
877.034	15644
877.162	15739
877.29	15587
877.418	15724
877.546	15648
877.674	15667
877.802	15614
877.93	15656
878.058	15713
878.185	15500
878.313	15762
878.441	15675
878.568	15561
878.696	15618
878.824	15633
878.951	15797
879.079	15854
879.206	16071
879.333	15869
879.461	15793
879.588	15789
879.715	15922
879.842	15991
879.97	15762
880.097	15610
880.224	15618
880.351	15633
880.478	15572
880.605	15481
880.732	15424
880.859	15778
880.986	15526
881.112	15652
881.239	15519
881.366	15389
881.493	15184
881.619	15127
881.746	15214
881.872	15176
881.999	15203
882.125	15237
882.252	15252
882.378	15260
882.505	15351
882.631	15070
882.757	14998
882.883	14975
883.01	15020
883.136	14990
883.262	14914
883.388	14880
883.514	15009
883.64	14933
883.766	14963
883.892	14910
884.018	14853
884.143	15024
884.269	15112
884.395	14872
884.52	14781
884.646	14758
884.772	14701
884.897	14686
885.023	14708
885.148	14815
885.274	14883
885.399	14785
885.524	14727
885.65	14746
885.775	14785
885.9	14701
886.025	14838
886.15	14697
886.275	14781
886.4	14655
886.525	14689
886.65	14655
886.775	14625
886.9	14864
887.025	15009
887.149	14758
887.274	14579
887.399	14644
887.523	14579
887.648	14583
887.773	14465
887.897	14659
888.021	14579
888.146	14465
888.27	14686
888.395	14663
888.519	14587
888.643	14621
888.767	14701
888.891	14492
889.015	14393
889.139	14488
889.263	14412
889.387	14469
889.511	14602
889.635	14560
889.759	14469
889.883	14446
890.006	14473
890.13	14476
890.254	14282
890.377	14412
890.501	14248
890.624	14176
890.748	14317
890.871	14138
890.995	14031
891.118	14046
891.241	14100
891.364	14096
891.488	14290
891.611	14134
891.734	14103
891.857	14214
891.98	14191
892.103	14168
892.226	14168
892.349	14183
892.471	14031
892.594	14062
892.717	14183
892.839	14035
892.962	14073
893.085	14256
893.207	14168
893.33	14077
893.452	14039
893.575	14172
893.697	14100
893.819	14393
893.941	14320
894.064	14278
894.186	14103
894.308	14111
894.43	14298
894.552	14305
894.674	14294
894.796	14164
894.918	14191
895.04	14176
895.161	14233
895.283	14248
895.405	14149
895.526	14275
895.648	14305
895.769	14290
895.891	14301
896.012	14305
896.134	14267
896.255	14343
896.376	14275
896.498	14355
896.619	14313
896.74	14347
896.861	14419
896.982	14693
897.103	14811
897.224	14636
897.345	14587
897.466	14503
897.587	14610
897.708	14644
897.828	14640
897.949	14594
898.07	14415
898.19	14522
898.311	14655
898.431	14583
898.552	14636
898.672	14750
898.792	14686
898.913	14724
899.033	14549
899.153	14556
899.273	14393
899.393	14522
899.513	14438
899.633	14495
899.753	14583
899.873	14461
899.993	14541
900.113	14434
900.232	14488
900.352	14495
900.472	14450
900.591	14366
900.711	14450
900.83	14290
900.95	14484
901.069	14556
901.189	14339
901.308	14168
901.427	13997
901.546	14123
901.665	14153
901.784	14073
901.904	13909
902.023	13784
902.141	13594
902.26	13693
902.379	13761
902.498	13567
902.617	13601
902.735	13605
902.854	13601
902.973	13499
903.091	13415
903.21	13331
903.328	13247
903.446	13285
903.565	13129
903.683	13183
903.801	13114
903.919	13160
904.038	13126
904.156	13004
904.274	13072
904.392	12951
904.51	12962
904.627	12947
904.745	13080
904.863	13061
904.981	12829
905.098	12696
905.216	12703
905.334	12711
905.451	12662
905.569	12604
905.686	12707
905.803	12795
905.921	12563
906.038	12612
906.155	12441
906.272	12361
906.389	12319
906.506	12311
906.623	12201
906.74	12262
906.857	12106
906.974	12133
907.091	12361
907.208	12437
907.324	12232
907.441	12213
907.557	12007
907.674	12003
907.79	11893
907.907	11893
908.023	12041
908.139	12095
908.256	11973
908.372	11992
908.488	11969
908.604	11840
908.72	11722
908.836	11764
908.952	11786
909.068	11843
909.184	11847
909.3	11760
909.415	11866
909.531	11904
909.647	11547
909.762	11608
909.878	11566
909.993	11608
910.108	11558
910.224	11551
910.339	11558
910.454	11341
910.57	11459
910.685	11326
910.8	11642
910.915	11551
911.03	11532
911.145	11220
911.259	11242
911.374	11269
911.489	11105
911.604	11143
911.718	11056
911.833	10999
911.947	10908
912.062	10900
912.176	11006
912.291	10930
912.405	11025
912.519	11159
912.633	11254
912.748	11159
912.862	10953
912.976	10896
913.09	10710
913.204	10854
913.318	10885
913.431	10965
913.545	11003
913.659	10984
913.772	10862
913.886	10752
914	10717
914.113	10847
914.226	10911
914.34	10793
914.453	10729
914.566	10809
914.68	10626
914.793	10729
914.906	10531
915.019	10478
915.132	10409
915.245	10451
915.358	10523
915.47	10538
915.583	10519
915.696	10573
915.809	10634
915.921	10645
916.034	10508
916.146	10485
916.259	10352
916.371	10546
916.483	10519
916.595	10466
916.708	10413
916.82	10459
916.932	10421
917.044	10413
917.156	10421
917.268	10390
917.38	10333
917.491	10242
917.603	10352
917.715	10337
917.826	10390
917.938	10261
918.049	10196
918.161	10424
918.272	10424
918.384	10523
918.495	10382
918.606	10257
918.717	10211
918.828	10257
918.939	10299
919.05	10143
919.161	10200
919.272	10055
919.383	10135
919.494	10246
919.604	10466
919.715	10227
919.826	10204
919.936	10177
920.047	10299
920.157	10257
920.267	10504
920.378	10291
920.488	10234
920.598	10379
920.708	10607
920.818	10432
920.928	10466
921.038	10565
921.148	10558
921.258	10265
921.368	10204
921.477	10124
921.587	10120
921.697	9968
921.806	10105
921.916	9937
922.025	9755
922.134	9762
922.244	9800
922.353	9842
922.462	9633
922.571	9652
922.68	9523
922.789	9564
922.898	9519
923.007	9443
923.116	9496
923.224	9450
923.333	9511
923.442	9344
923.55	9340
923.659	9374
923.767	9447
923.876	9378
923.984	9386
924.092	9279
924.201	9325
924.309	9416
924.417	9332
924.525	9268
924.633	9283
924.741	10246
924.849	9131
924.956	9321
925.064	9108
925.172	9074
925.279	9074
925.387	9272
925.494	9173
925.602	9287
925.709	9230
925.816	9058
925.924	9074
926.031	9192
926.138	9154
926.245	9195
926.352	9043
926.459	9253
926.566	9195
926.673	9074
926.779	9043
926.886	9013
926.993	8887
927.099	8921
927.206	8773
927.312	8842
927.419	8902
927.525	8826
927.631	8941
927.737	8823
927.843	8792
927.95	8621
928.056	8800
928.162	8766
928.267	8777
928.373	9416
928.479	8842
928.585	8598
928.69	8667
928.796	8800
928.901	8697
929.007	8522
929.112	8617
929.218	8705
929.323	8594
929.428	8564
929.533	8731
929.638	8552
929.743	8602
929.848	8644
929.953	8644
930.058	8473
930.163	8351
930.267	8370
930.372	8434
930.477	8381
930.581	8610
930.685	8431
930.79	8324
930.894	8305
930.998	8336
931.103	8457
931.207	8084
931.311	8050
931.415	8073
931.519	7849
931.623	7830
