Data from test_V78500241_2641.txt Node
Date: Fri Mar 25 14:52:06 CST 2022
User: usil
Spectrometer: V785-0024
Trigger mode: 0
Integration Time (sec): 4.000000E-1
Scans to average: 1
Nonlinearity correction enabled: false
Boxcar width: 0
Storing dark spectrum: false
XAxis mode: Wavelengths
Number of Pixels in Spectrum: 1024
>>>>>Begin Spectral Data<<<<<
801.071	21945
801.214	21941
801.356	21690
801.499	21496
801.641	21458
801.783	21447
801.926	21374
802.068	21416
802.211	21203
802.353	21256
802.496	20979
802.638	20883
802.78	20682
802.923	20712
803.065	20533
803.208	20598
803.35	20762
803.492	20785
803.635	20705
803.777	20689
803.919	20609
804.061	21024
804.204	20746
804.346	20560
804.488	20609
804.63	20689
804.773	20492
804.915	20602
805.057	20724
805.199	20511
805.341	20670
805.483	20674
805.626	20625
805.768	20499
805.91	20632
806.052	20583
806.194	20533
806.336	20720
806.478	20537
806.62	20446
806.762	20777
806.904	20754
807.046	21047
807.188	20906
807.33	20979
807.472	20918
807.614	20792
807.756	20906
807.898	20765
808.04	20583
808.182	20651
808.324	20663
808.465	20758
808.607	20872
808.749	20777
808.891	20975
809.033	21070
809.174	20963
809.316	21051
809.458	20937
809.6	20944
809.741	21024
809.883	20849
810.025	21055
810.166	21036
810.308	21039
810.45	21043
810.591	20975
810.733	20792
810.875	20815
811.016	20511
811.158	20689
811.299	20758
811.441	20830
811.582	20781
811.724	20727
811.865	20644
812.007	20708
812.148	20815
812.29	20689
812.431	20944
812.573	20933
812.714	21077
812.855	21298
812.997	21412
813.138	21420
813.279	21230
813.421	21176
813.562	21169
813.703	21062
813.845	20811
813.986	20648
814.127	20427
814.268	20396
814.41	20195
814.551	20172
814.692	20434
814.833	20138
814.974	20176
815.115	20218
815.256	20168
815.397	20096
815.539	20046
815.68	20088
815.821	19883
815.962	20016
816.103	19963
816.244	19849
816.385	19799
816.526	19685
816.666	19521
816.807	19411
816.948	19434
817.089	19605
817.23	19411
817.371	19453
817.512	19358
817.653	19441
817.793	19270
817.934	19343
818.075	19384
818.216	19476
818.356	19388
818.497	19247
818.638	19099
818.778	19061
818.919	19091
819.06	19023
819.2	19221
819.341	19232
819.481	19293
819.622	19400
819.762	19651
819.903	19449
820.043	19419
820.184	19400
820.324	19316
820.465	19449
820.605	19453
820.746	19312
820.886	19217
821.026	19308
821.167	19327
821.307	19434
821.447	19392
821.588	19240
821.728	19008
821.868	18924
822.008	18779
822.149	18806
822.289	18677
822.429	18544
822.569	18544
822.709	18486
822.849	18330
822.99	18228
823.13	18296
823.27	18091
823.41	18152
823.55	18060
823.69	18114
823.83	18148
823.97	18087
824.11	17847
824.25	17870
824.389	17885
824.529	17912
824.669	17847
824.809	17916
824.949	17958
825.089	17912
825.228	17878
825.368	17699
825.508	17718
825.648	17596
825.787	17752
825.927	17733
826.067	17596
826.206	17680
826.346	17680
826.485	17577
826.625	17596
826.765	17790
826.904	17707
827.044	17398
827.183	17364
827.323	17391
827.462	17395
827.601	17353
827.741	17330
827.88	17353
828.02	17258
828.159	17360
828.298	17353
828.437	17467
828.577	17349
828.716	17505
828.855	17292
828.994	17197
829.134	17102
829.273	17140
829.412	16995
829.551	17025
829.69	17208
829.829	17178
829.968	17318
830.107	17197
830.246	17128
830.385	17105
830.524	17067
830.663	16965
830.802	16873
830.941	16809
831.08	16664
831.219	16930
831.357	16968
831.496	16961
831.635	16805
831.774	16687
831.913	16664
832.051	16535
832.19	16618
832.329	16618
832.467	16481
832.606	16379
832.744	16470
832.883	16489
833.022	16459
833.16	16455
833.299	16531
833.437	16512
833.576	16451
833.714	16558
833.852	16493
833.991	16443
834.129	16626
834.267	16660
834.406	16447
834.544	16588
834.682	16527
834.821	16580
834.959	16725
835.097	16428
835.235	16637
835.373	16523
835.511	16596
835.65	16500
835.788	16440
835.926	16215
836.064	16166
836.202	16306
836.34	16325
836.478	16542
836.615	16325
836.753	16348
836.891	16451
837.029	16493
837.167	16504
837.305	16371
837.443	16337
837.58	16219
837.718	16398
837.856	16280
837.993	16265
838.131	16337
838.269	16253
838.406	16169
838.544	16097
838.681	16048
838.819	16017
838.956	15838
839.094	15823
839.231	15880
839.369	15911
839.506	16200
839.643	16150
839.781	15857
839.918	15808
840.055	15907
840.193	15899
840.33	15907
840.467	15861
840.604	15903
840.742	16105
840.879	15667
841.016	15766
841.153	15808
841.29	15975
841.427	15926
841.564	15842
841.701	15892
841.838	15816
841.975	15770
842.112	15785
842.249	15648
842.385	15504
842.522	15869
842.659	15633
842.796	15660
842.933	15606
843.069	15587
843.206	15595
843.343	15698
843.479	15705
843.616	15622
843.752	15458
843.889	15473
844.025	15507
844.162	15367
844.298	15473
844.435	15378
844.571	15283
844.708	15469
844.844	15557
844.98	15412
845.117	15545
845.253	15389
845.389	15405
845.525	15408
845.661	15344
845.798	15256
845.934	15222
846.07	15260
846.206	15268
846.342	15370
846.478	15176
846.614	15001
846.75	15020
846.886	14921
847.022	15138
847.158	15077
847.294	14990
847.429	15112
847.565	14880
847.701	15173
847.837	14830
847.972	14678
848.108	14845
848.244	14773
848.379	14720
848.515	14678
848.65	14533
848.786	14560
848.921	14625
849.057	14705
849.192	14834
849.328	14594
849.463	14594
849.598	14537
849.734	14476
849.869	14450
850.004	14400
850.14	14499
850.275	14415
850.41	14248
850.545	14374
850.68	14328
850.815	14473
850.95	14351
851.085	14625
851.22	14423
851.355	14358
851.49	14404
851.625	14370
851.76	14317
851.895	14267
852.03	14233
852.165	14305
852.299	14389
852.434	14442
852.569	14446
852.703	14320
852.838	14427
852.973	14495
853.107	14423
853.242	14381
853.376	14237
853.511	14149
853.645	14176
853.78	14294
853.914	14263
854.048	14214
854.183	14187
854.317	14187
854.451	14457
854.585	14168
854.72	14244
854.854	14343
854.988	14142
855.122	14149
855.256	14054
855.39	14180
855.524	14237
855.658	14218
855.792	14301
855.926	14267
856.06	14290
856.194	14355
856.327	14305
856.461	14263
856.595	14240
856.729	14237
856.862	14377
856.996	14313
857.13	14385
857.263	14309
857.397	14351
857.53	14168
857.664	14248
857.797	14290
857.931	14362
858.064	14339
858.197	14362
858.331	14229
858.464	14214
858.597	14168
858.731	14145
858.864	14229
858.997	14172
859.13	14347
859.263	14282
859.396	14271
859.529	14282
859.662	14221
859.795	14225
859.928	14271
860.061	14305
860.194	14362
860.327	14259
860.46	14263
860.592	14286
860.725	14412
860.858	14328
860.99	14176
861.123	14130
861.256	14161
861.388	14267
861.521	14861
861.653	14210
861.786	14142
861.918	14088
862.05	14119
862.183	14248
862.315	14176
862.447	14286
862.58	14237
862.712	13917
862.844	14027
862.976	14153
863.108	14069
863.24	14450
863.372	13909
863.504	13978
863.636	14050
863.768	14016
863.9	14065
864.032	13989
864.164	14001
864.296	14020
864.428	14168
864.559	14065
864.691	14100
864.823	14130
864.954	14062
865.086	14088
865.217	13982
865.349	13959
865.48	14027
865.612	13989
865.743	14134
865.875	13997
866.006	14016
866.137	14005
866.269	13989
866.4	14005
866.531	14027
866.662	13955
866.793	13982
866.924	13986
867.055	14024
867.186	14008
867.317	13917
867.448	13890
867.579	13879
867.71	13978
867.841	13925
867.972	13890
868.103	14054
868.233	14012
868.364	13887
868.495	14096
868.625	14278
868.756	14256
868.886	14233
869.017	14263
869.147	14336
869.278	14469
869.408	14271
869.539	14202
869.669	14351
869.799	14278
869.929	14415
870.06	14328
870.19	14552
870.32	14431
870.45	14571
870.58	14655
870.71	14743
870.84	14781
870.97	14659
871.1	14731
871.23	14796
871.36	14883
871.489	14811
871.619	14788
871.749	14864
871.879	14845
872.008	14990
872.138	14868
872.267	14933
872.397	14705
872.526	14739
872.656	14670
872.785	14712
872.915	14754
873.044	14979
873.173	14921
873.303	14979
873.432	14914
873.561	14956
873.69	14982
873.819	14925
873.948	14979
874.077	14819
874.206	14853
874.335	14956
874.464	15001
874.593	15272
874.722	15138
874.851	15306
874.979	15237
875.108	15195
875.237	15176
875.365	15135
875.494	15207
875.623	15386
875.751	15222
875.88	15237
876.008	15355
876.136	15466
876.265	15682
876.393	15827
876.521	15679
876.65	15717
876.778	15599
876.906	15610
877.034	15629
877.162	15686
877.29	15641
877.418	15660
877.546	15717
877.674	15599
877.802	15622
877.93	15622
878.058	15610
878.185	15466
878.313	15618
878.441	15770
878.568	15443
878.696	15641
878.824	15713
878.951	15804
879.079	15842
879.206	15953
879.333	15800
879.461	15785
879.588	15724
879.715	15800
879.842	15892
879.97	15652
880.097	15424
880.224	15462
880.351	15542
880.478	15428
880.605	15485
880.732	15511
880.859	15671
880.986	15473
881.112	15572
881.239	15325
881.366	15214
881.493	15264
881.619	15207
881.746	15161
881.872	15138
881.999	15066
882.125	15154
882.252	15218
882.378	15176
882.505	15332
882.631	15176
882.757	14952
882.883	15028
883.01	14971
883.136	14861
883.262	14788
883.388	14750
883.514	15036
883.64	14990
883.766	14979
883.892	14777
884.018	14861
884.143	14948
884.269	14975
884.395	14689
884.52	14701
884.646	14708
884.772	14606
884.897	14560
885.023	14602
885.148	14735
885.274	14815
885.399	14849
885.524	14674
885.65	14697
885.775	14720
885.9	14594
886.025	14758
886.15	14796
886.275	14606
886.4	14488
886.525	14610
886.65	14636
886.775	14533
886.9	14735
887.025	14838
887.149	14556
887.274	14590
887.399	14552
887.523	14450
887.648	14454
887.773	14461
887.897	14511
888.021	14522
888.146	14446
888.27	14507
888.395	14598
888.519	14568
888.643	14552
888.767	14549
888.891	14446
889.015	14362
889.139	14473
889.263	14298
889.387	14526
889.511	14511
889.635	14560
889.759	14282
889.883	14396
890.006	14454
890.13	14438
890.254	14305
890.377	14347
890.501	14161
890.624	14084
890.748	14290
890.871	14149
890.995	14062
891.118	14058
891.241	14092
891.364	14046
891.488	14199
891.611	14134
891.734	14062
891.857	14123
891.98	14054
892.103	14126
892.226	14092
892.349	13944
892.471	14024
892.594	14100
892.717	14065
892.839	14088
892.962	14027
893.085	14138
893.207	14062
893.33	13982
893.452	13989
893.575	14103
893.697	13963
893.819	14237
893.941	14256
894.064	14214
894.186	14035
894.308	14046
894.43	14237
894.552	14195
894.674	14115
894.796	14081
894.918	14081
895.04	14107
895.161	14202
895.283	14069
895.405	14084
895.526	14145
895.648	14100
895.769	14240
895.891	14172
896.012	14153
896.134	14298
896.255	14305
896.376	14210
896.498	14237
896.619	14221
896.74	14191
896.861	14282
896.982	14495
897.103	14773
897.224	14533
897.345	14530
897.466	14438
897.587	14499
897.708	14667
897.828	14545
897.949	14446
898.07	14358
898.19	14522
898.311	14522
898.431	14488
898.552	14571
898.672	14629
898.792	14651
898.913	14571
899.033	14590
899.153	14442
899.273	14309
899.393	14473
899.513	14488
899.633	14385
899.753	14507
899.873	14366
899.993	14408
900.113	14419
900.232	14415
900.352	14355
900.472	14404
900.591	14237
900.711	14248
900.83	14180
900.95	14400
901.069	14480
901.189	14195
901.308	14046
901.427	13936
901.546	13913
901.665	13993
901.784	13921
901.904	13830
902.023	13811
902.141	13639
902.26	13552
902.379	13582
902.498	13495
902.617	13384
902.735	13548
902.854	13476
902.973	13495
903.091	13270
903.21	13209
903.328	13278
903.446	13122
903.565	13190
903.683	13046
903.801	13107
903.919	12943
904.038	13133
904.156	12901
904.274	13019
904.392	12886
904.51	12783
904.627	12837
904.745	12958
904.863	13008
904.981	12703
905.098	12578
905.216	12585
905.334	12544
905.451	12582
905.569	12650
905.686	12642
905.803	12574
905.921	12410
906.038	12555
906.155	12464
906.272	12376
906.389	12399
906.506	12182
906.623	12163
906.74	12247
906.857	12110
906.974	12110
907.091	12319
907.208	12414
907.324	12243
907.441	12110
907.557	12022
907.674	11939
907.79	11908
907.907	11980
908.023	12038
908.139	11923
908.256	11942
908.372	11901
908.488	11809
908.604	11752
908.72	11733
908.836	11752
908.952	11756
909.068	11802
909.184	11703
909.3	11775
909.415	11790
909.531	11680
909.647	11570
909.762	11551
909.878	11486
909.993	11478
910.108	11448
910.224	11360
910.339	11410
910.454	11345
910.57	11239
910.685	11265
910.8	11585
910.915	11497
911.03	11341
911.145	11204
911.259	11185
911.374	11208
911.489	11071
911.604	11041
911.718	10987
911.833	10968
911.947	10923
912.062	10744
912.176	10915
912.291	10923
912.405	11010
912.519	11105
912.633	11113
912.748	11029
912.862	10949
912.976	10809
913.09	10653
913.204	10797
913.318	10820
913.431	10881
913.545	10862
913.659	10919
913.772	10740
913.886	10725
914	10694
914.113	10839
914.226	10790
914.34	10850
914.453	10683
914.566	10763
914.68	10660
914.793	10554
914.906	10554
915.019	10459
915.132	10333
915.245	10447
915.358	10455
915.47	10436
915.583	10451
915.696	10561
915.809	10630
915.921	10519
916.034	10432
916.146	10382
916.259	10390
916.371	10500
916.483	10405
916.595	10356
916.708	10371
916.82	10405
916.932	10455
917.044	10341
917.156	10352
917.268	10211
917.38	10295
917.491	10227
917.603	10356
917.715	10394
917.826	10451
917.938	10337
918.049	10158
918.161	10318
918.272	10413
918.384	10455
918.495	10352
918.606	10192
918.717	10090
918.828	10215
918.939	10219
919.05	10090
919.161	10158
919.272	10002
919.383	10051
919.494	10276
919.604	10341
919.715	10177
919.826	10093
919.936	10124
920.047	10268
920.157	10227
920.267	10344
920.378	10253
920.488	10207
920.598	10386
920.708	10508
920.818	10371
920.928	10348
921.038	10504
921.148	10451
921.258	10261
921.368	10204
921.477	10101
921.587	10048
921.697	9972
921.806	10093
921.916	9907
922.025	9827
922.134	9698
922.244	9713
922.353	9793
922.462	9637
922.571	9587
922.68	9462
922.789	9462
922.898	9405
923.007	9443
923.116	9412
923.224	9473
923.333	9416
923.442	9348
923.55	9348
923.659	9329
923.767	9329
923.876	9313
923.984	9321
924.092	9222
924.201	9291
924.309	9306
924.417	9287
924.525	9222
924.633	9199
924.741	10074
924.849	9112
924.956	9287
925.064	9100
925.172	9036
925.279	9043
925.387	9138
925.494	9017
925.602	9226
925.709	9138
925.816	8986
925.924	9051
926.031	9146
926.138	9131
926.245	9161
926.352	9024
926.459	9173
926.566	9192
926.673	9089
926.779	9047
926.886	9032
926.993	8842
927.099	8785
927.206	8705
927.312	8720
927.419	8800
927.525	8868
927.631	8967
927.737	8754
927.843	8746
927.95	8556
928.056	8731
928.162	8750
928.267	8788
928.373	9367
928.479	8773
928.585	8610
928.69	8735
928.796	8735
928.901	8648
929.007	8492
929.112	8629
929.218	8590
929.323	8549
929.428	8522
929.533	8651
929.638	8484
929.743	8530
929.848	8636
929.953	8552
930.058	8476
930.163	8248
930.267	8332
930.372	8457
930.477	8263
930.581	8575
930.685	8336
930.79	8214
930.894	8275
930.998	8153
931.103	8309
931.207	8115
931.311	7940
931.415	7887
931.519	7734
931.623	7818
