Data from test_V78500241_2196.txt Node
Date: Fri Mar 25 14:49:00 CST 2022
User: usil
Spectrometer: V785-0024
Trigger mode: 0
Integration Time (sec): 4.000000E-1
Scans to average: 1
Nonlinearity correction enabled: false
Boxcar width: 0
Storing dark spectrum: false
XAxis mode: Wavelengths
Number of Pixels in Spectrum: 1024
>>>>>Begin Spectral Data<<<<<
801.071	22074
801.214	22120
801.356	21747
801.499	21694
801.641	21549
801.783	21511
801.926	21553
802.068	21412
802.211	21367
802.353	21348
802.496	21013
802.638	21070
802.78	20963
802.923	21024
803.065	20876
803.208	20727
803.35	20830
803.492	20986
803.635	20956
803.777	20807
803.919	20944
804.061	21142
804.204	20910
804.346	20739
804.488	20731
804.63	20796
804.773	20712
804.915	20944
805.057	20834
805.199	20701
805.341	20929
805.483	20906
805.626	20899
805.768	20811
805.91	20716
806.052	20674
806.194	20655
806.336	20929
806.478	20777
806.62	20762
806.762	20868
806.904	21036
807.046	21150
807.188	21017
807.33	21161
807.472	21131
807.614	21043
807.756	21039
807.898	20891
808.04	20910
808.182	20887
808.324	20925
808.465	20998
808.607	21036
808.749	21093
808.891	21188
809.033	21344
809.174	21195
809.316	20948
809.458	21146
809.6	21119
809.741	21207
809.883	21207
810.025	21367
810.166	21218
810.308	21348
810.45	21161
810.591	21199
810.733	21112
810.875	21051
811.016	20834
811.158	20861
811.299	21047
811.441	20998
811.582	21017
811.724	20944
811.865	20887
812.007	20963
812.148	20857
812.29	21036
812.431	21085
812.573	21116
812.714	21287
812.855	21454
812.997	21568
813.138	21583
813.279	21545
813.421	21397
813.562	21466
813.703	21214
813.845	21119
813.986	20849
814.127	20625
814.268	20560
814.41	20617
814.551	20583
814.692	20560
814.833	20423
814.974	20476
815.115	20484
815.256	20374
815.397	20389
815.539	20366
815.68	20103
815.821	20172
815.962	20248
816.103	20077
816.244	20088
816.385	20054
816.526	19871
816.666	19807
816.807	19552
816.948	19677
817.089	19826
817.23	19719
817.371	19567
817.512	19674
817.653	19563
817.793	19628
817.934	19582
818.075	19662
818.216	19586
818.356	19548
818.497	19476
818.638	19282
818.778	19206
818.919	19411
819.06	19255
819.2	19464
819.341	19464
819.481	19563
819.622	19521
819.762	19784
819.903	19715
820.043	19685
820.184	19605
820.324	19613
820.465	19639
820.605	19605
820.746	19590
820.886	19518
821.026	19620
821.167	19495
821.307	19635
821.447	19419
821.588	19362
821.728	19308
821.868	19168
822.008	19061
822.149	19015
822.289	18913
822.429	18715
822.569	18673
822.709	18715
822.849	18494
822.99	18540
823.13	18410
823.27	18323
823.41	18350
823.55	18262
823.69	18365
823.83	18327
823.97	18292
824.11	18201
824.25	18064
824.389	18034
824.529	18186
824.669	18011
824.809	18091
824.949	18171
825.089	18072
825.228	18098
825.368	17904
825.508	17836
825.648	17927
825.787	17954
825.927	17878
826.067	17764
826.206	17733
826.346	17813
826.485	17828
826.625	17798
826.765	17878
826.904	17790
827.044	17722
827.183	17585
827.323	17520
827.462	17547
827.601	17532
827.741	17452
827.88	17596
828.02	17410
828.159	17478
828.298	17547
828.437	17520
828.577	17516
828.716	17676
828.855	17493
828.994	17326
829.134	17261
829.273	17318
829.412	17231
829.551	17185
829.69	17334
829.829	17261
829.968	17402
830.107	17322
830.246	17303
830.385	17216
830.524	17246
830.663	17155
830.802	17067
830.941	16984
831.08	16831
831.219	16972
831.357	16930
831.496	17132
831.635	17052
831.774	16873
831.913	16736
832.051	16793
832.19	16733
832.329	16687
832.467	16622
832.606	16558
832.744	16577
832.883	16538
833.022	16611
833.16	16603
833.299	16725
833.437	16569
833.576	16694
833.714	16645
833.852	16736
833.991	16736
834.129	16744
834.267	16809
834.406	16607
834.544	16782
834.682	16683
834.821	16645
834.959	16805
835.097	16588
835.235	16763
835.373	16668
835.511	16664
835.65	16554
835.788	16527
835.926	16504
836.064	16386
836.202	16348
836.34	16603
836.478	16637
836.615	16550
836.753	16637
836.891	16706
837.029	16538
837.167	16485
837.305	16542
837.443	16470
837.58	16474
837.718	16535
837.856	16508
837.993	16360
838.131	16390
838.269	16318
838.406	16341
838.544	16295
838.681	16109
838.819	16097
838.956	15945
839.094	16021
839.231	16029
839.369	16105
839.506	16375
839.643	16230
839.781	15964
839.918	15895
840.055	16048
840.193	15926
840.33	15975
840.467	15972
840.604	15903
840.742	16188
840.879	15869
841.016	15812
841.153	15884
841.29	16090
841.427	16044
841.564	16051
841.701	15911
841.838	15960
841.975	15895
842.112	15895
842.249	15808
842.385	15690
842.522	15987
842.659	15728
842.796	15739
842.933	15831
843.069	15614
843.206	15595
843.343	15781
843.479	15812
843.616	15701
843.752	15587
843.889	15481
844.025	15644
844.162	15622
844.298	15637
844.435	15557
844.571	15492
844.708	15667
844.844	15816
844.98	15694
845.117	15610
845.253	15500
845.389	15344
845.525	15492
845.661	15431
845.798	15363
845.934	15424
846.07	15283
846.206	15420
846.342	15534
846.478	15431
846.614	15161
846.75	15138
846.886	15127
847.022	15104
847.158	15131
847.294	15203
847.429	15028
847.565	15005
847.701	15348
847.837	14880
847.972	14845
848.108	14956
848.244	14906
848.379	14788
848.515	14648
848.65	14621
848.786	14788
848.921	14674
849.057	14750
849.192	14724
849.328	14788
849.463	14727
849.598	14606
849.734	14590
849.869	14571
850.004	14587
850.14	14590
850.275	14541
850.41	14427
850.545	14480
850.68	14347
850.815	14495
850.95	14351
851.085	14720
851.22	14552
851.355	14412
851.49	14412
851.625	14415
851.76	14476
851.895	14275
852.03	14366
852.165	14480
852.299	14533
852.434	14568
852.569	14541
852.703	14659
852.838	14552
852.973	14632
853.107	14583
853.242	14442
853.376	14404
853.511	14263
853.645	14328
853.78	14465
853.914	14301
854.048	14313
854.183	14278
854.317	14275
854.451	14480
854.585	14374
854.72	14366
854.854	14473
854.988	14278
855.122	14267
855.256	14107
855.39	14317
855.524	14351
855.658	14366
855.792	14301
855.926	14404
856.06	14366
856.194	14507
856.327	14389
856.461	14309
856.595	14301
856.729	14233
856.862	14332
856.996	14408
857.13	14423
857.263	14385
857.397	14507
857.53	14298
857.664	14431
857.797	14423
857.931	14412
858.064	14400
858.197	14415
858.331	14336
858.464	14233
858.597	14168
858.731	14408
858.864	14393
858.997	14286
859.13	14313
859.263	14450
859.396	14423
859.529	14275
859.662	14256
859.795	14240
859.928	14393
860.061	14457
860.194	14503
860.327	14374
860.46	14332
860.592	14438
860.725	14461
860.858	14495
860.99	14278
861.123	14309
861.256	14298
861.388	14366
861.521	14815
861.653	14248
861.786	14138
861.918	14305
862.05	14290
862.183	14298
862.315	14305
862.447	14347
862.58	14286
862.712	14058
862.844	14142
862.976	14180
863.108	14164
863.24	14469
863.372	14035
863.504	14088
863.636	14107
863.768	14111
863.9	14111
864.032	14096
864.164	14096
864.296	14157
864.428	14210
864.559	14183
864.691	14202
864.823	14115
864.954	14153
865.086	14134
865.217	14054
865.349	14103
865.48	14046
865.612	14100
865.743	14168
865.875	14119
866.006	13963
866.137	14142
866.269	14103
866.4	14145
866.531	14073
866.662	13913
866.793	14046
866.924	14084
867.055	14103
867.186	14092
867.317	14115
867.448	13932
867.579	13997
867.71	14050
867.841	14027
867.972	14096
868.103	14134
868.233	14043
868.364	14088
868.495	14145
868.625	14400
868.756	14339
868.886	14202
869.017	14358
869.147	14488
869.278	14389
869.408	14343
869.539	14374
869.669	14465
869.799	14412
869.929	14427
870.06	14473
870.19	14674
870.32	14644
870.45	14686
870.58	14750
870.71	14921
870.84	14823
870.97	14670
871.1	14739
871.23	14876
871.36	14971
871.489	14773
871.619	14792
871.749	14902
871.879	15039
872.008	15047
872.138	14819
872.267	14921
872.397	14796
872.526	14823
872.656	14720
872.785	14811
872.915	15020
873.044	15100
873.173	14902
873.303	15100
873.432	15047
873.561	15070
873.69	15020
873.819	14880
873.948	15116
874.077	15047
874.206	15058
874.335	14918
874.464	15093
874.593	15150
874.722	15298
874.851	15416
874.979	15306
875.108	15439
875.237	15188
875.365	15260
875.494	15237
875.623	15412
875.751	15325
875.88	15428
876.008	15485
876.136	15553
876.265	15652
876.393	15895
876.521	15789
876.65	15778
876.778	15686
876.906	15751
877.034	15686
877.162	15724
877.29	15728
877.418	15705
877.546	15789
877.674	15789
877.802	15812
877.93	15797
878.058	15709
878.185	15584
878.313	15694
878.441	15717
878.568	15614
878.696	15660
878.824	15728
878.951	15797
879.079	15857
879.206	16032
879.333	15960
879.461	15755
879.588	15915
879.715	15953
879.842	16013
879.97	15789
880.097	15606
880.224	15534
880.351	15572
880.478	15606
880.605	15606
880.732	15492
880.859	15816
880.986	15523
881.112	15622
881.239	15462
881.366	15332
881.493	15226
881.619	15313
881.746	15226
881.872	15192
881.999	15176
882.125	15256
882.252	15169
882.378	15146
882.505	15405
882.631	15176
882.757	15089
882.883	15062
883.01	15081
883.136	14937
883.262	14933
883.388	14838
883.514	14979
883.64	15005
883.766	14883
883.892	14811
884.018	14815
884.143	14948
884.269	15093
884.395	14777
884.52	14678
884.646	14880
884.772	14712
884.897	14693
885.023	14781
885.148	14937
885.274	14883
885.399	14941
885.524	14705
885.65	14727
885.775	14826
885.9	14750
886.025	14830
886.15	14720
886.275	14689
886.4	14651
886.525	14708
886.65	14648
886.775	14682
886.9	14891
887.025	14849
887.149	14689
887.274	14613
887.399	14492
887.523	14511
887.648	14404
887.773	14533
887.897	14632
888.021	14613
888.146	14541
888.27	14644
888.395	14693
888.519	14499
888.643	14621
888.767	14579
888.891	14480
889.015	14461
889.139	14503
889.263	14454
889.387	14511
889.511	14579
889.635	14522
889.759	14415
889.883	14442
890.006	14457
890.13	14412
890.254	14434
890.377	14374
890.501	14374
890.624	14069
890.748	14256
890.871	14263
890.995	14115
891.118	14043
891.241	14103
891.364	14138
891.488	14282
891.611	14138
891.734	14103
891.857	14214
891.98	14172
892.103	14233
892.226	14153
892.349	14138
892.471	13970
892.594	14027
892.717	14107
892.839	14153
892.962	14142
893.085	14267
893.207	14123
893.33	14001
893.452	14126
893.575	14145
893.697	14081
893.819	14263
893.941	14294
894.064	14309
894.186	14088
894.308	14142
894.43	14309
894.552	14366
894.674	14263
894.796	14119
894.918	14172
895.04	14153
895.161	14248
895.283	14256
895.405	14183
895.526	14237
895.648	14248
895.769	14263
895.891	14229
896.012	14290
896.134	14320
896.255	14282
896.376	14256
896.498	14355
896.619	14412
896.74	14252
896.861	14442
896.982	14613
897.103	14777
897.224	14708
897.345	14583
897.466	14507
897.587	14587
897.708	14655
897.828	14552
897.949	14492
898.07	14454
898.19	14480
898.311	14705
898.431	14632
898.552	14705
898.672	14720
898.792	14792
898.913	14762
899.033	14625
899.153	14484
899.273	14381
899.393	14431
899.513	14579
899.633	14606
899.753	14518
899.873	14541
899.993	14549
900.113	14476
900.232	14545
900.352	14514
900.472	14480
900.591	14377
900.711	14400
900.83	14347
900.95	14419
901.069	14454
901.189	14343
901.308	14126
901.427	13921
901.546	14020
901.665	14062
901.784	14081
901.904	14020
902.023	13780
902.141	13704
902.26	13651
902.379	13643
902.498	13674
902.617	13575
902.735	13643
902.854	13537
902.973	13533
903.091	13438
903.21	13343
903.328	13339
903.446	13369
903.565	13175
903.683	13202
903.801	13091
903.919	13225
904.038	13122
904.156	12985
904.274	13057
904.392	12909
904.51	12920
904.627	13053
904.745	13061
904.863	13046
904.981	12871
905.098	12700
905.216	12688
905.334	12719
905.451	12696
905.569	12582
905.686	12692
905.803	12604
905.921	12525
906.038	12650
906.155	12521
906.272	12426
906.389	12384
906.506	12296
906.623	12201
906.74	12285
906.857	12224
906.974	12213
907.091	12357
907.208	12338
907.324	12334
907.441	12190
907.557	12083
907.674	12068
907.79	12007
907.907	11923
908.023	11969
908.139	12060
908.256	11988
908.372	11954
908.488	12011
908.604	11783
908.72	11847
908.836	11809
908.952	11760
909.068	11874
909.184	11939
909.3	11745
909.415	11882
909.531	11866
909.647	11585
909.762	11558
909.878	11524
909.993	11627
910.108	11589
910.224	11421
910.339	11585
910.454	11474
910.57	11334
910.685	11345
910.8	11642
910.915	11558
911.03	11429
911.145	11212
911.259	11280
911.374	11231
911.489	11208
911.604	11102
911.718	11060
911.833	11056
911.947	10987
912.062	10850
912.176	11029
912.291	10995
912.405	11014
912.519	11322
912.633	11174
912.748	11166
912.862	10968
912.976	10976
913.09	10767
913.204	10831
913.318	10858
913.431	10987
913.545	10965
913.659	11067
913.772	10866
913.886	10759
914	10668
914.113	10896
914.226	10877
914.34	10942
914.453	10656
914.566	10805
914.68	10752
914.793	10687
914.906	10554
915.019	10459
915.132	10508
915.245	10508
915.358	10535
915.47	10466
915.583	10523
915.696	10546
915.809	10645
915.921	10634
916.034	10554
916.146	10474
916.259	10417
916.371	10565
916.483	10569
916.595	10497
916.708	10538
916.82	10478
916.932	10451
917.044	10478
917.156	10390
917.268	10306
917.38	10394
917.491	10325
917.603	10386
917.715	10402
917.826	10417
917.938	10261
918.049	10192
918.161	10318
918.272	10485
918.384	10367
918.495	10417
918.606	10246
918.717	10166
918.828	10219
918.939	10223
919.05	10120
919.161	10238
919.272	10010
919.383	10078
919.494	10257
919.604	10440
919.715	10242
919.826	10223
919.936	10188
920.047	10318
920.157	10276
920.267	10459
920.378	10310
920.488	10238
920.598	10413
920.708	10504
920.818	10405
920.928	10440
921.038	10668
921.148	10512
921.258	10287
921.368	10150
921.477	10162
921.587	10017
921.697	10059
921.806	10090
921.916	10048
922.025	9812
922.134	9709
922.244	9724
922.353	9819
922.462	9690
922.571	9648
922.68	9545
922.789	9454
922.898	9481
923.007	9386
923.116	9500
923.224	9435
923.333	9507
923.442	9325
923.55	9302
923.659	9340
923.767	9469
923.876	9340
923.984	9420
924.092	9363
924.201	9321
924.309	9428
924.417	9386
924.525	9291
924.633	9348
924.741	10219
924.849	9104
924.956	9268
925.064	9089
925.172	9058
925.279	9157
925.387	9176
925.494	9154
925.602	9294
925.709	9184
925.816	9058
925.924	9161
926.031	9230
926.138	9135
926.245	9192
926.352	9077
926.459	9161
926.566	9306
926.673	9135
926.779	9066
926.886	9009
926.993	8849
927.099	8883
927.206	8834
927.312	8708
927.419	8876
927.525	8960
927.631	8899
927.737	8739
927.843	8708
927.95	8655
928.056	8739
928.162	8701
928.267	8830
928.373	9424
928.479	8849
928.585	8552
928.69	8743
928.796	8746
928.901	8644
929.007	8564
929.112	8583
929.218	8606
929.323	8594
929.428	8598
929.533	8708
929.638	8537
929.743	8629
929.848	8594
929.953	8564
930.058	8473
930.163	8286
930.267	8381
930.372	8461
930.477	8313
930.581	8556
930.685	8404
930.79	8305
930.894	8320
930.998	8294
931.103	8396
931.207	8103
931.311	8039
931.415	7978
931.519	7818
931.623	7734
