Data from test_V78500241_305.txt Node
Date: Fri Mar 25 14:35:50 CST 2022
User: usil
Spectrometer: V785-0024
Trigger mode: 0
Integration Time (sec): 4.000000E-1
Scans to average: 1
Nonlinearity correction enabled: false
Boxcar width: 0
Storing dark spectrum: false
XAxis mode: Wavelengths
Number of Pixels in Spectrum: 1024
>>>>>Begin Spectral Data<<<<<
801.071	27096
801.214	27039
801.356	26838
801.499	26819
801.641	26716
801.783	26556
801.926	26629
802.068	26537
802.211	26514
802.353	26412
802.496	26324
802.638	26115
802.78	26301
802.923	26058
803.065	26126
803.208	26180
803.35	26221
803.492	26229
803.635	26252
803.777	26199
803.919	26252
804.061	26632
804.204	26176
804.346	26115
804.488	25852
804.63	26084
804.773	25993
804.915	26115
805.057	26176
805.199	26111
805.341	26252
805.483	26271
805.626	26324
805.768	26157
805.91	26237
806.052	26259
806.194	26176
806.336	26263
806.478	26153
806.62	26126
806.762	26286
806.904	26180
807.046	26552
807.188	26480
807.33	26450
807.472	26564
807.614	26484
807.756	26492
807.898	26461
808.04	26298
808.182	26320
808.324	26351
808.465	26412
808.607	26598
808.749	26697
808.891	26921
809.033	26921
809.174	26705
809.316	26739
809.458	26632
809.6	26636
809.741	26754
809.883	26758
810.025	26883
810.166	26838
810.308	26796
810.45	26868
810.591	26765
810.733	26594
810.875	26511
811.016	26461
811.158	26275
811.299	26537
811.441	26629
811.582	26655
811.724	26541
811.865	26564
812.007	26511
812.148	26453
812.29	26560
812.431	26765
812.573	26895
812.714	26975
812.855	26963
812.997	27108
813.138	27173
813.279	27154
813.421	26937
813.562	27028
813.703	26925
813.845	26701
813.986	26438
814.127	26282
814.268	26119
814.41	26187
814.551	25993
814.692	26225
814.833	26039
814.974	25947
815.115	26031
815.256	25871
815.397	25803
815.539	25906
815.68	25883
815.821	25723
815.962	25841
816.103	25742
816.244	25712
816.385	25472
816.526	25506
816.666	25430
816.807	25221
816.948	25183
817.089	25255
817.23	25255
817.371	25198
817.512	25145
817.653	25232
817.793	25156
817.934	25183
818.075	25171
818.216	25255
818.356	25129
818.497	25038
818.638	24928
818.778	24802
818.919	24985
819.06	24897
819.2	25232
819.341	25034
819.481	25179
819.622	25228
819.762	25533
819.903	25297
820.043	25285
820.184	25270
820.324	25046
820.465	25244
820.605	25244
820.746	25251
820.886	25088
821.026	25080
821.167	25099
821.307	25114
821.447	25187
821.588	24996
821.728	24817
821.868	24635
822.008	24570
822.149	24509
822.289	24509
822.429	24334
822.569	24152
822.709	24129
822.849	24079
822.99	23958
823.13	23813
823.27	23874
823.41	23798
823.55	23729
823.69	23729
823.83	23722
823.97	23802
824.11	23653
824.25	23379
824.389	23570
824.529	23638
824.669	23524
824.809	23615
824.949	23630
825.089	23676
825.228	23474
825.368	23353
825.508	23398
825.648	23455
825.787	23239
825.927	23448
826.067	23292
826.206	23322
826.346	23364
826.485	23402
826.625	23349
826.765	23474
826.904	23436
827.044	23170
827.183	23037
827.323	22968
827.462	23185
827.601	23071
827.741	22957
827.88	23025
828.02	22843
828.159	22961
828.298	23006
828.437	22949
828.577	23010
828.716	23014
828.855	22892
828.994	22721
829.134	22740
829.273	22653
829.412	22687
829.551	22470
829.69	22649
829.829	22687
829.968	22729
830.107	22721
830.246	22645
830.385	22748
830.524	22626
830.663	22497
830.802	22348
830.941	22276
831.08	22169
831.219	22455
831.357	22341
831.496	22390
831.635	22211
831.774	22158
831.913	22139
832.051	21994
832.19	22036
832.329	22128
832.467	21892
832.606	21819
832.744	21865
832.883	21876
833.022	21846
833.16	21865
833.299	21987
833.437	22002
833.576	21991
833.714	21857
833.852	22109
833.991	21903
834.129	22021
834.267	22002
834.406	21934
834.544	22013
834.682	21785
834.821	21812
834.959	22048
835.097	21804
835.235	21930
835.373	21808
835.511	21781
835.65	21827
835.788	21606
835.926	21603
836.064	21618
836.202	21713
836.34	21732
836.478	21743
836.615	21542
836.753	21785
836.891	21770
837.029	21793
837.167	21732
837.305	21644
837.443	21622
837.58	21618
837.718	21576
837.856	21713
837.993	21576
838.131	21587
838.269	21382
838.406	21511
838.544	21462
838.681	21135
838.819	21313
838.956	21062
839.094	21013
839.231	21085
839.369	21252
839.506	21348
839.643	21173
839.781	21020
839.918	20998
840.055	20944
840.193	21024
840.33	20937
840.467	20994
840.604	20998
840.742	21135
840.879	20739
841.016	20788
841.153	20800
841.29	21047
841.427	20990
841.564	20956
841.701	20982
841.838	20982
841.975	20727
842.112	20804
842.249	20804
842.385	20533
842.522	20811
842.659	20648
842.796	20697
842.933	20556
843.069	20503
843.206	20651
843.343	20777
843.479	20571
843.616	20499
843.752	20419
843.889	20442
844.025	20602
844.162	20313
844.298	20503
844.435	20480
844.571	20347
844.708	20377
844.844	20575
844.98	20640
845.117	20404
845.253	20358
845.389	20317
845.525	20240
845.661	20271
845.798	20180
845.934	20244
846.07	20252
846.206	20332
846.342	20313
846.478	20218
846.614	19967
846.75	19921
846.886	19940
847.022	19967
847.158	19898
847.294	19917
847.429	19932
847.565	19902
847.701	20024
847.837	19533
847.972	19666
848.108	19712
848.244	19677
848.379	19438
848.515	19438
848.65	19384
848.786	19316
848.921	19502
849.057	19556
849.192	19502
849.328	19449
849.463	19324
849.598	19346
849.734	19331
849.869	19282
850.004	19206
850.14	19240
850.275	19084
850.41	19183
850.545	19126
850.68	19080
850.815	19148
850.95	19145
851.085	19335
851.22	19160
851.355	19141
851.49	19168
851.625	18973
851.76	19171
851.895	19091
852.03	18989
852.165	19076
852.299	19251
852.434	19202
852.569	19190
852.703	19129
852.838	19118
852.973	19247
853.107	19225
853.242	19088
853.376	18932
853.511	18795
853.645	18932
853.78	19019
853.914	18985
854.048	19053
854.183	18939
854.317	18966
854.451	19129
854.585	18913
854.72	18981
854.854	19004
854.988	18932
855.122	18913
855.256	18844
855.39	18817
855.524	19072
855.658	19072
855.792	18932
855.926	18970
856.06	18981
856.194	18943
856.327	18939
856.461	18996
856.595	18875
856.729	18916
856.862	19046
856.996	18920
857.13	18973
857.263	19099
857.397	19076
857.53	18939
857.664	18966
857.797	19023
857.931	19171
858.064	18833
858.197	19031
858.331	18913
858.464	18749
858.597	18852
858.731	18928
858.864	18856
858.997	18810
859.13	18981
859.263	18856
859.396	18920
859.529	18878
859.662	18924
859.795	18772
859.928	18890
860.061	18920
860.194	19088
860.327	18848
860.46	18825
860.592	18943
860.725	18985
860.858	18871
860.99	18795
861.123	18688
861.256	18768
861.388	18886
861.521	19453
861.653	18776
861.786	18646
861.918	18787
862.05	18760
862.183	18802
862.315	18920
862.447	19000
862.58	18821
862.712	18654
862.844	18593
862.976	18696
863.108	18650
863.24	18901
863.372	18635
863.504	18441
863.636	18578
863.768	18627
863.9	18639
864.032	18528
864.164	18525
864.296	18585
864.428	18665
864.559	18639
864.691	18669
864.823	18570
864.954	18601
865.086	18612
865.217	18566
865.349	18380
865.48	18380
865.612	18418
865.743	18544
865.875	18544
866.006	18448
866.137	18525
866.269	18582
866.4	18498
866.531	18502
866.662	18334
866.793	18490
866.924	18410
867.055	18448
867.186	18490
867.317	18525
867.448	18327
867.579	18422
867.71	18311
867.841	18384
867.972	18460
868.103	18490
868.233	18536
868.364	18289
868.495	18414
868.625	18779
868.756	18745
868.886	18646
869.017	18654
869.147	18703
869.278	18810
869.408	18707
869.539	18658
869.669	18650
869.799	18772
869.929	18646
870.06	18757
870.19	18829
870.32	19008
870.45	19034
870.58	19095
870.71	19103
870.84	19156
870.97	19057
871.1	19027
871.23	19194
871.36	19145
871.489	19217
871.619	19129
871.749	19274
871.879	19304
872.008	19381
872.138	19285
872.267	19396
872.397	19145
872.526	19114
872.656	19179
872.785	19110
872.915	19228
873.044	19407
873.173	19354
873.303	19362
873.432	19377
873.561	19339
873.69	19320
873.819	19369
873.948	19430
874.077	19365
874.206	19350
874.335	19194
874.464	19430
874.593	19544
874.722	19434
874.851	19529
874.979	19613
875.108	19628
875.237	19537
875.365	19582
875.494	19616
875.623	19563
875.751	19419
875.88	19635
876.008	19723
876.136	19613
876.265	20012
876.393	20054
876.521	20084
876.65	20065
876.778	20046
876.906	19841
877.034	19970
877.162	20027
877.29	19864
877.418	19940
877.546	20008
877.674	19875
877.802	19997
877.93	20069
878.058	19875
878.185	19788
878.313	19986
878.441	20126
878.568	19803
878.696	19936
878.824	19974
878.951	20031
879.079	20119
879.206	20320
879.333	20218
879.461	20111
879.588	20244
879.715	20161
879.842	20396
879.97	20157
880.097	19738
880.224	19788
880.351	19906
880.478	19841
880.605	19658
880.732	19887
880.859	20062
880.986	19913
881.112	19871
881.239	19791
881.366	19601
881.493	19460
881.619	19445
881.746	19476
881.872	19529
881.999	19331
882.125	19308
882.252	19445
882.378	19422
882.505	19335
882.631	19304
882.757	19148
882.883	19297
883.01	19118
883.136	19259
883.262	19008
883.388	19004
883.514	19209
883.64	19244
883.766	19122
883.892	19080
884.018	18996
884.143	19228
884.269	19301
884.395	18867
884.52	18844
884.646	18814
884.772	18688
884.897	18703
885.023	18939
885.148	18878
885.274	19088
885.399	18840
885.524	18829
885.65	18825
885.775	18859
885.9	18848
886.025	18890
886.15	18909
886.275	18753
886.4	18768
886.525	18726
886.65	18719
886.775	18620
886.9	18916
887.025	18928
887.149	18837
887.274	18722
887.399	18582
887.523	18525
887.648	18627
887.773	18559
887.897	18669
888.021	18604
888.146	18544
888.27	18566
888.395	18688
888.519	18608
888.643	18570
888.767	18631
888.891	18475
889.015	18391
889.139	18525
889.263	18407
889.387	18448
889.511	18589
889.635	18429
889.759	18361
889.883	18410
890.006	18365
890.13	18486
890.254	18403
890.377	18296
890.501	18106
890.624	18235
890.748	18152
890.871	18030
890.995	18034
891.118	18049
891.241	17942
891.364	17920
891.488	18155
891.611	18026
891.734	18045
891.857	18011
891.98	18068
892.103	18034
892.226	18022
892.349	18034
892.471	17843
892.594	17973
892.717	17870
892.839	17931
892.962	17984
893.085	18015
893.207	17821
893.33	17843
893.452	17863
893.575	17882
893.697	17931
893.819	18053
893.941	18163
894.064	18083
894.186	17988
894.308	17931
894.43	18095
894.552	18140
894.674	17992
894.796	17855
894.918	17859
895.04	17992
895.161	17977
895.283	18007
895.405	17874
895.526	17942
895.648	17977
895.769	18015
895.891	17984
896.012	18091
896.134	18091
896.255	18072
896.376	18022
896.498	17988
896.619	18072
896.74	18068
896.861	18133
896.982	18384
897.103	18540
897.224	18319
897.345	18262
897.466	18114
897.587	18304
897.708	18372
897.828	18201
897.949	18121
898.07	18053
898.19	18194
898.311	18319
898.431	18342
898.552	18136
898.672	18483
898.792	18266
898.913	18205
899.033	18228
899.153	18030
899.273	17847
899.393	17851
899.513	17992
899.633	18003
899.753	17965
899.873	17977
899.993	18030
900.113	17961
900.232	17996
900.352	17920
900.472	17988
900.591	17798
900.711	17874
900.83	17821
900.95	17984
901.069	17927
901.189	17817
901.308	17516
901.427	17440
901.546	17444
901.665	17482
901.784	17467
901.904	17345
902.023	17174
902.141	17079
902.26	16991
902.379	17159
902.498	16976
902.617	16869
902.735	16968
902.854	16927
902.973	16904
903.091	16713
903.21	16752
903.328	16702
903.446	16569
903.565	16413
903.683	16523
903.801	16443
903.919	16440
904.038	16497
904.156	16253
904.274	16318
904.392	16280
904.51	16230
904.627	16223
904.745	16261
904.863	16234
904.981	16006
905.098	15850
905.216	15960
905.334	16021
905.451	15964
905.569	15945
905.686	15838
905.803	15953
905.921	15816
906.038	15816
906.155	15736
906.272	15614
906.389	15644
906.506	15488
906.623	15416
906.74	15485
906.857	15287
906.974	15325
907.091	15462
907.208	15534
907.324	15549
907.441	15389
907.557	15161
907.674	15188
907.79	15074
907.907	15127
908.023	15173
908.139	15287
908.256	15104
908.372	15039
908.488	15005
908.604	14891
908.72	14868
908.836	14838
908.952	14864
909.068	14868
909.184	14902
909.3	14853
909.415	14880
909.531	14853
909.647	14705
909.762	14617
909.878	14530
909.993	14507
910.108	14522
910.224	14469
910.339	14571
910.454	14446
910.57	14396
910.685	14309
910.8	14674
910.915	14560
911.03	14503
911.145	14252
911.259	14199
911.374	14229
911.489	14218
911.604	13993
911.718	13997
911.833	14084
911.947	13852
912.062	13818
912.176	13883
912.291	13852
912.405	13890
912.519	14096
912.633	14050
912.748	13955
912.862	13917
912.976	13772
913.09	13769
913.204	13746
913.318	13776
913.431	13917
913.545	13814
913.659	13887
913.772	13723
913.886	13571
914	13575
914.113	13693
914.226	13689
914.34	13685
914.453	13597
914.566	13643
914.68	13582
914.793	13525
914.906	13297
915.019	13244
915.132	13149
915.245	13255
915.358	13289
915.47	13228
915.583	13263
915.696	13335
915.809	13449
915.921	13426
916.034	13129
916.146	13126
916.259	13156
916.371	13282
916.483	13308
916.595	13171
916.708	13168
916.82	13133
916.932	13099
917.044	13069
917.156	13069
917.268	13057
917.38	13088
917.491	13004
917.603	12947
917.715	13038
917.826	13114
917.938	12977
918.049	12894
918.161	12916
918.272	13152
918.384	13084
918.495	12977
918.606	12825
918.717	12738
918.828	12806
918.939	12806
919.05	12654
919.161	12692
919.272	12578
919.383	12627
919.494	12783
919.604	12966
919.715	12711
919.826	12692
919.936	12616
920.047	12852
920.157	12764
920.267	12973
920.378	12692
920.488	12650
920.598	12943
920.708	13107
920.818	12840
920.928	12859
921.038	13034
921.148	12951
921.258	12734
921.368	12551
921.477	12547
921.587	12433
921.697	12384
921.806	12517
921.916	12372
922.025	12262
922.134	12224
922.244	12076
922.353	12243
922.462	12125
922.571	11950
922.68	11874
922.789	11802
922.898	11805
923.007	11863
923.116	11840
923.224	11779
923.333	11722
923.442	11741
923.55	11691
923.659	11672
923.767	11714
923.876	11573
923.984	11737
924.092	11608
924.201	11707
924.309	11646
924.417	11566
924.525	11638
924.633	11570
924.741	12418
924.849	11376
924.956	11505
925.064	11334
925.172	11220
925.279	11383
925.387	11303
925.494	11315
925.602	11425
925.709	11421
925.816	11204
925.924	11277
926.031	11425
926.138	11345
926.245	11341
926.352	11223
926.459	11318
926.566	11334
926.673	11322
926.779	11166
926.886	11067
926.993	11045
927.099	10953
927.206	10968
927.312	10927
927.419	11014
927.525	10904
927.631	11018
927.737	10873
927.843	10843
927.95	10721
928.056	10862
928.162	10725
928.267	10824
928.373	11417
928.479	10854
928.585	10679
928.69	10824
928.796	10790
928.901	10675
929.007	10588
929.112	10656
929.218	10645
929.323	10592
929.428	10519
929.533	10687
929.638	10470
929.743	10504
929.848	10603
929.953	10436
930.058	10478
930.163	10306
930.267	10329
930.372	10424
930.477	10238
930.581	10413
930.685	10287
930.79	10116
930.894	10215
930.998	10173
931.103	10367
931.207	9964
931.311	9808
931.415	9838
931.519	9698
931.623	9568
