Data from test_V78500241_662.txt Node
Date: Fri Mar 25 14:38:19 CST 2022
User: usil
Spectrometer: V785-0024
Trigger mode: 0
Integration Time (sec): 4.000000E-1
Scans to average: 1
Nonlinearity correction enabled: false
Boxcar width: 0
Storing dark spectrum: false
XAxis mode: Wavelengths
Number of Pixels in Spectrum: 1024
>>>>>Begin Spectral Data<<<<<
801.071	28265
801.214	27899
801.356	27789
801.499	27759
801.641	27572
801.783	27496
801.926	27557
802.068	27515
802.211	27374
802.353	27188
802.496	27039
802.638	26975
802.78	26986
802.923	26800
803.065	26800
803.208	26918
803.35	26967
803.492	26952
803.635	27127
803.777	27024
803.919	27192
804.061	27587
804.204	27024
804.346	27199
804.488	27218
804.63	27203
804.773	27264
804.915	27272
805.057	27443
805.199	27355
805.341	27751
805.483	27720
805.626	27846
805.768	27656
805.91	27804
806.052	27926
806.194	28063
806.336	28341
806.478	28318
806.62	28424
806.762	28847
806.904	29086
807.046	29786
807.188	29958
807.33	30304
807.472	31042
807.614	31559
807.756	32320
807.898	33477
808.04	35052
808.182	36722
808.324	39188
808.465	42049
808.607	45192
808.749	47977
808.891	49445
809.033	49704
809.174	48182
809.316	45431
809.458	42289
809.6	38979
809.741	36353
809.883	34478
810.025	32975
810.166	31803
810.308	31183
810.45	30601
810.591	30110
810.733	29592
810.875	29124
811.016	28869
811.158	28702
811.299	28630
811.441	28759
811.582	28329
811.724	28253
811.865	27991
812.007	28067
812.148	27903
812.29	27922
812.431	28074
812.573	28162
812.714	28010
812.855	28097
812.997	28371
813.138	28200
813.279	28318
813.421	28074
813.562	27857
813.703	27755
813.845	27637
813.986	27138
814.127	26925
814.268	26906
814.41	26925
814.551	26762
814.692	26819
814.833	26678
814.974	26651
815.115	26644
815.256	26446
815.397	26507
815.539	26294
815.68	26434
815.821	26328
815.962	26431
816.103	26237
816.244	25986
816.385	26088
816.526	26065
816.666	25772
816.807	25651
816.948	25723
817.089	25784
817.23	25613
817.371	25559
817.512	25582
817.653	25441
817.793	25556
817.934	25586
818.075	25438
818.216	25620
818.356	25499
818.497	25369
818.638	25282
818.778	25270
818.919	25190
819.06	25247
819.2	25381
819.341	25369
819.481	25335
819.622	25658
819.762	25696
819.903	25502
820.043	25514
820.184	25548
820.324	25506
820.465	25468
820.605	25350
820.746	25259
820.886	25304
821.026	25225
821.167	25327
821.307	25354
821.447	25263
821.588	25129
821.728	24909
821.868	24844
822.008	24597
822.149	24536
822.289	24585
822.429	24395
822.569	24243
822.709	24315
822.849	24038
822.99	24079
823.13	23897
823.27	23992
823.41	23908
823.55	23805
823.69	23809
823.83	23855
823.97	23821
824.11	23577
824.25	23551
824.389	23596
824.529	23668
824.669	23672
824.809	23634
824.949	23748
825.089	23684
825.228	23775
825.368	23448
825.508	23448
825.648	23372
825.787	23349
825.927	23531
826.067	23497
826.206	23250
826.346	23520
826.485	23421
826.625	23337
826.765	23425
826.904	23337
827.044	23067
827.183	23003
827.323	22980
827.462	23151
827.601	23044
827.741	22976
827.88	23048
828.02	22980
828.159	23067
828.298	23102
828.437	23056
828.577	22927
828.716	23102
828.855	22885
828.994	22862
829.134	22630
829.273	22721
829.412	22664
829.551	22554
829.69	22706
829.829	22630
829.968	22801
830.107	22721
830.246	22672
830.385	22603
830.524	22672
830.663	22504
830.802	22356
830.941	22265
831.08	22188
831.219	22405
831.357	22398
831.496	22542
831.635	22413
831.774	22230
831.913	22230
832.051	22112
832.19	22070
832.329	22207
832.467	22200
832.606	22200
832.744	22150
832.883	22215
833.022	22223
833.16	22337
833.299	22504
833.437	22584
833.576	22809
833.714	22767
833.852	23052
833.991	23113
834.129	23288
834.267	23208
834.406	23181
834.544	22972
834.682	23048
834.821	22805
834.959	22812
835.097	22622
835.235	22474
835.373	22394
835.511	22417
835.65	22105
835.788	22112
835.926	21918
836.064	21812
836.202	21816
836.34	22097
836.478	22010
836.615	21808
836.753	21884
836.891	21884
837.029	21854
837.167	21819
837.305	21648
837.443	21667
837.58	21667
837.718	21736
837.856	21523
837.993	21614
838.131	21618
838.269	21622
838.406	21515
838.544	21435
838.681	21348
838.819	21146
838.956	21074
839.094	21127
839.231	21100
839.369	21237
839.506	21454
839.643	21332
839.781	20906
839.918	21047
840.055	21020
840.193	21001
840.33	20975
840.467	20933
840.604	21028
840.742	21272
840.879	20937
841.016	20902
841.153	20834
841.29	21169
841.427	21058
841.564	21017
841.701	20998
841.838	20891
841.975	20788
842.112	20952
842.249	20902
842.385	20815
842.522	20902
842.659	20914
842.796	20804
842.933	20800
843.069	20883
843.206	20941
843.343	20998
843.479	20868
843.616	20933
843.752	20739
843.889	20758
844.025	21074
844.162	20906
844.298	21062
844.435	21165
844.571	21313
844.708	21625
844.844	22013
844.98	22409
845.117	23113
845.253	23779
845.389	25712
845.525	29151
845.661	34523
845.798	41140
845.934	45922
846.07	47699
846.206	46276
846.342	41977
846.478	35425
846.614	29942
846.75	26233
846.886	24087
847.022	22774
847.158	21987
847.294	21496
847.429	21154
847.565	20845
847.701	20868
847.837	20332
847.972	20199
848.108	20168
848.244	20084
848.379	20031
848.515	19887
848.65	19833
848.786	19791
848.921	19875
849.057	19849
849.192	19807
849.328	19715
849.463	19727
849.598	19632
849.734	19616
849.869	19544
850.004	19514
850.14	19537
850.275	19502
850.41	19301
850.545	19312
850.68	19369
850.815	19457
850.95	19392
851.085	19510
851.22	19495
851.355	19289
851.49	19312
851.625	19362
851.76	19392
851.895	19183
852.03	19308
852.165	19358
852.299	19346
852.434	19476
852.569	19533
852.703	19460
852.838	19582
852.973	19510
853.107	19506
853.242	19407
853.376	19369
853.511	19221
853.645	19430
853.78	19571
853.914	19502
854.048	19514
854.183	19635
854.317	19540
854.451	19780
854.585	19483
854.72	19670
854.854	19609
854.988	19350
855.122	19457
855.256	19263
855.39	19308
855.524	19487
855.658	19419
855.792	19327
855.926	19377
856.06	19362
856.194	19320
856.327	19213
856.461	19126
856.595	19110
856.729	19213
856.862	19297
856.996	19160
857.13	19244
857.263	19244
857.397	19088
857.53	19228
857.664	19225
857.797	19293
857.931	19213
858.064	19061
858.197	19228
858.331	19065
858.464	18958
858.597	18973
858.731	19050
858.864	18970
858.997	19008
859.13	19034
859.263	19126
859.396	19076
859.529	19004
859.662	18916
859.795	18859
859.928	19008
860.061	18989
860.194	19152
860.327	19080
860.46	18863
860.592	19080
860.725	19156
860.858	19076
860.99	18856
861.123	18871
861.256	18886
861.388	18996
861.521	19647
861.653	18810
861.786	18719
861.918	18821
862.05	18924
862.183	18909
862.315	19076
862.447	18996
862.58	18932
862.712	18776
862.844	18635
862.976	18764
863.108	18677
863.24	18966
863.372	18559
863.504	18726
863.636	18722
863.768	18677
863.9	18757
864.032	18623
864.164	18601
864.296	18654
864.428	18798
864.559	18825
864.691	18715
864.823	18703
864.954	18665
865.086	18650
865.217	18570
865.349	18612
865.48	18479
865.612	18555
865.743	18703
865.875	18521
866.006	18601
866.137	18631
866.269	18551
866.4	18528
866.531	18574
866.662	18483
866.793	18513
866.924	18471
867.055	18604
867.186	18555
867.317	18540
867.448	18369
867.579	18509
867.71	18399
867.841	18502
867.972	18566
868.103	18467
868.233	18506
868.364	18467
868.495	18612
868.625	18772
868.756	18810
868.886	18745
869.017	18722
869.147	18837
869.278	18867
869.408	18798
869.539	18909
869.669	18856
869.799	18916
869.929	18962
870.06	18935
870.19	19148
870.32	19133
870.45	19129
870.58	19175
870.71	19350
870.84	19335
870.97	19183
871.1	19206
871.23	19388
871.36	19510
871.489	19293
871.619	19540
871.749	19407
871.879	19480
872.008	19597
872.138	19487
872.267	19643
872.397	19502
872.526	19480
872.656	19384
872.785	19480
872.915	19746
873.044	19811
873.173	19662
873.303	19807
873.432	19731
873.561	19902
873.69	19734
873.819	19685
873.948	19837
874.077	19738
874.206	19871
874.335	19856
874.464	19959
874.593	20138
874.722	20267
874.851	20301
874.979	20358
875.108	20298
875.237	20339
875.365	20332
875.494	20332
875.623	20484
875.751	20473
875.88	20499
876.008	20598
876.136	20819
876.265	21005
876.393	21074
876.521	21165
876.65	21230
876.778	21283
876.906	21355
877.034	21291
877.162	21389
877.29	21496
877.418	21443
877.546	21656
877.674	21694
877.802	21694
877.93	21819
878.058	22082
878.185	22246
878.313	22455
878.441	22809
878.568	23113
878.696	23672
878.824	24555
878.951	25632
879.079	26944
879.206	28999
879.333	30920
879.461	32640
879.588	33523
879.715	33717
879.842	32773
879.97	31000
880.097	28908
880.224	27405
880.351	26290
880.478	25559
880.605	24867
880.732	24620
880.859	24551
880.986	24163
881.112	24034
881.239	23935
881.366	23805
881.493	23562
881.619	23615
881.746	23668
881.872	23775
881.999	23577
882.125	23668
882.252	23927
882.378	23832
882.505	23866
882.631	23756
882.757	23726
882.883	23699
883.01	23737
883.136	23566
883.262	23493
883.388	23402
883.514	23581
883.64	23596
883.766	23379
883.892	23341
884.018	23455
884.143	23615
884.269	23570
884.395	23337
884.52	23383
884.646	23402
884.772	23292
884.897	23318
885.023	23455
885.148	23448
885.274	23406
885.399	23117
885.524	23086
885.65	23064
885.775	22759
885.9	22717
886.025	22641
886.15	22596
886.275	22261
886.4	22063
886.525	22067
886.65	21899
886.775	21930
886.9	21899
887.025	21892
887.149	21614
887.274	21386
887.399	21260
887.523	21077
887.648	20921
887.773	20849
887.897	21036
888.021	20902
888.146	20689
888.27	20849
888.395	20921
888.519	20739
888.643	20571
888.767	20743
888.891	20438
889.015	20366
889.139	20351
889.263	20077
889.387	20328
889.511	20351
889.635	20210
889.759	20103
889.883	20069
890.006	20012
890.13	19989
890.254	19841
890.377	19807
890.501	19689
890.624	19582
890.748	19552
890.871	19529
890.995	19301
891.118	19460
891.241	19365
891.364	19407
891.488	19419
891.611	19316
891.734	19110
891.857	19388
891.98	19194
892.103	19209
892.226	19133
892.349	19148
892.471	18840
892.594	19038
892.717	19069
892.839	19027
892.962	18859
893.085	18970
893.207	18890
893.33	18681
893.452	18821
893.575	18871
893.697	18791
893.819	18817
893.941	18977
894.064	18772
894.186	18669
894.308	18601
894.43	18707
894.552	18779
894.674	18669
894.796	18494
894.918	18654
895.04	18452
895.161	18623
895.283	18528
895.405	18506
895.526	18521
895.648	18418
895.769	18536
895.891	18471
896.012	18566
896.134	18506
896.255	18422
896.376	18483
896.498	18407
896.619	18509
896.74	18452
896.861	18471
896.982	18749
897.103	18806
897.224	18703
897.345	18707
897.466	18437
897.587	18597
897.708	18681
897.828	18738
897.949	18445
898.07	18452
898.19	18570
898.311	18612
898.431	18593
898.552	18616
898.672	18684
898.792	18654
898.913	18639
899.033	18601
899.153	18452
899.273	18273
899.393	18422
899.513	18445
899.633	18308
899.753	18369
899.873	18327
899.993	18414
900.113	18296
900.232	18380
900.352	18270
900.472	18205
900.591	18182
900.711	18224
900.83	18087
900.95	18262
901.069	18235
901.189	17992
901.308	17874
901.427	17752
901.546	17718
901.665	17687
901.784	17764
901.904	17592
902.023	17425
902.141	17341
902.26	17288
902.379	17311
902.498	17147
902.617	17174
902.735	17258
902.854	17143
902.973	17094
903.091	16896
903.21	16748
903.328	16736
903.446	16683
903.565	16641
903.683	16588
903.801	16596
903.919	16599
904.038	16489
904.156	16523
904.274	16409
904.392	16291
904.51	16310
904.627	16405
904.745	16398
904.863	16379
904.981	16120
905.098	16021
905.216	16101
905.334	16013
905.451	16090
905.569	15934
905.686	16109
905.803	16048
905.921	15759
906.038	15945
906.155	15770
906.272	15717
906.389	15667
906.506	15519
906.623	15496
906.74	15458
906.857	15424
906.974	15481
907.091	15580
907.208	15633
907.324	15564
907.441	15359
907.557	15321
907.674	15203
907.79	15036
907.907	15142
908.023	15218
908.139	15272
908.256	15188
908.372	15108
908.488	15017
908.604	14963
908.72	14830
908.836	14952
908.952	14830
909.068	14925
909.184	15020
909.3	14967
909.415	14933
909.531	14952
909.647	14678
909.762	14545
909.878	14602
909.993	14651
910.108	14617
910.224	14613
910.339	14610
910.454	14522
910.57	14518
910.685	14358
910.8	14712
910.915	14648
911.03	14454
911.145	14263
911.259	14210
911.374	14229
911.489	14259
911.604	14123
911.718	13951
911.833	14031
911.947	13970
912.062	13936
912.176	14016
912.291	14043
912.405	13993
912.519	14218
912.633	14161
912.748	14100
912.862	13940
912.976	13902
913.09	13689
913.204	13887
913.318	13917
913.431	13978
913.545	13997
913.659	13986
913.772	13818
913.886	13693
914	13624
914.113	13746
914.226	13791
914.34	13818
914.453	13605
914.566	13742
914.68	13647
914.793	13552
914.906	13499
915.019	13396
915.132	13327
915.245	13441
915.358	13335
915.47	13335
915.583	13407
915.696	13388
915.809	13510
915.921	13506
916.034	13327
916.146	13320
916.259	13381
916.371	13350
916.483	13419
916.595	13293
916.708	13339
916.82	13308
916.932	13327
917.044	13316
917.156	13289
917.268	13187
917.38	13206
917.491	13122
917.603	13141
917.715	13209
917.826	13194
917.938	13023
918.049	13019
918.161	13110
918.272	13164
918.384	13080
918.495	13072
918.606	12840
918.717	12817
918.828	12878
918.939	12932
919.05	12837
919.161	12863
919.272	12658
919.383	12673
919.494	12837
919.604	13012
919.715	12848
919.826	12772
919.936	12772
920.047	12920
920.157	12814
920.267	12973
920.378	12909
920.488	12825
920.598	12947
920.708	13110
920.818	13000
920.928	12954
921.038	13084
921.148	13038
921.258	12783
921.368	12650
921.477	12532
921.587	12601
921.697	12369
921.806	12513
921.916	12456
922.025	12285
922.134	12243
922.244	12258
922.353	12315
922.462	12110
922.571	12076
922.68	11920
922.789	11969
922.898	11939
923.007	11904
923.116	11946
923.224	11885
923.333	11863
923.442	11783
923.55	11672
923.659	11726
923.767	11802
923.876	11733
923.984	11710
924.092	11619
924.201	11691
924.309	11642
924.417	11733
924.525	11619
924.633	11676
924.741	12498
924.849	11410
924.956	11524
925.064	11395
925.172	11383
925.279	11398
925.387	11455
925.494	11376
925.602	11577
925.709	11524
925.816	11330
925.924	11429
926.031	11539
926.138	11387
926.245	11421
926.352	11379
926.459	11421
926.566	11524
926.673	11402
926.779	11254
926.886	11239
926.993	11102
927.099	11048
927.206	11060
927.312	10999
927.419	11132
927.525	11060
927.631	11121
927.737	10976
927.843	10946
927.95	10862
928.056	10923
928.162	10858
928.267	11003
928.373	11406
928.479	10995
928.585	10721
928.69	10816
928.796	10904
928.901	10755
929.007	10698
929.112	10812
929.218	10854
929.323	10691
929.428	10588
929.533	10771
929.638	10622
929.743	10752
929.848	10679
929.953	10603
930.058	10615
930.163	10344
930.267	10405
930.372	10519
930.477	10356
930.581	10584
930.685	10466
930.79	10276
930.894	10352
930.998	10265
931.103	10363
931.207	10090
931.311	10002
931.415	9861
931.519	9762
931.623	9740
