Data from test_V78500241_1656.txt Node
Date: Fri Mar 25 14:45:14 CST 2022
User: usil
Spectrometer: V785-0024
Trigger mode: 0
Integration Time (sec): 4.000000E-1
Scans to average: 1
Nonlinearity correction enabled: false
Boxcar width: 0
Storing dark spectrum: false
XAxis mode: Wavelengths
Number of Pixels in Spectrum: 1024
>>>>>Begin Spectral Data<<<<<
801.071	22261
801.214	22116
801.356	21987
801.499	21785
801.641	21622
801.783	21622
801.926	21690
802.068	21625
802.211	21500
802.353	21374
802.496	21291
802.638	21161
802.78	21135
802.923	21062
803.065	21024
803.208	21051
803.35	21055
803.492	21100
803.635	21176
803.777	21020
803.919	21051
804.061	21420
804.204	21039
804.346	20956
804.488	20944
804.63	20952
804.773	20842
804.915	20868
805.057	21074
805.199	20918
805.341	21001
805.483	21100
805.626	21089
805.768	20895
805.91	20963
806.052	20899
806.194	20785
806.336	21100
806.478	20925
806.62	20891
806.762	20880
806.904	21043
807.046	21397
807.188	21154
807.33	21268
807.472	21302
807.614	21135
807.756	21313
807.898	20994
808.04	21096
808.182	20967
808.324	21055
808.465	21017
808.607	21325
808.749	21363
808.891	21321
809.033	21595
809.174	21405
809.316	21359
809.458	21222
809.6	21321
809.741	21370
809.883	21458
810.025	21534
810.166	21466
810.308	21549
810.45	21511
810.591	21458
810.733	21207
810.875	21146
811.016	20982
811.158	20937
811.299	21123
811.441	21237
811.582	21188
811.724	21055
811.865	21150
812.007	21013
812.148	21192
812.29	21230
812.431	21245
812.573	21412
812.714	21473
812.855	21496
812.997	21793
813.138	21892
813.279	21663
813.421	21633
813.562	21473
813.703	21321
813.845	21241
813.986	20937
814.127	20834
814.268	20750
814.41	20678
814.551	20670
814.692	20686
814.833	20590
814.974	20511
815.115	20560
815.256	20571
815.397	20556
815.539	20431
815.68	20438
815.821	20362
815.962	20393
816.103	20317
816.244	20332
816.385	20176
816.526	20195
816.666	20012
816.807	19780
816.948	19894
817.089	19947
817.23	19738
817.371	19807
817.512	19681
817.653	19738
817.793	19753
817.934	19803
818.075	19860
818.216	19852
818.356	19791
818.497	19597
818.638	19453
818.778	19510
818.919	19491
819.06	19544
819.2	19620
819.341	19700
819.481	19567
819.622	19799
819.762	20016
819.903	19909
820.043	19818
820.184	19818
820.324	19791
820.465	19944
820.605	19845
820.746	19731
820.886	19548
821.026	19780
821.167	19616
821.307	19852
821.447	19632
821.588	19651
821.728	19362
821.868	19350
822.008	19255
822.149	19285
822.289	19217
822.429	18837
822.569	18700
822.709	18814
822.849	18673
822.99	18749
823.13	18677
823.27	18631
823.41	18544
823.55	18513
823.69	18467
823.83	18388
823.97	18372
824.11	18243
824.25	18220
824.389	18174
824.529	18289
824.669	18209
824.809	18300
824.949	18410
825.089	18346
825.228	18216
825.368	17961
825.508	17992
825.648	18102
825.787	18072
825.927	18133
826.067	17984
826.206	18045
826.346	18125
826.485	18034
826.625	17904
826.765	18144
826.904	17965
827.044	17828
827.183	17760
827.323	17676
827.462	17707
827.601	17684
827.741	17604
827.88	17809
828.02	17619
828.159	17722
828.298	17718
828.437	17794
828.577	17748
828.716	17775
828.855	17748
828.994	17478
829.134	17490
829.273	17554
829.412	17421
829.551	17364
829.69	17486
829.829	17573
829.968	17657
830.107	17509
830.246	17410
830.385	17398
830.524	17356
830.663	17273
830.802	17136
830.941	17117
831.08	17109
831.219	17227
831.357	17071
831.496	17250
831.635	17083
831.774	16995
831.913	16908
832.051	16896
832.19	16835
832.329	16858
832.467	16710
832.606	16702
832.744	16725
832.883	16683
833.022	16565
833.16	16767
833.299	16721
833.437	16717
833.576	16752
833.714	16702
833.852	16809
833.991	16740
834.129	16892
834.267	16793
834.406	16850
834.544	16816
834.682	16812
834.821	16672
834.959	16904
835.097	16721
835.235	16942
835.373	16820
835.511	16778
835.65	16687
835.788	16694
835.926	16596
836.064	16561
836.202	16508
836.34	16702
836.478	16713
836.615	16660
836.753	16683
836.891	16733
837.029	16687
837.167	16706
837.305	16573
837.443	16645
837.58	16466
837.718	16588
837.856	16512
837.993	16489
838.131	16626
838.269	16428
838.406	16489
838.544	16405
838.681	16337
838.819	16272
838.956	16051
839.094	16131
839.231	16192
839.369	16215
839.506	16504
839.643	16253
839.781	16147
839.918	16101
840.055	16063
840.193	16071
840.33	16025
840.467	16120
840.604	16181
840.742	16314
840.879	15903
841.016	15972
841.153	16040
841.29	16272
841.427	16169
841.564	16071
841.701	16044
841.838	16044
841.975	15998
842.112	15968
842.249	15907
842.385	15816
842.522	15953
842.659	15911
842.796	15789
842.933	15934
843.069	15682
843.206	15793
843.343	16051
843.479	15926
843.616	15998
843.752	15682
843.889	15732
844.025	15846
844.162	15648
844.298	15778
844.435	15724
844.571	15553
844.708	15728
844.844	15827
844.98	15861
845.117	15854
845.253	15492
845.389	15584
845.525	15667
845.661	15526
845.798	15534
845.934	15553
846.07	15469
846.206	15561
846.342	15633
846.478	15469
846.614	15359
846.75	15195
846.886	15340
847.022	15348
847.158	15214
847.294	15287
847.429	15184
847.565	15146
847.701	15477
847.837	15024
847.972	14910
848.108	14982
848.244	14952
848.379	14925
848.515	14819
848.65	14773
848.786	14849
848.921	14925
849.057	14963
849.192	14982
849.328	14826
849.463	14842
849.598	14872
849.734	14693
849.869	14564
850.004	14636
850.14	14610
850.275	14564
850.41	14503
850.545	14533
850.68	14606
850.815	14629
850.95	14590
851.085	14648
851.22	14670
851.355	14552
851.49	14507
851.625	14552
851.76	14495
851.895	14492
852.03	14469
852.165	14545
852.299	14632
852.434	14758
852.569	14663
852.703	14598
852.838	14746
852.973	14811
853.107	14712
853.242	14610
853.376	14465
853.511	14389
853.645	14332
853.78	14568
853.914	14530
854.048	14434
854.183	14461
854.317	14461
854.451	14636
854.585	14431
854.72	14442
854.854	14560
854.988	14347
855.122	14431
855.256	14427
855.39	14499
855.524	14484
855.658	14560
855.792	14465
855.926	14450
856.06	14564
856.194	14522
856.327	14492
856.461	14423
856.595	14393
856.729	14457
856.862	14545
856.996	14518
857.13	14488
857.263	14533
857.397	14526
857.53	14374
857.664	14564
857.797	14545
857.931	14590
858.064	14571
858.197	14667
858.331	14389
858.464	14412
858.597	14381
858.731	14469
858.864	14454
858.997	14450
859.13	14499
859.263	14514
859.396	14530
859.529	14469
859.662	14454
859.795	14454
859.928	14412
860.061	14602
860.194	14636
860.327	14484
860.46	14442
860.592	14552
860.725	14670
860.858	14518
860.99	14461
861.123	14355
861.256	14446
861.388	14461
861.521	14975
861.653	14393
861.786	14298
861.918	14442
862.05	14385
862.183	14415
862.315	14427
862.447	14450
862.58	14434
862.712	14244
862.844	14191
862.976	14248
863.108	14244
863.24	14781
863.372	14229
863.504	14214
863.636	14172
863.768	14256
863.9	14183
864.032	14168
864.164	14271
864.296	14263
864.428	14362
864.559	14317
864.691	14362
864.823	14294
864.954	14248
865.086	14248
865.217	14278
865.349	14221
865.48	14278
865.612	14187
865.743	14248
865.875	14126
866.006	14134
866.137	14191
866.269	14320
866.4	14130
866.531	14199
866.662	14065
866.793	14206
866.924	14221
867.055	14225
867.186	14096
867.317	14073
867.448	14027
867.579	14233
867.71	14161
867.841	14092
867.972	14244
868.103	14183
868.233	14240
868.364	14153
868.495	14244
868.625	14480
868.756	14594
868.886	14408
869.017	14377
869.147	14507
869.278	14602
869.408	14484
869.539	14423
869.669	14579
869.799	14583
869.929	14560
870.06	14590
870.19	14735
870.32	14781
870.45	14861
870.58	14868
870.71	14990
870.84	14883
870.97	14842
871.1	14777
871.23	14975
871.36	15081
871.489	14944
871.619	15001
871.749	15017
871.879	15093
872.008	15192
872.138	15051
872.267	15017
872.397	14891
872.526	14842
872.656	14826
872.785	14952
872.915	15112
873.044	15116
873.173	15169
873.303	15055
873.432	15119
873.561	15127
873.69	15157
873.819	15173
873.948	15256
874.077	15150
874.206	15100
874.335	15089
874.464	15275
874.593	15336
874.722	15348
874.851	15374
874.979	15500
875.108	15443
875.237	15450
875.365	15321
875.494	15367
875.623	15439
875.751	15454
875.88	15511
876.008	15584
876.136	15610
876.265	15846
876.393	15941
876.521	15941
876.65	15785
876.778	15823
876.906	15743
877.034	15835
877.162	15816
877.29	15812
877.418	15785
877.546	15934
877.674	15869
877.802	15759
877.93	15869
878.058	15701
878.185	15739
878.313	15793
878.441	15789
878.568	15679
878.696	15789
878.824	15842
878.951	15842
879.079	15949
879.206	16105
879.333	15972
879.461	15876
879.588	15907
879.715	15960
879.842	16124
879.97	15941
880.097	15717
880.224	15660
880.351	15675
880.478	15698
880.605	15701
880.732	15549
880.859	15876
880.986	15675
881.112	15686
881.239	15496
881.366	15477
881.493	15355
881.619	15332
881.746	15306
881.872	15374
881.999	15317
882.125	15405
882.252	15351
882.378	15355
882.505	15553
882.631	15348
882.757	15226
882.883	15275
883.01	15207
883.136	15176
883.262	14944
883.388	14952
883.514	15241
883.64	15180
883.766	15112
883.892	14998
884.018	15051
884.143	15116
884.269	15180
884.395	14975
884.52	14830
884.646	14918
884.772	14743
884.897	14773
885.023	14910
885.148	14956
885.274	14990
885.399	15013
885.524	14849
885.65	14941
885.775	14857
885.9	14883
886.025	14937
886.15	14910
886.275	14788
886.4	14701
886.525	14830
886.65	14792
886.775	14765
886.9	15036
887.025	15036
887.149	14849
887.274	14663
887.399	14678
887.523	14613
887.648	14674
887.773	14636
887.897	14758
888.021	14697
888.146	14697
888.27	14682
888.395	14800
888.519	14754
888.643	14853
888.767	14773
888.891	14674
889.015	14511
889.139	14564
889.263	14476
889.387	14610
889.511	14796
889.635	14682
889.759	14511
889.883	14518
890.006	14674
890.13	14667
890.254	14457
890.377	14549
890.501	14339
890.624	14313
890.748	14427
890.871	14324
890.995	14176
891.118	14161
891.241	14172
891.364	14244
891.488	14343
891.611	14259
891.734	14309
891.857	14218
891.98	14202
892.103	14404
892.226	14320
892.349	14233
892.471	14168
892.594	14191
892.717	14244
892.839	14278
892.962	14275
893.085	14202
893.207	14320
893.33	14119
893.452	14161
893.575	14286
893.697	14290
893.819	14503
893.941	14404
894.064	14355
894.186	14259
894.308	14157
894.43	14290
894.552	14507
894.674	14408
894.796	14237
894.918	14317
895.04	14320
895.161	14385
895.283	14347
895.405	14290
895.526	14419
895.648	14457
895.769	14423
895.891	14377
896.012	14389
896.134	14412
896.255	14351
896.376	14404
896.498	14328
896.619	14450
896.74	14370
896.861	14457
896.982	14785
897.103	14845
897.224	14735
897.345	14625
897.466	14549
897.587	14617
897.708	14762
897.828	14697
897.949	14708
898.07	14499
898.19	14636
898.311	14838
898.431	14754
898.552	14811
898.672	14823
898.792	14857
898.913	14788
899.033	14689
899.153	14663
899.273	14537
899.393	14621
899.513	14533
899.633	14594
899.753	14636
899.873	14587
899.993	14697
900.113	14552
900.232	14705
900.352	14598
900.472	14476
900.591	14552
900.711	14476
900.83	14537
900.95	14598
901.069	14590
901.189	14343
901.308	14119
901.427	14111
901.546	14195
901.665	14237
901.784	14221
901.904	14123
902.023	13993
902.141	13765
902.26	13727
902.379	13849
902.498	13814
902.617	13693
902.735	13670
902.854	13715
902.973	13605
903.091	13476
903.21	13407
903.328	13464
903.446	13411
903.565	13308
903.683	13255
903.801	13198
903.919	13240
904.038	13209
904.156	13103
904.274	13251
904.392	13050
904.51	13110
904.627	13069
904.745	13099
904.863	13202
904.981	12916
905.098	12779
905.216	12798
905.334	12779
905.451	12768
905.569	12646
905.686	12814
905.803	12768
905.921	12540
906.038	12696
906.155	12662
906.272	12433
906.389	12563
906.506	12376
906.623	12311
906.74	12426
906.857	12232
906.974	12262
907.091	12407
907.208	12486
907.324	12433
907.441	12277
907.557	12072
907.674	12011
907.79	11984
907.907	12194
908.023	12102
908.139	12095
908.256	12049
908.372	12011
908.488	12072
908.604	11927
908.72	11878
908.836	11954
908.952	11859
909.068	11783
909.184	12022
909.3	11847
909.415	11901
909.531	11893
909.647	11668
909.762	11630
909.878	11520
909.993	11653
910.108	11570
910.224	11592
910.339	11649
910.454	11532
910.57	11417
910.685	11433
910.8	11695
910.915	11592
911.03	11512
911.145	11440
911.259	11368
911.374	11414
911.489	11258
911.604	11280
911.718	11143
911.833	11094
911.947	10980
912.062	10930
912.176	11048
912.291	11109
912.405	11113
912.519	11292
912.633	11288
912.748	11181
912.862	11128
912.976	10949
913.09	10877
913.204	10904
913.318	10946
913.431	11109
913.545	11033
913.659	11064
913.772	11022
913.886	10793
914	10930
914.113	10896
914.226	11037
914.34	10892
914.453	10801
914.566	10927
914.68	10850
914.793	10816
914.906	10637
915.019	10542
915.132	10504
915.245	10565
915.358	10584
915.47	10626
915.583	10577
915.696	10717
915.809	10744
915.921	10744
916.034	10580
916.146	10508
916.259	10573
916.371	10618
916.483	10679
916.595	10569
916.708	10478
916.82	10508
916.932	10538
917.044	10462
917.156	10421
917.268	10394
917.38	10443
917.491	10367
917.603	10371
917.715	10546
917.826	10516
917.938	10386
918.049	10276
918.161	10497
918.272	10577
918.384	10459
918.495	10379
918.606	10325
918.717	10204
918.828	10291
918.939	10291
919.05	10253
919.161	10306
919.272	10067
919.383	10204
919.494	10322
919.604	10504
919.715	10306
919.826	10253
919.936	10265
920.047	10379
920.157	10333
920.267	10493
920.378	10352
920.488	10352
920.598	10546
920.708	10668
920.818	10523
920.928	10451
921.038	10675
921.148	10618
921.258	10291
921.368	10257
921.477	10223
921.587	10139
921.697	9968
921.806	10173
921.916	10101
922.025	9884
922.134	9842
922.244	9850
922.353	9854
922.462	9774
922.571	9671
922.68	9629
922.789	9568
922.898	9637
923.007	9481
923.116	9599
923.224	9557
923.333	9507
923.442	9473
923.55	9462
923.659	9405
923.767	9507
923.876	9431
923.984	9534
924.092	9348
924.201	9420
924.309	9477
924.417	9458
924.525	9306
924.633	9450
924.741	10162
924.849	9199
924.956	9416
925.064	9157
925.172	9127
925.279	9131
925.387	9169
925.494	9207
925.602	9283
925.709	9283
925.816	9104
925.924	9157
926.031	9291
926.138	9272
926.245	9275
926.352	9104
926.459	9256
926.566	9298
926.673	9214
926.779	9062
926.886	9047
926.993	8986
927.099	8933
927.206	8876
927.312	8887
927.419	8986
927.525	8975
927.631	9009
927.737	8838
927.843	8804
927.95	8758
928.056	8807
928.162	8826
928.267	8838
928.373	9306
928.479	8929
928.585	8682
928.69	8792
928.796	8830
928.901	8750
929.007	8629
929.112	8750
929.218	8705
929.323	8701
929.428	8613
929.533	8788
929.638	8571
929.743	8613
929.848	8610
929.953	8663
930.058	8533
930.163	8351
930.267	8370
930.372	8541
930.477	8362
930.581	8617
930.685	8457
930.79	8339
930.894	8454
930.998	8343
931.103	8469
931.207	8164
931.311	8027
931.415	8005
931.519	7830
931.623	7894
