Data from test_V78500241_1175.txt Node
Date: Fri Mar 25 14:41:53 CST 2022
User: usil
Spectrometer: V785-0024
Trigger mode: 0
Integration Time (sec): 4.000000E-1
Scans to average: 1
Nonlinearity correction enabled: false
Boxcar width: 0
Storing dark spectrum: false
XAxis mode: Wavelengths
Number of Pixels in Spectrum: 1024
>>>>>Begin Spectral Data<<<<<
801.071	22481
801.214	22421
801.356	22158
801.499	22101
801.641	21956
801.783	21994
801.926	21903
802.068	21762
802.211	21671
802.353	21576
802.496	21538
802.638	21397
802.78	21317
802.923	21230
803.065	21192
803.208	21211
803.35	21146
803.492	21275
803.635	21268
803.777	21116
803.919	21230
804.061	21553
804.204	21245
804.346	21089
804.488	21070
804.63	21233
804.773	21104
804.915	21180
805.057	21291
805.199	21157
805.341	21138
805.483	21252
805.626	21405
805.768	21089
805.91	21188
806.052	21036
806.194	21039
806.336	21241
806.478	21211
806.62	21081
806.762	21203
806.904	21370
807.046	21545
807.188	21386
807.33	21538
807.472	21454
807.614	21378
807.756	21549
807.898	21424
808.04	21294
808.182	21287
808.324	21306
808.465	21275
808.607	21511
808.749	21633
808.891	21770
809.033	21819
809.174	21694
809.316	21667
809.458	21572
809.6	21549
809.741	21580
809.883	21492
810.025	21808
810.166	21720
810.308	21743
810.45	21610
810.591	21534
810.733	21469
810.875	21325
811.016	21291
811.158	21188
811.299	21405
811.441	21393
811.582	21439
811.724	21237
811.865	21287
812.007	21245
812.148	21359
812.29	21321
812.431	21450
812.573	21557
812.714	21622
812.855	21713
812.997	21937
813.138	22082
813.279	21915
813.421	21888
813.562	21732
813.703	21568
813.845	21245
813.986	21268
814.127	21017
814.268	20880
814.41	20819
814.551	21032
814.692	20887
814.833	20785
814.974	20895
815.115	20792
815.256	20720
815.397	20705
815.539	20514
815.68	20617
815.821	20492
815.962	20629
816.103	20583
816.244	20457
816.385	20301
816.526	20423
816.666	20202
816.807	19986
816.948	20046
817.089	20130
817.23	20092
817.371	20111
817.512	19989
817.653	20012
817.793	19993
817.934	20073
818.075	20084
818.216	20050
818.356	19913
818.497	19795
818.638	19601
818.778	19639
818.919	19712
819.06	19704
819.2	19791
819.341	19845
819.481	19803
819.622	19909
819.762	20103
819.903	20100
820.043	19970
820.184	20081
820.324	20046
820.465	20096
820.605	20111
820.746	20043
820.886	19833
821.026	19944
821.167	19982
821.307	19982
821.447	19947
821.588	19841
821.728	19639
821.868	19495
822.008	19491
822.149	19293
822.289	19266
822.429	19152
822.569	19137
822.709	18993
822.849	18810
822.99	18913
823.13	18913
823.27	18859
823.41	18791
823.55	18604
823.69	18772
823.83	18665
823.97	18597
824.11	18460
824.25	18422
824.389	18460
824.529	18502
824.669	18456
824.809	18563
824.949	18513
825.089	18506
825.228	18426
825.368	18395
825.508	18429
825.648	18247
825.787	18388
825.927	18380
826.067	18228
826.206	18228
826.346	18311
826.485	18186
826.625	18133
826.765	18308
826.904	18216
827.044	17946
827.183	18072
827.323	17908
827.462	17958
827.601	17920
827.741	17973
827.88	17840
828.02	17767
828.159	17973
828.298	17950
828.437	17927
828.577	17828
828.716	18148
828.855	17859
828.994	17832
829.134	17699
829.273	17817
829.412	17608
829.551	17718
829.69	17680
829.829	17824
829.968	17863
830.107	17726
830.246	17817
830.385	17611
830.524	17573
830.663	17668
830.802	17478
830.941	17383
831.08	17261
831.219	17376
831.357	17402
831.496	17436
831.635	17364
831.774	17364
831.913	17227
832.051	17162
832.19	17079
832.329	17174
832.467	17052
832.606	17075
832.744	17014
832.883	17064
833.022	17128
833.16	17102
833.299	17143
833.437	17048
833.576	17109
833.714	17147
833.852	17128
833.991	17105
834.129	17212
834.267	17132
834.406	17178
834.544	17223
834.682	17029
834.821	17060
834.959	17216
835.097	17094
835.235	17288
835.373	17037
835.511	17022
835.65	16991
835.788	16908
835.926	16835
836.064	16694
836.202	16877
836.34	17029
836.478	17162
836.615	17041
836.753	17083
836.891	17025
837.029	16987
837.167	17025
837.305	16850
837.443	16858
837.58	16710
837.718	16980
837.856	16869
837.993	16873
838.131	16900
838.269	16816
838.406	16892
838.544	16755
838.681	16630
838.819	16535
838.956	16363
839.094	16409
839.231	16474
839.369	16523
839.506	16820
839.643	16653
839.781	16466
839.918	16295
840.055	16451
840.193	16375
840.33	16352
840.467	16466
840.604	16447
840.742	16694
840.879	16344
841.016	16363
841.153	16314
841.29	16470
841.427	16542
841.564	16466
841.701	16432
841.838	16363
841.975	16333
842.112	16291
842.249	16192
842.385	16162
842.522	16356
842.659	16192
842.796	16154
842.933	16230
843.069	16169
843.206	16147
843.343	16268
843.479	16128
843.616	16204
843.752	16017
843.889	16013
844.025	16090
844.162	15911
844.298	16173
844.435	15922
844.571	15934
844.708	16044
844.844	16150
844.98	16158
845.117	16109
845.253	16093
845.389	15964
845.525	15968
845.661	16010
845.798	15949
845.934	15903
846.07	15915
846.206	16044
846.342	16063
846.478	15850
846.614	15580
846.75	15454
846.886	15447
847.022	15591
847.158	15492
847.294	15606
847.429	15595
847.565	15576
847.701	15717
847.837	15386
847.972	15074
848.108	15428
848.244	15310
848.379	15241
848.515	15108
848.65	15161
848.786	15093
848.921	15135
849.057	15249
849.192	15264
849.328	15176
849.463	15138
849.598	15180
849.734	15009
849.869	15036
850.004	14952
850.14	14986
850.275	14914
850.41	14796
850.545	14838
850.68	14899
850.815	14853
850.95	14811
851.085	15070
851.22	15005
851.355	14887
851.49	14861
851.625	14891
851.76	14796
851.895	14796
852.03	14792
852.165	14933
852.299	14952
852.434	14979
852.569	14998
852.703	14906
852.838	14998
852.973	15028
853.107	15017
853.242	14952
853.376	14758
853.511	14632
853.645	14750
853.78	14849
853.914	14804
854.048	14655
854.183	14689
854.317	14800
854.451	14986
854.585	14750
854.72	14773
854.854	14796
854.988	14804
855.122	14777
855.256	14594
855.39	14724
855.524	14758
855.658	14887
855.792	14823
855.926	14823
856.06	14792
856.194	14849
856.327	14838
856.461	14792
856.595	14712
856.729	14712
856.862	14781
856.996	14697
857.13	14807
857.263	14899
857.397	14857
857.53	14697
857.664	14792
857.797	14918
857.931	14887
858.064	14861
858.197	14883
858.331	14754
858.464	14788
858.597	14651
858.731	14796
858.864	14663
858.997	14765
859.13	14861
859.263	14781
859.396	14781
859.529	14743
859.662	14746
859.795	14750
859.928	14769
860.061	14880
860.194	14986
860.327	14823
860.46	14777
860.592	14826
860.725	15009
860.858	14975
860.99	14746
861.123	14750
861.256	14651
861.388	14826
861.521	15477
861.653	14674
861.786	14659
861.918	14587
862.05	14636
862.183	14731
862.315	14701
862.447	14781
862.58	14720
862.712	14552
862.844	14533
862.976	14644
863.108	14610
863.24	14948
863.372	14503
863.504	14549
863.636	14511
863.768	14549
863.9	14556
864.032	14396
864.164	14469
864.296	14556
864.428	14663
864.559	14571
864.691	14583
864.823	14727
864.954	14545
865.086	14625
865.217	14590
865.349	14419
865.48	14575
865.612	14518
865.743	14708
865.875	14469
866.006	14480
866.137	14537
866.269	14545
866.4	14533
866.531	14438
866.662	14427
866.793	14427
866.924	14446
867.055	14412
867.186	14465
867.317	14461
867.448	14507
867.579	14476
867.71	14423
867.841	14400
867.972	14434
868.103	14480
868.233	14415
868.364	14499
868.495	14663
868.625	14701
868.756	14899
868.886	14777
869.017	14777
869.147	14918
869.278	14823
869.408	14781
869.539	14773
869.669	14872
869.799	14769
869.929	14883
870.06	14899
870.19	15097
870.32	15077
870.45	15233
870.58	15195
870.71	15256
870.84	15279
870.97	15081
871.1	15119
871.23	15439
871.36	15435
871.489	15306
871.619	15256
871.749	15313
871.879	15397
872.008	15458
872.138	15321
872.267	15306
872.397	15161
872.526	15233
872.656	15291
872.785	15131
872.915	15469
873.044	15454
873.173	15466
873.303	15367
873.432	15428
873.561	15496
873.69	15431
873.819	15348
873.948	15507
874.077	15473
874.206	15370
874.335	15408
874.464	15504
874.593	15652
874.722	15610
874.851	15797
874.979	15694
875.108	15835
875.237	15633
875.365	15526
875.494	15698
875.623	15873
875.751	15679
875.88	15736
876.008	15800
876.136	15876
876.265	16112
876.393	16276
876.521	16268
876.65	16177
876.778	16261
876.906	16055
877.034	16116
877.162	16124
877.29	16124
877.418	16086
877.546	16063
877.674	16059
877.802	16105
877.93	16124
878.058	16204
878.185	16036
878.313	16101
878.441	16147
878.568	15937
878.696	16017
878.824	16135
878.951	16322
879.079	16295
879.206	16402
879.333	16447
879.461	16230
879.588	16299
879.715	16447
879.842	16436
879.97	16276
880.097	16029
880.224	15964
880.351	16109
880.478	16029
880.605	15949
880.732	16017
880.859	16124
880.986	15930
881.112	15998
881.239	15915
881.366	15739
881.493	15713
881.619	15682
881.746	15724
881.872	15717
881.999	15553
882.125	15637
882.252	15701
882.378	15675
882.505	15846
882.631	15614
882.757	15428
882.883	15542
883.01	15401
883.136	15389
883.262	15363
883.388	15272
883.514	15466
883.64	15568
883.766	15405
883.892	15275
884.018	15336
884.143	15389
884.269	15523
884.395	15165
884.52	15138
884.646	15157
884.772	15047
884.897	15058
885.023	15169
885.148	15302
885.274	15249
885.399	15264
885.524	15157
885.65	15116
885.775	15192
885.9	15188
886.025	15199
886.15	15230
886.275	15188
886.4	15066
886.525	15085
886.65	15135
886.775	15131
886.9	15207
887.025	15428
887.149	15218
887.274	15013
887.399	14979
887.523	14956
887.648	14876
887.773	14899
887.897	15093
888.021	15043
888.146	14986
888.27	15112
888.395	15047
888.519	15074
888.643	15077
888.767	14998
888.891	14895
889.015	14781
889.139	14941
889.263	14792
889.387	14933
889.511	15070
889.635	14929
889.759	14739
889.883	14819
890.006	14937
890.13	14944
890.254	14788
890.377	14777
890.501	14629
890.624	14659
890.748	14716
890.871	14640
890.995	14446
891.118	14419
891.241	14499
891.364	14541
891.488	14632
891.611	14492
891.734	14507
891.857	14629
891.98	14465
892.103	14549
892.226	14484
892.349	14446
892.471	14339
892.594	14545
892.717	14533
892.839	14473
892.962	14476
893.085	14541
893.207	14556
893.33	14370
893.452	14446
893.575	14564
893.697	14530
893.819	14651
893.941	14682
894.064	14663
894.186	14423
894.308	14446
894.43	14575
894.552	14743
894.674	14598
894.796	14526
894.918	14571
895.04	14537
895.161	14682
895.283	14556
895.405	14518
895.526	14488
895.648	14625
895.769	14746
895.891	14617
896.012	14739
896.134	14746
896.255	14689
896.376	14693
896.498	14720
896.619	14667
896.74	14632
896.861	14674
896.982	15013
897.103	15211
897.224	14918
897.345	15001
897.466	14788
897.587	14979
897.708	15032
897.828	14956
897.949	14963
898.07	14735
898.19	14941
898.311	15074
898.431	14849
898.552	14990
898.672	15119
898.792	15169
898.913	15093
899.033	15055
899.153	14830
899.273	14853
899.393	14781
899.513	14868
899.633	14887
899.753	14971
899.873	14785
899.993	14811
900.113	14800
900.232	14872
900.352	14853
900.472	14754
900.591	14861
900.711	14758
900.83	14655
900.95	14834
901.069	14765
901.189	14640
901.308	14423
901.427	14313
901.546	14343
901.665	14495
901.784	14461
901.904	14259
902.023	14195
902.141	13967
902.26	14119
902.379	14027
902.498	13947
902.617	13849
902.735	13955
902.854	13894
902.973	13883
903.091	13723
903.21	13578
903.328	13647
903.446	13624
903.565	13487
903.683	13480
903.801	13407
903.919	13521
904.038	13514
904.156	13320
904.274	13411
904.392	13255
904.51	13251
904.627	13308
904.745	13434
904.863	13403
904.981	13137
905.098	13038
905.216	13088
905.334	13000
905.451	12966
905.569	13019
905.686	12947
905.803	12958
905.921	12814
906.038	12943
906.155	12817
906.272	12700
906.389	12669
906.506	12639
906.623	12601
906.74	12513
906.857	12597
906.974	12486
907.091	12707
907.208	12745
907.324	12601
907.441	12597
907.557	12338
907.674	12380
907.79	12258
907.907	12235
908.023	12395
908.139	12342
908.256	12346
908.372	12338
908.488	12167
908.604	12087
908.72	12178
908.836	12186
908.952	12140
909.068	12076
909.184	12148
909.3	12098
909.415	12144
909.531	12136
909.647	11912
909.762	11931
909.878	11870
909.993	11908
910.108	11908
910.224	11828
910.339	11889
910.454	11707
910.57	11748
910.685	11684
910.8	12003
910.915	11878
911.03	11688
911.145	11608
911.259	11528
911.374	11665
911.489	11532
911.604	11463
911.718	11353
911.833	11334
911.947	11288
912.062	11128
912.176	11337
912.291	11345
912.405	11387
912.519	11463
912.633	11570
912.748	11433
912.862	11372
912.976	11151
913.09	11037
913.204	11105
913.318	11159
913.431	11265
913.545	11284
913.659	11223
913.772	11220
913.886	11102
914	11018
914.113	11231
914.226	11166
914.34	11189
914.453	10938
914.566	11151
914.68	11010
914.793	10976
914.906	10858
915.019	10763
915.132	10679
915.245	10824
915.358	10835
915.47	10835
915.583	10767
915.696	10862
915.809	10991
915.921	10869
916.034	10733
916.146	10759
916.259	10774
916.371	10774
916.483	10725
916.595	10759
916.708	10752
916.82	10698
916.932	10679
917.044	10698
917.156	10675
917.268	10611
917.38	10618
917.491	10569
917.603	10683
917.715	10664
917.826	10698
917.938	10523
918.049	10390
918.161	10615
918.272	10706
918.384	10755
918.495	10687
918.606	10478
918.717	10443
918.828	10531
918.939	10611
919.05	10329
919.161	10390
919.272	10268
919.383	10276
919.494	10466
919.604	10714
919.715	10527
919.826	10436
919.936	10421
920.047	10561
920.157	10535
920.267	10748
920.378	10519
920.488	10489
920.598	10653
920.708	10854
920.818	10717
920.928	10649
921.038	10771
921.148	10854
921.258	10542
921.368	10421
921.477	10390
921.587	10360
921.697	10207
921.806	10344
921.916	10223
922.025	10112
922.134	10078
922.244	9964
922.353	10131
922.462	9918
922.571	9876
922.68	9766
922.789	9743
922.898	9705
923.007	9713
923.116	9800
923.224	9747
923.333	9759
923.442	9644
923.55	9610
923.659	9610
923.767	9625
923.876	9568
923.984	9732
924.092	9515
924.201	9584
924.309	9553
924.417	9564
924.525	9576
924.633	9504
924.741	10333
924.849	9393
924.956	9511
925.064	9344
925.172	9237
925.279	9378
925.387	9321
925.494	9454
925.602	9507
925.709	9523
925.816	9310
925.924	9363
926.031	9382
926.138	9359
926.245	9466
926.352	9382
926.459	9515
926.566	9431
926.673	9302
926.779	9233
926.886	9161
926.993	9135
927.099	9020
927.206	8963
927.312	9032
927.419	9112
927.525	9127
927.631	9062
927.737	9017
927.843	8956
927.95	8849
928.056	8918
928.162	8982
928.267	9001
928.373	9553
928.479	9009
928.585	8830
928.69	8979
928.796	8986
928.901	8838
929.007	8777
929.112	8933
929.218	8842
929.323	8762
929.428	8758
929.533	8925
929.638	8708
929.743	8815
929.848	8823
929.953	8750
930.058	8731
930.163	8507
930.267	8587
930.372	8731
930.477	8499
930.581	8678
930.685	8568
930.79	8507
930.894	8526
930.998	8537
931.103	8663
931.207	8267
931.311	8252
931.415	8199
931.519	7982
931.623	7955
