Data from test_V78500241_2593.txt Node
Date: Fri Mar 25 14:51:46 CST 2022
User: usil
Spectrometer: V785-0024
Trigger mode: 0
Integration Time (sec): 4.000000E-1
Scans to average: 1
Nonlinearity correction enabled: false
Boxcar width: 0
Storing dark spectrum: false
XAxis mode: Wavelengths
Number of Pixels in Spectrum: 1024
>>>>>Begin Spectral Data<<<<<
801.071	21975
801.214	21937
801.356	21869
801.499	21515
801.641	21408
801.783	21374
801.926	21359
802.068	21348
802.211	21245
802.353	21218
802.496	20910
802.638	20823
802.78	20933
802.923	20758
803.065	20655
803.208	20735
803.35	20663
803.492	20792
803.635	20880
803.777	20739
803.919	20804
804.061	20994
804.204	20682
804.346	20670
804.488	20621
804.63	20773
804.773	20609
804.915	20568
805.057	20735
805.199	20526
805.341	20587
805.483	20788
805.626	20708
805.768	20473
805.91	20552
806.052	20655
806.194	20514
806.336	20746
806.478	20640
806.62	20526
806.762	20743
806.904	20785
807.046	20975
807.188	21013
807.33	20971
807.472	20963
807.614	20880
807.756	20758
807.898	20769
808.04	20629
808.182	20507
808.324	20762
808.465	20769
808.607	20845
808.749	20979
808.891	21176
809.033	21028
809.174	21070
809.316	20872
809.458	20910
809.6	20960
809.741	21058
809.883	21005
810.025	21214
810.166	21169
810.308	21214
810.45	20948
810.591	20986
810.733	20796
810.875	20693
811.016	20655
811.158	20701
811.299	20819
811.441	20792
811.582	20887
811.724	20731
811.865	20674
812.007	20705
812.148	20777
812.29	20701
812.431	20906
812.573	21070
812.714	21100
812.855	21233
812.997	21393
813.138	21393
813.279	21492
813.421	21275
813.562	21283
813.703	20933
813.845	20960
813.986	20609
814.127	20526
814.268	20320
814.41	20374
814.551	20256
814.692	20343
814.833	20294
814.974	20202
815.115	20199
815.256	20218
815.397	20134
815.539	20145
815.68	20043
815.821	19917
815.962	20092
816.103	19963
816.244	19822
816.385	19776
816.526	19761
816.666	19708
816.807	19525
816.948	19487
817.089	19506
817.23	19491
817.371	19460
817.512	19362
817.653	19499
817.793	19388
817.934	19438
818.075	19537
818.216	19297
818.356	19369
818.497	19301
818.638	19057
818.778	19107
818.919	19152
819.06	19107
819.2	19225
819.341	19282
819.481	19358
819.622	19434
819.762	19757
819.903	19525
820.043	19445
820.184	19354
820.324	19400
820.465	19441
820.605	19407
820.746	19388
820.886	19320
821.026	19312
821.167	19350
821.307	19320
821.447	19285
821.588	19164
821.728	19183
821.868	18913
822.008	18795
822.149	18821
822.289	18791
822.429	18574
822.569	18445
822.709	18433
822.849	18296
822.99	18338
823.13	18209
823.27	18281
823.41	18144
823.55	18038
823.69	18197
823.83	18129
823.97	18022
824.11	17901
824.25	17813
824.389	17912
824.529	17920
824.669	17870
824.809	17882
824.949	18072
825.089	17878
825.228	17855
825.368	17767
825.508	17767
825.648	17752
825.787	17718
825.927	17680
826.067	17741
826.206	17604
826.346	17737
826.485	17585
826.625	17684
826.765	17767
826.904	17714
827.044	17436
827.183	17452
827.323	17459
827.462	17429
827.601	17421
827.741	17387
827.88	17440
828.02	17174
828.159	17311
828.298	17368
828.437	17512
828.577	17349
828.716	17440
828.855	17250
828.994	17159
829.134	17162
829.273	17197
829.412	17170
829.551	17025
829.69	17052
829.829	17288
829.968	17200
830.107	17280
830.246	17189
830.385	17056
830.524	17155
830.663	16862
830.802	16793
830.941	16763
831.08	16710
831.219	16786
831.357	16877
831.496	16946
831.635	16854
831.774	16630
831.913	16664
832.051	16504
832.19	16561
832.329	16641
832.467	16481
832.606	16474
832.744	16432
832.883	16443
833.022	16440
833.16	16443
833.299	16527
833.437	16390
833.576	16546
833.714	16493
833.852	16500
833.991	16637
834.129	16626
834.267	16603
834.406	16542
834.544	16546
834.682	16592
834.821	16478
834.959	16656
835.097	16432
835.235	16546
835.373	16558
835.511	16599
835.65	16538
835.788	16421
835.926	16329
836.064	16322
836.202	16272
836.34	16535
836.478	16592
836.615	16478
836.753	16558
836.891	16497
837.029	16466
837.167	16500
837.305	16325
837.443	16382
837.58	16166
837.718	16363
837.856	16386
837.993	16192
838.131	16344
838.269	16207
838.406	16360
838.544	16150
838.681	15899
838.819	15964
838.956	15842
839.094	15922
839.231	15972
839.369	15991
839.506	16306
839.643	16139
839.781	15960
839.918	15816
840.055	15998
840.193	15899
840.33	15747
840.467	15827
840.604	15835
840.742	16071
840.879	15728
841.016	15850
841.153	15854
841.29	15857
841.427	15979
841.564	15922
841.701	15831
841.838	15781
841.975	15823
842.112	15850
842.249	15660
842.385	15614
842.522	15857
842.659	15709
842.796	15618
842.933	15576
843.069	15504
843.206	15584
843.343	15720
843.479	15743
843.616	15656
843.752	15416
843.889	15587
844.025	15622
844.162	15351
844.298	15576
844.435	15325
844.571	15332
844.708	15549
844.844	15553
844.98	15568
845.117	15496
845.253	15443
845.389	15321
845.525	15481
845.661	15393
845.798	15245
845.934	15192
846.07	15237
846.206	15203
846.342	15298
846.478	15218
846.614	15005
846.75	15005
846.886	15017
847.022	15157
847.158	15024
847.294	14990
847.429	14956
847.565	15009
847.701	15264
847.837	14792
847.972	14625
848.108	14853
848.244	14823
848.379	14765
848.515	14606
848.65	14583
848.786	14560
848.921	14651
849.057	14716
849.192	14705
849.328	14583
849.463	14659
849.598	14651
849.734	14571
849.869	14511
850.004	14370
850.14	14442
850.275	14355
850.41	14298
850.545	14370
850.68	14240
850.815	14442
850.95	14366
851.085	14537
851.22	14404
851.355	14377
851.49	14355
851.625	14351
851.76	14400
851.895	14237
852.03	14237
852.165	14324
852.299	14358
852.434	14484
852.569	14465
852.703	14370
852.838	14377
852.973	14507
853.107	14473
853.242	14336
853.376	14259
853.511	14073
853.645	14183
853.78	14328
853.914	14298
854.048	14248
854.183	14248
854.317	14225
854.451	14457
854.585	14256
854.72	14153
854.854	14271
854.988	14183
855.122	14267
855.256	14123
855.39	14229
855.524	14347
855.658	14347
855.792	14252
855.926	14313
856.06	14355
856.194	14442
856.327	14225
856.461	14206
856.595	14138
856.729	14221
856.862	14343
856.996	14225
857.13	14320
857.263	14389
857.397	14313
857.53	14240
857.664	14336
857.797	14301
857.931	14332
858.064	14317
858.197	14324
858.331	14256
858.464	14168
858.597	14176
858.731	14252
858.864	14282
858.997	14298
859.13	14358
859.263	14248
859.396	14309
859.529	14286
859.662	14157
859.795	14214
859.928	14214
860.061	14389
860.194	14374
860.327	14256
860.46	14157
860.592	14415
860.725	14320
860.858	14370
860.99	14278
861.123	14195
861.256	14187
861.388	14187
861.521	14853
861.653	14145
861.786	14065
861.918	14062
862.05	14218
862.183	14180
862.315	14237
862.447	14377
862.58	14267
862.712	14001
862.844	14058
862.976	14069
863.108	14115
863.24	14492
863.372	13940
863.504	13955
863.636	13967
863.768	14138
863.9	13989
864.032	13921
864.164	14043
864.296	14115
864.428	14050
864.559	14123
864.691	14069
864.823	13967
864.954	14111
865.086	14043
865.217	13986
865.349	13951
865.48	14046
865.612	14073
865.743	14134
865.875	13993
866.006	14039
866.137	14092
866.269	14012
866.4	14012
866.531	13986
866.662	13902
866.793	13986
866.924	14062
867.055	14020
867.186	14008
867.317	13970
867.448	13902
867.579	13913
867.71	13883
867.841	13928
867.972	14024
868.103	14024
868.233	14005
868.364	14043
868.495	14100
868.625	14244
868.756	14351
868.886	14176
869.017	14240
869.147	14343
869.278	14457
869.408	14362
869.539	14286
869.669	14206
869.799	14313
869.929	14377
870.06	14320
870.19	14579
870.32	14663
870.45	14625
870.58	14590
870.71	14686
870.84	14765
870.97	14655
871.1	14663
871.23	14910
871.36	14910
871.489	14765
871.619	14750
871.749	14868
871.879	14971
872.008	15100
872.138	14891
872.267	14849
872.397	14686
872.526	14617
872.656	14708
872.785	14731
872.915	14982
873.044	14899
873.173	14895
873.303	14876
873.432	15032
873.561	14941
873.69	14906
873.819	14823
873.948	14944
874.077	14937
874.206	14921
874.335	14876
874.464	14982
874.593	15127
874.722	15207
874.851	15313
874.979	15268
875.108	15310
875.237	15089
875.365	15184
875.494	15173
875.623	15222
875.751	15203
875.88	15287
876.008	15450
876.136	15458
876.265	15591
876.393	15690
876.521	15705
876.65	15675
876.778	15675
876.906	15610
877.034	15557
877.162	15679
877.29	15652
877.418	15644
877.546	15660
877.674	15633
877.802	15637
877.93	15549
878.058	15599
878.185	15564
878.313	15595
878.441	15625
878.568	15469
878.696	15618
878.824	15580
878.951	15739
879.079	15869
879.206	15854
879.333	15869
879.461	15603
879.588	15694
879.715	15895
879.842	15915
879.97	15732
880.097	15439
880.224	15568
880.351	15511
880.478	15492
880.605	15401
880.732	15462
880.859	15610
880.986	15496
881.112	15629
881.239	15313
881.366	15222
881.493	15214
881.619	15169
881.746	15203
881.872	15077
881.999	15138
882.125	15135
882.252	15184
882.378	15192
882.505	15374
882.631	15161
882.757	15017
882.883	14971
883.01	14982
883.136	15009
883.262	14830
883.388	14754
883.514	15028
883.64	15142
883.766	14925
883.892	14727
884.018	14788
884.143	14921
884.269	15074
884.395	14819
884.52	14632
884.646	14655
884.772	14689
884.897	14568
885.023	14655
885.148	14716
885.274	14861
885.399	14807
885.524	14648
885.65	14636
885.775	14670
885.9	14674
886.025	14765
886.15	14769
886.275	14735
886.4	14564
886.525	14606
886.65	14651
886.775	14640
886.9	14792
887.025	14921
887.149	14689
887.274	14583
887.399	14389
887.523	14514
887.648	14427
887.773	14396
887.897	14610
888.021	14610
888.146	14484
888.27	14625
888.395	14648
888.519	14575
888.643	14617
888.767	14568
888.891	14389
889.015	14290
889.139	14389
889.263	14301
889.387	14438
889.511	14526
889.635	14533
889.759	14347
889.883	14282
890.006	14381
890.13	14454
890.254	14362
890.377	14301
890.501	14176
890.624	14153
890.748	14248
890.871	14157
890.995	14077
891.118	14046
891.241	14058
891.364	14001
891.488	14237
891.611	14088
891.734	14031
891.857	14138
891.98	14058
892.103	14149
892.226	14145
892.349	14039
892.471	13875
892.594	14103
892.717	14096
892.839	14100
892.962	14092
893.085	14149
893.207	14088
893.33	14054
893.452	13944
893.575	14252
893.697	13955
893.819	14240
893.941	14237
894.064	14164
894.186	14199
894.308	14069
894.43	14157
894.552	14313
894.674	14286
894.796	14138
894.918	14050
895.04	14183
895.161	14221
895.283	14286
895.405	14065
895.526	14115
895.648	14176
895.769	14115
895.891	14263
896.012	14267
896.134	14313
896.255	14244
896.376	14138
896.498	14199
896.619	14301
896.74	14210
896.861	14336
896.982	14552
897.103	14796
897.224	14575
897.345	14545
897.466	14473
897.587	14454
897.708	14587
897.828	14568
897.949	14541
898.07	14347
898.19	14457
898.311	14587
898.431	14533
898.552	14560
898.672	14644
898.792	14746
898.913	14583
899.033	14492
899.153	14389
899.273	14408
899.393	14454
899.513	14545
899.633	14476
899.753	14488
899.873	14442
899.993	14446
900.113	14476
900.232	14419
900.352	14495
900.472	14396
900.591	14206
900.711	14259
900.83	14286
900.95	14454
901.069	14438
901.189	14301
901.308	14043
901.427	14012
901.546	13955
901.665	14043
901.784	13974
901.904	13826
902.023	13791
902.141	13620
902.26	13567
902.379	13681
902.498	13556
902.617	13502
902.735	13521
902.854	13487
902.973	13491
903.091	13301
903.21	13236
903.328	13274
903.446	13202
903.565	13023
903.683	13221
903.801	12996
903.919	13217
904.038	13129
904.156	12943
904.274	12954
904.392	12886
904.51	12932
904.627	12810
904.745	12958
904.863	12966
904.981	12730
905.098	12635
905.216	12635
905.334	12688
905.451	12681
905.569	12646
905.686	12608
905.803	12681
905.921	12475
906.038	12467
906.155	12467
906.272	12338
906.389	12452
906.506	12277
906.623	12258
906.74	12163
906.857	12121
906.974	12152
907.091	12213
907.208	12410
907.324	12308
907.441	12186
907.557	12110
907.674	12110
907.79	11931
907.907	11992
908.023	12057
908.139	11992
908.256	12011
908.372	11908
908.488	11927
908.604	11817
908.72	11779
908.836	11756
908.952	11699
909.068	11771
909.184	11874
909.3	11798
909.415	11893
909.531	11707
909.647	11459
909.762	11554
909.878	11543
909.993	11566
910.108	11478
910.224	11535
910.339	11482
910.454	11471
910.57	11452
910.685	11273
910.8	11524
910.915	11471
911.03	11376
911.145	11231
911.259	11193
911.374	11178
911.489	11132
911.604	11212
911.718	10987
911.833	11022
911.947	10908
912.062	10839
912.176	10995
912.291	11014
912.405	10968
912.519	11216
912.633	11303
912.748	11090
912.862	10972
912.976	10892
913.09	10687
913.204	10824
913.318	10854
913.431	10934
913.545	10987
913.659	10942
913.772	10900
913.886	10706
914	10717
914.113	10793
914.226	10900
914.34	10828
914.453	10736
914.566	10854
914.68	10782
914.793	10763
914.906	10451
915.019	10474
915.132	10402
915.245	10443
915.358	10489
915.47	10459
915.583	10489
915.696	10584
915.809	10618
915.921	10649
916.034	10508
916.146	10474
916.259	10459
916.371	10565
916.483	10512
916.595	10428
916.708	10386
916.82	10375
916.932	10424
917.044	10375
917.156	10371
917.268	10257
917.38	10344
917.491	10352
917.603	10371
917.715	10500
917.826	10516
917.938	10318
918.049	10181
918.161	10314
918.272	10405
918.384	10455
918.495	10318
918.606	10188
918.717	10147
918.828	10185
918.939	10284
919.05	10158
919.161	10242
919.272	9983
919.383	10112
919.494	10257
919.604	10436
919.715	10139
919.826	10120
919.936	10253
920.047	10306
920.157	10196
920.267	10462
920.378	10207
920.488	10246
920.598	10360
920.708	10596
920.818	10360
920.928	10459
921.038	10634
921.148	10527
921.258	10299
921.368	10158
921.477	10093
921.587	10048
921.697	10040
921.806	10090
921.916	9968
922.025	9838
922.134	9732
922.244	9694
922.353	9808
922.462	9694
922.571	9663
922.68	9458
922.789	9428
922.898	9485
923.007	9389
923.116	9545
923.224	9454
923.333	9355
923.442	9435
923.55	9310
923.659	9431
923.767	9439
923.876	9340
923.984	9439
924.092	9294
924.201	9340
924.309	9370
924.417	9272
924.525	9275
924.633	9344
924.741	10105
924.849	9097
924.956	9192
925.064	9097
925.172	9097
925.279	9017
925.387	9100
925.494	9135
925.602	9249
925.709	9253
925.816	9066
925.924	9211
926.031	9226
926.138	9150
926.245	9138
926.352	9017
926.459	9176
926.566	9306
926.673	9119
926.779	8990
926.886	9001
926.993	8891
927.099	8834
927.206	8785
927.312	8788
927.419	8929
927.525	8861
927.631	8929
927.737	8705
927.843	8769
927.95	8613
928.056	8693
928.162	8758
928.267	8769
928.373	9439
928.479	8861
928.585	8552
928.69	8731
928.796	8724
928.901	8663
929.007	8507
929.112	8701
929.218	8667
929.323	8537
929.428	8492
929.533	8712
929.638	8454
929.743	8552
929.848	8587
929.953	8552
930.058	8484
930.163	8339
930.267	8389
930.372	8522
930.477	8206
930.581	8564
930.685	8419
930.79	8195
930.894	8301
930.998	8233
931.103	8366
931.207	8081
931.311	8008
931.415	7997
931.519	7757
931.623	7814
