Data from test_V78500241_2894.txt Node
Date: Fri Mar 25 14:53:51 CST 2022
User: usil
Spectrometer: V785-0024
Trigger mode: 0
Integration Time (sec): 4.000000E-1
Scans to average: 1
Nonlinearity correction enabled: false
Boxcar width: 0
Storing dark spectrum: false
XAxis mode: Wavelengths
Number of Pixels in Spectrum: 1024
>>>>>Begin Spectral Data<<<<<
801.071	21930
801.214	21892
801.356	21675
801.499	21485
801.641	21374
801.783	21363
801.926	21454
802.068	21412
802.211	21283
802.353	21176
802.496	21127
802.638	20994
802.78	20815
802.923	20876
803.065	20743
803.208	20705
803.35	20769
803.492	20811
803.635	20830
803.777	20743
803.919	20906
804.061	21135
804.204	20743
804.346	20781
804.488	20636
804.63	20655
804.773	20651
804.915	20781
805.057	20788
805.199	20731
805.341	20872
805.483	20754
805.626	20807
805.768	20594
805.91	20807
806.052	20689
806.194	20640
806.336	20838
806.478	20697
806.62	20587
806.762	20765
806.904	20960
807.046	21017
807.188	21131
807.33	21005
807.472	20998
807.614	20967
807.756	20868
807.898	20853
808.04	20853
808.182	20746
808.324	20750
808.465	20777
808.607	20994
808.749	21157
808.891	21127
809.033	21279
809.174	21272
809.316	21074
809.458	21066
809.6	20918
809.741	21165
809.883	21100
810.025	21264
810.166	21218
810.308	21268
810.45	21203
810.591	21123
810.733	21051
810.875	20891
811.016	20708
811.158	20697
811.299	20857
811.441	20914
811.582	20975
811.724	20891
811.865	20807
812.007	20765
812.148	20777
812.29	20872
812.431	21077
812.573	21096
812.714	21249
812.855	21431
812.997	21363
813.138	21576
813.279	21439
813.421	21412
813.562	21203
813.703	21039
813.845	20994
813.986	20720
814.127	20590
814.268	20446
814.41	20415
814.551	20313
814.692	20362
814.833	20313
814.974	20286
815.115	20336
815.256	20168
815.397	20229
815.539	20263
815.68	20229
815.821	20126
815.962	20210
816.103	19928
816.244	19986
816.385	19944
816.526	19841
816.666	19723
816.807	19647
816.948	19624
817.089	19635
817.23	19540
817.371	19483
817.512	19563
817.653	19514
817.793	19434
817.934	19506
818.075	19540
818.216	19483
818.356	19472
818.497	19327
818.638	19160
818.778	19244
818.919	19221
819.06	19274
819.2	19343
819.341	19472
819.481	19422
819.622	19590
819.762	19734
819.903	19575
820.043	19525
820.184	19468
820.324	19445
820.465	19582
820.605	19419
820.746	19537
820.886	19441
821.026	19453
821.167	19343
821.307	19457
821.447	19369
821.588	19331
821.728	19304
821.868	19072
822.008	18951
822.149	18928
822.289	18844
822.429	18642
822.569	18536
822.709	18589
822.849	18418
822.99	18418
823.13	18369
823.27	18323
823.41	18174
823.55	18239
823.69	18148
823.83	18174
823.97	18030
824.11	17996
824.25	17870
824.389	17878
824.529	18079
824.669	17927
824.809	18057
824.949	18194
825.089	18053
825.228	17992
825.368	17790
825.508	17775
825.648	17745
825.787	17764
825.927	17790
826.067	17767
826.206	17821
826.346	17748
826.485	17691
826.625	17722
826.765	17775
826.904	17733
827.044	17532
827.183	17512
827.323	17448
827.462	17471
827.601	17410
827.741	17497
827.88	17436
828.02	17315
828.159	17311
828.298	17429
828.437	17524
828.577	17417
828.716	17608
828.855	17398
828.994	17284
829.134	17254
829.273	17254
829.412	17220
829.551	17048
829.69	17140
829.829	17235
829.968	17284
830.107	17288
830.246	17227
830.385	17174
830.524	17128
830.663	16961
830.802	16911
830.941	16850
831.08	16782
831.219	16839
831.357	16858
831.496	16953
831.635	16759
831.774	16698
831.913	16702
832.051	16607
832.19	16535
832.329	16573
832.467	16512
832.606	16493
832.744	16485
832.883	16443
833.022	16451
833.16	16607
833.299	16440
833.437	16462
833.576	16428
833.714	16527
833.852	16664
833.991	16554
834.129	16698
834.267	16653
834.406	16592
834.544	16607
834.682	16519
834.821	16447
834.959	16687
835.097	16573
835.235	16603
835.373	16660
835.511	16535
835.65	16421
835.788	16478
835.926	16322
836.064	16276
836.202	16337
836.34	16432
836.478	16607
836.615	16428
836.753	16451
836.891	16493
837.029	16535
837.167	16474
837.305	16306
837.443	16398
837.58	16188
837.718	16363
837.856	16238
837.993	16295
838.131	16360
838.269	16242
838.406	16284
838.544	16204
838.681	16067
838.819	15983
838.956	15842
839.094	15816
839.231	15941
839.369	15964
839.506	16223
839.643	16017
839.781	15865
839.918	15778
840.055	15880
840.193	15800
840.33	15770
840.467	15831
840.604	15915
840.742	16173
840.879	15690
841.016	15816
841.153	15743
841.29	15907
841.427	15857
841.564	15922
841.701	15888
841.838	15728
841.975	15759
842.112	15842
842.249	15713
842.385	15686
842.522	15755
842.659	15713
842.796	15599
842.933	15595
843.069	15534
843.206	15564
843.343	15701
843.479	15641
843.616	15553
843.752	15397
843.889	15382
844.025	15633
844.162	15367
844.298	15618
844.435	15401
844.571	15458
844.708	15386
844.844	15580
844.98	15542
845.117	15431
845.253	15321
845.389	15287
845.525	15332
845.661	15317
845.798	15184
845.934	15256
846.07	15184
846.206	15264
846.342	15233
846.478	15294
846.614	15055
846.75	15005
846.886	14925
847.022	15100
847.158	15017
847.294	15001
847.429	15051
847.565	15013
847.701	15218
847.837	14765
847.972	14617
848.108	14887
848.244	14674
848.379	14625
848.515	14610
848.65	14469
848.786	14575
848.921	14678
849.057	14587
849.192	14674
849.328	14678
849.463	14598
849.598	14651
849.734	14434
849.869	14503
850.004	14362
850.14	14431
850.275	14271
850.41	14320
850.545	14347
850.68	14324
850.815	14473
850.95	14381
851.085	14594
851.22	14556
851.355	14332
851.49	14282
851.625	14305
851.76	14339
851.895	14313
852.03	14180
852.165	14366
852.299	14355
852.434	14366
852.569	14313
852.703	14305
852.838	14427
852.973	14507
853.107	14495
853.242	14305
853.376	14195
853.511	14172
853.645	14149
853.78	14305
853.914	14263
854.048	14229
854.183	14191
854.317	14183
854.451	14290
854.585	14157
854.72	14126
854.854	14358
854.988	14149
855.122	14233
855.256	14100
855.39	14130
855.524	14305
855.658	14278
855.792	14191
855.926	14366
856.06	14240
856.194	14320
856.327	14134
856.461	14164
856.595	14252
856.729	14210
856.862	14309
856.996	14294
857.13	14248
857.263	14290
857.397	14366
857.53	14229
857.664	14298
857.797	14259
857.931	14271
858.064	14278
858.197	14278
858.331	14252
858.464	14225
858.597	14103
858.731	14168
858.864	14202
858.997	14199
859.13	14218
859.263	14263
859.396	14309
859.529	14271
859.662	14191
859.795	14195
859.928	14210
860.061	14362
860.194	14282
860.327	14347
860.46	14183
860.592	14347
860.725	14377
860.858	14294
860.99	14195
861.123	14195
861.256	14081
861.388	14161
861.521	14876
861.653	14096
861.786	14069
861.918	14081
862.05	14221
862.183	14199
862.315	14172
862.447	14218
862.58	14218
862.712	14054
862.844	13940
862.976	13997
863.108	14054
863.24	14362
863.372	13951
863.504	13894
863.636	13967
863.768	14073
863.9	13978
864.032	13932
864.164	14005
864.296	14012
864.428	14172
864.559	14043
864.691	14123
864.823	14016
864.954	14062
865.086	14096
865.217	13947
865.349	13936
865.48	13989
865.612	14020
865.743	14065
865.875	14039
866.006	14031
866.137	14039
866.269	14001
866.4	14001
866.531	13875
866.662	13898
866.793	13951
866.924	13917
867.055	14024
867.186	13997
867.317	13868
867.448	13845
867.579	13906
867.71	13928
867.841	13887
867.972	13909
868.103	13925
868.233	13997
868.364	14092
868.495	14073
868.625	14294
868.756	14298
868.886	14111
869.017	14214
869.147	14419
869.278	14385
869.408	14343
869.539	14259
869.669	14294
869.799	14282
869.929	14339
870.06	14408
870.19	14480
870.32	14480
870.45	14610
870.58	14629
870.71	14743
870.84	14617
870.97	14594
871.1	14659
871.23	14765
871.36	14883
871.489	14788
871.619	14777
871.749	14826
871.879	14845
872.008	14914
872.138	14838
872.267	14705
872.397	14651
872.526	14705
872.656	14697
872.785	14697
872.915	14895
873.044	14895
873.173	14834
873.303	14876
873.432	14925
873.561	14880
873.69	14845
873.819	14853
873.948	15066
874.077	14872
874.206	14868
874.335	14842
874.464	15039
874.593	15211
874.722	15135
874.851	15207
874.979	15294
875.108	15275
875.237	15142
875.365	15039
875.494	15119
875.623	15268
875.751	15241
875.88	15180
876.008	15374
876.136	15431
876.265	15641
876.393	15747
876.521	15698
876.65	15789
876.778	15622
876.906	15587
877.034	15568
877.162	15530
877.29	15515
877.418	15603
877.546	15606
877.674	15568
877.802	15599
877.93	15610
878.058	15660
878.185	15424
878.313	15542
878.441	15625
878.568	15477
878.696	15526
878.824	15675
878.951	15629
879.079	15838
879.206	15956
879.333	15713
879.461	15648
879.588	15682
879.715	15762
879.842	15915
879.97	15705
880.097	15450
880.224	15443
880.351	15507
880.478	15488
880.605	15412
880.732	15405
880.859	15690
880.986	15542
881.112	15542
881.239	15302
881.366	15291
881.493	15291
881.619	15116
881.746	15127
881.872	15180
881.999	15005
882.125	15074
882.252	15211
882.378	15180
882.505	15313
882.631	15119
882.757	14883
882.883	15028
883.01	15024
883.136	14937
883.262	14716
883.388	14842
883.514	15020
883.64	15051
883.766	14971
883.892	14754
884.018	14823
884.143	14902
884.269	15024
884.395	14697
884.52	14648
884.646	14689
884.772	14727
884.897	14499
885.023	14670
885.148	14857
885.274	14807
885.399	14804
885.524	14705
885.65	14686
885.775	14682
885.9	14602
886.025	14785
886.15	14731
886.275	14636
886.4	14575
886.525	14686
886.65	14583
886.775	14587
886.9	14720
887.025	14971
887.149	14678
887.274	14507
887.399	14556
887.523	14495
887.648	14336
887.773	14377
887.897	14560
888.021	14560
888.146	14389
888.27	14526
888.395	14590
888.519	14503
888.643	14495
888.767	14606
888.891	14537
889.015	14332
889.139	14415
889.263	14294
889.387	14446
889.511	14480
889.635	14522
889.759	14385
889.883	14218
890.006	14492
890.13	14427
890.254	14328
890.377	14328
890.501	14229
890.624	14195
890.748	14187
890.871	13982
890.995	13978
891.118	13986
891.241	14115
891.364	14020
891.488	14111
891.611	14183
891.734	14058
891.857	14100
891.98	14062
892.103	14134
892.226	14123
892.349	13982
892.471	13925
892.594	13993
892.717	14035
892.839	14039
892.962	14153
893.085	14073
893.207	13989
893.33	13940
893.452	14020
893.575	14111
893.697	13978
893.819	14252
893.941	14301
894.064	14153
894.186	14043
894.308	14005
894.43	14221
894.552	14286
894.674	14199
894.796	14058
894.918	14065
895.04	14008
895.161	14221
895.283	14195
895.405	14180
895.526	14176
895.648	14142
895.769	14183
895.891	14225
896.012	14324
896.134	14153
896.255	14271
896.376	14256
896.498	14244
896.619	14259
896.74	14214
896.861	14282
896.982	14598
897.103	14800
897.224	14674
897.345	14427
897.466	14450
897.587	14522
897.708	14629
897.828	14530
897.949	14457
898.07	14351
898.19	14526
898.311	14659
898.431	14632
898.552	14579
898.672	14712
898.792	14663
898.913	14644
899.033	14598
899.153	14503
899.273	14389
899.393	14465
899.513	14393
899.633	14476
899.753	14457
899.873	14324
899.993	14549
900.113	14419
900.232	14431
900.352	14507
900.472	14358
900.591	14351
900.711	14408
900.83	14244
900.95	14431
901.069	14393
901.189	14240
901.308	14031
901.427	13909
901.546	13932
901.665	14016
901.784	13993
901.904	13826
902.023	13791
902.141	13609
902.26	13586
902.379	13662
902.498	13605
902.617	13525
902.735	13548
902.854	13449
902.973	13559
903.091	13217
903.21	13327
903.328	13301
903.446	13156
903.565	13110
903.683	13164
903.801	13031
903.919	13099
904.038	13141
904.156	12993
904.274	13072
904.392	12894
904.51	13004
904.627	12920
904.745	12913
904.863	13072
904.981	12798
905.098	12616
905.216	12665
905.334	12662
905.451	12719
905.569	12616
905.686	12684
905.803	12627
905.921	12380
906.038	12601
906.155	12350
906.272	12380
906.389	12403
906.506	12251
906.623	12182
906.74	12197
906.857	12133
906.974	12076
907.091	12281
907.208	12365
907.324	12296
907.441	12186
907.557	11988
907.674	11958
907.79	11859
907.907	11942
908.023	11988
908.139	11984
908.256	11916
908.372	11969
908.488	11874
908.604	11710
908.72	11695
908.836	11805
908.952	11695
909.068	11748
909.184	11809
909.3	11718
909.415	11802
909.531	11786
909.647	11592
909.762	11463
909.878	11490
909.993	11501
910.108	11455
910.224	11501
910.339	11463
910.454	11429
910.57	11322
910.685	11288
910.8	11562
910.915	11406
911.03	11379
911.145	11204
911.259	11193
911.374	11159
911.489	11090
911.604	11025
911.718	10991
911.833	10976
911.947	10805
912.062	10801
912.176	10938
912.291	10976
912.405	11018
912.519	11178
912.633	11170
912.748	11010
912.862	10942
912.976	10824
913.09	10702
913.204	10755
913.318	10915
913.431	10889
913.545	10877
913.659	11033
913.772	10828
913.886	10733
914	10656
914.113	10683
914.226	10839
914.34	10816
914.453	10656
914.566	10771
914.68	10733
914.793	10618
914.906	10561
915.019	10478
915.132	10405
915.245	10440
915.358	10375
915.47	10485
915.583	10474
915.696	10512
915.809	10577
915.921	10565
916.034	10459
916.146	10432
916.259	10379
916.371	10470
916.483	10451
916.595	10314
916.708	10344
916.82	10405
916.932	10333
917.044	10329
917.156	10367
917.268	10287
917.38	10333
917.491	10291
917.603	10341
917.715	10329
917.826	10371
917.938	10333
918.049	10204
918.161	10310
918.272	10440
918.384	10428
918.495	10329
918.606	10227
918.717	10154
918.828	10227
918.939	10219
919.05	10131
919.161	10154
919.272	9937
919.383	10025
919.494	10166
919.604	10394
919.715	10204
919.826	10120
919.936	10116
920.047	10207
920.157	10227
920.267	10310
920.378	10284
920.488	10242
920.598	10375
920.708	10615
920.818	10314
920.928	10402
921.038	10569
921.148	10497
921.258	10207
921.368	10207
921.477	10109
921.587	10006
921.697	9994
921.806	10029
921.916	9930
922.025	9846
922.134	9774
922.244	9686
922.353	9869
922.462	9671
922.571	9603
922.68	9504
922.789	9397
922.898	9412
923.007	9408
923.116	9397
923.224	9310
923.333	9412
923.442	9382
923.55	9329
923.659	9401
923.767	9370
923.876	9310
923.984	9408
924.092	9359
924.201	9291
924.309	9302
924.417	9283
924.525	9195
924.633	9283
924.741	10265
924.849	9100
924.956	9310
925.064	9077
925.172	9005
925.279	9051
925.387	9116
925.494	9173
925.602	9203
925.709	9165
925.816	9013
925.924	9077
926.031	9146
926.138	9104
926.245	9161
926.352	9024
926.459	9199
926.566	9249
926.673	9127
926.779	8986
926.886	8941
926.993	8819
927.099	8769
927.206	8758
927.312	8800
927.419	8762
927.525	8849
927.631	8876
927.737	8731
927.843	8785
927.95	8583
928.056	8712
928.162	8766
928.267	8727
928.373	9363
928.479	8773
928.585	8579
928.69	8739
928.796	8785
928.901	8644
929.007	8522
929.112	8568
929.218	8640
929.323	8575
929.428	8537
929.533	8686
929.638	8492
929.743	8488
929.848	8579
929.953	8469
930.058	8480
930.163	8267
930.267	8324
930.372	8450
930.477	8320
930.581	8530
930.685	8423
930.79	8313
930.894	8336
930.998	8180
931.103	8343
931.207	8062
931.311	8012
931.415	7944
931.519	7757
931.623	7814
