Data from test_V78500241_3562.txt Node
Date: Fri Mar 25 14:58:31 CST 2022
User: usil
Spectrometer: V785-0024
Trigger mode: 0
Integration Time (sec): 4.000000E-1
Scans to average: 1
Nonlinearity correction enabled: false
Boxcar width: 0
Storing dark spectrum: false
XAxis mode: Wavelengths
Number of Pixels in Spectrum: 1024
>>>>>Begin Spectral Data<<<<<
801.071	21907
801.214	21778
801.356	21545
801.499	21549
801.641	21264
801.783	21294
801.926	21359
802.068	21184
802.211	21249
802.353	21032
802.496	20868
802.638	20811
802.78	20743
802.923	20716
803.065	20476
803.208	20503
803.35	20712
803.492	20651
803.635	20731
803.777	20720
803.919	20632
804.061	20960
804.204	20632
804.346	20530
804.488	20484
804.63	20533
804.773	20522
804.915	20495
805.057	20625
805.199	20598
805.341	20571
805.483	20651
805.626	20541
805.768	20431
805.91	20560
806.052	20590
806.194	20503
806.336	20590
806.478	20393
806.62	20446
806.762	20499
806.904	20648
807.046	20918
807.188	20842
807.33	20830
807.472	20880
807.614	20739
807.756	20762
807.898	20621
808.04	20556
808.182	20617
808.324	20579
808.465	20587
808.607	20788
808.749	20952
808.891	20956
809.033	20982
809.174	20914
809.316	20864
809.458	20918
809.6	20838
809.741	20891
809.883	20891
810.025	21047
810.166	21020
810.308	21096
810.45	20975
810.591	20899
810.733	20724
810.875	20682
811.016	20480
811.158	20511
811.299	20754
811.441	20777
811.582	20899
811.724	20617
811.865	20511
812.007	20522
812.148	20632
812.29	20724
812.431	20857
812.573	20990
812.714	20994
812.855	21150
812.997	21123
813.138	21313
813.279	21211
813.421	21096
813.562	21058
813.703	20819
813.845	20792
813.986	20499
814.127	20320
814.268	20267
814.41	20434
814.551	20176
814.692	20218
814.833	20130
814.974	20347
815.115	20058
815.256	20039
815.397	20058
815.539	19898
815.68	19932
815.821	19830
815.962	19898
816.103	19772
816.244	19761
816.385	19647
816.526	19666
816.666	19445
816.807	19430
816.948	19388
817.089	19464
817.23	19426
817.371	19240
817.512	19225
817.653	19320
817.793	19255
817.934	19293
818.075	19381
818.216	19247
818.356	19263
818.497	19099
818.638	18970
818.778	18939
818.919	19000
819.06	19023
819.2	19053
819.341	19175
819.481	19126
819.622	19251
819.762	19430
819.903	19430
820.043	19282
820.184	19320
820.324	19171
820.465	19415
820.605	19266
820.746	19221
820.886	19217
821.026	19339
821.167	19358
821.307	19320
821.447	19183
821.588	19091
821.728	19091
821.868	18795
822.008	18741
822.149	18589
822.289	18776
822.429	18536
822.569	18407
822.709	18357
822.849	18220
822.99	18266
823.13	18194
823.27	18140
823.41	17969
823.55	17973
823.69	18015
823.83	17988
823.97	17851
824.11	17882
824.25	17794
824.389	17923
824.529	17821
824.669	17729
824.809	17809
824.949	17870
825.089	17752
825.228	17714
825.368	17668
825.508	17551
825.648	17638
825.787	17566
825.927	17623
826.067	17455
826.206	17436
826.346	17520
826.485	17535
826.625	17604
826.765	17600
826.904	17520
827.044	17452
827.183	17223
827.323	17299
827.462	17288
827.601	17258
827.741	17227
827.88	17204
828.02	17102
828.159	17242
828.298	17322
828.437	17239
828.577	17292
828.716	17391
828.855	17307
828.994	16965
829.134	16930
829.273	17022
829.412	17048
829.551	16877
829.69	16987
829.829	16904
829.968	17102
830.107	17166
830.246	17014
830.385	16984
830.524	16858
830.663	16896
830.802	16763
830.941	16603
831.08	16645
831.219	16698
831.357	16660
831.496	16805
831.635	16668
831.774	16493
831.913	16523
832.051	16451
832.19	16428
832.329	16470
832.467	16417
832.606	16246
832.744	16230
832.883	16238
833.022	16261
833.16	16333
833.299	16363
833.437	16303
833.576	16379
833.714	16398
833.852	16363
833.991	16462
834.129	16371
834.267	16436
834.406	16341
834.544	16481
834.682	16405
834.821	16360
834.959	16592
835.097	16310
835.235	16413
835.373	16409
835.511	16538
835.65	16314
835.788	16242
835.926	16166
836.064	16086
836.202	16128
836.34	16356
836.478	16474
836.615	16257
836.753	16329
836.891	16314
837.029	16417
837.167	16234
837.305	16200
837.443	16234
837.58	16128
837.718	16177
837.856	15991
837.993	16131
838.131	16154
838.269	16120
838.406	16071
838.544	16097
838.681	15907
838.819	15865
838.956	15770
839.094	15774
839.231	15755
839.369	15797
839.506	16086
839.643	16044
839.781	15835
839.918	15648
840.055	15778
840.193	15641
840.33	15713
840.467	15797
840.604	15808
840.742	15926
840.879	15637
841.016	15682
841.153	15576
841.29	15793
841.427	15766
841.564	15770
841.701	15762
841.838	15675
841.975	15667
842.112	15652
842.249	15603
842.385	15564
842.522	15804
842.659	15568
842.796	15454
842.933	15549
843.069	15500
843.206	15473
843.343	15625
843.479	15591
843.616	15496
843.752	15291
843.889	15329
844.025	15507
844.162	15176
844.298	15348
844.435	15268
844.571	15336
844.708	15279
844.844	15393
844.98	15466
845.117	15340
845.253	15233
845.389	15184
845.525	15165
845.661	15283
845.798	15043
845.934	15093
846.07	15028
846.206	15154
846.342	15119
846.478	15100
846.614	14948
846.75	14899
846.886	14857
847.022	14887
847.158	14857
847.294	14823
847.429	14986
847.565	14933
847.701	15154
847.837	14659
847.972	14530
848.108	14796
848.244	14750
848.379	14575
848.515	14465
848.65	14530
848.786	14465
848.921	14674
849.057	14575
849.192	14507
849.328	14533
849.463	14530
849.598	14396
849.734	14396
849.869	14332
850.004	14164
850.14	14267
850.275	14400
850.41	14218
850.545	14157
850.68	14267
850.815	14271
850.95	14248
851.085	14381
851.22	14305
851.355	14305
851.49	14336
851.625	14301
851.76	14263
851.895	14119
852.03	14103
852.165	14195
852.299	14168
852.434	14336
852.569	14324
852.703	14214
852.838	14389
852.973	14404
853.107	14351
853.242	14130
853.376	14130
853.511	13951
853.645	14020
853.78	14161
853.914	14134
854.048	14134
854.183	14103
854.317	14092
854.451	14298
854.585	14084
854.72	14123
854.854	14134
854.988	14077
855.122	14183
855.256	14005
855.39	14092
855.524	14107
855.658	14176
855.792	14157
855.926	14130
856.06	14153
856.194	14187
856.327	14081
856.461	14035
856.595	14134
856.729	14111
856.862	14301
856.996	14107
857.13	14202
857.263	14191
857.397	14221
857.53	14153
857.664	14176
857.797	14111
857.931	14286
858.064	14183
858.197	14252
858.331	14039
858.464	14081
858.597	14065
858.731	14126
858.864	14081
858.997	14031
859.13	14115
859.263	14275
859.396	14168
859.529	14164
859.662	13989
859.795	14107
859.928	14221
860.061	14252
860.194	14298
860.327	14130
860.46	14164
860.592	14214
860.725	14237
860.858	14218
860.99	14100
861.123	14081
861.256	14069
861.388	14172
861.521	14830
861.653	14001
861.786	13982
861.918	13906
862.05	14035
862.183	14096
862.315	14183
862.447	14206
862.58	14027
862.712	13902
862.844	13795
862.976	13963
863.108	13928
863.24	14320
863.372	13818
863.504	13921
863.636	13921
863.768	14001
863.9	13989
864.032	13894
864.164	13776
864.296	14008
864.428	14065
864.559	14027
864.691	13978
864.823	13947
864.954	13993
865.086	13902
865.217	13879
865.349	13879
865.48	13906
865.612	13898
865.743	14027
865.875	13917
866.006	13856
866.137	13898
866.269	13811
866.4	13788
866.531	13852
866.662	13837
866.793	13860
866.924	13837
867.055	13860
867.186	13944
867.317	13860
867.448	13811
867.579	13864
867.71	13776
867.841	13731
867.972	13849
868.103	13849
868.233	13906
868.364	13909
868.495	13936
868.625	14134
868.756	14294
868.886	14073
869.017	14111
869.147	14244
869.278	14157
869.408	14100
869.539	14187
869.669	14210
869.799	14142
869.929	14202
870.06	14328
870.19	14503
870.32	14393
870.45	14465
870.58	14514
870.71	14705
870.84	14549
870.97	14507
871.1	14454
871.23	14579
871.36	14792
871.489	14640
871.619	14629
871.749	14735
871.879	14804
872.008	14895
872.138	14815
872.267	14720
872.397	14537
872.526	14587
872.656	14541
872.785	14598
872.915	14788
873.044	14918
873.173	14796
873.303	14807
873.432	14765
873.561	14853
873.69	14838
873.819	14727
873.948	14895
874.077	14804
874.206	14743
874.335	14769
874.464	14857
874.593	15138
874.722	15066
874.851	15108
874.979	15157
875.108	15070
875.237	15043
875.365	14960
875.494	15093
875.623	15241
875.751	15100
875.88	15116
876.008	15264
876.136	15408
876.265	15466
876.393	15561
876.521	15504
876.65	15660
876.778	15564
876.906	15447
877.034	15523
877.162	15618
877.29	15435
877.418	15450
877.546	15557
877.674	15557
877.802	15564
877.93	15515
878.058	15561
878.185	15454
878.313	15519
878.441	15492
878.568	15264
878.696	15458
878.824	15439
878.951	15603
879.079	15690
879.206	15865
879.333	15690
879.461	15633
879.588	15622
879.715	15709
879.842	15808
879.97	15705
880.097	15443
880.224	15313
880.351	15393
880.478	15359
880.605	15424
880.732	15420
880.859	15660
880.986	15412
881.112	15420
881.239	15351
881.366	15173
881.493	15020
881.619	15066
881.746	15123
881.872	14998
881.999	15051
882.125	14986
882.252	15047
882.378	15028
882.505	15188
882.631	15017
882.757	14845
882.883	14971
883.01	14845
883.136	14731
883.262	14739
883.388	14686
883.514	14918
883.64	14990
883.766	14773
883.892	14602
884.018	14792
884.143	14883
884.269	14963
884.395	14541
884.52	14530
884.646	14602
884.772	14480
884.897	14488
885.023	14530
885.148	14769
885.274	14648
885.399	14651
885.524	14473
885.65	14590
885.775	14579
885.9	14438
886.025	14746
886.15	14670
886.275	14530
886.4	14511
886.525	14568
886.65	14408
886.775	14499
886.9	14708
887.025	14796
887.149	14575
887.274	14499
887.399	14355
887.523	14320
887.648	14267
887.773	14347
887.897	14454
888.021	14393
888.146	14431
888.27	14492
888.395	14587
888.519	14454
888.643	14450
888.767	14537
888.891	14313
889.015	14191
889.139	14362
889.263	14275
889.387	14271
889.511	14492
889.635	14427
889.759	14183
889.883	14358
890.006	14244
890.13	14305
890.254	14202
890.377	14138
890.501	13928
890.624	14092
890.748	14103
890.871	14046
890.995	14027
891.118	13864
891.241	13944
891.364	13951
891.488	14058
891.611	13875
891.734	13906
891.857	13932
891.98	13936
892.103	13959
892.226	13978
892.349	14046
892.471	13799
892.594	13875
892.717	13970
892.839	13860
892.962	14005
893.085	14039
893.207	13951
893.33	13818
893.452	13849
893.575	14039
893.697	13898
893.819	14107
893.941	14202
894.064	14054
894.186	14073
894.308	13967
894.43	14046
894.552	14180
894.674	13989
894.796	13955
894.918	14081
895.04	14043
895.161	14084
895.283	14012
895.405	14050
895.526	14119
895.648	14092
895.769	14153
895.891	14103
896.012	14183
896.134	14187
896.255	14221
896.376	14024
896.498	14161
896.619	14172
896.74	14214
896.861	14267
896.982	14461
897.103	14648
897.224	14339
897.345	14408
897.466	14336
897.587	14469
897.708	14522
897.828	14442
897.949	14514
898.07	14267
898.19	14415
898.311	14617
898.431	14396
898.552	14461
898.672	14476
898.792	14549
898.913	14598
899.033	14457
899.153	14309
899.273	14187
899.393	14248
899.513	14408
899.633	14347
899.753	14301
899.873	14351
899.993	14465
900.113	14366
900.232	14389
900.352	14225
900.472	14286
900.591	14103
900.711	14199
900.83	14100
900.95	14218
901.069	14278
901.189	14176
901.308	13967
901.427	13879
901.546	13890
901.665	13845
901.784	14001
901.904	13696
902.023	13666
902.141	13460
902.26	13495
902.379	13514
902.498	13449
902.617	13434
902.735	13548
902.854	13426
902.973	13388
903.091	13198
903.21	13168
903.328	13206
903.446	13038
903.565	13076
903.683	13004
903.801	12966
903.919	13095
904.038	13004
904.156	12871
904.274	12871
904.392	12947
904.51	12806
904.627	12867
904.745	12920
904.863	12859
904.981	12662
905.098	12566
905.216	12547
905.334	12528
905.451	12517
905.569	12525
905.686	12578
905.803	12551
905.921	12304
906.038	12536
906.155	12437
906.272	12213
906.389	12327
906.506	12144
906.623	12114
906.74	12144
906.857	11992
906.974	12091
907.091	12159
907.208	12216
907.324	12140
907.441	12072
907.557	11828
907.674	11878
907.79	11920
907.907	11821
908.023	11863
908.139	11885
908.256	11821
908.372	11794
908.488	11836
908.604	11638
908.72	11646
908.836	11642
908.952	11596
909.068	11627
909.184	11771
909.3	11688
909.415	11699
909.531	11718
909.647	11417
909.762	11436
909.878	11368
909.993	11478
910.108	11452
910.224	11414
910.339	11463
910.454	11379
910.57	11265
910.685	11220
910.8	11410
910.915	11478
911.03	11379
911.145	11189
911.259	11071
911.374	11071
911.489	10965
911.604	10942
911.718	10862
911.833	10915
911.947	10805
912.062	10710
912.176	10850
912.291	10919
912.405	10919
912.519	11056
912.633	11037
912.748	10911
912.862	10877
912.976	10767
913.09	10694
913.204	10759
913.318	10744
913.431	10820
913.545	10820
913.659	10847
913.772	10702
913.886	10660
914	10615
914.113	10801
914.226	10801
914.34	10698
914.453	10626
914.566	10645
914.68	10580
914.793	10535
914.906	10405
915.019	10417
915.132	10405
915.245	10284
915.358	10451
915.47	10398
915.583	10413
915.696	10497
915.809	10615
915.921	10603
916.034	10394
916.146	10382
916.259	10257
916.371	10436
916.483	10424
916.595	10268
916.708	10325
916.82	10337
916.932	10261
917.044	10295
917.156	10238
917.268	10200
917.38	10234
917.491	10162
917.603	10246
917.715	10329
917.826	10394
917.938	10177
918.049	10154
918.161	10223
918.272	10379
918.384	10402
918.495	10276
918.606	10097
918.717	10055
918.828	10192
918.939	10090
919.05	10048
919.161	10101
919.272	9907
919.383	9949
919.494	10147
919.604	10306
919.715	10097
919.826	9983
919.936	10051
920.047	10162
920.157	10048
920.267	10310
920.378	10169
920.488	10150
920.598	10363
920.708	10493
920.818	10318
920.928	10314
921.038	10485
921.148	10459
921.258	10238
921.368	10074
921.477	9991
921.587	10029
921.697	9816
921.806	9956
921.916	9945
922.025	9675
922.134	9747
922.244	9603
922.353	9762
922.462	9625
922.571	9534
922.68	9351
922.789	9313
922.898	9439
923.007	9344
923.116	9401
923.224	9370
923.333	9313
923.442	9298
923.55	9275
923.659	9306
923.767	9332
923.876	9253
923.984	9351
924.092	9188
924.201	9203
924.309	9260
924.417	9245
924.525	9207
924.633	9245
924.741	9972
924.849	9112
924.956	9214
925.064	9043
925.172	8910
925.279	9009
925.387	9055
925.494	9024
925.602	9222
925.709	9100
925.816	9005
925.924	8994
926.031	9135
926.138	8975
926.245	9180
926.352	8986
926.459	9104
926.566	9135
926.673	8948
926.779	8902
926.886	8880
926.993	8781
927.099	8697
927.206	8712
927.312	8739
927.419	8807
927.525	8785
927.631	8815
927.737	8705
927.843	8648
927.95	8556
928.056	8610
928.162	8648
928.267	8667
928.373	9393
928.479	8724
928.585	8537
928.69	8678
928.796	8693
928.901	8568
929.007	8400
929.112	8526
929.218	8514
929.323	8507
929.428	8511
929.533	8625
929.638	8434
929.743	8465
929.848	8552
929.953	8473
930.058	8317
930.163	8191
930.267	8275
930.372	8389
930.477	8301
930.581	8431
930.685	8309
930.79	8214
930.894	8191
930.998	8218
931.103	8358
931.207	7982
931.311	7936
931.415	7837
931.519	7712
931.623	7708
