Data from test_V78500241_1867.txt Node
Date: Fri Mar 25 14:46:42 CST 2022
User: usil
Spectrometer: V785-0024
Trigger mode: 0
Integration Time (sec): 4.000000E-1
Scans to average: 1
Nonlinearity correction enabled: false
Boxcar width: 0
Storing dark spectrum: false
XAxis mode: Wavelengths
Number of Pixels in Spectrum: 1024
>>>>>Begin Spectral Data<<<<<
801.071	22162
801.214	21979
801.356	21850
801.499	21766
801.641	21435
801.783	21583
801.926	21538
802.068	21545
802.211	21317
802.353	21332
802.496	21085
802.638	21001
802.78	21039
802.923	20918
803.065	20769
803.208	20914
803.35	20788
803.492	20990
803.635	20967
803.777	20773
803.919	20963
804.061	21165
804.204	20963
804.346	20811
804.488	20670
804.63	20872
804.773	20629
804.915	20800
805.057	20994
805.199	20796
805.341	20857
805.483	20895
805.626	20891
805.768	20796
805.91	20834
806.052	20800
806.194	20724
806.336	20967
806.478	20811
806.62	20727
806.762	20826
806.904	20944
807.046	21157
807.188	21127
807.33	21058
807.472	21173
807.614	20963
807.756	21017
807.898	20880
808.04	20804
808.182	20807
808.324	20853
808.465	20838
808.607	21066
808.749	21112
808.891	21268
809.033	21332
809.174	21108
809.316	21142
809.458	21074
809.6	21222
809.741	21211
809.883	21233
810.025	21226
810.166	21359
810.308	21348
810.45	21138
810.591	21241
810.733	21028
810.875	20975
811.016	20804
811.158	20834
811.299	21028
811.441	21028
811.582	20971
811.724	20914
811.865	20937
812.007	20807
812.148	20948
812.29	20929
812.431	21013
812.573	21237
812.714	21268
812.855	21382
812.997	21397
813.138	21641
813.279	21496
813.421	21507
813.562	21283
813.703	21138
813.845	20986
813.986	20811
814.127	20552
814.268	20590
814.41	20518
814.551	20465
814.692	20495
814.833	20446
814.974	20431
815.115	20590
815.256	20339
815.397	20282
815.539	20427
815.68	20248
815.821	20176
815.962	20259
816.103	20035
816.244	20164
816.385	20024
816.526	20008
816.666	19761
816.807	19677
816.948	19776
817.089	19708
817.23	19605
817.371	19575
817.512	19586
817.653	19605
817.793	19453
817.934	19639
818.075	19571
818.216	19480
818.356	19537
818.497	19320
818.638	19175
818.778	19384
818.919	19365
819.06	19213
819.2	19350
819.341	19434
819.481	19449
819.622	19689
819.762	19757
819.903	19738
820.043	19624
820.184	19651
820.324	19559
820.465	19655
820.605	19529
820.746	19441
820.886	19434
821.026	19518
821.167	19506
821.307	19578
821.447	19491
821.588	19369
821.728	19206
821.868	19141
822.008	18840
822.149	18966
822.289	18943
822.429	18829
822.569	18692
822.709	18673
822.849	18506
822.99	18467
823.13	18369
823.27	18426
823.41	18391
823.55	18296
823.69	18327
823.83	18369
823.97	18171
824.11	18038
824.25	18045
824.389	18129
824.529	18167
824.669	18079
824.809	18152
824.949	18091
825.089	18053
825.228	18083
825.368	17866
825.508	17889
825.648	17889
825.787	17718
825.927	17843
826.067	17851
826.206	17775
826.346	17870
826.485	17851
826.625	17882
826.765	17783
826.904	17866
827.044	17554
827.183	17608
827.323	17543
827.462	17623
827.601	17524
827.741	17478
827.88	17600
828.02	17395
828.159	17387
828.298	17604
828.437	17600
828.577	17516
828.716	17687
828.855	17452
828.994	17269
829.134	17189
829.273	17303
829.412	17341
829.551	17136
829.69	17181
829.829	17250
829.968	17349
830.107	17402
830.246	17284
830.385	17265
830.524	17204
830.663	17159
830.802	17003
830.941	16797
831.08	16866
831.219	16881
831.357	16942
831.496	17025
831.635	16885
831.774	16877
831.913	16824
832.051	16664
832.19	16645
832.329	16786
832.467	16626
832.606	16531
832.744	16546
832.883	16683
833.022	16603
833.16	16523
833.299	16641
833.437	16584
833.576	16573
833.714	16649
833.852	16763
833.991	16706
834.129	16672
834.267	16713
834.406	16656
834.544	16706
834.682	16675
834.821	16683
834.959	16923
835.097	16569
835.235	16675
835.373	16622
835.511	16607
835.65	16588
835.788	16516
835.926	16440
836.064	16386
836.202	16413
836.34	16626
836.478	16637
836.615	16565
836.753	16588
836.891	16634
837.029	16580
837.167	16474
837.305	16508
837.443	16504
837.58	16382
837.718	16424
837.856	16481
837.993	16386
838.131	16451
838.269	16295
838.406	16459
838.544	16287
838.681	16021
838.819	16055
838.956	15968
839.094	15949
839.231	16032
839.369	16090
839.506	16440
839.643	16223
839.781	16013
839.918	15903
840.055	16002
840.193	15945
840.33	16078
840.467	15930
840.604	15987
840.742	16272
840.879	15926
841.016	15842
841.153	15888
841.29	16158
841.427	15930
841.564	16082
841.701	15991
841.838	15964
841.975	15873
842.112	15930
842.249	15800
842.385	15717
842.522	15956
842.659	15857
842.796	15762
842.933	15728
843.069	15686
843.206	15694
843.343	15789
843.479	15774
843.616	15778
843.752	15637
843.889	15530
844.025	15713
844.162	15545
844.298	15724
844.435	15667
844.571	15549
844.708	15675
844.844	15762
844.98	15709
845.117	15671
845.253	15561
845.389	15405
845.525	15534
845.661	15504
845.798	15310
845.934	15458
846.07	15245
846.206	15439
846.342	15420
846.478	15348
846.614	15287
846.75	15112
846.886	15135
847.022	15252
847.158	15207
847.294	15157
847.429	15146
847.565	15112
847.701	15321
847.837	15001
847.972	14830
848.108	14975
848.244	14914
848.379	14876
848.515	14689
848.65	14746
848.786	14746
848.921	14758
849.057	14788
849.192	14902
849.328	14849
849.463	14769
849.598	14651
849.734	14689
849.869	14533
850.004	14541
850.14	14587
850.275	14438
850.41	14454
850.545	14465
850.68	14404
850.815	14511
850.95	14556
851.085	14693
851.22	14541
851.355	14549
851.49	14446
851.625	14442
851.76	14511
851.895	14343
852.03	14362
852.165	14522
852.299	14507
852.434	14583
852.569	14476
852.703	14514
852.838	14610
852.973	14705
853.107	14663
853.242	14377
853.376	14278
853.511	14320
853.645	14248
853.78	14442
853.914	14419
854.048	14336
854.183	14328
854.317	14336
854.451	14568
854.585	14290
854.72	14282
854.854	14381
854.988	14282
855.122	14389
855.256	14259
855.39	14381
855.524	14503
855.658	14415
855.792	14442
855.926	14309
856.06	14400
856.194	14431
856.327	14286
856.461	14305
856.595	14282
856.729	14286
856.862	14503
856.996	14446
857.13	14438
857.263	14400
857.397	14495
857.53	14347
857.664	14457
857.797	14396
857.931	14480
858.064	14492
858.197	14374
858.331	14301
858.464	14355
858.597	14256
858.731	14294
858.864	14324
858.997	14370
859.13	14370
859.263	14396
859.396	14457
859.529	14336
859.662	14282
859.795	14263
859.928	14438
860.061	14457
860.194	14541
860.327	14370
860.46	14393
860.592	14461
860.725	14469
860.858	14473
860.99	14313
861.123	14317
861.256	14343
861.388	14438
861.521	15070
861.653	14248
861.786	14130
861.918	14225
862.05	14351
862.183	14320
862.315	14366
862.447	14366
862.58	14431
862.712	14092
862.844	14058
862.976	14202
863.108	14134
863.24	14552
863.372	14096
863.504	14103
863.636	14149
863.768	14149
863.9	14138
864.032	14111
864.164	14100
864.296	14153
864.428	14336
864.559	14161
864.691	14278
864.823	14088
864.954	14256
865.086	14206
865.217	14130
865.349	14126
865.48	14168
865.612	14176
865.743	14206
865.875	14168
866.006	14065
866.137	14145
866.269	14126
866.4	14084
866.531	14142
866.662	14142
866.793	13955
866.924	14111
867.055	14149
867.186	14043
867.317	14218
867.448	14012
867.579	14046
867.71	14008
867.841	13909
867.972	14107
868.103	14100
868.233	14096
868.364	14073
868.495	14271
868.625	14317
868.756	14499
868.886	14271
869.017	14434
869.147	14507
869.278	14465
869.408	14370
869.539	14313
869.669	14541
869.799	14385
869.929	14537
870.06	14484
870.19	14712
870.32	14705
870.45	14720
870.58	14781
870.71	14895
870.84	14842
870.97	14754
871.1	14864
871.23	14944
871.36	14944
871.489	14933
871.619	15017
871.749	14979
871.879	15074
872.008	15104
872.138	14967
872.267	14948
872.397	14845
872.526	14773
872.656	14765
872.785	14785
872.915	15066
873.044	15058
873.173	14944
873.303	15074
873.432	15077
873.561	15089
873.69	14998
873.819	14956
873.948	15199
874.077	14979
874.206	14994
874.335	15123
874.464	15207
874.593	15252
874.722	15321
874.851	15351
874.979	15428
875.108	15340
875.237	15302
875.365	15226
875.494	15325
875.623	15473
875.751	15351
875.88	15412
876.008	15439
876.136	15500
876.265	15774
876.393	15903
876.521	15816
876.65	15869
876.778	15724
876.906	15713
877.034	15720
877.162	15682
877.29	15629
877.418	15770
877.546	15770
877.674	15755
877.802	15793
877.93	15831
878.058	15762
878.185	15698
878.313	15694
878.441	15751
878.568	15485
878.696	15778
878.824	15656
878.951	15850
879.079	15964
879.206	16010
879.333	15865
879.461	15766
879.588	15857
879.715	15922
879.842	16086
879.97	15800
880.097	15584
880.224	15610
880.351	15610
880.478	15557
880.605	15648
880.732	15534
880.859	15899
880.986	15682
881.112	15568
881.239	15450
881.366	15344
881.493	15313
881.619	15340
881.746	15241
881.872	15249
881.999	15233
882.125	15131
882.252	15336
882.378	15214
882.505	15389
882.631	15180
882.757	15017
882.883	15089
883.01	15039
883.136	14986
883.262	14979
883.388	14925
883.514	15074
883.64	15135
883.766	14967
883.892	14872
884.018	14956
884.143	15074
884.269	15104
884.395	14804
884.52	14708
884.646	14697
884.772	14686
884.897	14705
885.023	14686
885.148	14857
885.274	14975
885.399	14864
885.524	14754
885.65	14849
885.775	14804
885.9	14853
886.025	14868
886.15	14788
886.275	14754
886.4	14670
886.525	14697
886.65	14575
886.775	14610
886.9	14914
887.025	14971
887.149	14853
887.274	14571
887.399	14518
887.523	14545
887.648	14545
887.773	14511
887.897	14575
888.021	14667
888.146	14533
888.27	14488
888.395	14712
888.519	14651
888.643	14708
888.767	14678
888.891	14427
889.015	14374
889.139	14598
889.263	14324
889.387	14636
889.511	14610
889.635	14632
889.759	14511
889.883	14415
890.006	14427
890.13	14621
890.254	14336
890.377	14507
890.501	14313
890.624	14244
890.748	14347
890.871	14332
890.995	14081
891.118	14050
891.241	14107
891.364	14191
891.488	14229
891.611	14157
891.734	14176
891.857	14252
891.98	14221
892.103	14214
892.226	14180
892.349	14103
892.471	14008
892.594	14103
892.717	14187
892.839	14191
892.962	14157
893.085	14408
893.207	14130
893.33	14145
893.452	14191
893.575	14214
893.697	14221
893.819	14286
893.941	14351
894.064	14278
894.186	14195
894.308	14126
894.43	14286
894.552	14434
894.674	14282
894.796	14172
894.918	14233
895.04	14107
895.161	14317
895.283	14339
895.405	14267
895.526	14290
895.648	14248
895.769	14339
895.891	14381
896.012	14374
896.134	14434
896.255	14396
896.376	14290
896.498	14309
896.619	14278
896.74	14351
896.861	14358
896.982	14762
897.103	14762
897.224	14610
897.345	14617
897.466	14560
897.587	14564
897.708	14796
897.828	14670
897.949	14610
898.07	14507
898.19	14514
898.311	14750
898.431	14594
898.552	14621
898.672	14788
898.792	14720
898.913	14636
899.033	14613
899.153	14518
899.273	14499
899.393	14587
899.513	14571
899.633	14545
899.753	14476
899.873	14552
899.993	14651
900.113	14461
900.232	14587
900.352	14412
900.472	14442
900.591	14374
900.711	14518
900.83	14252
900.95	14484
901.069	14480
901.189	14362
901.308	14088
901.427	14050
901.546	14039
901.665	14077
901.784	14130
901.904	13890
902.023	13947
902.141	13696
902.26	13609
902.379	13776
902.498	13628
902.617	13487
902.735	13639
902.854	13670
902.973	13594
903.091	13365
903.21	13308
903.328	13384
903.446	13381
903.565	13221
903.683	13213
903.801	13133
903.919	13217
904.038	13179
904.156	12970
904.274	13080
904.392	13000
904.51	13008
904.627	13038
904.745	13114
904.863	13015
904.981	12848
905.098	12639
905.216	12635
905.334	12772
905.451	12734
905.569	12665
905.686	12715
905.803	12654
905.921	12502
906.038	12566
906.155	12578
906.272	12372
906.389	12452
906.506	12353
906.623	12391
906.74	12228
906.857	12209
906.974	12175
907.091	12338
907.208	12429
907.324	12315
907.441	12224
907.557	12079
907.674	12049
907.79	11977
907.907	12041
908.023	12106
908.139	12133
908.256	12064
908.372	12015
908.488	11950
908.604	11878
908.72	11798
908.836	11832
908.952	11767
909.068	11832
909.184	11961
909.3	11828
909.415	11935
909.531	11809
909.647	11611
909.762	11604
909.878	11596
909.993	11642
910.108	11547
910.224	11547
910.339	11634
910.454	11410
910.57	11406
910.685	11349
910.8	11611
910.915	11570
911.03	11482
911.145	11299
911.259	11349
911.374	11235
911.489	11185
911.604	11185
911.718	11037
911.833	10987
911.947	10911
912.062	10908
912.176	11006
912.291	11083
912.405	11006
912.519	11235
912.633	11220
912.748	11121
912.862	10972
912.976	10942
913.09	10774
913.204	10904
913.318	10854
913.431	10987
913.545	10965
913.659	11067
913.772	10968
913.886	10755
914	10782
914.113	10885
914.226	10896
914.34	10881
914.453	10733
914.566	10896
914.68	10748
914.793	10717
914.906	10546
915.019	10577
915.132	10504
915.245	10512
915.358	10481
915.47	10508
915.583	10565
915.696	10538
915.809	10694
915.921	10702
916.034	10508
916.146	10542
916.259	10455
916.371	10630
916.483	10516
916.595	10375
916.708	10527
916.82	10523
916.932	10451
917.044	10500
917.156	10516
917.268	10287
917.38	10360
917.491	10436
917.603	10310
917.715	10436
917.826	10542
917.938	10337
918.049	10188
918.161	10405
918.272	10508
918.384	10478
918.495	10421
918.606	10249
918.717	10181
918.828	10246
918.939	10253
919.05	10192
919.161	10204
919.272	10051
919.383	10074
919.494	10341
919.604	10546
919.715	10242
919.826	10154
919.936	10299
920.047	10299
920.157	10287
920.267	10516
920.378	10325
920.488	10219
920.598	10493
920.708	10558
920.818	10470
920.928	10428
921.038	10710
921.148	10607
921.258	10268
921.368	10223
921.477	10051
921.587	10071
921.697	10059
921.806	10097
921.916	10044
922.025	9854
922.134	9831
922.244	9804
922.353	9819
922.462	9709
922.571	9675
922.68	9473
922.789	9553
922.898	9466
923.007	9466
923.116	9530
923.224	9504
923.333	9485
923.442	9378
923.55	9363
923.659	9393
923.767	9481
923.876	9306
923.984	9378
924.092	9237
924.201	9287
924.309	9363
924.417	9386
924.525	9363
924.633	9370
924.741	10204
924.849	9169
924.956	9306
925.064	9211
925.172	9028
925.279	9108
925.387	9184
925.494	9157
925.602	9260
925.709	9199
925.816	9131
925.924	9165
926.031	9230
926.138	9108
926.245	9230
926.352	9127
926.459	9218
926.566	9211
926.673	9062
926.779	9017
926.886	8994
926.993	8864
927.099	8857
927.206	8811
927.312	8857
927.419	8872
927.525	8861
927.631	8891
927.737	8766
927.843	8838
927.95	8648
928.056	8750
928.162	8769
928.267	8800
928.373	9336
928.479	8842
928.585	8655
928.69	8724
928.796	8788
928.901	8678
929.007	8568
929.112	8731
929.218	8632
929.323	8636
929.428	8583
929.533	8739
929.638	8492
929.743	8602
929.848	8606
929.953	8602
930.058	8492
930.163	8317
930.267	8347
930.372	8503
930.477	8301
930.581	8552
930.685	8446
930.79	8309
930.894	8370
930.998	8294
931.103	8438
931.207	8134
931.311	8024
931.415	7936
931.519	7753
931.623	7830
