Data from test_V78500241_2297.txt Node
Date: Fri Mar 25 14:49:42 CST 2022
User: usil
Spectrometer: V785-0024
Trigger mode: 0
Integration Time (sec): 4.000000E-1
Scans to average: 1
Nonlinearity correction enabled: false
Boxcar width: 0
Storing dark spectrum: false
XAxis mode: Wavelengths
Number of Pixels in Spectrum: 1024
>>>>>Begin Spectral Data<<<<<
801.071	22265
801.214	22112
801.356	21892
801.499	21641
801.641	21542
801.783	21416
801.926	21739
802.068	21534
802.211	21405
802.353	21245
802.496	21180
802.638	20971
802.78	21036
802.923	20826
803.065	20762
803.208	20895
803.35	20788
803.492	20979
803.635	21013
803.777	20872
803.919	20796
804.061	21249
804.204	21047
804.346	20815
804.488	20735
804.63	20788
804.773	20731
804.915	20758
805.057	20895
805.199	20864
805.341	20899
805.483	20864
805.626	20963
805.768	20815
805.91	20708
806.052	20804
806.194	20686
806.336	20982
806.478	20872
806.62	20735
806.762	20872
806.904	21055
807.046	21218
807.188	21283
807.33	21127
807.472	21123
807.614	20990
807.756	21039
807.898	20891
808.04	20815
808.182	21005
808.324	20902
808.465	21017
808.607	21096
808.749	21268
808.891	21272
809.033	21348
809.174	21222
809.316	21154
809.458	21188
809.6	21173
809.741	21222
809.883	21272
810.025	21431
810.166	21351
810.308	21336
810.45	21230
810.591	21211
810.733	21081
810.875	21020
811.016	20830
811.158	20781
811.299	20952
811.441	21119
811.582	21100
811.724	20948
811.865	21009
812.007	20887
812.148	21009
812.29	21036
812.431	21058
812.573	21298
812.714	21389
812.855	21351
812.997	21549
813.138	21762
813.279	21595
813.421	21545
813.562	21443
813.703	21192
813.845	21131
813.986	20925
814.127	20518
814.268	20689
814.41	20590
814.551	20526
814.692	20579
814.833	20545
814.974	20476
815.115	20552
815.256	20446
815.397	20427
815.539	20320
815.68	20164
815.821	20320
815.962	20332
816.103	20271
816.244	20058
816.385	19982
816.526	19928
816.666	19849
816.807	19727
816.948	19788
817.089	19742
817.23	19700
817.371	19643
817.512	19620
817.653	19575
817.793	19468
817.934	19647
818.075	19662
818.216	19693
818.356	19571
818.497	19426
818.638	19400
818.778	19354
818.919	19335
819.06	19278
819.2	19392
819.341	19529
819.481	19552
819.622	19685
819.762	19734
819.903	19677
820.043	19738
820.184	19662
820.324	19525
820.465	19723
820.605	19651
820.746	19632
820.886	19495
821.026	19594
821.167	19563
821.307	19780
821.447	19487
821.588	19426
821.728	19282
821.868	19145
822.008	19004
822.149	18939
822.289	19034
822.429	18806
822.569	18817
822.709	18570
822.849	18445
822.99	18506
823.13	18494
823.27	18399
823.41	18369
823.55	18209
823.69	18300
823.83	18300
823.97	18148
824.11	18129
824.25	18098
824.389	18079
824.529	18095
824.669	18106
824.809	18258
824.949	18205
825.089	18163
825.228	18182
825.368	17939
825.508	17809
825.648	17866
825.787	17832
825.927	17836
826.067	17813
826.206	17836
826.346	17733
826.485	17843
826.625	17859
826.765	17931
826.904	17870
827.044	17627
827.183	17627
827.323	17474
827.462	17634
827.601	17501
827.741	17528
827.88	17547
828.02	17452
828.159	17543
828.298	17516
828.437	17562
828.577	17520
828.716	17665
828.855	17524
828.994	17269
829.134	17265
829.273	17364
829.412	17212
829.551	17227
829.69	17223
829.829	17178
829.968	17395
830.107	17280
830.246	17208
830.385	17239
830.524	17223
830.663	17018
830.802	17094
830.941	16961
831.08	16759
831.219	16984
831.357	16934
831.496	17105
831.635	16949
831.774	16816
831.913	16675
832.051	16691
832.19	16759
832.329	16725
832.467	16580
832.606	16504
832.744	16527
832.883	16649
833.022	16512
833.16	16577
833.299	16538
833.437	16584
833.576	16550
833.714	16668
833.852	16736
833.991	16660
834.129	16729
834.267	16660
834.406	16641
834.544	16645
834.682	16641
834.821	16546
834.959	16816
835.097	16607
835.235	16702
835.373	16611
835.511	16580
835.65	16550
835.788	16519
835.926	16379
836.064	16322
836.202	16356
836.34	16569
836.478	16710
836.615	16489
836.753	16523
836.891	16580
837.029	16508
837.167	16398
837.305	16424
837.443	16386
837.58	16421
837.718	16470
837.856	16367
837.993	16310
838.131	16402
838.269	16261
838.406	16325
838.544	16249
838.681	16158
838.819	16044
838.956	15911
839.094	15911
839.231	16071
839.369	16082
839.506	16280
839.643	16120
839.781	15930
839.918	15964
840.055	15956
840.193	15937
840.33	15812
840.467	16013
840.604	15934
840.742	16112
840.879	15865
841.016	15869
841.153	15831
841.29	16063
841.427	16029
841.564	15865
841.701	15930
841.838	15789
841.975	15781
842.112	15766
842.249	15789
842.385	15686
842.522	15949
842.659	15724
842.796	15663
842.933	15743
843.069	15690
843.206	15656
843.343	15797
843.479	15686
843.616	15667
843.752	15496
843.889	15481
844.025	15625
844.162	15428
844.298	15458
844.435	15405
844.571	15397
844.708	15595
844.844	15622
844.98	15587
845.117	15584
845.253	15511
845.389	15363
845.525	15496
845.661	15401
845.798	15329
845.934	15306
846.07	15077
846.206	15283
846.342	15443
846.478	15340
846.614	15150
846.75	14937
846.886	15036
847.022	15138
847.158	15039
847.294	15017
847.429	15058
847.565	15043
847.701	15252
847.837	14815
847.972	14754
848.108	14872
848.244	14861
848.379	14731
848.515	14636
848.65	14682
848.786	14667
848.921	14765
849.057	14682
849.192	14750
849.328	14712
849.463	14670
849.598	14606
849.734	14610
849.869	14530
850.004	14514
850.14	14408
850.275	14450
850.41	14301
850.545	14488
850.68	14328
850.815	14366
850.95	14423
851.085	14549
851.22	14579
851.355	14362
851.49	14351
851.625	14362
851.76	14347
851.895	14275
852.03	14278
852.165	14465
852.299	14461
852.434	14442
852.569	14408
852.703	14526
852.838	14514
852.973	14518
853.107	14522
853.242	14442
853.376	14332
853.511	14183
853.645	14301
853.78	14351
853.914	14336
854.048	14328
854.183	14271
854.317	14301
854.451	14511
854.585	14233
854.72	14347
854.854	14393
854.988	14229
855.122	14286
855.256	14142
855.39	14320
855.524	14427
855.658	14225
855.792	14324
855.926	14423
856.06	14469
856.194	14438
856.327	14351
856.461	14305
856.595	14286
856.729	14366
856.862	14412
856.996	14404
857.13	14389
857.263	14495
857.397	14396
857.53	14271
857.664	14305
857.797	14454
857.931	14419
858.064	14385
858.197	14473
858.331	14332
858.464	14336
858.597	14355
858.731	14343
858.864	14313
858.997	14298
859.13	14332
859.263	14381
859.396	14317
859.529	14275
859.662	14256
859.795	14256
859.928	14347
860.061	14393
860.194	14495
860.327	14446
860.46	14355
860.592	14503
860.725	14347
860.858	14355
860.99	14282
861.123	14199
861.256	14282
861.388	14301
861.521	14876
861.653	14138
861.786	14149
861.918	14168
862.05	14256
862.183	14317
862.315	14240
862.447	14298
862.58	14252
862.712	14134
862.844	14050
862.976	14191
863.108	14103
863.24	14412
863.372	13974
863.504	13970
863.636	14001
863.768	14153
863.9	14043
864.032	13978
864.164	13993
864.296	14157
864.428	14206
864.559	14183
864.691	14263
864.823	14020
864.954	14107
865.086	14119
865.217	14005
865.349	13997
865.48	14115
865.612	14016
865.743	14164
865.875	14111
866.006	14077
866.137	14046
866.269	13951
866.4	14077
866.531	13944
866.662	13951
866.793	14073
866.924	14012
867.055	14069
867.186	14027
867.317	14058
867.448	13955
867.579	14008
867.71	14046
867.841	13982
867.972	14077
868.103	14149
868.233	14119
868.364	14096
868.495	14081
868.625	14267
868.756	14393
868.886	14259
869.017	14157
869.147	14336
869.278	14518
869.408	14328
869.539	14298
869.669	14328
869.799	14476
869.929	14423
870.06	14381
870.19	14739
870.32	14564
870.45	14560
870.58	14682
870.71	14895
870.84	14883
870.97	14720
871.1	14648
871.23	14868
871.36	14990
871.489	14720
871.619	14849
871.749	14845
871.879	14914
872.008	14975
872.138	14845
872.267	14891
872.397	14800
872.526	14712
872.656	14762
872.785	14750
872.915	14921
873.044	15085
873.173	14899
873.303	14986
873.432	14941
873.561	15028
873.69	14963
873.819	15055
873.948	15043
874.077	15028
874.206	14902
874.335	14963
874.464	15051
874.593	15245
874.722	15291
874.851	15313
874.979	15287
875.108	15306
875.237	15154
875.365	15180
875.494	15264
875.623	15454
875.751	15287
875.88	15298
876.008	15443
876.136	15420
876.265	15694
876.393	15857
876.521	15808
876.65	15755
876.778	15663
876.906	15671
877.034	15595
877.162	15709
877.29	15584
877.418	15641
877.546	15629
877.674	15633
877.802	15686
877.93	15690
878.058	15644
878.185	15545
878.313	15641
878.441	15641
878.568	15610
878.696	15580
878.824	15656
878.951	15739
879.079	15835
879.206	15968
879.333	15812
879.461	15751
879.588	15755
879.715	15762
879.842	15994
879.97	15823
880.097	15477
880.224	15507
880.351	15530
880.478	15557
880.605	15439
880.732	15519
880.859	15800
880.986	15584
881.112	15542
881.239	15370
881.366	15302
881.493	15313
881.619	15157
881.746	15199
881.872	15203
881.999	15116
882.125	15252
882.252	15199
882.378	15161
882.505	15218
882.631	15070
882.757	15157
882.883	15070
883.01	14960
883.136	14830
883.262	14815
883.388	14769
883.514	15017
883.64	15020
883.766	14948
883.892	14785
884.018	14906
884.143	14998
884.269	15074
884.395	14849
884.52	14689
884.646	14693
884.772	14663
884.897	14621
885.023	14705
885.148	14853
885.274	14819
885.399	14834
885.524	14644
885.65	14629
885.775	14750
885.9	14701
886.025	14826
886.15	14815
886.275	14651
886.4	14659
886.525	14792
886.65	14636
886.775	14655
886.9	14796
887.025	14910
887.149	14659
887.274	14549
887.399	14594
887.523	14530
887.648	14450
887.773	14473
887.897	14564
888.021	14575
888.146	14560
888.27	14568
888.395	14674
888.519	14598
888.643	14549
888.767	14533
888.891	14507
889.015	14351
889.139	14492
889.263	14377
889.387	14461
889.511	14674
889.635	14499
889.759	14370
889.883	14366
890.006	14499
890.13	14571
890.254	14320
890.377	14339
890.501	14206
890.624	14157
890.748	14252
890.871	14161
890.995	13986
891.118	14043
891.241	14035
891.364	14157
891.488	14225
891.611	14123
891.734	14058
891.857	14119
891.98	14062
892.103	14119
892.226	14069
892.349	14092
892.471	13963
892.594	14081
892.717	14153
892.839	14145
892.962	14088
893.085	14244
893.207	14065
893.33	13928
893.452	14065
893.575	14111
893.697	14062
893.819	14317
893.941	14377
894.064	14290
894.186	14050
894.308	14107
894.43	14282
894.552	14218
894.674	14271
894.796	14084
894.918	14069
895.04	14164
895.161	14248
895.283	14214
895.405	14107
895.526	14115
895.648	14176
895.769	14301
895.891	14256
896.012	14320
896.134	14320
896.255	14267
896.376	14233
896.498	14286
896.619	14328
896.74	14298
896.861	14278
896.982	14640
897.103	14826
897.224	14659
897.345	14492
897.466	14499
897.587	14473
897.708	14606
897.828	14473
897.949	14522
898.07	14450
898.19	14526
898.311	14689
898.431	14503
898.552	14575
898.672	14693
898.792	14712
898.913	14708
899.033	14670
899.153	14492
899.273	14351
899.393	14396
899.513	14495
899.633	14530
899.753	14476
899.873	14339
899.993	14480
900.113	14530
900.232	14587
900.352	14396
900.472	14446
900.591	14294
900.711	14362
900.83	14301
900.95	14404
901.069	14396
901.189	14298
901.308	14012
901.427	13989
901.546	14043
901.665	14046
901.784	14077
901.904	13967
902.023	13731
902.141	13655
902.26	13636
902.379	13658
902.498	13567
902.617	13506
902.735	13601
902.854	13529
902.973	13597
903.091	13240
903.21	13365
903.328	13320
903.446	13194
903.565	13149
903.683	13278
903.801	13065
903.919	13145
904.038	13152
904.156	12947
904.274	13031
904.392	12970
904.51	12894
904.627	12970
904.745	12970
904.863	13046
904.981	12833
905.098	12688
905.216	12631
905.334	12783
905.451	12681
905.569	12658
905.686	12764
905.803	12692
905.921	12486
906.038	12502
906.155	12506
906.272	12403
906.389	12429
906.506	12197
906.623	12262
906.74	12243
906.857	12194
906.974	12076
907.091	12330
907.208	12357
907.324	12308
907.441	12167
907.557	12057
907.674	12038
907.79	12015
907.907	11950
908.023	12030
908.139	11992
908.256	12015
908.372	11916
908.488	11931
908.604	11779
908.72	11722
908.836	11737
908.952	11691
909.068	11748
909.184	11893
909.3	11764
909.415	11813
909.531	11748
909.647	11600
909.762	11543
909.878	11532
909.993	11566
910.108	11528
910.224	11558
910.339	11524
910.454	11482
910.57	11490
910.685	11395
910.8	11649
910.915	11695
911.03	11467
911.145	11231
911.259	11212
911.374	11193
911.489	11102
911.604	11140
911.718	11041
911.833	10972
911.947	10942
912.062	10786
912.176	10961
912.291	11037
912.405	10961
912.519	11128
912.633	11166
912.748	11018
912.862	11022
912.976	10866
913.09	10702
913.204	10774
913.318	10831
913.431	10934
913.545	10961
913.659	11022
913.772	10854
913.886	10771
914	10786
914.113	10839
914.226	10847
914.34	10854
914.453	10664
914.566	10801
914.68	10778
914.793	10656
914.906	10508
915.019	10432
915.132	10432
915.245	10531
915.358	10512
915.47	10424
915.583	10508
915.696	10512
915.809	10637
915.921	10630
916.034	10428
916.146	10478
916.259	10398
916.371	10504
916.483	10531
916.595	10356
916.708	10462
916.82	10379
916.932	10363
917.044	10443
917.156	10344
917.268	10371
917.38	10303
917.491	10249
917.603	10287
917.715	10432
917.826	10440
917.938	10303
918.049	10280
918.161	10306
918.272	10382
918.384	10470
918.495	10440
918.606	10200
918.717	10188
918.828	10234
918.939	10253
919.05	10105
919.161	10223
919.272	10002
919.383	10040
919.494	10310
919.604	10379
919.715	10158
919.826	10128
919.936	10166
920.047	10223
920.157	10192
920.267	10462
920.378	10215
920.488	10246
920.598	10386
920.708	10569
920.818	10424
920.928	10421
921.038	10569
921.148	10523
921.258	10223
921.368	10173
921.477	10124
921.587	10029
921.697	10002
921.806	10059
921.916	10048
922.025	9793
922.134	9751
922.244	9751
922.353	9869
922.462	9679
922.571	9587
922.68	9420
922.789	9485
922.898	9443
923.007	9469
923.116	9466
923.224	9504
923.333	9359
923.442	9336
923.55	9291
923.659	9298
923.767	9466
923.876	9302
923.984	9393
924.092	9237
924.201	9382
924.309	9359
924.417	9393
924.525	9256
924.633	9302
924.741	10253
924.849	9119
924.956	9268
925.064	9146
925.172	9036
925.279	9089
925.387	9241
925.494	9116
925.602	9287
925.709	9241
925.816	9066
925.924	9100
926.031	9211
926.138	9123
926.245	9142
926.352	9089
926.459	9195
926.566	9184
926.673	9116
926.779	8979
926.886	8982
926.993	8948
927.099	8857
927.206	8769
927.312	8785
927.419	8819
927.525	8826
927.631	8929
927.737	8758
927.843	8792
927.95	8537
928.056	8686
928.162	8769
928.267	8819
928.373	9397
928.479	8857
928.585	8636
928.69	8708
928.796	8735
928.901	8686
929.007	8476
929.112	8693
929.218	8670
929.323	8549
929.428	8499
929.533	8659
929.638	8450
929.743	8499
929.848	8564
929.953	8556
930.058	8511
930.163	8286
930.267	8370
930.372	8461
930.477	8305
930.581	8545
930.685	8427
930.79	8320
930.894	8309
930.998	8271
931.103	8446
931.207	8088
931.311	8020
931.415	7989
931.519	7818
931.623	7772
