Data from test_V78500241_276.txt Node
Date: Fri Mar 25 14:35:38 CST 2022
User: usil
Spectrometer: V785-0024
Trigger mode: 0
Integration Time (sec): 4.000000E-1
Scans to average: 1
Nonlinearity correction enabled: false
Boxcar width: 0
Storing dark spectrum: false
XAxis mode: Wavelengths
Number of Pixels in Spectrum: 1024
>>>>>Begin Spectral Data<<<<<
801.071	27222
801.214	27154
801.356	26952
801.499	26929
801.641	26746
801.783	26746
801.926	26716
802.068	26777
802.211	26385
802.353	26651
802.496	26339
802.638	26358
802.78	26320
802.923	26221
803.065	26088
803.208	26195
803.35	26210
803.492	26324
803.635	26450
803.777	26324
803.919	26328
804.061	26667
804.204	26320
804.346	26309
804.488	26119
804.63	26248
804.773	26020
804.915	26229
805.057	26309
805.199	26385
805.341	26259
805.483	26271
805.626	26320
805.768	26229
805.91	26343
806.052	26328
806.194	26271
806.336	26355
806.478	26320
806.62	26282
806.762	26450
806.904	26511
807.046	26785
807.188	26613
807.33	26609
807.472	26769
807.614	26617
807.756	26739
807.898	26476
808.04	26393
808.182	26507
808.324	26609
808.465	26739
808.607	26826
808.749	26963
808.891	27001
809.033	27192
809.174	26956
809.316	27157
809.458	26826
809.6	26697
809.741	26887
809.883	26914
810.025	27020
810.166	27131
810.308	27089
810.45	26910
810.591	26849
810.733	26842
810.875	26739
811.016	26583
811.158	26511
811.299	26830
811.441	26765
811.582	26845
811.724	26598
811.865	26739
812.007	26716
812.148	26632
812.29	26651
812.431	26883
812.573	26880
812.714	27123
812.855	27142
812.997	27306
813.138	27389
813.279	27222
813.421	27195
813.562	27199
813.703	26769
813.845	26857
813.986	26678
814.127	26434
814.268	26252
814.41	26343
814.551	26183
814.692	26191
814.833	26183
814.974	26180
815.115	26191
815.256	26035
815.397	26126
815.539	26161
815.68	25970
815.821	25837
815.962	26054
816.103	25902
816.244	25849
816.385	25738
816.526	25795
816.666	25518
816.807	25468
816.948	25438
817.089	25441
817.23	25430
817.371	25274
817.512	25293
817.653	25308
817.793	25206
817.934	25110
818.075	25476
818.216	25487
818.356	25339
818.497	25164
818.638	25034
818.778	25034
818.919	24947
819.06	25103
819.2	25194
819.341	25274
819.481	25179
819.622	25259
819.762	25514
819.903	25502
820.043	25472
820.184	25373
820.324	25293
820.465	25422
820.605	25403
820.746	25266
820.886	25187
821.026	25141
821.167	25312
821.307	25221
821.447	25088
821.588	25072
821.728	25000
821.868	24711
822.008	24734
822.149	24684
822.289	24757
822.429	24452
822.569	24254
822.709	24327
822.849	24205
822.99	24171
823.13	24186
823.27	24015
823.41	23767
823.55	23904
823.69	24034
823.83	24007
823.97	23805
824.11	23851
824.25	23684
824.389	23699
824.529	23764
824.669	23687
824.809	23714
824.949	23832
825.089	23752
825.228	23745
825.368	23554
825.508	23509
825.648	23596
825.787	23585
825.927	23474
826.067	23440
826.206	23383
826.346	23627
826.485	23478
826.625	23448
826.765	23566
826.904	23627
827.044	23242
827.183	23109
827.323	23006
827.462	23311
827.601	23216
827.741	23155
827.88	23098
828.02	23083
828.159	23121
828.298	23128
828.437	23193
828.577	23121
828.716	23178
828.855	23064
828.994	22809
829.134	22797
829.273	22900
829.412	22908
829.551	22828
829.69	22889
829.829	22877
829.968	22938
830.107	22934
830.246	22713
830.385	22702
830.524	22656
830.663	22584
830.802	22637
830.941	22481
831.08	22470
831.219	22493
831.357	22436
831.496	22668
831.635	22341
831.774	22261
831.913	22303
832.051	22124
832.19	22120
832.329	22246
832.467	22101
832.606	21983
832.744	21842
832.883	21937
833.022	22109
833.16	22109
833.299	22128
833.437	22082
833.576	22097
833.714	22143
833.852	22139
833.991	22025
834.129	22169
834.267	22116
834.406	22105
834.544	22128
834.682	22120
834.821	22021
834.959	22177
835.097	22082
835.235	22044
835.373	22078
835.511	22067
835.65	21884
835.788	21846
835.926	21686
836.064	21717
836.202	21732
836.34	21827
836.478	22029
836.615	21869
836.753	21918
836.891	21991
837.029	21911
837.167	21892
837.305	21770
837.443	21732
837.58	21720
837.718	21804
837.856	21671
837.993	21720
838.131	21808
838.269	21614
838.406	21583
838.544	21526
838.681	21370
838.819	21401
838.956	21249
839.094	21211
839.231	21195
839.369	21226
839.506	21519
839.643	21389
839.781	21138
839.918	21070
840.055	21150
840.193	21127
840.33	21001
840.467	21249
840.604	21119
840.742	21408
840.879	20918
841.016	21051
841.153	20941
841.29	21123
841.427	21150
841.564	21017
841.701	21028
841.838	20944
841.975	20906
842.112	20986
842.249	20895
842.385	20769
842.522	20986
842.659	20826
842.796	20724
842.933	20693
843.069	20758
843.206	20659
843.343	20758
843.479	20769
843.616	20849
843.752	20564
843.889	20514
844.025	20773
844.162	20556
844.298	20564
844.435	20511
844.571	20564
844.708	20556
844.844	20621
844.98	20712
845.117	20682
845.253	20476
845.389	20343
845.525	20511
845.661	20545
845.798	20415
845.934	20419
846.07	20457
846.206	20575
846.342	20609
846.478	20400
846.614	20225
846.75	20077
846.886	20046
847.022	20092
847.158	20100
847.294	20077
847.429	20001
847.565	20046
847.701	20229
847.837	19837
847.972	19738
848.108	19738
848.244	19803
848.379	19700
848.515	19575
848.65	19559
848.786	19609
848.921	19460
849.057	19635
849.192	19655
849.328	19605
849.463	19681
849.598	19559
849.734	19445
849.869	19529
850.004	19358
850.14	19381
850.275	19354
850.41	19228
850.545	19312
850.68	19384
850.815	19335
850.95	19072
851.085	19460
851.22	19369
851.355	19327
851.49	19270
851.625	19160
851.76	19270
851.895	19053
852.03	19278
852.165	19304
852.299	19297
852.434	19407
852.569	19236
852.703	19251
852.838	19358
852.973	19369
853.107	19225
853.242	19156
853.376	19103
853.511	18993
853.645	18981
853.78	19282
853.914	19095
854.048	19126
854.183	19019
854.317	19183
854.451	19232
854.585	19084
854.72	19050
854.854	19194
854.988	19046
855.122	19095
855.256	18935
855.39	19099
855.524	19031
855.658	19053
855.792	19118
855.926	19042
856.06	19137
856.194	19206
856.327	19114
856.461	19050
856.595	19065
856.729	19034
856.862	19179
856.996	19107
857.13	19213
857.263	19175
857.397	19221
857.53	19088
857.664	19091
857.797	19088
857.931	19259
858.064	19061
858.197	19137
858.331	18989
858.464	18878
858.597	19004
858.731	18989
858.864	18909
858.997	18993
859.13	18977
859.263	19031
859.396	19088
859.529	18981
859.662	18996
859.795	18993
859.928	18939
860.061	19122
860.194	19225
860.327	18958
860.46	18962
860.592	19080
860.725	19145
860.858	19118
860.99	19072
861.123	18993
861.256	18833
861.388	19072
861.521	19628
861.653	18886
861.786	18848
861.918	18875
862.05	18924
862.183	19168
862.315	19084
862.447	19141
862.58	19069
862.712	18779
862.844	18772
862.976	18852
863.108	18787
863.24	18993
863.372	18715
863.504	18715
863.636	18673
863.768	18753
863.9	18719
864.032	18646
864.164	18692
864.296	18684
864.428	18852
864.559	18802
864.691	18779
864.823	18745
864.954	18700
865.086	18631
865.217	18639
865.349	18616
865.48	18642
865.612	18627
865.743	18783
865.875	18692
866.006	18513
866.137	18715
866.269	18642
866.4	18559
866.531	18608
866.662	18528
866.793	18627
866.924	18620
867.055	18665
867.186	18688
867.317	18509
867.448	18471
867.579	18582
867.71	18422
867.841	18403
867.972	18688
868.103	18574
868.233	18665
868.364	18585
868.495	18593
868.625	18791
868.756	18871
868.886	18703
869.017	18741
869.147	18863
869.278	18829
869.408	18772
869.539	18779
869.669	18928
869.799	18856
869.929	18890
870.06	19012
870.19	19126
870.32	19114
870.45	19187
870.58	19164
870.71	19335
870.84	19285
870.97	19202
871.1	19209
871.23	19327
871.36	19445
871.489	19126
871.619	19217
871.749	19377
871.879	19419
872.008	19502
872.138	19354
872.267	19430
872.397	19263
872.526	19217
872.656	19141
872.785	19251
872.915	19415
873.044	19460
873.173	19362
873.303	19396
873.432	19483
873.561	19537
873.69	19453
873.819	19495
873.948	19552
874.077	19365
874.206	19358
874.335	19350
874.464	19624
874.593	19742
874.722	19723
874.851	19696
874.979	19761
875.108	19803
875.237	19681
875.365	19632
875.494	19670
875.623	19738
875.751	19643
875.88	19738
876.008	19852
876.136	19936
876.265	20046
876.393	20286
876.521	20210
876.65	20122
876.778	20130
876.906	20054
877.034	20081
877.162	20077
877.29	19940
877.418	20134
877.546	20088
877.674	20172
877.802	20115
877.93	20100
878.058	20142
878.185	19932
878.313	20058
878.441	20153
878.568	19989
878.696	19993
878.824	20111
878.951	20168
879.079	20332
879.206	20381
879.333	20412
879.461	20111
879.588	20351
879.715	20343
879.842	20473
879.97	20225
880.097	19894
880.224	19970
880.351	19997
880.478	20027
880.605	19868
880.732	19936
880.859	20263
880.986	19951
881.112	19940
881.239	19776
881.366	19761
881.493	19605
881.619	19529
881.746	19620
881.872	19537
881.999	19590
882.125	19460
882.252	19559
882.378	19693
882.505	19655
882.631	19529
882.757	19285
882.883	19335
883.01	19297
883.136	19373
883.262	19289
883.388	19091
883.514	19236
883.64	19365
883.766	19301
883.892	19069
884.018	19206
884.143	19316
884.269	19453
884.395	19046
884.52	18981
884.646	19061
884.772	18890
884.897	18833
885.023	18977
885.148	19194
885.274	19080
885.399	19042
885.524	19000
885.65	18958
885.775	19103
885.9	18871
886.025	19042
886.15	19038
886.275	18928
886.4	18776
886.525	18901
886.65	18859
886.775	18947
886.9	19099
887.025	19190
887.149	18966
887.274	18764
887.399	18654
887.523	18745
887.648	18696
887.773	18654
887.897	18840
888.021	18787
888.146	18639
888.27	18726
888.395	18825
888.519	18703
888.643	18817
888.767	18783
888.891	18593
889.015	18582
889.139	18616
889.263	18513
889.387	18623
889.511	18627
889.635	18627
889.759	18498
889.883	18509
890.006	18570
890.13	18483
890.254	18574
890.377	18429
890.501	18304
890.624	18133
890.748	18277
890.871	18129
890.995	18072
891.118	17984
891.241	18076
891.364	18140
891.488	18186
891.611	18121
891.734	18171
891.857	18174
891.98	18197
892.103	18220
892.226	18224
892.349	18060
892.471	17927
892.594	18060
892.717	18079
892.839	18003
892.962	18125
893.085	18125
893.207	18087
893.33	17939
893.452	18034
893.575	18079
893.697	18003
893.819	18152
893.941	18254
894.064	18178
894.186	17965
894.308	17961
894.43	18114
894.552	18285
894.674	18155
894.796	18022
894.918	18076
895.04	18117
895.161	18152
895.283	18121
895.405	17942
895.526	18091
895.648	18072
895.769	18133
895.891	18216
896.012	18007
896.134	18197
896.255	18171
896.376	18091
896.498	18163
896.619	18152
896.74	18251
896.861	18194
896.982	18536
897.103	18673
897.224	18429
897.345	18311
897.466	18372
897.587	18384
897.708	18437
897.828	18414
897.949	18426
898.07	18270
898.19	18350
898.311	18319
898.431	18296
898.552	18350
898.672	18437
898.792	18471
898.913	18342
899.033	18342
899.153	18114
899.273	17965
899.393	18079
899.513	18201
899.633	18140
899.753	18079
899.873	18140
899.993	18209
900.113	18049
900.232	18148
900.352	18045
900.472	17977
900.591	17935
900.711	17999
900.83	17901
900.95	18079
901.069	18095
901.189	17885
901.308	17592
901.427	17543
901.546	17554
901.665	17649
901.784	17577
901.904	17482
902.023	17349
902.141	17159
902.26	17140
902.379	17128
902.498	17143
902.617	17048
902.735	17132
902.854	17018
902.973	16968
903.091	16805
903.21	16828
903.328	16748
903.446	16812
903.565	16626
903.683	16561
903.801	16462
903.919	16493
904.038	16607
904.156	16348
904.274	16367
904.392	16360
904.51	16352
904.627	16318
904.745	16481
904.863	16303
904.981	16120
905.098	15960
905.216	16055
905.334	16086
905.451	15972
905.569	15998
905.686	16109
905.803	16097
905.921	15827
906.038	15911
906.155	15774
906.272	15690
906.389	15759
906.506	15614
906.623	15576
906.74	15530
906.857	15488
906.974	15412
907.091	15545
907.208	15762
907.324	15603
907.441	15526
907.557	15252
907.674	15275
907.79	15272
907.907	15192
908.023	15344
908.139	15226
908.256	15154
908.372	15184
908.488	15161
908.604	15036
908.72	14971
908.836	14982
908.952	14872
909.068	14872
909.184	14986
909.3	14941
909.415	14941
909.531	14994
909.647	14758
909.762	14731
909.878	14617
909.993	14617
910.108	14648
910.224	14606
910.339	14632
910.454	14530
910.57	14552
910.685	14427
910.8	14754
910.915	14682
911.03	14526
911.145	14393
911.259	14389
911.374	14317
911.489	14237
911.604	14138
911.718	14050
911.833	14012
911.947	13986
912.062	13868
912.176	14050
912.291	14039
912.405	14103
912.519	14263
912.633	14191
912.748	14107
912.862	13989
912.976	13928
913.09	13700
913.204	13803
913.318	13883
913.431	13967
913.545	13986
913.659	13928
913.772	13868
913.886	13761
914	13719
914.113	13795
914.226	13837
914.34	13750
914.453	13704
914.566	13746
914.68	13761
914.793	13586
914.906	13331
915.019	13362
915.132	13221
915.245	13369
915.358	13396
915.47	13377
915.583	13327
915.696	13358
915.809	13457
915.921	13521
916.034	13289
916.146	13327
916.259	13324
916.371	13426
916.483	13331
916.595	13255
916.708	13244
916.82	13171
916.932	13285
917.044	13114
917.156	13137
917.268	13072
917.38	13141
917.491	13008
917.603	13126
917.715	13031
917.826	13145
917.938	13046
918.049	12966
918.161	12989
918.272	13282
918.384	13190
918.495	13031
918.606	12913
918.717	12757
918.828	12890
918.939	12901
919.05	12757
919.161	12795
919.272	12688
919.383	12772
919.494	12890
919.604	12973
919.715	12913
919.826	12795
919.936	12760
920.047	12897
920.157	12878
920.267	12996
920.378	12764
920.488	12886
920.598	12852
920.708	13072
920.818	12897
920.928	12924
921.038	13110
921.148	13038
921.258	12787
921.368	12688
921.477	12555
921.587	12654
921.697	12509
921.806	12566
921.916	12483
922.025	12323
922.134	12178
922.244	12251
922.353	12262
922.462	12133
922.571	12129
922.68	11885
922.789	11889
922.898	11847
923.007	11824
923.116	11885
923.224	11828
923.333	11843
923.442	11783
923.55	11707
923.659	11760
923.767	11870
923.876	11756
923.984	11726
924.092	11627
924.201	11733
924.309	11684
924.417	11649
924.525	11562
924.633	11589
924.741	12536
924.849	11448
924.956	11558
925.064	11444
925.172	11353
925.279	11471
925.387	11429
925.494	11406
925.602	11581
925.709	11516
925.816	11356
925.924	11376
926.031	11455
926.138	11368
926.245	11471
926.352	11387
926.459	11471
926.566	11391
926.673	11280
926.779	11216
926.886	11235
926.993	11178
927.099	11121
927.206	11041
927.312	10942
927.419	11094
927.525	11006
927.631	11018
927.737	10923
927.843	10892
927.95	10820
928.056	10854
928.162	10850
928.267	10915
928.373	11520
928.479	10976
928.585	10733
928.69	10889
928.796	10850
928.901	10767
929.007	10660
929.112	10763
929.218	10748
929.323	10641
929.428	10584
929.533	10763
929.638	10561
929.743	10550
929.848	10702
929.953	10656
930.058	10554
930.163	10382
930.267	10409
930.372	10500
930.477	10325
930.581	10584
930.685	10386
930.79	10261
930.894	10253
930.998	10158
931.103	10379
931.207	10017
931.311	9945
931.415	9907
931.519	9736
931.623	9652
