Data from test_V78500241_182.txt Node
Date: Fri Mar 25 14:34:59 CST 2022
User: usil
Spectrometer: V785-0024
Trigger mode: 0
Integration Time (sec): 4.000000E-1
Scans to average: 1
Nonlinearity correction enabled: false
Boxcar width: 0
Storing dark spectrum: false
XAxis mode: Wavelengths
Number of Pixels in Spectrum: 1024
>>>>>Begin Spectral Data<<<<<
801.071	28630
801.214	28542
801.356	28344
801.499	28238
801.641	28040
801.783	27964
801.926	27934
802.068	27918
802.211	27884
802.353	27743
802.496	27500
802.638	27694
802.78	27595
802.923	27469
803.065	27389
803.208	27507
803.35	27462
803.492	27500
803.635	27762
803.777	27580
803.919	27603
804.061	27975
804.204	27561
804.346	27538
804.488	27439
804.63	27473
804.773	27526
804.915	27488
805.057	27656
805.199	27557
805.341	27656
805.483	27739
805.626	27606
805.768	27549
805.91	27679
806.052	27549
806.194	27583
806.336	27701
806.478	27766
806.62	27633
806.762	27724
806.904	27895
807.046	28291
807.188	28204
807.33	28284
807.472	28348
807.614	28215
807.756	28401
807.898	28341
808.04	28325
808.182	28565
808.324	28778
808.465	29014
808.607	29280
808.749	29589
808.891	29954
809.033	29843
809.174	29729
809.316	29421
809.458	29261
809.6	28858
809.741	28744
809.883	28634
810.025	28721
810.166	28637
810.308	28497
810.45	28459
810.591	28253
810.733	28265
810.875	28211
811.016	27975
811.158	27888
811.299	28158
811.441	28173
811.582	28173
811.724	28109
811.865	28086
812.007	28002
812.148	27991
812.29	27979
812.431	28147
812.573	28367
812.714	28219
812.855	28489
812.997	28542
813.138	28637
813.279	28694
813.421	28417
813.562	28382
813.703	28204
813.845	28040
813.986	27747
814.127	27652
814.268	27652
814.41	27557
814.551	27481
814.692	27698
814.833	27599
814.974	27561
815.115	27454
815.256	27367
815.397	27264
815.539	27332
815.68	27184
815.821	27108
815.962	27169
816.103	27180
816.244	27104
816.385	26910
816.526	26956
816.666	26762
816.807	26617
816.948	26678
817.089	26682
817.23	26689
817.371	26606
817.512	26613
817.653	26480
817.793	26560
817.934	26575
818.075	26674
818.216	26651
818.356	26575
818.497	26332
818.638	26206
818.778	26301
818.919	26309
819.06	26339
819.2	26514
819.341	26499
819.481	26434
819.622	26621
819.762	26743
819.903	26659
820.043	26670
820.184	26556
820.324	26423
820.465	26781
820.605	26617
820.746	26602
820.886	26347
821.026	26480
821.167	26381
821.307	26438
821.447	26400
821.588	26332
821.728	26107
821.868	26084
822.008	25890
822.149	25849
822.289	25887
822.429	25582
822.569	25518
822.709	25476
822.849	25403
822.99	25388
823.13	25202
823.27	25114
823.41	25221
823.55	25156
823.69	25042
823.83	25050
823.97	25114
824.11	24920
824.25	24856
824.389	24852
824.529	24951
824.669	24802
824.809	24947
824.949	24962
825.089	24951
825.228	25015
825.368	24681
825.508	24639
825.648	24753
825.787	24795
825.927	24661
826.067	24620
826.206	24574
826.346	24612
826.485	24726
826.625	24620
826.765	24776
826.904	24871
827.044	24422
827.183	24376
827.323	24369
827.462	24483
827.601	24384
827.741	24334
827.88	24395
828.02	24205
828.159	24319
828.298	24285
828.437	24342
828.577	24262
828.716	24334
828.855	24254
828.994	24068
829.134	24007
829.273	24076
829.412	24091
829.551	23927
829.69	24018
829.829	23931
829.968	24114
830.107	24034
830.246	24049
830.385	24007
830.524	23885
830.663	23828
830.802	23714
830.941	23581
831.08	23478
831.219	23726
831.357	23649
831.496	23764
831.635	23516
831.774	23566
831.913	23486
832.051	23330
832.19	23311
832.329	23337
832.467	23288
832.606	23170
832.744	23212
832.883	23223
833.022	23174
833.16	23235
833.299	23083
833.437	23254
833.576	23307
833.714	23185
833.852	23269
833.991	23360
834.129	23326
834.267	23284
834.406	23349
834.544	23277
834.682	23223
834.821	23124
834.959	23429
835.097	23178
835.235	23337
835.373	23265
835.511	23086
835.65	23048
835.788	23071
835.926	22919
836.064	22869
836.202	22869
836.34	23147
836.478	23033
836.615	22885
836.753	23003
836.891	23048
837.029	22987
837.167	22938
837.305	22866
837.443	22892
837.58	22938
837.718	22816
837.856	22873
837.993	22889
838.131	22691
838.269	22698
838.406	22771
838.544	22527
838.681	22417
838.819	22440
838.956	22314
839.094	22337
839.231	22215
839.369	22424
839.506	22675
839.643	22512
839.781	22261
839.918	22074
840.055	22173
840.193	22105
840.33	22112
840.467	22188
840.604	22196
840.742	22394
840.879	21994
841.016	22036
841.153	22143
841.29	22234
841.427	22143
841.564	22090
841.701	22086
841.838	22044
841.975	21994
842.112	22010
842.249	21842
842.385	21888
842.522	21972
842.659	21934
842.796	21774
842.933	21911
843.069	21880
843.206	21800
843.343	21911
843.479	21895
843.616	21884
843.752	21576
843.889	21728
844.025	21713
844.162	21644
844.298	21762
844.435	21641
844.571	21568
844.708	21622
844.844	21819
844.98	21819
845.117	21911
845.253	21766
845.389	21831
845.525	22051
845.661	22398
845.798	22816
845.934	23315
846.07	23368
846.206	23448
846.342	23231
846.478	22481
846.614	22021
846.75	21572
846.886	21420
847.022	21329
847.158	21161
847.294	21199
847.429	21116
847.565	21093
847.701	21252
847.837	20792
847.972	20785
848.108	20838
848.244	20925
848.379	20606
848.515	20537
848.65	20644
848.786	20552
848.921	20522
849.057	20674
849.192	20663
849.328	20587
849.463	20549
849.598	20621
849.734	20530
849.869	20442
850.004	20389
850.14	20396
850.275	20389
850.41	20309
850.545	20282
850.68	20328
850.815	20278
850.95	20309
851.085	20499
851.22	20427
851.355	20294
851.49	20309
851.625	20275
851.76	20199
851.895	20168
852.03	20065
852.165	20263
852.299	20290
852.434	20358
852.569	20244
852.703	20385
852.838	20267
852.973	20400
853.107	20389
853.242	20271
853.376	20180
853.511	19986
853.645	20065
853.78	20138
853.914	20069
854.048	20088
854.183	20088
854.317	20210
854.451	20259
854.585	20039
854.72	20054
854.854	20172
854.988	19970
855.122	20100
855.256	19944
855.39	20046
855.524	20206
855.658	19982
855.792	20130
855.926	20134
856.06	20248
856.194	20168
856.327	20103
856.461	20001
856.595	19902
856.729	20043
856.862	20275
856.996	20001
857.13	20191
857.263	20111
857.397	20107
857.53	19959
857.664	20100
857.797	20145
857.931	20043
858.064	20005
858.197	20191
858.331	20065
858.464	19959
858.597	20043
858.731	20012
858.864	19970
858.997	20065
859.13	19955
859.263	20024
859.396	20039
859.529	19928
859.662	19951
859.795	20001
859.928	19967
860.061	20164
860.194	20187
860.327	20046
860.46	20008
860.592	20210
860.725	20020
860.858	20088
860.99	20008
861.123	19841
861.256	19890
861.388	19871
861.521	20701
861.653	19856
861.786	19856
861.918	19852
862.05	19837
862.183	20008
862.315	20016
862.447	20145
862.58	20024
862.712	19852
862.844	19719
862.976	19753
863.108	19841
863.24	20134
863.372	19715
863.504	19674
863.636	19696
863.768	19780
863.9	19715
864.032	19586
864.164	19624
864.296	19715
864.428	19826
864.559	19776
864.691	19803
864.823	19689
864.954	19677
865.086	19852
865.217	19533
865.349	19502
865.48	19609
865.612	19544
865.743	19681
865.875	19609
866.006	19616
866.137	19605
866.269	19632
866.4	19597
866.531	19476
866.662	19537
866.793	19605
866.924	19548
867.055	19491
867.186	19525
867.317	19369
867.448	19487
867.579	19556
867.71	19518
867.841	19525
867.972	19540
868.103	19559
868.233	19601
868.364	19597
868.495	19685
868.625	19761
868.756	19887
868.886	19685
869.017	19597
869.147	19826
869.278	19925
869.408	19784
869.539	19772
869.669	19868
869.799	19826
869.929	19875
870.06	19837
870.19	20081
870.32	19970
870.45	20073
870.58	20084
870.71	20309
870.84	20202
870.97	20058
871.1	20195
871.23	20328
871.36	20252
871.489	20282
871.619	20290
871.749	20377
871.879	20400
872.008	20450
872.138	20351
872.267	20404
872.397	20301
872.526	20153
872.656	20244
872.785	20237
872.915	20206
873.044	20434
873.173	20347
873.303	20488
873.432	20412
873.561	20404
873.69	20366
873.819	20396
873.948	20632
874.077	20457
874.206	20431
874.335	20358
874.464	20522
874.593	20598
874.722	20594
874.851	20632
874.979	20735
875.108	20762
875.237	20556
875.365	20655
875.494	20659
875.623	20811
875.751	20636
875.88	20781
876.008	20796
876.136	20937
876.265	20975
876.393	21275
876.521	21214
876.65	21173
876.778	21112
876.906	21062
877.034	21192
877.162	21096
877.29	21100
877.418	21104
877.546	21291
877.674	21017
877.802	21100
877.93	21157
878.058	21062
878.185	21005
878.313	21169
878.441	21294
878.568	21020
878.696	21188
878.824	21211
878.951	21519
879.079	21637
879.206	21926
879.333	21964
879.461	22059
879.588	22196
879.715	22162
879.842	22367
879.97	22036
880.097	21724
880.224	21386
880.351	21298
880.478	21291
880.605	21230
880.732	21127
880.859	21477
880.986	21180
881.112	21169
881.239	20979
881.366	20944
881.493	20762
881.619	20849
881.746	20807
881.872	20804
881.999	20804
882.125	20705
882.252	20758
882.378	20872
882.505	20944
882.631	20659
882.757	20579
882.883	20602
883.01	20469
883.136	20457
883.262	20370
883.388	20476
883.514	20514
883.64	20503
883.766	20488
883.892	20522
884.018	20370
884.143	20480
884.269	20564
884.395	20320
884.52	20134
884.646	20172
884.772	20161
884.897	20073
885.023	20183
885.148	20221
885.274	20225
885.399	20218
885.524	20164
885.65	20115
885.775	20069
885.9	20111
886.025	20202
886.15	20092
886.275	20065
886.4	19951
886.525	19970
886.65	19967
886.775	19921
886.9	20084
887.025	20290
887.149	20069
887.274	19860
887.399	19769
887.523	19704
887.648	19708
887.773	19731
887.897	19890
888.021	19772
888.146	19727
888.27	19845
888.395	19974
888.519	19791
888.643	19784
888.767	19677
888.891	19704
889.015	19548
889.139	19514
889.263	19533
889.387	19559
889.511	19757
889.635	19567
889.759	19464
889.883	19403
890.006	19472
890.13	19643
890.254	19339
890.377	19453
890.501	19419
890.624	19346
890.748	19289
890.871	19175
890.995	19095
891.118	19027
891.241	19069
891.364	19126
891.488	19084
891.611	18989
891.734	19027
891.857	19118
891.98	19057
892.103	19202
892.226	19042
892.349	18993
892.471	18867
892.594	18970
892.717	18970
892.839	18973
892.962	19027
893.085	19015
893.207	19061
893.33	18787
893.452	18913
893.575	19034
893.697	18924
893.819	19072
893.941	19293
894.064	19145
894.186	18859
894.308	18779
894.43	19069
894.552	19095
894.674	18932
894.796	18924
894.918	18875
895.04	18920
895.161	19160
895.283	19023
895.405	18943
895.526	18973
895.648	18916
895.769	18973
895.891	18894
896.012	19148
896.134	19031
896.255	19012
896.376	19015
896.498	19000
896.619	19118
896.74	18973
896.861	19084
896.982	19335
897.103	19392
897.224	19327
897.345	19270
897.466	19251
897.587	19278
897.708	19308
897.828	19244
897.949	19217
898.07	19110
898.19	19232
898.311	19373
898.431	19110
898.552	19133
898.672	19301
898.792	19289
898.913	19236
899.033	19255
899.153	18951
899.273	18973
899.393	19050
899.513	18962
899.633	18981
899.753	18989
899.873	18962
899.993	19015
900.113	19042
900.232	19061
900.352	18886
900.472	18825
900.591	18825
900.711	18806
900.83	18707
900.95	18863
901.069	18772
901.189	18734
901.308	18509
901.427	18467
901.546	18502
901.665	18460
901.784	18418
901.904	18258
902.023	18163
902.141	17939
902.26	17939
902.379	18091
902.498	17893
902.617	17901
902.735	17851
902.854	17813
902.973	17745
903.091	17604
903.21	17630
903.328	17589
903.446	17478
903.565	17402
903.683	17349
903.801	17265
903.919	17239
904.038	17311
904.156	17086
904.274	17239
904.392	17140
904.51	17181
904.627	17052
904.745	17155
904.863	17155
904.981	16847
905.098	16782
905.216	16679
905.334	16744
905.451	16809
905.569	16771
905.686	16805
905.803	16702
905.921	16599
906.038	16630
906.155	16523
906.272	16382
906.389	16405
906.506	16363
906.623	16268
906.74	16249
906.857	16169
906.974	16272
907.091	16325
907.208	16363
907.324	16215
907.441	16196
907.557	16006
907.674	16101
907.79	15968
907.907	15873
908.023	15854
908.139	15994
908.256	15903
908.372	15804
908.488	15816
908.604	15736
908.72	15629
908.836	15656
908.952	15656
909.068	15629
909.184	15759
909.3	15698
909.415	15610
909.531	15610
909.647	15450
909.762	15431
909.878	15249
909.993	15397
910.108	15332
910.224	15332
910.339	15272
910.454	15218
910.57	15161
910.685	15058
910.8	15408
910.915	15443
911.03	15089
911.145	15085
911.259	14910
911.374	14963
911.489	14941
911.604	14845
911.718	14686
911.833	14739
911.947	14674
912.062	14613
912.176	14613
912.291	14720
912.405	14644
912.519	14910
912.633	14853
912.748	14670
912.862	14636
912.976	14549
913.09	14377
913.204	14431
913.318	14537
913.431	14541
913.545	14556
913.659	14629
913.772	14537
913.886	14377
914	14328
914.113	14434
914.226	14442
914.34	14347
914.453	14142
914.566	14377
914.68	14176
914.793	14119
914.906	14084
915.019	13894
915.132	13986
915.245	13970
915.358	13982
915.47	13944
915.583	13951
915.696	14027
915.809	14084
915.921	14054
916.034	13959
916.146	13928
916.259	13860
916.371	13909
916.483	13864
916.595	13765
916.708	13833
916.82	13856
916.932	13833
917.044	13753
917.156	13689
917.268	13616
917.38	13681
917.491	13552
917.603	13597
917.715	13738
917.826	13734
917.938	13616
918.049	13502
918.161	13628
918.272	13723
918.384	13734
918.495	13506
918.606	13518
918.717	13263
918.828	13480
918.939	13514
919.05	13384
919.161	13324
919.272	13236
919.383	13244
919.494	13468
919.604	13529
919.715	13411
919.826	13297
919.936	13369
920.047	13415
920.157	13441
920.267	13575
920.378	13411
920.488	13400
920.598	13521
920.708	13666
920.818	13521
920.928	13506
921.038	13689
921.148	13693
921.258	13304
921.368	13282
921.477	13046
921.587	13133
921.697	12996
921.806	13225
921.916	13012
922.025	12905
922.134	12810
922.244	12764
922.353	12875
922.462	12703
922.571	12559
922.68	12502
922.789	12464
922.898	12494
923.007	12353
923.116	12452
923.224	12445
923.333	12292
923.442	12247
923.55	12205
923.659	12319
923.767	12285
923.876	12167
923.984	12296
924.092	12216
924.201	12258
924.309	12239
924.417	12209
924.525	12171
924.633	12190
924.741	13080
924.849	11969
924.956	12049
925.064	11923
925.172	11798
925.279	11824
925.387	11996
925.494	11916
925.602	12041
925.709	11958
925.816	11916
925.924	11836
926.031	11973
926.138	11904
926.245	11836
926.352	11794
926.459	11931
926.566	11889
926.673	11824
926.779	11638
926.886	11649
926.993	11558
927.099	11467
927.206	11566
927.312	11505
927.419	11535
927.525	11505
927.631	11585
927.737	11398
927.843	11353
927.95	11360
928.056	11337
928.162	11372
928.267	11391
928.373	12003
928.479	11402
928.585	11277
928.69	11261
928.796	11368
928.901	11280
929.007	11143
929.112	11280
929.218	11197
929.323	11136
929.428	11045
929.533	11223
929.638	10965
929.743	11029
929.848	11079
929.953	11117
930.058	10938
930.163	10801
930.267	10854
930.372	10995
930.477	10786
930.581	11033
930.685	10885
930.79	10691
930.894	10664
930.998	10607
931.103	10790
931.207	10462
931.311	10398
931.415	10352
931.519	10097
931.623	10093
