Data from test_V78500241_1643.txt Node
Date: Fri Mar 25 14:45:09 CST 2022
User: usil
Spectrometer: V785-0024
Trigger mode: 0
Integration Time (sec): 4.000000E-1
Scans to average: 1
Nonlinearity correction enabled: false
Boxcar width: 0
Storing dark spectrum: false
XAxis mode: Wavelengths
Number of Pixels in Spectrum: 1024
>>>>>Begin Spectral Data<<<<<
801.071	22200
801.214	22188
801.356	21892
801.499	21918
801.641	21686
801.783	21743
801.926	21789
802.068	21629
802.211	21599
802.353	21473
802.496	21287
802.638	21237
802.78	21169
802.923	21112
803.065	20883
803.208	21051
803.35	21123
803.492	21100
803.635	21131
803.777	20952
803.919	21066
804.061	21412
804.204	21058
804.346	20887
804.488	20864
804.63	20971
804.773	20963
804.915	20895
805.057	20944
805.199	20887
805.341	21001
805.483	21116
805.626	20899
805.768	20853
805.91	20925
806.052	20941
806.194	20826
806.336	21005
806.478	20876
806.62	20921
806.762	20876
806.904	21291
807.046	21329
807.188	21367
807.33	21241
807.472	21389
807.614	21294
807.756	21294
807.898	21085
808.04	21062
808.182	21051
808.324	21116
808.465	21211
808.607	21233
808.749	21351
808.891	21549
809.033	21553
809.174	21428
809.316	21268
809.458	21431
809.6	21435
809.741	21378
809.883	21279
810.025	21591
810.166	21530
810.308	21428
810.45	21416
810.591	21355
810.733	21211
810.875	21157
811.016	20990
811.158	20887
811.299	21131
811.441	21298
811.582	21195
811.724	21024
811.865	21142
812.007	21150
812.148	21173
812.29	21252
812.431	21249
812.573	21382
812.714	21553
812.855	21667
812.997	21618
813.138	21804
813.279	21812
813.421	21648
813.562	21568
813.703	21412
813.845	21211
813.986	21051
814.127	20861
814.268	20811
814.41	20705
814.551	20735
814.692	20800
814.833	20617
814.974	20617
815.115	20636
815.256	20598
815.397	20530
815.539	20556
815.68	20404
815.821	20370
815.962	20442
816.103	20419
816.244	20119
816.385	20229
816.526	20191
816.666	19830
816.807	19898
816.948	19913
817.089	19955
817.23	19875
817.371	19734
817.512	19913
817.653	19639
817.793	19685
817.934	19822
818.075	19769
818.216	19883
818.356	19696
818.497	19624
818.638	19521
818.778	19483
818.919	19499
819.06	19483
819.2	19620
819.341	19597
819.481	19624
819.622	19750
819.762	19989
819.903	19917
820.043	19772
820.184	19890
820.324	19826
820.465	19776
820.605	19788
820.746	19830
820.886	19723
821.026	19814
821.167	19734
821.307	19826
821.447	19799
821.588	19571
821.728	19468
821.868	19354
822.008	19133
822.149	19107
822.289	19171
822.429	18859
822.569	18802
822.709	18867
822.849	18681
822.99	18703
823.13	18707
823.27	18623
823.41	18574
823.55	18502
823.69	18452
823.83	18525
823.97	18388
824.11	18251
824.25	18281
824.389	18270
824.529	18266
824.669	18243
824.809	18403
824.949	18300
825.089	18330
825.228	18270
825.368	18041
825.508	18011
825.648	18026
825.787	17969
825.927	18182
826.067	18022
826.206	17954
826.346	17977
826.485	18049
826.625	18064
826.765	18167
826.904	18026
827.044	17767
827.183	17710
827.323	17726
827.462	17767
827.601	17771
827.741	17687
827.88	17611
828.02	17551
828.159	17596
828.298	17653
828.437	17741
828.577	17634
828.716	17847
828.855	17619
828.994	17440
829.134	17471
829.273	17592
829.412	17398
829.551	17417
829.69	17425
829.829	17562
829.968	17471
830.107	17493
830.246	17356
830.385	17364
830.524	17436
830.663	17280
830.802	17102
830.941	17052
831.08	17037
831.219	17265
831.357	17136
831.496	17372
831.635	17086
831.774	17022
831.913	16980
832.051	16904
832.19	16908
832.329	16927
832.467	16767
832.606	16672
832.744	16790
832.883	16820
833.022	16733
833.16	16820
833.299	16843
833.437	16801
833.576	16752
833.714	16755
833.852	16847
833.991	16820
834.129	16786
834.267	16824
834.406	16793
834.544	16904
834.682	16839
834.821	16706
834.959	16911
835.097	16782
835.235	16847
835.373	16801
835.511	16877
835.65	16725
835.788	16679
835.926	16611
836.064	16428
836.202	16546
836.34	16679
836.478	16744
836.615	16725
836.753	16797
836.891	16820
837.029	16729
837.167	16729
837.305	16588
837.443	16519
837.58	16630
837.718	16721
837.856	16596
837.993	16542
838.131	16634
838.269	16512
838.406	16493
838.544	16443
838.681	16322
838.819	16299
838.956	16128
839.094	16074
839.231	16116
839.369	16207
839.506	16554
839.643	16291
839.781	16150
839.918	16074
840.055	16139
840.193	16078
840.33	16074
840.467	16158
840.604	16158
840.742	16432
840.879	15903
841.016	16055
841.153	16010
841.29	16215
841.427	16238
841.564	16071
841.701	16135
841.838	16090
841.975	15983
842.112	16101
842.249	15907
842.385	15800
842.522	16131
842.659	15987
842.796	15842
842.933	15873
843.069	15907
843.206	15770
843.343	15983
843.479	15800
843.616	15804
843.752	15720
843.889	15641
844.025	15876
844.162	15641
844.298	15785
844.435	15641
844.571	15618
844.708	15713
844.844	15850
844.98	15838
845.117	15819
845.253	15568
845.389	15553
845.525	15580
845.661	15584
845.798	15523
845.934	15580
846.07	15515
846.206	15485
846.342	15637
846.478	15481
846.614	15279
846.75	15275
846.886	15218
847.022	15302
847.158	15207
847.294	15344
847.429	15336
847.565	15127
847.701	15450
847.837	15009
847.972	14998
848.108	15100
848.244	15017
848.379	14785
848.515	14887
848.65	14800
848.786	14826
848.921	14952
849.057	14960
849.192	14906
849.328	14895
849.463	14754
849.598	14811
849.734	14746
849.869	14708
850.004	14556
850.14	14693
850.275	14545
850.41	14541
850.545	14461
850.68	14636
850.815	14590
850.95	14636
851.085	14819
851.22	14636
851.355	14678
851.49	14552
851.625	14590
851.76	14564
851.895	14556
852.03	14461
852.165	14575
852.299	14552
852.434	14625
852.569	14610
852.703	14682
852.838	14667
852.973	14804
853.107	14758
853.242	14552
853.376	14366
853.511	14339
853.645	14400
853.78	14606
853.914	14450
854.048	14415
854.183	14355
854.317	14469
854.451	14632
854.585	14469
854.72	14408
854.854	14541
854.988	14419
855.122	14412
855.256	14332
855.39	14465
855.524	14507
855.658	14621
855.792	14495
855.926	14522
856.06	14560
856.194	14606
856.327	14454
856.461	14434
856.595	14362
856.729	14473
856.862	14602
856.996	14480
857.13	14552
857.263	14632
857.397	14632
857.53	14465
857.664	14556
857.797	14514
857.931	14560
858.064	14556
858.197	14636
858.331	14518
858.464	14492
858.597	14278
858.731	14499
858.864	14560
858.997	14480
859.13	14507
859.263	14568
859.396	14526
859.529	14446
859.662	14400
859.795	14412
859.928	14545
860.061	14648
860.194	14663
860.327	14522
860.46	14446
860.592	14621
860.725	14682
860.858	14651
860.99	14503
861.123	14431
861.256	14400
861.388	14503
861.521	15294
861.653	14396
861.786	14370
861.918	14465
862.05	14454
862.183	14412
862.315	14473
862.447	14590
862.58	14393
862.712	14305
862.844	14263
862.976	14275
863.108	14309
863.24	14724
863.372	14153
863.504	14324
863.636	14278
863.768	14374
863.9	14244
864.032	14233
864.164	14225
864.296	14240
864.428	14389
864.559	14358
864.691	14324
864.823	14396
864.954	14282
865.086	14317
865.217	14267
865.349	14130
865.48	14225
865.612	14290
865.743	14377
865.875	14210
866.006	14206
866.137	14225
866.269	14267
866.4	14252
866.531	14168
866.662	14240
866.793	14191
866.924	14225
867.055	14256
867.186	14248
867.317	14267
867.448	14157
867.579	14252
867.71	14229
867.841	14092
867.972	14259
868.103	14328
868.233	14244
868.364	14286
868.495	14347
868.625	14415
868.756	14575
868.886	14465
869.017	14355
869.147	14648
869.278	14571
869.408	14499
869.539	14533
869.669	14598
869.799	14499
869.929	14594
870.06	14564
870.19	14830
870.32	14861
870.45	14834
870.58	14918
870.71	15013
870.84	14998
870.97	14834
871.1	14872
871.23	15066
871.36	15058
871.489	14975
871.619	14998
871.749	15077
871.879	15020
872.008	15150
872.138	15180
872.267	15104
872.397	14998
872.526	14899
872.656	14948
872.785	14952
872.915	15207
873.044	15157
873.173	15211
873.303	15131
873.432	15268
873.561	15150
873.69	15222
873.819	15123
873.948	15214
874.077	15074
874.206	15005
874.335	15245
874.464	15416
874.593	15462
874.722	15370
874.851	15469
874.979	15481
875.108	15450
875.237	15435
875.365	15416
875.494	15485
875.623	15500
875.751	15439
875.88	15424
876.008	15568
876.136	15747
876.265	15747
876.393	16029
876.521	15895
876.65	15956
876.778	15850
876.906	15831
877.034	15873
877.162	15751
877.29	15778
877.418	15797
877.546	15812
877.674	15861
877.802	15785
877.93	15850
878.058	15816
878.185	15724
878.313	15911
878.441	15903
878.568	15808
878.696	15884
878.824	15865
878.951	15998
879.079	16105
879.206	16158
879.333	16017
879.461	16048
879.588	15964
879.715	16158
879.842	16211
879.97	16044
880.097	15709
880.224	15660
880.351	15762
880.478	15644
880.605	15637
880.732	15789
880.859	15953
880.986	15724
881.112	15709
881.239	15663
881.366	15580
881.493	15336
881.619	15359
881.746	15336
881.872	15454
881.999	15374
882.125	15382
882.252	15439
882.378	15374
882.505	15428
882.631	15203
882.757	15211
882.883	15176
883.01	15169
883.136	15165
883.262	15150
883.388	15089
883.514	15157
883.64	15287
883.766	15127
883.892	15074
884.018	15009
884.143	15108
884.269	15283
884.395	15039
884.52	14868
884.646	14788
884.772	14902
884.897	14788
885.023	14918
885.148	15017
885.274	15039
885.399	14914
885.524	14929
885.65	14937
885.775	15047
885.9	14914
886.025	15024
886.15	14933
886.275	14845
886.4	14788
886.525	14819
886.65	14746
886.775	14785
886.9	14952
887.025	15070
887.149	14868
887.274	14674
887.399	14632
887.523	14655
887.648	14724
887.773	14629
887.897	14830
888.021	14731
888.146	14693
888.27	14815
888.395	14762
888.519	14861
888.643	14788
888.767	14731
888.891	14648
889.015	14518
889.139	14594
889.263	14575
889.387	14629
889.511	14769
889.635	14727
889.759	14598
889.883	14549
890.006	14632
890.13	14655
890.254	14571
890.377	14492
890.501	14362
890.624	14336
890.748	14415
890.871	14298
890.995	14206
891.118	14221
891.241	14282
891.364	14218
891.488	14385
891.611	14286
891.734	14145
891.857	14381
891.98	14282
892.103	14393
892.226	14256
892.349	14191
892.471	14210
892.594	14259
892.717	14233
892.839	14301
892.962	14275
893.085	14362
893.207	14180
893.33	14172
893.452	14195
893.575	14252
893.697	14202
893.819	14396
893.941	14381
894.064	14370
894.186	14221
894.308	14153
894.43	14339
894.552	14480
894.674	14385
894.796	14195
894.918	14267
895.04	14298
895.161	14495
895.283	14313
895.405	14298
895.526	14290
895.648	14233
895.769	14381
895.891	14408
896.012	14530
896.134	14457
896.255	14404
896.376	14393
896.498	14461
896.619	14511
896.74	14427
896.861	14537
896.982	14830
897.103	14883
897.224	14727
897.345	14701
897.466	14648
897.587	14750
897.708	14872
897.828	14765
897.949	14701
898.07	14629
898.19	14693
898.311	14895
898.431	14629
898.552	14743
898.672	14849
898.792	14891
898.913	14826
899.033	14720
899.153	14678
899.273	14587
899.393	14659
899.513	14613
899.633	14632
899.753	14670
899.873	14587
899.993	14693
900.113	14636
900.232	14640
900.352	14602
900.472	14556
900.591	14568
900.711	14480
900.83	14431
900.95	14545
901.069	14507
901.189	14465
901.308	14267
901.427	14187
901.546	14191
901.665	14134
901.784	14145
901.904	14062
902.023	14008
902.141	13811
902.26	13727
902.379	13799
902.498	13742
902.617	13731
902.735	13803
902.854	13704
902.973	13693
903.091	13499
903.21	13495
903.328	13586
903.446	13464
903.565	13297
903.683	13304
903.801	13171
903.919	13350
904.038	13225
904.156	13141
904.274	13198
904.392	13114
904.51	13152
904.627	13084
904.745	13206
904.863	13198
904.981	12954
905.098	12833
905.216	12848
905.334	12867
905.451	12806
905.569	12658
905.686	12871
905.803	12905
905.921	12639
906.038	12749
906.155	12677
906.272	12551
906.389	12551
906.506	12395
906.623	12388
906.74	12418
906.857	12232
906.974	12308
907.091	12475
907.208	12555
907.324	12460
907.441	12426
907.557	12197
907.674	12144
907.79	12072
907.907	12053
908.023	12102
908.139	12186
908.256	12072
908.372	12079
908.488	12049
908.604	11893
908.72	11874
908.836	11904
908.952	11939
909.068	11954
909.184	11958
909.3	11916
909.415	11927
909.531	11942
909.647	11691
909.762	11638
909.878	11619
909.993	11703
910.108	11672
910.224	11554
910.339	11570
910.454	11627
910.57	11467
910.685	11490
910.8	11741
910.915	11611
911.03	11547
911.145	11417
911.259	11318
911.374	11307
911.489	11318
911.604	11250
911.718	11128
911.833	11098
911.947	11086
912.062	10968
912.176	11079
912.291	11166
912.405	11052
912.519	11299
912.633	11231
912.748	11189
912.862	11083
912.976	11003
913.09	10866
913.204	10919
913.318	10961
913.431	11083
913.545	11071
913.659	11155
913.772	10987
913.886	10881
914	10889
914.113	10942
914.226	11033
914.34	11010
914.453	10782
914.566	10930
914.68	10793
914.793	10782
914.906	10649
915.019	10603
915.132	10500
915.245	10618
915.358	10607
915.47	10645
915.583	10668
915.696	10694
915.809	10835
915.921	10805
916.034	10618
916.146	10451
916.259	10508
916.371	10618
916.483	10645
916.595	10474
916.708	10527
916.82	10542
916.932	10535
917.044	10523
917.156	10519
917.268	10424
917.38	10409
917.491	10382
917.603	10478
917.715	10470
917.826	10550
917.938	10447
918.049	10333
918.161	10535
918.272	10588
918.384	10584
918.495	10470
918.606	10417
918.717	10192
918.828	10299
918.939	10325
919.05	10192
919.161	10284
919.272	10158
919.383	10154
919.494	10295
919.604	10565
919.715	10386
919.826	10154
919.936	10341
920.047	10360
920.157	10352
920.267	10443
920.378	10299
920.488	10341
920.598	10542
920.708	10649
920.818	10554
920.928	10538
921.038	10675
921.148	10645
921.258	10413
921.368	10284
921.477	10181
921.587	10135
921.697	10051
921.806	10227
921.916	10063
922.025	9903
922.134	9846
922.244	9892
922.353	9903
922.462	9728
922.571	9717
922.68	9606
922.789	9606
922.898	9564
923.007	9519
923.116	9622
923.224	9599
923.333	9553
923.442	9450
923.55	9481
923.659	9473
923.767	9564
923.876	9408
923.984	9473
924.092	9431
924.201	9450
924.309	9370
924.417	9469
924.525	9431
924.633	9363
924.741	10227
924.849	9195
924.956	9374
925.064	9199
925.172	9135
925.279	9192
925.387	9222
925.494	9203
925.602	9405
925.709	9302
925.816	9188
925.924	9214
926.031	9359
926.138	9272
926.245	9294
926.352	9176
926.459	9321
926.566	9344
926.673	9192
926.779	9074
926.886	9100
926.993	8971
927.099	8891
927.206	8910
927.312	8864
927.419	8979
927.525	8982
927.631	8975
927.737	8857
927.843	8785
927.95	8667
928.056	8834
928.162	8895
928.267	8880
928.373	9412
928.479	8952
928.585	8712
928.69	8785
928.796	8845
928.901	8769
929.007	8659
929.112	8724
929.218	8701
929.323	8674
929.428	8644
929.533	8773
929.638	8594
929.743	8629
929.848	8697
929.953	8598
930.058	8545
930.163	8404
930.267	8446
930.372	8571
930.477	8362
930.581	8598
930.685	8499
930.79	8328
930.894	8389
930.998	8374
931.103	8507
931.207	8164
931.311	8058
931.415	8020
931.519	7852
931.623	7803
