Data from test_V78500241_612.txt Node
Date: Fri Mar 25 14:37:58 CST 2022
User: usil
Spectrometer: V785-0024
Trigger mode: 0
Integration Time (sec): 4.000000E-1
Scans to average: 1
Nonlinearity correction enabled: false
Boxcar width: 0
Storing dark spectrum: false
XAxis mode: Wavelengths
Number of Pixels in Spectrum: 1024
>>>>>Begin Spectral Data<<<<<
801.071	28090
801.214	27991
801.356	27656
801.499	27587
801.641	27321
801.783	27511
801.926	27591
802.068	27256
802.211	27104
802.353	27268
802.496	27043
802.638	26944
802.78	26963
802.923	26906
803.065	26872
803.208	26830
803.35	26857
803.492	26994
803.635	27146
803.777	27032
803.919	27096
804.061	27340
804.204	27184
804.346	26975
804.488	27089
804.63	27135
804.773	27123
804.915	27070
805.057	27367
805.199	27298
805.341	27397
805.483	27542
805.626	27500
805.768	27515
805.91	27599
806.052	27637
806.194	27633
806.336	28093
806.478	28002
806.62	28040
806.762	28462
806.904	28656
807.046	29258
807.188	29326
807.33	29752
807.472	30129
807.614	30448
807.756	31129
807.898	31966
808.04	33085
808.182	34527
808.324	36399
808.465	38549
808.607	41033
808.749	43213
808.891	44157
809.033	44221
809.174	42913
809.316	40908
809.458	38484
809.6	35939
809.741	34131
809.883	32545
810.025	31635
810.166	30985
810.308	30296
810.45	29775
810.591	29398
810.733	28987
810.875	28569
811.016	28481
811.158	28314
811.299	28230
811.441	28284
811.582	28226
811.724	28097
811.865	27838
812.007	27823
812.148	27553
812.29	27675
812.431	27755
812.573	27876
812.714	27835
812.855	28010
812.997	28101
813.138	28166
813.279	28017
813.421	27903
813.562	27800
813.703	27526
813.845	27488
813.986	27226
814.127	26960
814.268	26902
814.41	26800
814.551	26800
814.692	26986
814.833	26750
814.974	26807
815.115	26659
815.256	26469
815.397	26488
815.539	26556
815.68	26431
815.821	26317
815.962	26320
816.103	26172
816.244	26305
816.385	26157
816.526	25932
816.666	25818
816.807	25761
816.948	25757
817.089	25803
817.23	25700
817.371	25639
817.512	25719
817.653	25582
817.793	25559
817.934	25582
818.075	25651
818.216	25594
818.356	25426
818.497	25476
818.638	25259
818.778	25354
818.919	25358
819.06	25369
819.2	25468
819.341	25434
819.481	25502
819.622	25746
819.762	25799
819.903	25594
820.043	25677
820.184	25514
820.324	25468
820.465	25609
820.605	25559
820.746	25449
820.886	25190
821.026	25567
821.167	25419
821.307	25335
821.447	25324
821.588	25168
821.728	25076
821.868	24852
822.008	24688
822.149	24646
822.289	24631
822.429	24391
822.569	24292
822.709	24319
822.849	24178
822.99	24209
823.13	24117
823.27	24110
823.41	23889
823.55	23897
823.69	24053
823.83	23996
823.97	23832
824.11	23638
824.25	23710
824.389	23672
824.529	23722
824.669	23680
824.809	23813
824.949	23752
825.089	23821
825.228	23684
825.368	23539
825.508	23539
825.648	23471
825.787	23490
825.927	23562
826.067	23417
826.206	23459
826.346	23497
826.485	23425
826.625	23395
826.765	23608
826.904	23520
827.044	23223
827.183	23288
827.323	23155
827.462	23117
827.601	23159
827.741	23090
827.88	23151
828.02	23102
828.159	23064
828.298	23067
828.437	23216
828.577	23014
828.716	23132
828.855	22995
828.994	22809
829.134	22793
829.273	22999
829.412	22736
829.551	22733
829.69	22915
829.829	22862
829.968	22866
830.107	22782
830.246	22721
830.385	22763
830.524	22664
830.663	22542
830.802	22580
830.941	22306
831.08	22462
831.219	22462
831.357	22371
831.496	22660
831.635	22470
831.774	22390
831.913	22363
832.051	22261
832.19	22128
832.329	22287
832.467	22185
832.606	22253
832.744	22185
832.883	22268
833.022	22188
833.16	22246
833.299	22428
833.437	22565
833.576	22698
833.714	22687
833.852	22873
833.991	22972
834.129	22995
834.267	23003
834.406	22843
834.544	22869
834.682	22869
834.821	22698
834.959	22869
835.097	22455
835.235	22436
835.373	22375
835.511	22211
835.65	22139
835.788	22188
835.926	21911
836.064	21789
836.202	21812
836.34	21964
836.478	22029
836.615	21880
836.753	21911
836.891	22070
837.029	21953
837.167	21869
837.305	21838
837.443	21667
837.58	21671
837.718	21804
837.856	21698
837.993	21671
838.131	21679
838.269	21542
838.406	21500
838.544	21424
838.681	21389
838.819	21283
838.956	21127
839.094	21127
839.231	21165
839.369	21207
839.506	21553
839.643	21351
839.781	21085
839.918	21062
840.055	21127
840.193	21055
840.33	21055
840.467	21043
840.604	21203
840.742	21420
840.879	20998
841.016	20971
841.153	20990
841.29	21104
841.427	21055
841.564	21024
841.701	21039
841.838	21028
841.975	20849
842.112	20998
842.249	20887
842.385	20880
842.522	21081
842.659	20933
842.796	20902
842.933	20868
843.069	20762
843.206	20815
843.343	20876
843.479	20948
843.616	20967
843.752	20670
843.889	20754
844.025	20925
844.162	20918
844.298	21081
844.435	20933
844.571	21108
844.708	21351
844.844	21762
844.98	22013
845.117	22455
845.253	23044
845.389	24391
845.525	26861
845.661	30848
845.798	35794
845.934	39500
846.07	41155
846.206	40025
846.342	37042
846.478	31978
846.614	27652
846.75	24840
846.886	23376
847.022	22291
847.158	21511
847.294	21154
847.429	21005
847.565	20735
847.701	20701
847.837	20187
847.972	20100
848.108	20149
848.244	20005
848.379	19883
848.515	19841
848.65	19807
848.786	19753
848.921	19765
849.057	19868
849.192	19833
849.328	19647
849.463	19696
849.598	19666
849.734	19677
849.869	19540
850.004	19491
850.14	19411
850.275	19480
850.41	19297
850.545	19316
850.68	19449
850.815	19445
850.95	19293
851.085	19407
851.22	19491
851.355	19384
851.49	19384
851.625	19388
851.76	19400
851.895	19206
852.03	19297
852.165	19457
852.299	19373
852.434	19415
852.569	19502
852.703	19346
852.838	19499
852.973	19578
853.107	19537
853.242	19415
853.376	19377
853.511	19168
853.645	19343
853.78	19559
853.914	19464
854.048	19453
854.183	19514
854.317	19449
854.451	19662
854.585	19445
854.72	19407
854.854	19480
854.988	19396
855.122	19343
855.256	19266
855.39	19324
855.524	19392
855.658	19506
855.792	19293
855.926	19304
856.06	19331
856.194	19358
856.327	19297
856.461	19164
856.595	19187
856.729	19213
856.862	19346
856.996	19213
857.13	19251
857.263	19236
857.397	19175
857.53	19206
857.664	19168
857.797	19179
857.931	19274
858.064	19122
858.197	19263
858.331	19084
858.464	19015
858.597	18981
858.731	19034
858.864	18977
858.997	19061
859.13	19145
859.263	19057
859.396	19088
859.529	19031
859.662	18954
859.795	18966
859.928	19019
860.061	19133
860.194	19278
860.327	19088
860.46	19053
860.592	19221
860.725	19171
860.858	19228
860.99	18916
861.123	18920
861.256	18981
861.388	19042
861.521	19601
861.653	18943
861.786	18897
861.918	18863
862.05	18985
862.183	19034
862.315	19053
862.447	18996
862.58	18939
862.712	18871
862.844	18734
862.976	18856
863.108	18817
863.24	19137
863.372	18681
863.504	18688
863.636	18681
863.768	18814
863.9	18642
864.032	18620
864.164	18681
864.296	18684
864.428	18814
864.559	18711
864.691	18696
864.823	18772
864.954	18688
865.086	18688
865.217	18646
865.349	18601
865.48	18741
865.612	18623
865.743	18684
865.875	18707
866.006	18597
866.137	18722
866.269	18631
866.4	18620
866.531	18608
866.662	18506
866.793	18642
866.924	18715
867.055	18566
867.186	18757
867.317	18528
867.448	18525
867.579	18593
867.71	18464
867.841	18471
867.972	18589
868.103	18604
868.233	18601
868.364	18612
868.495	18703
868.625	18791
868.756	19031
868.886	18734
869.017	18825
869.147	18840
869.278	18981
869.408	18962
869.539	18894
869.669	19015
869.799	18909
869.929	19004
870.06	19031
870.19	19202
870.32	19187
870.45	19209
870.58	19232
870.71	19499
870.84	19415
870.97	19358
871.1	19384
871.23	19445
871.36	19514
871.489	19354
871.619	19392
871.749	19411
871.879	19563
872.008	19597
872.138	19529
872.267	19575
872.397	19502
872.526	19460
872.656	19419
872.785	19434
872.915	19677
873.044	19666
873.173	19613
873.303	19696
873.432	19731
873.561	19738
873.69	19734
873.819	19700
873.948	19856
874.077	19799
874.206	19803
874.335	19868
874.464	19940
874.593	20180
874.722	20195
874.851	20122
874.979	20195
875.108	20313
875.237	20130
875.365	20218
875.494	20301
875.623	20419
875.751	20278
875.88	20518
876.008	20480
876.136	20587
876.265	20861
876.393	20925
876.521	21013
876.65	21074
876.778	21001
876.906	21081
877.034	20956
877.162	21180
877.29	21066
877.418	21222
877.546	21348
877.674	21298
877.802	21496
877.93	21614
878.058	21637
878.185	21762
878.313	22013
878.441	22303
878.568	22413
878.696	22934
878.824	23459
878.951	24285
879.079	25350
879.206	26982
879.333	28394
879.461	29482
879.588	30597
879.715	30559
879.842	29882
879.97	28413
880.097	26845
880.224	25628
880.351	24833
880.478	24228
880.605	23699
880.732	23509
880.859	23493
880.986	23235
881.112	23155
881.239	22930
881.366	22786
881.493	22740
881.619	22858
881.746	22748
881.872	22793
881.999	22759
882.125	22710
882.252	22911
882.378	22839
882.505	23143
882.631	22862
882.757	22721
882.883	22774
883.01	22755
883.136	22546
883.262	22580
883.388	22618
883.514	22538
883.64	22577
883.766	22466
883.892	22375
884.018	22314
884.143	22497
884.269	22725
884.395	22371
884.52	22192
884.646	22265
884.772	22303
884.897	22348
885.023	22341
885.148	22272
885.274	22538
885.399	22291
885.524	22234
885.65	22082
885.775	21998
885.9	21812
886.025	21994
886.15	21637
886.275	21587
886.4	21420
886.525	21321
886.65	21203
886.775	21176
886.9	21272
887.025	21180
887.149	20979
887.274	20678
887.399	20617
887.523	20621
887.648	20514
887.773	20381
887.897	20556
888.021	20374
888.146	20237
888.27	20370
888.395	20408
888.519	20214
888.643	20275
888.767	20233
888.891	19989
889.015	19921
889.139	19864
889.263	19868
889.387	19811
889.511	20012
889.635	19959
889.759	19677
889.883	19651
890.006	19655
890.13	19761
890.254	19590
890.377	19601
890.501	19403
890.624	19304
890.748	19438
890.871	19236
890.995	19206
891.118	19038
891.241	19122
891.364	19027
891.488	19213
891.611	19118
891.734	18977
891.857	19084
891.98	18989
892.103	18947
892.226	18920
892.349	18916
892.471	18833
892.594	18871
892.717	18863
892.839	18802
892.962	18753
893.085	18791
893.207	18661
893.33	18593
893.452	18620
893.575	18696
893.697	18642
893.819	18760
893.941	18878
894.064	18730
894.186	18631
894.308	18544
894.43	18719
894.552	18711
894.674	18631
894.796	18414
894.918	18566
895.04	18448
895.161	18582
895.283	18566
895.405	18342
895.526	18494
895.648	18452
895.769	18528
895.891	18544
896.012	18506
896.134	18410
896.255	18437
896.376	18403
896.498	18494
896.619	18407
896.74	18429
896.861	18471
896.982	18837
897.103	18913
897.224	18677
897.345	18627
897.466	18521
897.587	18570
897.708	18837
897.828	18696
897.949	18563
898.07	18448
898.19	18460
898.311	18681
898.431	18593
898.552	18616
898.672	18715
898.792	18711
898.913	18620
899.033	18502
899.153	18418
899.273	18289
899.393	18506
899.513	18308
899.633	18357
899.753	18338
899.873	18426
899.993	18456
900.113	18410
900.232	18395
900.352	18418
900.472	18308
900.591	18251
900.711	18266
900.83	18106
900.95	18163
901.069	18251
901.189	18110
901.308	17828
901.427	17729
901.546	17775
901.665	17752
901.784	17699
901.904	17554
902.023	17497
902.141	17299
902.26	17235
902.379	17284
902.498	17265
902.617	17193
902.735	17208
902.854	17147
902.973	17098
903.091	16892
903.21	16805
903.328	16881
903.446	16687
903.565	16626
903.683	16637
903.801	16470
903.919	16656
904.038	16618
904.156	16478
904.274	16493
904.392	16497
904.51	16466
904.627	16459
904.745	16512
904.863	16402
904.981	16226
905.098	16112
905.216	16150
905.334	16051
905.451	16048
905.569	16010
905.686	16078
905.803	15953
905.921	15876
906.038	15911
906.155	15861
906.272	15728
906.389	15827
906.506	15644
906.623	15618
906.74	15606
906.857	15511
906.974	15488
907.091	15724
907.208	15671
907.324	15671
907.441	15462
907.557	15382
907.674	15173
907.79	15176
907.907	15260
908.023	15264
908.139	15306
908.256	15249
908.372	15150
908.488	15043
908.604	14994
908.72	14933
908.836	14925
908.952	14998
909.068	14914
909.184	15051
909.3	14918
909.415	14925
909.531	14937
909.647	14762
909.762	14701
909.878	14739
909.993	14785
910.108	14632
910.224	14667
910.339	14750
910.454	14564
910.57	14564
910.685	14454
910.8	14670
910.915	14678
911.03	14469
911.145	14339
911.259	14328
911.374	14343
911.489	14298
911.604	14168
911.718	14081
911.833	14103
911.947	13963
912.062	13921
912.176	14100
912.291	14043
912.405	14008
912.519	14221
912.633	14221
912.748	14164
912.862	14084
912.976	13890
913.09	13784
913.204	13841
913.318	13856
913.431	13963
913.545	13997
913.659	13974
913.772	13833
913.886	13746
914	13715
914.113	13833
914.226	13803
914.34	13799
914.453	13738
914.566	13769
914.68	13594
914.793	13636
914.906	13438
915.019	13400
915.132	13339
915.245	13362
915.358	13476
915.47	13441
915.583	13392
915.696	13487
915.809	13616
915.921	13582
916.034	13396
916.146	13285
916.259	13270
916.371	13483
916.483	13434
916.595	13320
916.708	13346
916.82	13331
916.932	13324
917.044	13384
917.156	13346
917.268	13213
917.38	13160
917.491	13156
917.603	13110
917.715	13209
917.826	13175
917.938	13065
918.049	12993
918.161	13061
918.272	13225
918.384	13137
918.495	13004
918.606	12913
918.717	12871
918.828	12924
918.939	12928
919.05	12806
919.161	12859
919.272	12711
919.383	12741
919.494	13023
919.604	13110
919.715	12817
919.826	12814
919.936	12787
920.047	12958
920.157	12848
920.267	13076
920.378	12867
920.488	12821
920.598	12993
920.708	13107
920.818	13095
920.928	12970
921.038	13183
921.148	13061
921.258	12897
921.368	12681
921.477	12654
921.587	12612
921.697	12460
921.806	12635
921.916	12486
922.025	12315
922.134	12243
922.244	12155
922.353	12296
922.462	12194
922.571	12106
922.68	11969
922.789	11901
922.898	11885
923.007	11870
923.116	11889
923.224	11939
923.333	11923
923.442	11771
923.55	11817
923.659	11767
923.767	11863
923.876	11710
923.984	11775
924.092	11611
924.201	11657
924.309	11684
924.417	11680
924.525	11615
924.633	11676
924.741	12429
924.849	11512
924.956	11570
925.064	11493
925.172	11387
925.279	11467
925.387	11493
925.494	11376
925.602	11566
925.709	11398
925.816	11486
925.924	11356
926.031	11547
926.138	11402
926.245	11337
926.352	11360
926.459	11414
926.566	11501
926.673	11334
926.779	11315
926.886	11227
926.993	11140
927.099	11025
927.206	11041
927.312	10980
927.419	11159
927.525	11113
927.631	11178
927.737	10934
927.843	10968
927.95	10869
928.056	10885
928.162	10850
928.267	10968
928.373	11410
928.479	10934
928.585	10710
928.69	10862
928.796	10889
928.901	10839
929.007	10592
929.112	10759
929.218	10752
929.323	10637
929.428	10744
929.533	10793
929.638	10523
929.743	10649
929.848	10634
929.953	10668
930.058	10531
930.163	10329
930.267	10459
930.372	10493
930.477	10356
930.581	10580
930.685	10436
930.79	10337
930.894	10329
930.998	10284
931.103	10413
931.207	9975
931.311	9918
931.415	9915
931.519	9743
931.623	9736
