Data from test_V78500241_1860.txt Node
Date: Fri Mar 25 14:46:39 CST 2022
User: usil
Spectrometer: V785-0024
Trigger mode: 0
Integration Time (sec): 4.000000E-1
Scans to average: 1
Nonlinearity correction enabled: false
Boxcar width: 0
Storing dark spectrum: false
XAxis mode: Wavelengths
Number of Pixels in Spectrum: 1024
>>>>>Begin Spectral Data<<<<<
801.071	22112
801.214	21991
801.356	21835
801.499	21728
801.641	21481
801.783	21473
801.926	21481
802.068	21473
802.211	21340
802.353	21351
802.496	21142
802.638	21024
802.78	20925
802.923	20948
803.065	20899
803.208	20826
803.35	20910
803.492	20815
803.635	20982
803.777	20758
803.919	20785
804.061	21127
804.204	20785
804.346	20788
804.488	20625
804.63	20823
804.773	20724
804.915	20754
805.057	20853
805.199	20727
805.341	20746
805.483	20883
805.626	20857
805.768	20727
805.91	20731
806.052	20800
806.194	20765
806.336	20952
806.478	20826
806.62	20564
806.762	20906
806.904	20944
807.046	21108
807.188	21070
807.33	20948
807.472	21131
807.614	21024
807.756	21047
807.898	20918
808.04	20743
808.182	20724
808.324	20777
808.465	20880
808.607	21058
808.749	21051
808.891	21154
809.033	21359
809.174	21310
809.316	21066
809.458	21161
809.6	21081
809.741	21176
809.883	21268
810.025	21287
810.166	21256
810.308	21294
810.45	21211
810.591	21199
810.733	21036
810.875	21017
811.016	20807
811.158	20807
811.299	20956
811.441	21112
811.582	20956
811.724	20948
811.865	20785
812.007	20979
812.148	20956
812.29	21005
812.431	21036
812.573	21260
812.714	21268
812.855	21359
812.997	21450
813.138	21679
813.279	21488
813.421	21374
813.562	21203
813.703	21108
813.845	21070
813.986	20800
814.127	20678
814.268	20556
814.41	20476
814.551	20518
814.692	20473
814.833	20393
814.974	20434
815.115	20442
815.256	20305
815.397	20294
815.539	20309
815.68	20218
815.821	20142
815.962	20210
816.103	20225
816.244	20005
816.385	19921
816.526	19959
816.666	19696
816.807	19746
816.948	19647
817.089	19769
817.23	19666
817.371	19559
817.512	19670
817.653	19635
817.793	19620
817.934	19571
818.075	19635
818.216	19578
818.356	19552
818.497	19430
818.638	19301
818.778	19247
818.919	19270
819.06	19297
819.2	19388
819.341	19495
819.481	19377
819.622	19563
819.762	19822
819.903	19791
820.043	19594
820.184	19510
820.324	19613
820.465	19563
820.605	19521
820.746	19521
820.886	19445
821.026	19609
821.167	19468
821.307	19514
821.447	19453
821.588	19327
821.728	19259
821.868	19012
822.008	18951
822.149	19103
822.289	18951
822.429	18768
822.569	18620
822.709	18684
822.849	18433
822.99	18448
823.13	18441
823.27	18361
823.41	18262
823.55	18121
823.69	18258
823.83	18201
823.97	18289
824.11	18022
824.25	17999
824.389	18102
824.529	18072
824.669	18041
824.809	18110
824.949	18076
825.089	18194
825.228	17969
825.368	17840
825.508	17775
825.648	17859
825.787	17840
825.927	17901
826.067	17832
826.206	17817
826.346	17855
826.485	17870
826.625	17745
826.765	17836
826.904	17748
827.044	17611
827.183	17642
827.323	17452
827.462	17646
827.601	17486
827.741	17444
827.88	17463
828.02	17398
828.159	17455
828.298	17520
828.437	17558
828.577	17512
828.716	17604
828.855	17463
828.994	17220
829.134	17318
829.273	17242
829.412	17326
829.551	17223
829.69	17303
829.829	17356
829.968	17330
830.107	17216
830.246	17273
830.385	17159
830.524	17140
830.663	17045
830.802	17010
830.941	16843
831.08	16869
831.219	16866
831.357	16991
831.496	17086
831.635	16938
831.774	16869
831.913	16816
832.051	16683
832.19	16622
832.329	16748
832.467	16611
832.606	16462
832.744	16542
832.883	16546
833.022	16580
833.16	16641
833.299	16611
833.437	16649
833.576	16656
833.714	16592
833.852	16721
833.991	16733
834.129	16816
834.267	16683
834.406	16641
834.544	16660
834.682	16721
834.821	16740
834.959	16820
835.097	16516
835.235	16683
835.373	16641
835.511	16626
835.65	16577
835.788	16550
835.926	16478
836.064	16367
836.202	16382
836.34	16569
836.478	16683
836.615	16561
836.753	16561
836.891	16675
837.029	16630
837.167	16618
837.305	16413
837.443	16428
837.58	16428
837.718	16508
837.856	16432
837.993	16280
838.131	16409
838.269	16344
838.406	16295
838.544	16325
838.681	16246
838.819	16131
838.956	15922
839.094	16071
839.231	15945
839.369	16112
839.506	16341
839.643	16284
839.781	15975
839.918	15983
840.055	16086
840.193	15987
840.33	15987
840.467	15941
840.604	16067
840.742	16253
840.879	15819
841.016	15915
841.153	15918
841.29	16093
841.427	15979
841.564	16078
841.701	15964
841.838	15979
841.975	15846
842.112	15835
842.249	15762
842.385	15690
842.522	15972
842.659	15728
842.796	15751
842.933	15804
843.069	15629
843.206	15709
843.343	15808
843.479	15755
843.616	15755
843.752	15500
843.889	15519
844.025	15599
844.162	15568
844.298	15720
844.435	15481
844.571	15428
844.708	15625
844.844	15591
844.98	15656
845.117	15709
845.253	15553
845.389	15325
845.525	15568
845.661	15439
845.798	15424
845.934	15454
846.07	15298
846.206	15332
846.342	15462
846.478	15275
846.614	15154
846.75	15005
846.886	14979
847.022	15176
847.158	15165
847.294	15131
847.429	15097
847.565	15070
847.701	15443
847.837	14864
847.972	14762
848.108	14956
848.244	14906
848.379	14792
848.515	14765
848.65	14667
848.786	14648
848.921	14689
849.057	14746
849.192	14807
849.328	14834
849.463	14743
849.598	14701
849.734	14682
849.869	14503
850.004	14594
850.14	14495
850.275	14442
850.41	14377
850.545	14465
850.68	14347
850.815	14355
850.95	14495
851.085	14625
851.22	14552
851.355	14499
851.49	14473
851.625	14442
851.76	14488
851.895	14461
852.03	14419
852.165	14404
852.299	14389
852.434	14454
852.569	14408
852.703	14495
852.838	14541
852.973	14663
853.107	14617
853.242	14377
853.376	14366
853.511	14195
853.645	14366
853.78	14514
853.914	14374
854.048	14320
854.183	14248
854.317	14370
854.451	14537
854.585	14233
854.72	14332
854.854	14381
854.988	14309
855.122	14317
855.256	14199
855.39	14256
855.524	14415
855.658	14461
855.792	14377
855.926	14298
856.06	14423
856.194	14442
856.327	14324
856.461	14336
856.595	14275
856.729	14347
856.862	14446
856.996	14381
857.13	14457
857.263	14492
857.397	14499
857.53	14355
857.664	14442
857.797	14473
857.931	14457
858.064	14396
858.197	14488
858.331	14286
858.464	14290
858.597	14278
858.731	14332
858.864	14393
858.997	14237
859.13	14415
859.263	14362
859.396	14419
859.529	14278
859.662	14355
859.795	14240
859.928	14431
860.061	14480
860.194	14511
860.327	14396
860.46	14214
860.592	14434
860.725	14480
860.858	14469
860.99	14358
861.123	14320
861.256	14301
861.388	14358
861.521	15058
861.653	14168
861.786	14180
861.918	14244
862.05	14339
862.183	14282
862.315	14415
862.447	14484
862.58	14237
862.712	14153
862.844	14100
862.976	14248
863.108	14081
863.24	14450
863.372	14084
863.504	14123
863.636	14012
863.768	14202
863.9	14115
864.032	14149
864.164	14149
864.296	14134
864.428	14214
864.559	14294
864.691	14317
864.823	14221
864.954	14168
865.086	14176
865.217	14062
865.349	14027
865.48	14077
865.612	14149
865.743	14298
865.875	14225
866.006	14096
866.137	14126
866.269	14149
866.4	14084
866.531	14054
866.662	13986
866.793	14062
866.924	14092
867.055	14138
867.186	14088
867.317	14103
867.448	14001
867.579	14081
867.71	14096
867.841	14084
867.972	14164
868.103	14050
868.233	14206
868.364	14103
868.495	14145
868.625	14362
868.756	14457
868.886	14286
869.017	14336
869.147	14522
869.278	14499
869.408	14309
869.539	14473
869.669	14438
869.799	14389
869.929	14488
870.06	14450
870.19	14739
870.32	14640
870.45	14689
870.58	14899
870.71	14899
870.84	14796
870.97	14674
871.1	14746
871.23	14902
871.36	14910
871.489	14876
871.619	14918
871.749	14902
871.879	15024
872.008	15017
872.138	14925
872.267	14849
872.397	14834
872.526	14807
872.656	14777
872.785	14785
872.915	15173
873.044	15066
873.173	14982
873.303	15020
873.432	15047
873.561	15097
873.69	15081
873.819	15028
873.948	15077
874.077	15066
874.206	15001
874.335	15047
874.464	15154
874.593	15294
874.722	15260
874.851	15351
874.979	15329
875.108	15420
875.237	15386
875.365	15264
875.494	15272
875.623	15477
875.751	15279
875.88	15431
876.008	15523
876.136	15511
876.265	15739
876.393	15926
876.521	15713
876.65	15823
876.778	15778
876.906	15682
877.034	15819
877.162	15667
877.29	15713
877.418	15778
877.546	15781
877.674	15781
877.802	15656
877.93	15720
878.058	15625
878.185	15652
878.313	15743
878.441	15663
878.568	15698
878.696	15743
878.824	15667
878.951	15846
879.079	15949
879.206	16078
879.333	15800
879.461	15739
879.588	15846
879.715	15873
879.842	16051
879.97	15774
880.097	15625
880.224	15599
880.351	15599
880.478	15557
880.605	15572
880.732	15584
880.859	15835
880.986	15641
881.112	15526
881.239	15481
881.366	15355
881.493	15272
881.619	15211
881.746	15233
881.872	15268
881.999	15184
882.125	15104
882.252	15256
882.378	15313
882.505	15420
882.631	15157
882.757	15062
882.883	15135
883.01	14994
883.136	15036
883.262	14921
883.388	14990
883.514	15085
883.64	15062
883.766	15066
883.892	14823
884.018	14864
884.143	15093
884.269	15192
884.395	14834
884.52	14769
884.646	14735
884.772	14686
884.897	14651
885.023	14777
885.148	14868
885.274	14967
885.399	14781
885.524	14796
885.65	14800
885.775	14845
885.9	14724
886.025	14994
886.15	14937
886.275	14682
886.4	14762
886.525	14762
886.65	14758
886.775	14670
886.9	14956
887.025	15017
887.149	14670
887.274	14670
887.399	14625
887.523	14670
887.648	14541
887.773	14590
887.897	14720
888.021	14659
888.146	14461
888.27	14621
888.395	14705
888.519	14739
888.643	14617
888.767	14651
888.891	14606
889.015	14545
889.139	14488
889.263	14492
889.387	14617
889.511	14705
889.635	14678
889.759	14469
889.883	14571
890.006	14587
890.13	14674
890.254	14533
890.377	14480
890.501	14301
890.624	14271
890.748	14366
890.871	14244
890.995	14073
891.118	14126
891.241	14229
891.364	14183
891.488	14317
891.611	14252
891.734	14145
891.857	14275
891.98	14271
892.103	14320
892.226	14286
892.349	14195
892.471	14138
892.594	14084
892.717	14282
892.839	14256
892.962	14233
893.085	14298
893.207	14214
893.33	14126
893.452	14103
893.575	14275
893.697	14103
893.819	14408
893.941	14393
894.064	14415
894.186	14218
894.308	14164
894.43	14324
894.552	14377
894.674	14317
894.796	14130
894.918	14183
895.04	14229
895.161	14229
895.283	14298
895.405	14252
895.526	14343
895.648	14256
895.769	14313
895.891	14366
896.012	14339
896.134	14404
896.255	14431
896.376	14278
896.498	14320
896.619	14381
896.74	14328
896.861	14454
896.982	14678
897.103	14937
897.224	14720
897.345	14640
897.466	14579
897.587	14644
897.708	14655
897.828	14598
897.949	14610
898.07	14495
898.19	14644
898.311	14708
898.431	14629
898.552	14765
898.672	14788
898.792	14712
898.913	14743
899.033	14613
899.153	14644
899.273	14427
899.393	14549
899.513	14526
899.633	14610
899.753	14537
899.873	14533
899.993	14598
900.113	14541
900.232	14583
900.352	14522
900.472	14415
900.591	14408
900.711	14492
900.83	14393
900.95	14514
901.069	14556
901.189	14393
901.308	14153
901.427	14046
901.546	14008
901.665	14081
901.784	14100
901.904	14039
902.023	13894
902.141	13651
902.26	13639
902.379	13685
902.498	13655
902.617	13563
902.735	13666
902.854	13696
902.973	13601
903.091	13346
903.21	13411
903.328	13324
903.446	13346
903.565	13263
903.683	13236
903.801	13103
903.919	13156
904.038	13164
904.156	13057
904.274	13164
904.392	13027
904.51	13050
904.627	13080
904.745	13099
904.863	13110
904.981	12878
905.098	12734
905.216	12798
905.334	12741
905.451	12741
905.569	12734
905.686	12677
905.803	12677
905.921	12540
906.038	12631
906.155	12528
906.272	12456
906.389	12544
906.506	12285
906.623	12308
906.74	12323
906.857	12228
906.974	12289
907.091	12479
907.208	12506
907.324	12395
907.441	12266
907.557	12152
907.674	12190
907.79	12053
907.907	11961
908.023	12045
908.139	12095
908.256	11977
908.372	12049
908.488	12007
908.604	11885
908.72	11817
908.836	11802
908.952	11813
909.068	11851
909.184	11977
909.3	11817
909.415	11866
909.531	11878
909.647	11646
909.762	11539
909.878	11619
909.993	11596
910.108	11589
910.224	11562
910.339	11535
910.454	11516
910.57	11452
910.685	11486
910.8	11756
910.915	11524
911.03	11463
911.145	11349
911.259	11322
911.374	11223
911.489	11269
911.604	11261
911.718	11064
911.833	11117
911.947	10991
912.062	10930
912.176	10972
912.291	11128
912.405	11037
912.519	11284
912.633	11265
912.748	11117
912.862	11094
912.976	10915
913.09	10824
913.204	10854
913.318	10953
913.431	11064
913.545	11064
913.659	10984
913.772	11003
913.886	10869
914	10771
914.113	10915
914.226	10911
914.34	10850
914.453	10805
914.566	10904
914.68	10721
914.793	10721
914.906	10615
915.019	10561
915.132	10561
915.245	10569
915.358	10622
915.47	10554
915.583	10592
915.696	10672
915.809	10778
915.921	10744
916.034	10481
916.146	10478
916.259	10577
916.371	10649
916.483	10542
916.595	10367
916.708	10538
916.82	10542
916.932	10565
917.044	10474
917.156	10485
917.268	10451
917.38	10398
917.491	10310
917.603	10398
917.715	10497
917.826	10516
917.938	10314
918.049	10306
918.161	10447
918.272	10607
918.384	10470
918.495	10405
918.606	10310
918.717	10139
918.828	10329
918.939	10344
919.05	10192
919.161	10272
919.272	10036
919.383	10124
919.494	10219
919.604	10470
919.715	10329
919.826	10314
919.936	10238
920.047	10310
920.157	10291
920.267	10516
920.378	10382
920.488	10246
920.598	10512
920.708	10714
920.818	10481
920.928	10535
921.038	10637
921.148	10679
921.258	10268
921.368	10261
921.477	10162
921.587	10112
921.697	9998
921.806	10078
921.916	9979
922.025	9835
922.134	9808
922.244	9785
922.353	9865
922.462	9724
922.571	9629
922.68	9564
922.789	9538
922.898	9553
923.007	9477
923.116	9622
923.224	9477
923.333	9526
923.442	9515
923.55	9389
923.659	9447
923.767	9496
923.876	9408
923.984	9458
924.092	9272
924.201	9405
924.309	9298
924.417	9382
924.525	9260
924.633	9370
924.741	10234
924.849	9146
924.956	9249
925.064	9233
925.172	9058
925.279	9169
925.387	9203
925.494	9256
925.602	9332
925.709	9218
925.816	9085
925.924	9154
926.031	9287
926.138	9218
926.245	9176
926.352	9097
926.459	9226
926.566	9298
926.673	9218
926.779	9066
926.886	8982
926.993	8933
927.099	8921
927.206	8838
927.312	8785
927.419	8941
927.525	8880
927.631	8872
927.737	8823
927.843	8731
927.95	8697
928.056	8727
928.162	8819
928.267	8830
928.373	9351
928.479	8853
928.585	8640
928.69	8766
928.796	8788
928.901	8674
929.007	8617
929.112	8689
929.218	8697
929.323	8594
929.428	8644
929.533	8746
929.638	8488
929.743	8560
929.848	8617
929.953	8587
930.058	8457
930.163	8393
930.267	8343
930.372	8511
930.477	8381
930.581	8511
930.685	8461
930.79	8244
930.894	8362
930.998	8313
931.103	8488
931.207	8115
931.311	8050
931.415	8050
931.519	7894
931.623	7864
