Data from test_V78500241_1075.txt Node
Date: Fri Mar 25 14:41:12 CST 2022
User: usil
Spectrometer: V785-0024
Trigger mode: 0
Integration Time (sec): 4.000000E-1
Scans to average: 1
Nonlinearity correction enabled: false
Boxcar width: 0
Storing dark spectrum: false
XAxis mode: Wavelengths
Number of Pixels in Spectrum: 1024
>>>>>Begin Spectral Data<<<<<
801.071	22767
801.214	22660
801.356	22367
801.499	22348
801.641	22261
801.783	22185
801.926	22181
802.068	22135
802.211	21991
802.353	21880
802.496	21751
802.638	21587
802.78	21656
802.923	21644
803.065	21431
803.208	21408
803.35	21523
803.492	21595
803.635	21519
803.777	21424
803.919	21545
804.061	21960
804.204	21599
804.346	21488
804.488	21458
804.63	21439
804.773	21294
804.915	21424
805.057	21545
805.199	21359
805.341	21481
805.483	21515
805.626	21485
805.768	21355
805.91	21492
806.052	21462
806.194	21230
806.336	21648
806.478	21450
806.62	21450
806.762	21572
806.904	21663
807.046	21956
807.188	21827
807.33	21747
807.472	22017
807.614	21656
807.756	21778
807.898	21759
808.04	21850
808.182	21739
808.324	21819
808.465	21918
808.607	22158
808.749	22318
808.891	22428
809.033	22447
809.174	22474
809.316	22287
809.458	22185
809.6	22059
809.741	22063
809.883	22036
810.025	22116
810.166	22162
810.308	22116
810.45	22166
810.591	21956
810.733	21800
810.875	21694
811.016	21549
811.158	21561
811.299	21819
811.441	21766
811.582	21701
811.724	21599
811.865	21515
812.007	21652
812.148	21694
812.29	21656
812.431	21747
812.573	21907
812.714	21880
812.855	22124
812.997	22185
813.138	22394
813.279	22299
813.421	22150
813.562	21983
813.703	21979
813.845	21652
813.986	21542
814.127	21408
814.268	21237
814.41	21180
814.551	21096
814.692	21188
814.833	21066
814.974	21036
815.115	21116
815.256	20975
815.397	20910
815.539	21001
815.68	20899
815.821	20823
815.962	21017
816.103	20971
816.244	20769
816.385	20621
816.526	20746
816.666	20560
816.807	20324
816.948	20492
817.089	20480
817.23	20419
817.371	20355
817.512	20290
817.653	20278
817.793	20366
817.934	20427
818.075	20343
818.216	20358
818.356	20278
818.497	20100
818.638	20027
818.778	20001
818.919	19989
819.06	20100
819.2	20180
819.341	20347
819.481	20252
819.622	20347
819.762	20503
819.903	20522
820.043	20309
820.184	20408
820.324	20377
820.465	20438
820.605	20328
820.746	20320
820.886	20157
821.026	20210
821.167	20320
821.307	20267
821.447	20161
821.588	20138
821.728	19970
821.868	19967
822.008	19674
822.149	19666
822.289	19658
822.429	19499
822.569	19358
822.709	19346
822.849	19179
822.99	19297
823.13	19038
823.27	19148
823.41	19027
823.55	19046
823.69	18985
823.83	18996
823.97	18962
824.11	18810
824.25	18760
824.389	18837
824.529	18810
824.669	18772
824.809	18916
824.949	18951
825.089	18802
825.228	18700
825.368	18639
825.508	18673
825.648	18642
825.787	18658
825.927	18559
826.067	18551
826.206	18547
826.346	18642
826.485	18646
826.625	18604
826.765	18719
826.904	18513
827.044	18365
827.183	18376
827.323	18254
827.462	18194
827.601	18315
827.741	18239
827.88	18186
828.02	18178
828.159	18186
828.298	18296
828.437	18311
828.577	18247
828.716	18350
828.855	18201
828.994	18003
829.134	18019
829.273	18003
829.412	17908
829.551	17916
829.69	17912
829.829	17923
829.968	18083
830.107	18015
830.246	17942
830.385	17866
830.524	17859
830.663	17927
830.802	17779
830.941	17634
831.08	17570
831.219	17680
831.357	17611
831.496	17832
831.635	17623
831.774	17471
831.913	17543
832.051	17398
832.19	17410
832.329	17505
832.467	17284
832.606	17307
832.744	17246
832.883	17379
833.022	17345
833.16	17197
833.299	17261
833.437	17429
833.576	17334
833.714	17322
833.852	17372
833.991	17379
834.129	17520
834.267	17509
834.406	17372
834.544	17326
834.682	17429
834.821	17406
834.959	17512
835.097	17303
835.235	17467
835.373	17349
835.511	17307
835.65	17212
835.788	17189
835.926	17105
836.064	17045
836.202	17071
836.34	17250
836.478	17307
836.615	17178
836.753	17299
836.891	17471
837.029	17341
837.167	17208
837.305	17185
837.443	17174
837.58	17128
837.718	17098
837.856	17208
837.993	17102
838.131	17151
838.269	17025
838.406	17018
838.544	16946
838.681	16790
838.819	16752
838.956	16637
839.094	16599
839.231	16656
839.369	16771
839.506	16892
839.643	16900
839.781	16668
839.918	16573
840.055	16733
840.193	16687
840.33	16592
840.467	16550
840.604	16683
840.742	16790
840.879	16485
841.016	16592
841.153	16558
841.29	16778
841.427	16702
841.564	16634
841.701	16611
841.838	16569
841.975	16645
842.112	16618
842.249	16493
842.385	16363
842.522	16618
842.659	16455
842.796	16367
842.933	16398
843.069	16493
843.206	16379
843.343	16504
843.479	16447
843.616	16538
843.752	16219
843.889	16101
844.025	16390
844.162	16249
844.298	16325
844.435	16238
844.571	16261
844.708	16363
844.844	16382
844.98	16436
845.117	16295
845.253	16211
845.389	16158
845.525	16329
845.661	16303
845.798	16409
845.934	16516
846.07	16565
846.206	16596
846.342	16660
846.478	16329
846.614	15979
846.75	15823
846.886	15861
847.022	15854
847.158	15892
847.294	15770
847.429	15838
847.565	15781
847.701	15937
847.837	15534
847.972	15443
848.108	15473
848.244	15610
848.379	15401
848.515	15370
848.65	15359
848.786	15408
848.921	15450
849.057	15492
849.192	15435
849.328	15393
849.463	15447
849.598	15237
849.734	15230
849.869	15230
850.004	15024
850.14	15024
850.275	15116
850.41	15039
850.545	15093
850.68	15093
850.815	15211
850.95	15089
851.085	15298
851.22	15237
851.355	15100
851.49	15058
851.625	15112
851.76	15100
851.895	15005
852.03	15024
852.165	15100
852.299	15070
852.434	15199
852.569	15211
852.703	15108
852.838	15321
852.973	15298
853.107	15230
853.242	15097
853.376	15009
853.511	14971
853.645	14963
853.78	15055
853.914	14921
854.048	14994
854.183	15070
854.317	15070
854.451	15207
854.585	14998
854.72	15005
854.854	15062
854.988	14952
855.122	15032
855.256	14899
855.39	14960
855.524	15131
855.658	15112
855.792	15001
855.926	15077
856.06	15066
856.194	15169
856.327	15005
856.461	14952
856.595	14914
856.729	15017
856.862	15123
856.996	15055
857.13	15058
857.263	15169
857.397	15097
857.53	14956
857.664	15074
857.797	15077
857.931	15203
858.064	15077
858.197	15195
858.331	14994
858.464	14948
858.597	14834
858.731	15043
858.864	15028
858.997	15043
859.13	15055
859.263	15043
859.396	15089
859.529	14937
859.662	15009
859.795	14975
859.928	15077
860.061	15230
860.194	15131
860.327	15043
860.46	14952
860.592	15089
860.725	15195
860.858	15226
860.99	15104
861.123	14925
861.256	14941
861.388	15047
861.521	15576
861.653	14819
861.786	14845
861.918	14864
862.05	15028
862.183	14921
862.315	14895
862.447	15024
862.58	14910
862.712	14845
862.844	14735
862.976	14849
863.108	14815
863.24	15260
863.372	14731
863.504	14720
863.636	14788
863.768	14914
863.9	14834
864.032	14708
864.164	14754
864.296	14861
864.428	14933
864.559	14845
864.691	14826
864.823	14864
864.954	14815
865.086	14853
865.217	14804
865.349	14804
865.48	14644
865.612	14746
865.743	15013
865.875	14796
866.006	14743
866.137	14758
866.269	14765
866.4	14686
866.531	14716
866.662	14720
866.793	14670
866.924	14720
867.055	14712
867.186	14682
867.317	14640
867.448	14648
867.579	14678
867.71	14613
867.841	14686
867.972	14724
868.103	14842
868.233	14640
868.364	14796
868.495	14811
868.625	14937
868.756	15154
868.886	14853
869.017	15017
869.147	15123
869.278	15100
869.408	15001
869.539	15001
869.669	15142
869.799	15058
869.929	15077
870.06	15135
870.19	15367
870.32	15325
870.45	15332
870.58	15405
870.71	15477
870.84	15549
870.97	15336
871.1	15435
871.23	15614
871.36	15644
871.489	15538
871.619	15538
871.749	15610
871.879	15671
872.008	15690
872.138	15591
872.267	15595
872.397	15420
872.526	15519
872.656	15393
872.785	15359
872.915	15633
873.044	15629
873.173	15652
873.303	15675
873.432	15705
873.561	15720
873.69	15633
873.819	15682
873.948	15789
874.077	15743
874.206	15564
874.335	15698
874.464	15762
874.593	15934
874.722	15956
874.851	15937
874.979	15949
875.108	15964
875.237	15998
875.365	15842
875.494	15972
875.623	16002
875.751	15994
875.88	15991
876.008	16207
876.136	16162
876.265	16398
876.393	16504
876.521	16504
876.65	16466
876.778	16394
876.906	16291
877.034	16348
877.162	16276
877.29	16329
877.418	16386
877.546	16390
877.674	16363
877.802	16322
877.93	16265
878.058	16310
878.185	16280
878.313	16299
878.441	16451
878.568	16322
878.696	16382
878.824	16519
878.951	16634
879.079	16634
879.206	16869
879.333	16771
879.461	16809
879.588	16774
879.715	16877
879.842	16892
879.97	16637
880.097	16500
880.224	16318
880.351	16371
880.478	16348
880.605	16257
880.732	16291
880.859	16478
880.986	16333
881.112	16325
881.239	16181
881.366	16086
881.493	16021
881.619	16029
881.746	15895
881.872	15998
881.999	15949
882.125	15846
882.252	16040
882.378	16029
882.505	16086
882.631	15964
882.757	15789
882.883	15842
883.01	15816
883.136	15660
883.262	15629
883.388	15545
883.514	15766
883.64	15789
883.766	15713
883.892	15500
884.018	15515
884.143	15751
884.269	15709
884.395	15466
884.52	15389
884.646	15447
884.772	15424
884.897	15378
885.023	15526
885.148	15610
885.274	15584
885.399	15553
885.524	15408
885.65	15401
885.775	15488
885.9	15447
886.025	15561
886.15	15511
886.275	15389
886.4	15412
886.525	15420
886.65	15355
886.775	15256
886.9	15447
887.025	15660
887.149	15382
887.274	15317
887.399	15207
887.523	15268
887.648	15165
887.773	15093
887.897	15344
888.021	15321
888.146	15184
888.27	15272
888.395	15317
888.519	15306
888.643	15336
888.767	15279
888.891	15192
889.015	15017
889.139	15097
889.263	15066
889.387	15237
889.511	15256
889.635	15100
889.759	15100
889.883	15047
890.006	15154
890.13	15081
890.254	14963
890.377	14998
890.501	14819
890.624	14735
890.748	14941
890.871	14849
890.995	14678
891.118	14689
891.241	14724
891.364	14804
891.488	14838
891.611	14644
891.734	14769
891.857	14785
891.98	14807
892.103	14781
892.226	14765
892.349	14693
892.471	14610
892.594	14701
892.717	14735
892.839	14727
892.962	14739
893.085	14743
893.207	14708
893.33	14621
893.452	14629
893.575	14750
893.697	14689
893.819	14895
893.941	14902
894.064	14765
894.186	14667
894.308	14629
894.43	14834
894.552	14899
894.674	14769
894.796	14686
894.918	14697
895.04	14762
895.161	14792
895.283	14845
895.405	14693
895.526	14944
895.648	14880
895.769	14914
895.891	14902
896.012	14857
896.134	14811
896.255	14864
896.376	14834
896.498	14883
896.619	14910
896.74	14918
896.861	14967
896.982	15230
897.103	15439
897.224	15043
897.345	15108
897.466	15112
897.587	15116
897.708	15275
897.828	15150
897.949	15127
898.07	15043
898.19	15058
898.311	15233
898.431	15123
898.552	15279
898.672	15310
898.792	15340
898.913	15252
899.033	15119
899.153	15032
899.273	15009
899.393	15062
899.513	15005
899.633	15017
899.753	15104
899.873	15039
899.993	15085
900.113	15032
900.232	15074
900.352	15104
900.472	15009
900.591	14956
900.711	14948
900.83	14842
900.95	15051
901.069	15066
901.189	14899
901.308	14648
901.427	14541
901.546	14583
901.665	14549
901.784	14598
901.904	14492
902.023	14427
902.141	14218
902.26	14214
902.379	14218
902.498	14065
902.617	14081
902.735	14214
902.854	14138
902.973	14024
903.091	13936
903.21	13890
903.328	13818
903.446	13841
903.565	13674
903.683	13738
903.801	13609
903.919	13655
904.038	13670
904.156	13616
904.274	13529
904.392	13563
904.51	13457
904.627	13441
904.745	13563
904.863	13510
904.981	13282
905.098	13255
905.216	13156
905.334	13152
905.451	13240
905.569	13217
905.686	13206
905.803	13149
905.921	13050
906.038	13080
906.155	12954
906.272	13004
906.389	12916
906.506	12783
906.623	12856
906.74	12783
906.857	12669
906.974	12673
907.091	12844
907.208	12825
907.324	12817
907.441	12642
907.557	12631
907.674	12525
907.79	12494
907.907	12551
908.023	12574
908.139	12566
908.256	12528
908.372	12517
908.488	12426
908.604	12308
908.72	12327
908.836	12277
908.952	12209
909.068	12254
909.184	12380
909.3	12247
909.415	12273
909.531	12228
909.647	12072
909.762	11992
909.878	11901
909.993	11958
910.108	12034
910.224	11901
910.339	12022
910.454	11874
910.57	11935
910.685	11828
910.8	12064
910.915	12015
911.03	11927
911.145	11756
911.259	11805
911.374	11741
911.489	11611
911.604	11615
911.718	11448
911.833	11478
911.947	11398
912.062	11337
912.176	11402
912.291	11528
912.405	11459
912.519	11707
912.633	11680
912.748	11532
912.862	11463
912.976	11315
913.09	11201
913.204	11303
913.318	11307
913.431	11349
913.545	11326
913.659	11463
913.772	11425
913.886	11220
914	11178
914.113	11246
914.226	11353
914.34	11280
914.453	11185
914.566	11383
914.68	11216
914.793	11151
914.906	10999
915.019	10904
915.132	10854
915.245	10919
915.358	10942
915.47	11018
915.583	10930
915.696	10965
915.809	11162
915.921	11090
916.034	10942
916.146	10850
916.259	10816
916.371	10961
916.483	10984
916.595	10869
916.708	10869
916.82	10839
916.932	10847
917.044	10877
917.156	10850
917.268	10801
917.38	10809
917.491	10748
917.603	10816
917.715	10839
917.826	10801
917.938	10774
918.049	10599
918.161	10752
918.272	10866
918.384	10900
918.495	10801
918.606	10649
918.717	10599
918.828	10637
918.939	10710
919.05	10512
919.161	10599
919.272	10470
919.383	10535
919.494	10653
919.604	10831
919.715	10736
919.826	10565
919.936	10607
920.047	10736
920.157	10626
920.267	10919
920.378	10714
920.488	10626
920.598	10900
920.708	10976
920.818	10877
920.928	10904
921.038	11025
921.148	10957
921.258	10679
921.368	10584
921.477	10527
921.587	10398
921.697	10363
921.806	10561
921.916	10333
922.025	10246
922.134	10169
922.244	10211
922.353	10204
922.462	10131
922.571	10067
922.68	9892
922.789	9778
922.898	9827
923.007	9850
923.116	9892
923.224	9835
923.333	9895
923.442	9793
923.55	9690
923.659	9835
923.767	9857
923.876	9759
923.984	9842
924.092	9686
924.201	9785
924.309	9732
924.417	9800
924.525	9701
924.633	9698
924.741	10538
924.849	9431
924.956	9736
925.064	9591
925.172	9466
925.279	9519
925.387	9599
925.494	9526
925.602	9694
925.709	9568
925.816	9458
925.924	9473
926.031	9587
926.138	9523
926.245	9587
926.352	9473
926.459	9595
926.566	9679
926.673	9504
926.779	9389
926.886	9485
926.993	9287
927.099	9180
927.206	9195
927.312	9233
927.419	9275
927.525	9310
927.631	9321
927.737	9214
927.843	9116
927.95	8952
928.056	9150
928.162	9157
928.267	9176
928.373	9785
928.479	9146
928.585	8971
928.69	9135
928.796	9150
928.901	9062
929.007	8967
929.112	9024
929.218	9066
929.323	8960
929.428	8921
929.533	9077
929.638	8876
929.743	8899
929.848	9013
929.953	8941
930.058	8830
930.163	8629
930.267	8735
930.372	8796
930.477	8636
930.581	8921
930.685	8743
930.79	8644
930.894	8701
930.998	8640
931.103	8731
931.207	8454
931.311	8412
931.415	8259
931.519	8073
931.623	8134
