Data from test_V78500241_2792.txt Node
Date: Fri Mar 25 14:53:09 CST 2022
User: usil
Spectrometer: V785-0024
Trigger mode: 0
Integration Time (sec): 4.000000E-1
Scans to average: 1
Nonlinearity correction enabled: false
Boxcar width: 0
Storing dark spectrum: false
XAxis mode: Wavelengths
Number of Pixels in Spectrum: 1024
>>>>>Begin Spectral Data<<<<<
801.071	22120
801.214	21945
801.356	21778
801.499	21504
801.641	21485
801.783	21370
801.926	21389
802.068	21428
802.211	21344
802.353	21154
802.496	21070
802.638	20788
802.78	20883
802.923	20830
803.065	20629
803.208	20735
803.35	20716
803.492	20876
803.635	20880
803.777	20689
803.919	20823
804.061	21116
804.204	20743
804.346	20621
804.488	20686
804.63	20712
804.773	20583
804.915	20636
805.057	20883
805.199	20613
805.341	20724
805.483	20640
805.626	20693
805.768	20583
805.91	20743
806.052	20655
806.194	20701
806.336	20807
806.478	20632
806.62	20564
806.762	20689
806.904	20746
807.046	21017
807.188	20944
807.33	20979
807.472	21081
807.614	20914
807.756	20845
807.898	20735
808.04	20590
808.182	20682
808.324	20632
808.465	20777
808.607	20887
808.749	21043
808.891	21093
809.033	21241
809.174	21066
809.316	21066
809.458	21005
809.6	21032
809.741	21135
809.883	21100
810.025	21165
810.166	21165
810.308	21237
810.45	21173
810.591	21020
810.733	20834
810.875	20815
811.016	20815
811.158	20590
811.299	20910
811.441	20899
811.582	21058
811.724	20834
811.865	20697
812.007	20838
812.148	20804
812.29	20800
812.431	20990
812.573	21165
812.714	21176
812.855	21283
812.997	21249
813.138	21420
813.279	21466
813.421	21317
813.562	21325
813.703	21047
813.845	20967
813.986	20743
814.127	20473
814.268	20393
814.41	20533
814.551	20214
814.692	20290
814.833	20305
814.974	20290
815.115	20286
815.256	20153
815.397	20100
815.539	20252
815.68	20149
815.821	19993
815.962	20069
816.103	20103
816.244	20020
816.385	19791
816.526	19677
816.666	19586
816.807	19415
816.948	19624
817.089	19578
817.23	19506
817.371	19476
817.512	19483
817.653	19521
817.793	19419
817.934	19381
818.075	19392
818.216	19464
818.356	19369
818.497	19251
818.638	19156
818.778	19221
818.919	19110
819.06	19247
819.2	19282
819.341	19430
819.481	19331
819.622	19552
819.762	19719
819.903	19540
820.043	19491
820.184	19430
820.324	19411
820.465	19537
820.605	19453
820.746	19354
820.886	19274
821.026	19411
821.167	19324
821.307	19502
821.447	19354
821.588	19320
821.728	19183
821.868	18920
822.008	18802
822.149	18863
822.289	18817
822.429	18719
822.569	18597
822.709	18563
822.849	18464
822.99	18384
823.13	18296
823.27	18292
823.41	18201
823.55	18186
823.69	18144
823.83	18129
823.97	18091
824.11	17954
824.25	17866
824.389	17889
824.529	18049
824.669	17939
824.809	18095
824.949	17973
825.089	17901
825.228	17923
825.368	17798
825.508	17657
825.648	17802
825.787	17760
825.927	17703
826.067	17619
826.206	17600
826.346	17653
826.485	17668
826.625	17687
826.765	17684
826.904	17798
827.044	17459
827.183	17376
827.323	17315
827.462	17474
827.601	17474
827.741	17429
827.88	17326
828.02	17223
828.159	17341
828.298	17452
828.437	17474
828.577	17315
828.716	17520
828.855	17349
828.994	17113
829.134	17079
829.273	17128
829.412	17052
829.551	17075
829.69	17140
829.829	17208
829.968	17258
830.107	17204
830.246	17242
830.385	17060
830.524	16976
830.663	16972
830.802	16892
830.941	16797
831.08	16596
831.219	16930
831.357	16767
831.496	16980
831.635	16801
831.774	16687
831.913	16698
832.051	16523
832.19	16531
832.329	16573
832.467	16413
832.606	16417
832.744	16417
832.883	16428
833.022	16341
833.16	16428
833.299	16462
833.437	16550
833.576	16512
833.714	16481
833.852	16516
833.991	16489
834.129	16664
834.267	16649
834.406	16504
834.544	16523
834.682	16554
834.821	16531
834.959	16649
835.097	16481
835.235	16637
835.373	16588
835.511	16478
835.65	16428
835.788	16493
835.926	16188
836.064	16143
836.202	16226
836.34	16402
836.478	16550
836.615	16291
836.753	16348
836.891	16561
837.029	16344
837.167	16451
837.305	16333
837.443	16280
837.58	16215
837.718	16363
837.856	16284
837.993	16158
838.131	16261
838.269	16223
838.406	16261
838.544	16093
838.681	16021
838.819	16067
838.956	15884
839.094	15854
839.231	15903
839.369	15975
839.506	16295
839.643	16147
839.781	15812
839.918	15747
840.055	15861
840.193	15789
840.33	15827
840.467	15800
840.604	15831
840.742	16173
840.879	15682
841.016	15648
841.153	15831
841.29	15842
841.427	15911
841.564	15835
841.701	15842
841.838	15861
841.975	15789
842.112	15675
842.249	15747
842.385	15553
842.522	15812
842.659	15629
842.796	15641
842.933	15553
843.069	15610
843.206	15606
843.343	15641
843.479	15622
843.616	15671
843.752	15454
843.889	15466
844.025	15553
844.162	15454
844.298	15488
844.435	15405
844.571	15363
844.708	15416
844.844	15466
844.98	15561
845.117	15454
845.253	15374
845.389	15317
845.525	15294
845.661	15287
845.798	15203
845.934	15203
846.07	15188
846.206	15222
846.342	15367
846.478	15104
846.614	15066
846.75	15020
846.886	15032
847.022	15097
847.158	15028
847.294	14982
847.429	15017
847.565	14902
847.701	15165
847.837	14785
847.972	14670
848.108	14807
848.244	14830
848.379	14659
848.515	14632
848.65	14530
848.786	14568
848.921	14526
849.057	14648
849.192	14743
849.328	14560
849.463	14514
849.598	14537
849.734	14533
849.869	14431
850.004	14385
850.14	14377
850.275	14415
850.41	14339
850.545	14298
850.68	14317
850.815	14347
850.95	14408
851.085	14533
851.22	14469
851.355	14381
851.49	14263
851.625	14339
851.76	14328
851.895	14275
852.03	14134
852.165	14358
852.299	14324
852.434	14355
852.569	14290
852.703	14320
852.838	14343
852.973	14556
853.107	14415
853.242	14324
853.376	14187
853.511	14138
853.645	14195
853.78	14355
853.914	14187
854.048	14195
854.183	14149
854.317	14202
854.451	14374
854.585	14218
854.72	14221
854.854	14328
854.988	14065
855.122	14202
855.256	14027
855.39	14267
855.524	14317
855.658	14320
855.792	14263
855.926	14347
856.06	14290
856.194	14305
856.327	14191
856.461	14225
856.595	14145
856.729	14202
856.862	14301
856.996	14256
857.13	14275
857.263	14374
857.397	14347
857.53	14218
857.664	14259
857.797	14328
857.931	14298
858.064	14252
858.197	14336
858.331	14210
858.464	14225
858.597	14073
858.731	14172
858.864	14153
858.997	14126
859.13	14176
859.263	14248
859.396	14320
859.529	14134
859.662	14191
859.795	14176
859.928	14161
860.061	14351
860.194	14415
860.327	14313
860.46	14138
860.592	14339
860.725	14286
860.858	14317
860.99	14164
861.123	14176
861.256	14115
861.388	14221
861.521	14849
861.653	14126
861.786	14031
861.918	14058
862.05	14210
862.183	14145
862.315	14172
862.447	14240
862.58	14240
862.712	14046
862.844	13875
862.976	14088
863.108	14092
863.24	14431
863.372	13982
863.504	13989
863.636	14088
863.768	14073
863.9	14016
864.032	13868
864.164	13974
864.296	14058
864.428	14103
864.559	14126
864.691	14092
864.823	13989
864.954	14065
865.086	14020
865.217	13997
865.349	13860
865.48	14077
865.612	14065
865.743	14195
865.875	14024
866.006	13986
866.137	14046
866.269	13887
866.4	13898
866.531	14008
866.662	13856
866.793	13963
866.924	13993
867.055	14054
867.186	14062
867.317	13928
867.448	13921
867.579	13951
867.71	13906
867.841	13811
867.972	13947
868.103	14039
868.233	14024
868.364	13974
868.495	14096
868.625	14210
868.756	14305
868.886	14084
869.017	14183
869.147	14362
869.278	14358
869.408	14278
869.539	14256
869.669	14328
869.799	14259
869.929	14263
870.06	14351
870.19	14583
870.32	14488
870.45	14560
870.58	14598
870.71	14727
870.84	14746
870.97	14571
871.1	14636
871.23	14777
871.36	14842
871.489	14739
871.619	14819
871.749	14918
871.879	14929
872.008	14861
872.138	14914
872.267	14800
872.397	14735
872.526	14587
872.656	14537
872.785	14727
872.915	14769
873.044	14948
873.173	14849
873.303	14849
873.432	14883
873.561	14963
873.69	14937
873.819	14952
873.948	14963
874.077	14887
874.206	14891
874.335	14849
874.464	15039
874.593	15180
874.722	15089
874.851	15214
874.979	15119
875.108	15222
875.237	15192
875.365	15074
875.494	15218
875.623	15279
875.751	15249
875.88	15329
876.008	15473
876.136	15450
876.265	15618
876.393	15751
876.521	15679
876.65	15797
876.778	15671
876.906	15660
877.034	15538
877.162	15553
877.29	15614
877.418	15633
877.546	15576
877.674	15652
877.802	15701
877.93	15641
878.058	15667
878.185	15511
878.313	15591
878.441	15599
878.568	15393
878.696	15538
878.824	15584
878.951	15736
879.079	15785
879.206	15880
879.333	15667
879.461	15690
879.588	15679
879.715	15793
879.842	15911
879.97	15572
880.097	15374
880.224	15450
880.351	15443
880.478	15435
880.605	15439
880.732	15336
880.859	15759
880.986	15450
881.112	15439
881.239	15382
881.366	15332
881.493	15192
881.619	15173
881.746	15199
881.872	15195
881.999	15043
882.125	15146
882.252	15214
882.378	15188
882.505	15313
882.631	15051
882.757	15017
882.883	15077
883.01	14975
883.136	14880
883.262	14720
883.388	14788
883.514	15009
883.64	15028
883.766	14864
883.892	14594
884.018	14842
884.143	14868
884.269	14899
884.395	14686
884.52	14606
884.646	14568
884.772	14533
884.897	14533
885.023	14640
885.148	14678
885.274	14777
885.399	14842
885.524	14731
885.65	14697
885.775	14663
885.9	14689
886.025	14712
886.15	14708
886.275	14575
886.4	14625
886.525	14632
886.65	14552
886.775	14625
886.9	14746
887.025	14925
887.149	14621
887.274	14461
887.399	14484
887.523	14362
887.648	14377
887.773	14351
887.897	14507
888.021	14598
888.146	14476
888.27	14518
888.395	14549
888.519	14503
888.643	14530
888.767	14518
888.891	14450
889.015	14313
889.139	14290
889.263	14275
889.387	14484
889.511	14545
889.635	14446
889.759	14267
889.883	14298
890.006	14381
890.13	14358
890.254	14278
890.377	14328
890.501	14183
890.624	14145
890.748	14183
890.871	14123
890.995	14050
891.118	13978
891.241	14012
891.364	14069
891.488	14123
891.611	14016
891.734	14054
891.857	14027
891.98	14123
892.103	14134
892.226	14123
892.349	14031
892.471	13883
892.594	14050
892.717	14039
892.839	13932
892.962	13974
893.085	14046
893.207	13993
893.33	13921
893.452	14008
893.575	14218
893.697	14065
893.819	14180
893.941	14252
894.064	14191
894.186	14050
894.308	14103
894.43	14259
894.552	14259
894.674	14237
894.796	13944
894.918	14100
895.04	14123
895.161	14252
895.283	14191
895.405	14016
895.526	14103
895.648	14107
895.769	14218
895.891	14214
896.012	14221
896.134	14263
896.255	14271
896.376	14153
896.498	14187
896.619	14233
896.74	14221
896.861	14275
896.982	14602
897.103	14674
897.224	14632
897.345	14495
897.466	14415
897.587	14370
897.708	14621
897.828	14541
897.949	14579
898.07	14465
898.19	14446
898.311	14625
898.431	14503
898.552	14579
898.672	14663
898.792	14651
898.913	14610
899.033	14473
899.153	14400
899.273	14298
899.393	14396
899.513	14526
899.633	14446
899.753	14408
899.873	14495
899.993	14480
900.113	14408
900.232	14465
900.352	14393
900.472	14278
900.591	14301
900.711	14343
900.83	14210
900.95	14473
901.069	14419
901.189	14240
901.308	14027
901.427	13890
901.546	14096
901.665	14050
901.784	14008
901.904	13879
902.023	13719
902.141	13647
902.26	13559
902.379	13563
902.498	13518
902.617	13441
902.735	13636
902.854	13518
902.973	13548
903.091	13293
903.21	13202
903.328	13232
903.446	13228
903.565	13126
903.683	13103
903.801	13084
903.919	12989
904.038	13103
904.156	12981
904.274	13076
904.392	12981
904.51	13000
904.627	12920
904.745	13012
904.863	12943
904.981	12673
905.098	12582
905.216	12658
905.334	12578
905.451	12612
905.569	12612
905.686	12753
905.803	12620
905.921	12513
906.038	12540
906.155	12369
906.272	12361
906.389	12426
906.506	12319
906.623	12159
906.74	12182
906.857	12098
906.974	12057
907.091	12258
907.208	12414
907.324	12277
907.441	12087
907.557	11935
907.674	11980
907.79	11946
907.907	11931
908.023	12011
908.139	12007
908.256	11916
908.372	11954
908.488	11859
908.604	11737
908.72	11707
908.836	11722
908.952	11676
909.068	11737
909.184	11843
909.3	11756
909.415	11737
909.531	11783
909.647	11486
909.762	11486
909.878	11455
909.993	11570
910.108	11474
910.224	11532
910.339	11471
910.454	11383
910.57	11299
910.685	11185
910.8	11463
910.915	11478
911.03	11337
911.145	11254
911.259	11147
911.374	11204
911.489	11162
911.604	11113
911.718	10923
911.833	11022
911.947	10900
912.062	10774
912.176	10896
912.291	10965
912.405	10957
912.519	11083
912.633	11056
912.748	11056
912.862	10942
912.976	10744
913.09	10748
913.204	10725
913.318	10843
913.431	10843
913.545	10835
913.659	10900
913.772	10843
913.886	10740
914	10687
914.113	10812
914.226	10858
914.34	10835
914.453	10615
914.566	10763
914.68	10660
914.793	10592
914.906	10561
915.019	10390
915.132	10390
915.245	10474
915.358	10561
915.47	10443
915.583	10478
915.696	10462
915.809	10618
915.921	10649
916.034	10409
916.146	10402
916.259	10348
916.371	10489
916.483	10489
916.595	10341
916.708	10390
916.82	10394
916.932	10428
917.044	10432
917.156	10337
917.268	10253
917.38	10363
917.491	10234
917.603	10299
917.715	10451
917.826	10367
917.938	10257
918.049	10185
918.161	10280
918.272	10455
918.384	10382
918.495	10242
918.606	10131
918.717	10067
918.828	10207
918.939	10173
919.05	10090
919.161	10135
919.272	9975
919.383	10002
919.494	10234
919.604	10390
919.715	10177
919.826	10101
919.936	10154
920.047	10253
920.157	10177
920.267	10421
920.378	10204
920.488	10219
920.598	10360
920.708	10538
920.818	10382
920.928	10329
921.038	10508
921.148	10493
921.258	10272
921.368	10078
921.477	10029
921.587	10055
921.697	9922
921.806	10055
921.916	9945
922.025	9789
922.134	9705
922.244	9671
922.353	9766
922.462	9644
922.571	9534
922.68	9431
922.789	9447
922.898	9435
923.007	9378
923.116	9462
923.224	9439
923.333	9450
923.442	9325
923.55	9317
923.659	9355
923.767	9370
923.876	9264
923.984	9374
924.092	9279
924.201	9302
924.309	9298
924.417	9287
924.525	9249
924.633	9321
924.741	9987
924.849	9047
924.956	9245
925.064	9100
925.172	8986
925.279	9036
925.387	9176
925.494	9077
925.602	9199
925.709	9184
925.816	8982
925.924	9043
926.031	9081
926.138	9116
926.245	9142
926.352	9108
926.459	9131
926.566	9222
926.673	9001
926.779	8994
926.886	8986
926.993	8845
927.099	8754
927.206	8739
927.312	8781
927.419	8883
927.525	8777
927.631	8876
927.737	8712
927.843	8682
927.95	8625
928.056	8655
928.162	8689
928.267	8773
928.373	9454
928.479	8861
928.585	8541
928.69	8667
928.796	8769
928.901	8659
929.007	8492
929.112	8613
929.218	8552
929.323	8511
929.428	8518
929.533	8705
929.638	8465
929.743	8495
929.848	8575
929.953	8495
930.058	8507
930.163	8305
930.267	8298
930.372	8381
930.477	8256
930.581	8469
930.685	8355
930.79	8214
930.894	8267
930.998	8244
931.103	8385
931.207	8092
931.311	7974
931.415	7921
931.519	7723
931.623	7742
