Data from test_V78500241_2629.txt Node
Date: Fri Mar 25 14:52:01 CST 2022
User: usil
Spectrometer: V785-0024
Trigger mode: 0
Integration Time (sec): 4.000000E-1
Scans to average: 1
Nonlinearity correction enabled: false
Boxcar width: 0
Storing dark spectrum: false
XAxis mode: Wavelengths
Number of Pixels in Spectrum: 1024
>>>>>Begin Spectral Data<<<<<
801.071	21953
801.214	21865
801.356	21660
801.499	21393
801.641	21412
801.783	21222
801.926	21450
802.068	21260
802.211	21211
802.353	21180
802.496	20971
802.638	20864
802.78	20788
802.923	20792
803.065	20609
803.208	20659
803.35	20705
803.492	20731
803.635	20792
803.777	20655
803.919	20739
804.061	20921
804.204	20678
804.346	20579
804.488	20476
804.63	20632
804.773	20613
804.915	20609
805.057	20823
805.199	20659
805.341	20636
805.483	20663
805.626	20678
805.768	20511
805.91	20720
806.052	20640
806.194	20484
806.336	20697
806.478	20514
806.62	20549
806.762	20575
806.904	20781
807.046	21089
807.188	20948
807.33	21077
807.472	20937
807.614	20823
807.756	20773
807.898	20735
808.04	20564
808.182	20609
808.324	20712
808.465	20724
808.607	20849
808.749	20944
808.891	21066
809.033	21135
809.174	21058
809.316	20998
809.458	20868
809.6	20937
809.741	21116
809.883	21020
810.025	20967
810.166	21157
810.308	21028
810.45	21058
810.591	20967
810.733	20769
810.875	20686
811.016	20625
811.158	20640
811.299	20663
811.441	20849
811.582	20792
811.724	20861
811.865	20773
812.007	20655
812.148	20686
812.29	20750
812.431	20823
812.573	21051
812.714	21116
812.855	21207
812.997	21310
813.138	21454
813.279	21249
813.421	21218
813.562	21249
813.703	21188
813.845	20807
813.986	20621
814.127	20431
814.268	20381
814.41	20313
814.551	20229
814.692	20317
814.833	20214
814.974	20183
815.115	20229
815.256	20168
815.397	20103
815.539	20142
815.68	20073
815.821	20024
815.962	20100
816.103	19875
816.244	19898
816.385	19712
816.526	19769
816.666	19499
816.807	19480
816.948	19556
817.089	19491
817.23	19403
817.371	19472
817.512	19392
817.653	19392
817.793	19377
817.934	19502
818.075	19331
818.216	19324
818.356	19392
818.497	19209
818.638	19221
818.778	19080
818.919	19156
819.06	19168
819.2	19164
819.341	19240
819.481	19373
819.622	19415
819.762	19666
819.903	19537
820.043	19396
820.184	19453
820.324	19331
820.465	19403
820.605	19430
820.746	19285
820.886	19274
821.026	19453
821.167	19392
821.307	19373
821.447	19297
821.588	19179
821.728	19023
821.868	19015
822.008	18703
822.149	18783
822.289	18757
822.429	18582
822.569	18521
822.709	18471
822.849	18174
822.99	18289
823.13	18258
823.27	18270
823.41	18106
823.55	17935
823.69	18072
823.83	18125
823.97	18083
824.11	17840
824.25	17939
824.389	17916
824.529	17958
824.669	17889
824.809	17961
824.949	17908
825.089	17958
825.228	17859
825.368	17627
825.508	17608
825.648	17695
825.787	17642
825.927	17562
826.067	17600
826.206	17707
826.346	17691
826.485	17657
826.625	17573
826.765	17634
826.904	17619
827.044	17425
827.183	17398
827.323	17296
827.462	17421
827.601	17372
827.741	17444
827.88	17387
828.02	17303
828.159	17364
828.298	17353
828.437	17459
828.577	17360
828.716	17425
828.855	17288
828.994	17018
829.134	17117
829.273	17132
829.412	17048
829.551	17025
829.69	17075
829.829	17155
829.968	17292
830.107	17166
830.246	17223
830.385	17029
830.524	16987
830.663	16934
830.802	16885
830.941	16748
831.08	16664
831.219	16782
831.357	16828
831.496	16946
831.635	16774
831.774	16755
831.913	16603
832.051	16432
832.19	16603
832.329	16497
832.467	16455
832.606	16348
832.744	16272
832.883	16356
833.022	16394
833.16	16386
833.299	16421
833.437	16474
833.576	16519
833.714	16382
833.852	16489
833.991	16474
834.129	16523
834.267	16573
834.406	16573
834.544	16569
834.682	16481
834.821	16443
834.959	16729
835.097	16481
835.235	16550
835.373	16523
835.511	16546
835.65	16337
835.788	16447
835.926	16280
836.064	16173
836.202	16276
836.34	16375
836.478	16481
836.615	16443
836.753	16417
836.891	16394
837.029	16382
837.167	16382
837.305	16348
837.443	16287
837.58	16265
837.718	16356
837.856	16306
837.993	16261
838.131	16363
838.269	16177
838.406	16223
838.544	16154
838.681	16044
838.819	15972
838.956	15903
839.094	15869
839.231	15903
839.369	15899
839.506	16158
839.643	16067
839.781	15797
839.918	15778
840.055	15876
840.193	15728
840.33	15915
840.467	15797
840.604	15842
840.742	15953
840.879	15770
841.016	15728
841.153	15755
841.29	15903
841.427	15770
841.564	15854
841.701	15895
841.838	15774
841.975	15739
842.112	15759
842.249	15625
842.385	15599
842.522	15781
842.659	15686
842.796	15530
842.933	15641
843.069	15599
843.206	15542
843.343	15728
843.479	15584
843.616	15584
843.752	15424
843.889	15462
844.025	15553
844.162	15382
844.298	15523
844.435	15431
844.571	15515
844.708	15443
844.844	15599
844.98	15504
845.117	15538
845.253	15294
845.389	15279
845.525	15382
845.661	15306
845.798	15237
845.934	15176
846.07	15184
846.206	15184
846.342	15367
846.478	15081
846.614	14998
846.75	14990
846.886	15017
847.022	15036
847.158	14975
847.294	14918
847.429	15097
847.565	14982
847.701	15161
847.837	14697
847.972	14697
848.108	14864
848.244	14712
848.379	14514
848.515	14598
848.65	14560
848.786	14568
848.921	14644
849.057	14689
849.192	14731
849.328	14629
849.463	14625
849.598	14564
849.734	14526
849.869	14431
850.004	14461
850.14	14507
850.275	14370
850.41	14221
850.545	14332
850.68	14301
850.815	14377
850.95	14317
851.085	14560
851.22	14499
851.355	14351
851.49	14225
851.625	14362
851.76	14404
851.895	14328
852.03	14221
852.165	14248
852.299	14309
852.434	14438
852.569	14370
852.703	14442
852.838	14377
852.973	14541
853.107	14465
853.242	14317
853.376	14199
853.511	14164
853.645	14278
853.78	14324
853.914	14248
854.048	14157
854.183	14138
854.317	14225
854.451	14366
854.585	14134
854.72	14218
854.854	14278
854.988	14096
855.122	14237
855.256	14134
855.39	14123
855.524	14343
855.658	14256
855.792	14271
855.926	14130
856.06	14233
856.194	14336
856.327	14225
856.461	14172
856.595	14210
856.729	14191
856.862	14393
856.996	14309
857.13	14358
857.263	14282
857.397	14267
857.53	14275
857.664	14225
857.797	14332
857.931	14214
858.064	14248
858.197	14370
858.331	14206
858.464	14145
858.597	14043
858.731	14286
858.864	14134
858.997	14199
859.13	14168
859.263	14214
859.396	14286
859.529	14263
859.662	14107
859.795	14126
859.928	14176
860.061	14332
860.194	14461
860.327	14259
860.46	14210
860.592	14377
860.725	14362
860.858	14294
860.99	14195
861.123	14157
861.256	14119
861.388	14263
861.521	14948
861.653	14119
861.786	14001
861.918	14062
862.05	14164
862.183	14130
862.315	14233
862.447	14134
862.58	14058
862.712	13932
862.844	13963
862.976	14039
863.108	14039
863.24	14499
863.372	13963
863.504	13986
863.636	13955
863.768	14096
863.9	14058
864.032	13875
864.164	14012
864.296	14084
864.428	14100
864.559	14046
864.691	14024
864.823	14001
864.954	14008
865.086	14100
865.217	13894
865.349	13951
865.48	13982
865.612	14107
865.743	14069
865.875	14008
866.006	14016
866.137	14020
866.269	13963
866.4	13871
866.531	13925
866.662	13875
866.793	13906
866.924	13944
867.055	13967
867.186	13932
867.317	14031
867.448	13909
867.579	13932
867.71	13890
867.841	13928
867.972	13978
868.103	13997
868.233	14031
868.364	13982
868.495	14058
868.625	14240
868.756	14355
868.886	14153
869.017	14221
869.147	14419
869.278	14305
869.408	14199
869.539	14259
869.669	14290
869.799	14275
869.929	14328
870.06	14374
870.19	14606
870.32	14590
870.45	14602
870.58	14644
870.71	14762
870.84	14731
870.97	14678
871.1	14594
871.23	14788
871.36	14842
871.489	14762
871.619	14830
871.749	14758
871.879	14887
872.008	14944
872.138	14826
872.267	14807
872.397	14640
872.526	14632
872.656	14670
872.785	14705
872.915	14823
873.044	15020
873.173	14899
873.303	14925
873.432	14906
873.561	15062
873.69	14910
873.819	14918
873.948	14937
874.077	14982
874.206	14891
874.335	14849
874.464	15001
874.593	15264
874.722	15176
874.851	15176
874.979	15241
875.108	15199
875.237	15066
875.365	15150
875.494	15226
875.623	15279
875.751	15237
875.88	15272
876.008	15310
876.136	15488
876.265	15629
876.393	15732
876.521	15728
876.65	15713
876.778	15599
876.906	15606
877.034	15595
877.162	15625
877.29	15500
877.418	15656
877.546	15644
877.674	15675
877.802	15576
877.93	15637
878.058	15652
878.185	15545
878.313	15572
878.441	15603
878.568	15462
878.696	15557
878.824	15618
878.951	15656
879.079	15819
879.206	16013
879.333	15895
879.461	15667
879.588	15789
879.715	15747
879.842	15960
879.97	15701
880.097	15542
880.224	15386
880.351	15412
880.478	15477
880.605	15492
880.732	15450
880.859	15641
880.986	15534
881.112	15534
881.239	15386
881.366	15252
881.493	15233
881.619	15138
881.746	15161
881.872	15131
881.999	15093
882.125	15097
882.252	15188
882.378	15150
882.505	15256
882.631	15108
882.757	15032
882.883	15070
883.01	14990
883.136	14956
883.262	14815
883.388	14697
883.514	15043
883.64	14982
883.766	14925
883.892	14724
884.018	14769
884.143	14834
884.269	15093
884.395	14686
884.52	14617
884.646	14613
884.772	14621
884.897	14499
885.023	14693
885.148	14861
885.274	14800
885.399	14739
885.524	14686
885.65	14621
885.775	14663
885.9	14545
886.025	14876
886.15	14701
886.275	14636
886.4	14587
886.525	14621
886.65	14610
886.775	14617
886.9	14785
887.025	14800
887.149	14743
887.274	14575
887.399	14446
887.523	14495
887.648	14484
887.773	14389
887.897	14526
888.021	14613
888.146	14389
888.27	14602
888.395	14648
888.519	14507
888.643	14530
888.767	14511
888.891	14431
889.015	14355
889.139	14393
889.263	14301
889.387	14461
889.511	14598
889.635	14480
889.759	14290
889.883	14419
890.006	14400
890.13	14454
890.254	14218
890.377	14404
890.501	14206
890.624	14187
890.748	14221
890.871	14214
890.995	14039
891.118	13860
891.241	14119
891.364	13944
891.488	14229
891.611	14142
891.734	14001
891.857	14092
891.98	14027
892.103	14126
892.226	14077
892.349	14058
892.471	13947
892.594	14103
892.717	14134
892.839	14024
892.962	14058
893.085	14153
893.207	14035
893.33	13944
893.452	13852
893.575	14024
893.697	13982
893.819	14221
893.941	14290
894.064	14187
894.186	14103
894.308	13997
894.43	14126
894.552	14168
894.674	14229
894.796	14031
894.918	14092
895.04	14065
895.161	14142
895.283	14202
895.405	14123
895.526	14039
895.648	14103
895.769	14233
895.891	14225
896.012	14305
896.134	14202
896.255	14218
896.376	14168
896.498	14142
896.619	14294
896.74	14202
896.861	14317
896.982	14522
897.103	14819
897.224	14514
897.345	14503
897.466	14393
897.587	14480
897.708	14610
897.828	14514
897.949	14457
898.07	14423
898.19	14362
898.311	14587
898.431	14381
898.552	14602
898.672	14640
898.792	14598
898.913	14575
899.033	14511
899.153	14541
899.273	14275
899.393	14355
899.513	14400
899.633	14461
899.753	14507
899.873	14396
899.993	14454
900.113	14362
900.232	14552
900.352	14412
900.472	14298
900.591	14282
900.711	14278
900.83	14221
900.95	14374
901.069	14469
901.189	14210
901.308	13970
901.427	13833
901.546	13986
901.665	14024
901.784	13982
901.904	13814
902.023	13776
902.141	13502
902.26	13460
902.379	13666
902.498	13480
902.617	13422
902.735	13575
902.854	13540
902.973	13415
903.091	13225
903.21	13225
903.328	13308
903.446	13187
903.565	13160
903.683	13129
903.801	13023
903.919	13126
904.038	13046
904.156	12954
904.274	12947
904.392	12894
904.51	12913
904.627	12973
904.745	12947
904.863	13034
904.981	12741
905.098	12627
905.216	12623
905.334	12601
905.451	12700
905.569	12654
905.686	12627
905.803	12662
905.921	12452
906.038	12437
906.155	12494
906.272	12384
906.389	12346
906.506	12330
906.623	12155
906.74	12178
906.857	12068
906.974	12083
907.091	12266
907.208	12357
907.324	12190
907.441	12171
907.557	11954
907.674	11855
907.79	11946
907.907	11904
908.023	11996
908.139	11965
908.256	11866
908.372	11874
908.488	11904
908.604	11688
908.72	11764
908.836	11771
908.952	11646
909.068	11745
909.184	11847
909.3	11802
909.415	11764
909.531	11802
909.647	11589
909.762	11501
909.878	11478
909.993	11524
910.108	11459
910.224	11520
910.339	11429
910.454	11410
910.57	11364
910.685	11318
910.8	11596
910.915	11524
911.03	11398
911.145	11212
911.259	11159
911.374	11181
911.489	11105
911.604	11185
911.718	10904
911.833	10980
911.947	10828
912.062	10824
912.176	10900
912.291	10930
912.405	10987
912.519	11159
912.633	11128
912.748	10930
912.862	10900
912.976	10843
913.09	10710
913.204	10774
913.318	10801
913.431	10957
913.545	10923
913.659	10976
913.772	10908
913.886	10790
914	10668
914.113	10774
914.226	10850
914.34	10816
914.453	10626
914.566	10816
914.68	10694
914.793	10645
914.906	10508
915.019	10436
915.132	10459
915.245	10466
915.358	10459
915.47	10546
915.583	10485
915.696	10588
915.809	10618
915.921	10618
916.034	10470
916.146	10413
916.259	10424
916.371	10599
916.483	10504
916.595	10447
916.708	10421
916.82	10481
916.932	10459
917.044	10390
917.156	10421
917.268	10310
917.38	10318
917.491	10356
917.603	10394
917.715	10462
917.826	10424
917.938	10341
918.049	10322
918.161	10409
918.272	10459
918.384	10428
918.495	10314
918.606	10219
918.717	10223
918.828	10158
918.939	10207
919.05	10166
919.161	10200
919.272	9960
919.383	10074
919.494	10257
919.604	10409
919.715	10196
919.826	10002
919.936	10112
920.047	10356
920.157	10246
920.267	10436
920.378	10249
920.488	10276
920.598	10405
920.708	10588
920.818	10443
920.928	10417
921.038	10607
921.148	10550
921.258	10333
921.368	10173
921.477	10150
921.587	10071
921.697	9949
921.806	10154
921.916	9911
922.025	9838
922.134	9850
922.244	9755
922.353	9842
922.462	9686
922.571	9652
922.68	9530
922.789	9397
922.898	9507
923.007	9405
923.116	9477
923.224	9549
923.333	9450
923.442	9363
923.55	9351
923.659	9389
923.767	9378
923.876	9393
923.984	9481
924.092	9272
924.201	9351
924.309	9332
924.417	9359
924.525	9294
924.633	9321
924.741	10040
924.849	9093
924.956	9226
925.064	9154
925.172	9009
925.279	9066
925.387	9131
925.494	9062
925.602	9272
925.709	9135
925.816	9097
925.924	9146
926.031	9203
926.138	9100
926.245	9184
926.352	9085
926.459	9203
926.566	9249
926.673	9058
926.779	9051
926.886	9013
926.993	8842
927.099	8819
927.206	8804
927.312	8819
927.419	8918
927.525	8895
927.631	8899
927.737	8758
927.843	8769
927.95	8606
928.056	8769
928.162	8727
928.267	8815
928.373	9393
928.479	8849
928.585	8625
928.69	8788
928.796	8735
928.901	8610
929.007	8571
929.112	8705
929.218	8667
929.323	8571
929.428	8537
929.533	8727
929.638	8488
929.743	8537
929.848	8632
929.953	8594
930.058	8454
930.163	8248
930.267	8343
930.372	8454
930.477	8298
930.581	8541
930.685	8381
930.79	8233
930.894	8351
930.998	8267
931.103	8389
931.207	8092
931.311	8069
931.415	7978
931.519	7826
931.623	7788
