Data from test_V78500241_2675.txt Node
Date: Fri Mar 25 14:52:20 CST 2022
User: usil
Spectrometer: V785-0024
Trigger mode: 0
Integration Time (sec): 4.000000E-1
Scans to average: 1
Nonlinearity correction enabled: false
Boxcar width: 0
Storing dark spectrum: false
XAxis mode: Wavelengths
Number of Pixels in Spectrum: 1024
>>>>>Begin Spectral Data<<<<<
801.071	21953
801.214	21945
801.356	21561
801.499	21572
801.641	21329
801.783	21272
801.926	21382
802.068	21397
802.211	21184
802.353	21306
802.496	20910
802.638	20899
802.78	20823
802.923	20674
803.065	20678
803.208	20629
803.35	20746
803.492	20773
803.635	20861
803.777	20629
803.919	20701
804.061	20994
804.204	20796
804.346	20583
804.488	20495
804.63	20678
804.773	20579
804.915	20526
805.057	20613
805.199	20480
805.341	20716
805.483	20686
805.626	20556
805.768	20590
805.91	20473
806.052	20670
806.194	20526
806.336	20777
806.478	20686
806.62	20556
806.762	20606
806.904	20876
807.046	20830
807.188	20823
807.33	20921
807.472	20960
807.614	20765
807.756	20899
807.898	20613
808.04	20568
808.182	20651
808.324	20720
808.465	20724
808.607	20880
808.749	21017
808.891	20994
809.033	21176
809.174	20998
809.316	20998
809.458	20883
809.6	20914
809.741	20982
809.883	20990
810.025	21142
810.166	21020
810.308	21051
810.45	21062
810.591	20899
810.733	20868
810.875	20686
811.016	20674
811.158	20590
811.299	20716
811.441	20971
811.582	20872
811.724	20735
811.865	20712
812.007	20701
812.148	20632
812.29	20663
812.431	20883
812.573	21036
812.714	21081
812.855	21184
812.997	21291
813.138	21401
813.279	21397
813.421	21226
813.562	21100
813.703	20941
813.845	20830
813.986	20545
814.127	20450
814.268	20244
814.41	20347
814.551	20225
814.692	20248
814.833	20290
814.974	20244
815.115	20320
815.256	20035
815.397	20073
815.539	20115
815.68	19974
815.821	19898
815.962	19959
816.103	19947
816.244	19811
816.385	19772
816.526	19712
816.666	19647
816.807	19445
816.948	19529
817.089	19510
817.23	19445
817.371	19445
817.512	19434
817.653	19441
817.793	19263
817.934	19514
818.075	19308
818.216	19396
818.356	19354
818.497	19320
818.638	18989
818.778	19156
818.919	19046
819.06	19148
819.2	19145
819.341	19129
819.481	19407
819.622	19411
819.762	19594
819.903	19453
820.043	19460
820.184	19373
820.324	19343
820.465	19487
820.605	19339
820.746	19430
820.886	19247
821.026	19384
821.167	19369
821.307	19400
821.447	19274
821.588	19202
821.728	19061
821.868	18867
822.008	18833
822.149	18757
822.289	18715
822.429	18441
822.569	18380
822.709	18483
822.849	18292
822.99	18239
823.13	18251
823.27	18201
823.41	18235
823.55	18015
823.69	18190
823.83	18148
823.97	18064
824.11	17904
824.25	17828
824.389	17813
824.529	17996
824.669	17798
824.809	17859
824.949	17992
825.089	17859
825.228	17893
825.368	17661
825.508	17687
825.648	17649
825.787	17623
825.927	17729
826.067	17619
826.206	17608
826.346	17714
826.485	17604
826.625	17646
826.765	17836
826.904	17627
827.044	17505
827.183	17482
827.323	17391
827.462	17417
827.601	17402
827.741	17376
827.88	17410
828.02	17395
828.159	17383
828.298	17372
828.437	17471
828.577	17296
828.716	17471
828.855	17356
828.994	17109
829.134	17178
829.273	17090
829.412	17094
829.551	17155
829.69	17204
829.829	17029
829.968	17250
830.107	17239
830.246	17147
830.385	17060
830.524	16927
830.663	16942
830.802	16843
830.941	16805
831.08	16759
831.219	16831
831.357	16850
831.496	17003
831.635	16805
831.774	16546
831.913	16668
832.051	16565
832.19	16561
832.329	16599
832.467	16516
832.606	16344
832.744	16440
832.883	16466
833.022	16436
833.16	16550
833.299	16481
833.437	16470
833.576	16538
833.714	16588
833.852	16478
833.991	16512
834.129	16725
834.267	16679
834.406	16527
834.544	16504
834.682	16542
834.821	16535
834.959	16618
835.097	16561
835.235	16607
835.373	16611
835.511	16516
835.65	16481
835.788	16421
835.926	16322
836.064	16249
836.202	16322
836.34	16478
836.478	16615
836.615	16451
836.753	16481
836.891	16519
837.029	16489
837.167	16303
837.305	16375
837.443	16291
837.58	16253
837.718	16417
837.856	16333
837.993	16135
838.131	16329
838.269	16192
838.406	16261
838.544	16200
838.681	16078
838.819	15937
838.956	15945
839.094	15941
839.231	15918
839.369	15975
839.506	16249
839.643	16192
839.781	15819
839.918	15888
840.055	15785
840.193	15854
840.33	15831
840.467	15770
840.604	15915
840.742	16162
840.879	15720
841.016	15785
841.153	15679
841.29	15983
841.427	15873
841.564	15892
841.701	15888
841.838	15884
841.975	15816
842.112	15800
842.249	15599
842.385	15667
842.522	15797
842.659	15755
842.796	15511
842.933	15618
843.069	15603
843.206	15599
843.343	15690
843.479	15595
843.616	15660
843.752	15363
843.889	15450
844.025	15587
844.162	15420
844.298	15557
844.435	15401
844.571	15382
844.708	15500
844.844	15633
844.98	15504
845.117	15469
845.253	15412
845.389	15275
845.525	15447
845.661	15329
845.798	15252
845.934	15230
846.07	15211
846.206	15291
846.342	15340
846.478	15249
846.614	14986
846.75	14929
846.886	14982
847.022	15051
847.158	15005
847.294	15135
847.429	14975
847.565	14975
847.701	15252
847.837	14765
847.972	14807
848.108	14773
848.244	14807
848.379	14598
848.515	14564
848.65	14556
848.786	14606
848.921	14606
849.057	14754
849.192	14720
849.328	14632
849.463	14629
849.598	14568
849.734	14438
849.869	14473
850.004	14347
850.14	14461
850.275	14290
850.41	14271
850.545	14252
850.68	14362
850.815	14412
850.95	14351
851.085	14575
851.22	14511
851.355	14400
851.49	14313
851.625	14244
851.76	14374
851.895	14309
852.03	14229
852.165	14381
852.299	14469
852.434	14389
852.569	14423
852.703	14374
852.838	14495
852.973	14381
853.107	14530
853.242	14336
853.376	14248
853.511	14153
853.645	14157
853.78	14362
853.914	14290
854.048	14259
854.183	14142
854.317	14328
854.451	14389
854.585	14358
854.72	14176
854.854	14313
854.988	14157
855.122	14138
855.256	14100
855.39	14183
855.524	14317
855.658	14298
855.792	14263
855.926	14248
856.06	14286
856.194	14301
856.327	14267
856.461	14176
856.595	14172
856.729	14126
856.862	14313
856.996	14244
857.13	14259
857.263	14381
857.397	14355
857.53	14282
857.664	14351
857.797	14320
857.931	14393
858.064	14221
858.197	14370
858.331	14263
858.464	14225
858.597	14180
858.731	14187
858.864	14282
858.997	14176
859.13	14294
859.263	14237
859.396	14377
859.529	14244
859.662	14187
859.795	14202
859.928	14256
860.061	14400
860.194	14419
860.327	14301
860.46	14153
860.592	14347
860.725	14271
860.858	14259
860.99	14180
861.123	14134
861.256	14176
861.388	14324
861.521	14845
861.653	14142
861.786	13947
861.918	14027
862.05	14191
862.183	14138
862.315	14206
862.447	14336
862.58	14187
862.712	14092
862.844	13932
862.976	14103
863.108	14081
863.24	14351
863.372	13959
863.504	13997
863.636	14043
863.768	14062
863.9	13951
864.032	13967
864.164	13974
864.296	14054
864.428	14210
864.559	14081
864.691	14134
864.823	14035
864.954	13982
865.086	14020
865.217	14100
865.349	13955
865.48	14001
865.612	13925
865.743	14142
865.875	14062
866.006	13947
866.137	14008
866.269	13944
866.4	14069
866.531	13959
866.662	13830
866.793	13970
866.924	13959
867.055	14092
867.186	14084
867.317	13978
867.448	13845
867.579	13947
867.71	14012
867.841	13909
867.972	14046
868.103	13989
868.233	14027
868.364	14035
868.495	14145
868.625	14355
868.756	14355
868.886	14130
869.017	14244
869.147	14355
869.278	14419
869.408	14347
869.539	14415
869.669	14259
869.799	14320
869.929	14385
870.06	14385
870.19	14564
870.32	14575
870.45	14689
870.58	14758
870.71	14735
870.84	14788
870.97	14590
871.1	14648
871.23	14777
871.36	14876
871.489	14826
871.619	14811
871.749	14796
871.879	14864
872.008	14899
872.138	14861
872.267	14800
872.397	14716
872.526	14667
872.656	14670
872.785	14708
872.915	14899
873.044	15024
873.173	14853
873.303	14899
873.432	14982
873.561	14994
873.69	14967
873.819	14864
873.948	14963
874.077	14864
874.206	14921
874.335	14933
874.464	15081
874.593	15272
874.722	15116
874.851	15226
874.979	15237
875.108	15211
875.237	15207
875.365	15150
875.494	15264
875.623	15230
875.751	15195
875.88	15325
876.008	15370
876.136	15443
876.265	15561
876.393	15835
876.521	15724
876.65	15789
876.778	15724
876.906	15561
877.034	15580
877.162	15663
877.29	15542
877.418	15576
877.546	15724
877.674	15599
877.802	15618
877.93	15587
878.058	15564
878.185	15538
878.313	15720
878.441	15694
878.568	15450
878.696	15603
878.824	15652
878.951	15682
879.079	15846
879.206	15918
879.333	15797
879.461	15656
879.588	15675
879.715	15766
879.842	15915
879.97	15637
880.097	15488
880.224	15374
880.351	15561
880.478	15545
880.605	15359
880.732	15534
880.859	15675
880.986	15534
881.112	15447
881.239	15355
881.366	15249
881.493	15214
881.619	15097
881.746	15108
881.872	15176
881.999	15127
882.125	15066
882.252	15173
882.378	15161
882.505	15195
882.631	15074
882.757	14963
882.883	14975
883.01	14880
883.136	14902
883.262	14845
883.388	14823
883.514	14994
883.64	15017
883.766	14872
883.892	14777
884.018	14872
884.143	15005
884.269	15051
884.395	14712
884.52	14602
884.646	14678
884.772	14549
884.897	14541
885.023	14720
885.148	14823
885.274	14788
885.399	14686
885.524	14724
885.65	14651
885.775	14659
885.9	14579
886.025	14883
886.15	14842
886.275	14606
886.4	14636
886.525	14682
886.65	14568
886.775	14674
886.9	14754
887.025	14914
887.149	14564
887.274	14480
887.399	14434
887.523	14522
887.648	14454
887.773	14434
887.897	14549
888.021	14446
888.146	14434
888.27	14541
888.395	14533
888.519	14438
888.643	14499
888.767	14560
888.891	14370
889.015	14290
889.139	14381
889.263	14301
889.387	14473
889.511	14457
889.635	14533
889.759	14366
889.883	14328
890.006	14415
890.13	14530
890.254	14305
890.377	14347
890.501	14088
890.624	14180
890.748	14278
890.871	14050
890.995	14054
891.118	13860
891.241	14084
891.364	14084
891.488	14157
891.611	14096
891.734	14073
891.857	14130
891.98	14073
892.103	14081
892.226	14035
892.349	14043
892.471	13932
892.594	14031
892.717	14058
892.839	14039
892.962	14096
893.085	14187
893.207	14096
893.33	13928
893.452	14024
893.575	14069
893.697	13986
893.819	14199
893.941	14229
894.064	14145
894.186	13967
894.308	14008
894.43	14237
894.552	14305
894.674	14187
894.796	14005
894.918	14134
895.04	14039
895.161	14248
895.283	14214
895.405	14126
895.526	14206
895.648	14145
895.769	14206
895.891	14282
896.012	14286
896.134	14240
896.255	14240
896.376	14172
896.498	14248
896.619	14301
896.74	14244
896.861	14317
896.982	14571
897.103	14788
897.224	14415
897.345	14511
897.466	14446
897.587	14518
897.708	14571
897.828	14522
897.949	14415
898.07	14434
898.19	14556
898.311	14518
898.431	14469
898.552	14530
898.672	14640
898.792	14621
898.913	14629
899.033	14495
899.153	14461
899.273	14290
899.393	14431
899.513	14465
899.633	14442
899.753	14412
899.873	14408
899.993	14488
900.113	14400
900.232	14415
900.352	14370
900.472	14370
900.591	14248
900.711	14252
900.83	14199
900.95	14256
901.069	14396
901.189	14187
901.308	13993
901.427	13928
901.546	13913
901.665	13936
901.784	14031
901.904	13772
902.023	13776
902.141	13563
902.26	13525
902.379	13689
902.498	13544
902.617	13533
902.735	13613
902.854	13525
902.973	13540
903.091	13217
903.21	13202
903.328	13198
903.446	13168
903.565	13141
903.683	13099
903.801	12993
903.919	13099
904.038	13050
904.156	12954
904.274	12947
904.392	12916
904.51	12882
904.627	12886
904.745	12966
904.863	13042
904.981	12646
905.098	12654
905.216	12608
905.334	12654
905.451	12642
905.569	12471
905.686	12665
905.803	12696
905.921	12448
906.038	12471
906.155	12422
906.272	12365
906.389	12350
906.506	12175
906.623	12129
906.74	12102
906.857	12091
906.974	12167
907.091	12194
907.208	12372
907.324	12232
907.441	12243
907.557	11969
907.674	12064
907.79	11935
907.907	11916
908.023	12003
908.139	11961
908.256	11855
908.372	11973
908.488	12003
908.604	11573
908.72	11665
908.836	11695
908.952	11722
909.068	11722
909.184	11775
909.3	11714
909.415	11832
909.531	11707
909.647	11535
909.762	11562
909.878	11459
909.993	11406
910.108	11528
910.224	11478
910.339	11577
910.454	11444
910.57	11360
910.685	11280
910.8	11566
910.915	11493
911.03	11383
911.145	11261
911.259	11197
911.374	11227
911.489	11147
911.604	11090
911.718	10938
911.833	10965
911.947	10908
912.062	10793
912.176	10923
912.291	10957
912.405	10892
912.519	11166
912.633	11102
912.748	11071
912.862	11056
912.976	10828
913.09	10725
913.204	10752
913.318	10892
913.431	10991
913.545	10881
913.659	10911
913.772	10828
913.886	10668
914	10714
914.113	10771
914.226	10850
914.34	10831
914.453	10531
914.566	10736
914.68	10675
914.793	10588
914.906	10432
915.019	10413
915.132	10314
915.245	10428
915.358	10474
915.47	10508
915.583	10493
915.696	10542
915.809	10577
915.921	10645
916.034	10367
916.146	10432
916.259	10371
916.371	10538
916.483	10497
916.595	10318
916.708	10402
916.82	10382
916.932	10363
917.044	10341
917.156	10299
917.268	10227
917.38	10268
917.491	10299
917.603	10314
917.715	10356
917.826	10432
917.938	10280
918.049	10173
918.161	10284
918.272	10432
918.384	10451
918.495	10375
918.606	10253
918.717	10116
918.828	10071
918.939	10139
919.05	10109
919.161	10177
919.272	9934
919.383	10044
919.494	10211
919.604	10390
919.715	10173
919.826	10082
919.936	10105
920.047	10188
920.157	10227
920.267	10417
920.378	10223
920.488	10181
920.598	10512
920.708	10485
920.818	10386
920.928	10371
921.038	10577
921.148	10474
921.258	10181
921.368	10185
921.477	10029
921.587	9922
921.697	9911
921.806	10082
921.916	9907
922.025	9743
922.134	9751
922.244	9656
922.353	9770
922.462	9652
922.571	9584
922.68	9435
922.789	9435
922.898	9443
923.007	9363
923.116	9447
923.224	9386
923.333	9397
923.442	9329
923.55	9321
923.659	9344
923.767	9374
923.876	9253
923.984	9386
924.092	9249
924.201	9310
924.309	9374
924.417	9359
924.525	9249
924.633	9260
924.741	9964
924.849	9032
924.956	9249
925.064	9100
925.172	8967
925.279	8975
925.387	9119
925.494	9116
925.602	9203
925.709	9066
925.816	9127
925.924	9108
926.031	9218
926.138	9043
926.245	9108
926.352	8994
926.459	9192
926.566	9146
926.673	9093
926.779	8975
926.886	8971
926.993	8823
927.099	8819
927.206	8708
927.312	8830
927.419	8845
927.525	8830
927.631	8838
927.737	8743
927.843	8632
927.95	8549
928.056	8667
928.162	8762
928.267	8720
928.373	9359
928.479	8762
928.585	8541
928.69	8731
928.796	8720
928.901	8590
929.007	8473
929.112	8636
929.218	8587
929.323	8503
929.428	8488
929.533	8625
929.638	8503
929.743	8522
929.848	8526
929.953	8560
930.058	8412
930.163	8252
930.267	8244
930.372	8343
930.477	8202
930.581	8480
930.685	8393
930.79	8202
930.894	8286
930.998	8195
931.103	8377
931.207	7970
931.311	7913
931.415	7906
931.519	7723
931.623	7795
