Data from test_V78500241_2353.txt Node
Date: Fri Mar 25 14:50:05 CST 2022
User: usil
Spectrometer: V785-0024
Trigger mode: 0
Integration Time (sec): 4.000000E-1
Scans to average: 1
Nonlinearity correction enabled: false
Boxcar width: 0
Storing dark spectrum: false
XAxis mode: Wavelengths
Number of Pixels in Spectrum: 1024
>>>>>Begin Spectral Data<<<<<
801.071	22173
801.214	22131
801.356	21831
801.499	21679
801.641	21507
801.783	21496
801.926	21580
802.068	21618
802.211	21424
802.353	21317
802.496	21039
802.638	21077
802.78	20990
802.923	21051
803.065	20834
803.208	20838
803.35	20819
803.492	20933
803.635	21036
803.777	20891
803.919	20777
804.061	21214
804.204	20933
804.346	20899
804.488	20785
804.63	20906
804.773	20765
804.915	20705
805.057	20769
805.199	20804
805.341	20868
805.483	20948
805.626	20845
805.768	20659
805.91	20876
806.052	20838
806.194	20712
806.336	21032
806.478	20773
806.62	20777
806.762	20887
806.904	20941
807.046	21180
807.188	21096
807.33	21123
807.472	21264
807.614	21017
807.756	21062
807.898	20864
808.04	20739
808.182	20883
808.324	20845
808.465	21028
808.607	21100
808.749	21119
808.891	21283
809.033	21382
809.174	21260
809.316	21146
809.458	21074
809.6	21207
809.741	21180
809.883	21237
810.025	21329
810.166	21348
810.308	21306
810.45	21157
810.591	21192
810.733	20944
810.875	20899
811.016	20823
811.158	20853
811.299	20853
811.441	21055
811.582	20948
811.724	20971
811.865	21005
812.007	20731
812.148	20941
812.29	20967
812.431	21116
812.573	21226
812.714	21173
812.855	21310
812.997	21481
813.138	21720
813.279	21496
813.421	21283
813.562	21332
813.703	21245
813.845	21058
813.986	20769
814.127	20636
814.268	20450
814.41	20556
814.551	20564
814.692	20583
814.833	20389
814.974	20332
815.115	20408
815.256	20347
815.397	20381
815.539	20415
815.68	20282
815.821	20161
815.962	20202
816.103	20206
816.244	20069
816.385	20005
816.526	19902
816.666	19685
816.807	19651
816.948	19674
817.089	19738
817.23	19601
817.371	19571
817.512	19674
817.653	19635
817.793	19601
817.934	19521
818.075	19521
818.216	19613
818.356	19575
818.497	19438
818.638	19202
818.778	19266
818.919	19320
819.06	19263
819.2	19419
819.341	19472
819.481	19502
819.622	19632
819.762	19791
819.903	19693
820.043	19620
820.184	19609
820.324	19578
820.465	19685
820.605	19559
820.746	19613
820.886	19434
821.026	19556
821.167	19590
821.307	19719
821.447	19480
821.588	19609
821.728	19282
821.868	19209
822.008	19015
822.149	19088
822.289	18985
822.429	18745
822.569	18665
822.709	18654
822.849	18509
822.99	18506
823.13	18445
823.27	18471
823.41	18304
823.55	18315
823.69	18277
823.83	18407
823.97	18220
824.11	18079
824.25	18129
824.389	18022
824.529	18083
824.669	18155
824.809	18213
824.949	18205
825.089	18087
825.228	18114
825.368	17897
825.508	17855
825.648	17779
825.787	17783
825.927	17824
826.067	17863
826.206	17809
826.346	17824
826.485	17737
826.625	17790
826.765	17908
826.904	17855
827.044	17562
827.183	17615
827.323	17448
827.462	17608
827.601	17554
827.741	17535
827.88	17566
828.02	17497
828.159	17474
828.298	17509
828.437	17512
828.577	17440
828.716	17547
828.855	17570
828.994	17277
829.134	17318
829.273	17239
829.412	17250
829.551	17212
829.69	17151
829.829	17273
829.968	17273
830.107	17349
830.246	17242
830.385	17124
830.524	17220
830.663	17098
830.802	17048
830.941	16824
831.08	16839
831.219	16953
831.357	16968
831.496	17102
831.635	16809
831.774	16797
831.913	16713
832.051	16596
832.19	16687
832.329	16672
832.467	16558
832.606	16535
832.744	16577
832.883	16752
833.022	16527
833.16	16577
833.299	16615
833.437	16626
833.576	16645
833.714	16542
833.852	16592
833.991	16584
834.129	16660
834.267	16630
834.406	16565
834.544	16615
834.682	16550
834.821	16626
834.959	16782
835.097	16573
835.235	16816
835.373	16679
835.511	16622
835.65	16516
835.788	16508
835.926	16272
836.064	16356
836.202	16371
836.34	16512
836.478	16622
836.615	16508
836.753	16519
836.891	16618
837.029	16607
837.167	16584
837.305	16405
837.443	16432
837.58	16322
837.718	16424
837.856	16325
837.993	16398
838.131	16417
838.269	16333
838.406	16356
838.544	16280
838.681	16139
838.819	16105
838.956	15915
839.094	15937
839.231	15907
839.369	16032
839.506	16253
839.643	16211
839.781	15945
839.918	15922
840.055	15941
840.193	15884
840.33	15918
840.467	15899
840.604	15907
840.742	16173
840.879	15793
841.016	15838
841.153	15854
841.29	16010
841.427	15907
841.564	15964
841.701	15994
841.838	15857
841.975	15892
842.112	15808
842.249	15797
842.385	15751
842.522	15759
842.659	15728
842.796	15641
842.933	15701
843.069	15557
843.206	15610
843.343	15812
843.479	15717
843.616	15759
843.752	15515
843.889	15542
844.025	15504
844.162	15435
844.298	15625
844.435	15473
844.571	15389
844.708	15462
844.844	15663
844.98	15652
845.117	15720
845.253	15420
845.389	15321
845.525	15450
845.661	15321
845.798	15272
845.934	15355
846.07	15275
846.206	15325
846.342	15389
846.478	15272
846.614	15043
846.75	15005
846.886	15024
847.022	15142
847.158	14971
847.294	15028
847.429	15123
847.565	14990
847.701	15237
847.837	14796
847.972	14708
848.108	14853
848.244	14857
848.379	14686
848.515	14598
848.65	14697
848.786	14632
848.921	14602
849.057	14716
849.192	14629
849.328	14746
849.463	14754
849.598	14663
849.734	14465
849.869	14583
850.004	14549
850.14	14450
850.275	14438
850.41	14377
850.545	14332
850.68	14400
850.815	14366
850.95	14366
851.085	14663
851.22	14537
851.355	14415
851.49	14370
851.625	14374
851.76	14320
851.895	14267
852.03	14225
852.165	14412
852.299	14412
852.434	14583
852.569	14374
852.703	14412
852.838	14480
852.973	14621
853.107	14507
853.242	14389
853.376	14248
853.511	14161
853.645	14278
853.78	14442
853.914	14191
854.048	14259
854.183	14252
854.317	14286
854.451	14526
854.585	14290
854.72	14252
854.854	14362
854.988	14168
855.122	14259
855.256	14123
855.39	14221
855.524	14263
855.658	14400
855.792	14404
855.926	14252
856.06	14237
856.194	14339
856.327	14278
856.461	14206
856.595	14294
856.729	14210
856.862	14362
856.996	14305
857.13	14309
857.263	14366
857.397	14362
857.53	14305
857.664	14286
857.797	14469
857.931	14396
858.064	14275
858.197	14332
858.331	14256
858.464	14153
858.597	14054
858.731	14317
858.864	14305
858.997	14263
859.13	14221
859.263	14267
859.396	14317
859.529	14229
859.662	14259
859.795	14248
859.928	14313
860.061	14461
860.194	14374
860.327	14431
860.46	14286
860.592	14415
860.725	14473
860.858	14526
860.99	14263
861.123	14130
861.256	14206
861.388	14355
861.521	14906
861.653	14153
861.786	14123
861.918	14134
862.05	14199
862.183	14275
862.315	14191
862.447	14252
862.58	14168
862.712	14092
862.844	13925
862.976	14123
863.108	14119
863.24	14431
863.372	14001
863.504	14005
863.636	14046
863.768	14039
863.9	14046
864.032	13997
864.164	13978
864.296	14088
864.428	14225
864.559	14191
864.691	14123
864.823	14248
864.954	14088
865.086	14092
865.217	14100
865.349	14001
865.48	14035
865.612	14088
865.743	14225
865.875	14058
866.006	13959
866.137	13921
866.269	14039
866.4	14054
866.531	14020
866.662	13982
866.793	14005
866.924	13963
867.055	14016
867.186	14039
867.317	13970
867.448	13974
867.579	14024
867.71	13993
867.841	13947
867.972	14024
868.103	13986
868.233	14027
868.364	14050
868.495	14149
868.625	14313
868.756	14431
868.886	14267
869.017	14183
869.147	14309
869.278	14351
869.408	14358
869.539	14294
869.669	14396
869.799	14256
869.929	14488
870.06	14408
870.19	14629
870.32	14613
870.45	14682
870.58	14655
870.71	14807
870.84	14880
870.97	14720
871.1	14731
871.23	14845
871.36	14861
871.489	14743
871.619	14902
871.749	14864
871.879	14864
872.008	14982
872.138	14826
872.267	14804
872.397	14735
872.526	14765
872.656	14746
872.785	14746
872.915	14933
873.044	15013
873.173	14918
873.303	15017
873.432	15043
873.561	14986
873.69	14994
873.819	14887
873.948	14956
874.077	14967
874.206	14921
874.335	14975
874.464	15062
874.593	15230
874.722	15249
874.851	15317
874.979	15222
875.108	15272
875.237	15146
875.365	15150
875.494	15226
875.623	15321
875.751	15188
875.88	15291
876.008	15378
876.136	15523
876.265	15656
876.393	15850
876.521	15766
876.65	15736
876.778	15736
876.906	15698
877.034	15572
877.162	15603
877.29	15599
877.418	15633
877.546	15759
877.674	15709
877.802	15671
877.93	15667
878.058	15599
878.185	15584
878.313	15656
878.441	15709
878.568	15614
878.696	15557
878.824	15606
878.951	15751
879.079	15895
879.206	16029
879.333	15808
879.461	15648
879.588	15797
879.715	15861
879.842	15911
879.97	15804
880.097	15485
880.224	15424
880.351	15496
880.478	15599
880.605	15515
880.732	15504
880.859	15713
880.986	15572
881.112	15435
881.239	15428
881.366	15310
881.493	15291
881.619	15123
881.746	15150
881.872	15161
881.999	14998
882.125	15150
882.252	15268
882.378	15260
882.505	15469
882.631	15024
882.757	15055
882.883	15020
883.01	15055
883.136	14967
883.262	14845
883.388	14815
883.514	15077
883.64	14986
883.766	14902
883.892	14842
884.018	14941
884.143	14960
884.269	15123
884.395	14746
884.52	14670
884.646	14712
884.772	14670
884.897	14522
885.023	14720
885.148	14838
885.274	14876
885.399	14853
885.524	14735
885.65	14735
885.775	14819
885.9	14708
886.025	14743
886.15	14735
886.275	14693
886.4	14545
886.525	14693
886.65	14640
886.775	14556
886.9	14849
887.025	14883
887.149	14701
887.274	14549
887.399	14457
887.523	14442
887.648	14454
887.773	14473
887.897	14530
888.021	14530
888.146	14454
888.27	14541
888.395	14610
888.519	14564
888.643	14598
888.767	14625
888.891	14404
889.015	14389
889.139	14461
889.263	14431
889.387	14431
889.511	14651
889.635	14537
889.759	14396
889.883	14339
890.006	14404
890.13	14511
890.254	14473
890.377	14256
890.501	14187
890.624	14237
890.748	14214
890.871	14111
890.995	14020
891.118	14054
891.241	14130
891.364	14005
891.488	14084
891.611	14065
891.734	14035
891.857	14115
891.98	14199
892.103	14145
892.226	14161
892.349	14164
892.471	13925
892.594	13997
892.717	14062
892.839	14092
892.962	14161
893.085	14161
893.207	14073
893.33	14020
893.452	14092
893.575	14096
893.697	14172
893.819	14290
893.941	14282
894.064	14218
894.186	14081
894.308	14001
894.43	14218
894.552	14294
894.674	14309
894.796	14069
894.918	14115
895.04	14130
895.161	14259
895.283	14263
895.405	14172
895.526	14229
895.648	14123
895.769	14191
895.891	14252
896.012	14244
896.134	14313
896.255	14259
896.376	14107
896.498	14145
896.619	14317
896.74	14282
896.861	14419
896.982	14651
897.103	14773
897.224	14568
897.345	14526
897.466	14412
897.587	14446
897.708	14644
897.828	14598
897.949	14518
898.07	14450
898.19	14564
898.311	14727
898.431	14499
898.552	14621
898.672	14689
898.792	14598
898.913	14746
899.033	14568
899.153	14484
899.273	14408
899.393	14385
899.513	14473
899.633	14533
899.753	14503
899.873	14503
899.993	14499
900.113	14454
900.232	14442
900.352	14469
900.472	14282
900.591	14347
900.711	14298
900.83	14244
900.95	14381
901.069	14568
901.189	14339
901.308	14092
901.427	14020
901.546	13951
901.665	14065
901.784	14043
901.904	13974
902.023	13906
902.141	13651
902.26	13563
902.379	13655
902.498	13514
902.617	13525
902.735	13643
902.854	13620
902.973	13495
903.091	13365
903.21	13263
903.328	13350
903.446	13217
903.565	13088
903.683	13251
903.801	13053
903.919	13149
904.038	13225
904.156	12996
904.274	13076
904.392	12901
904.51	12913
904.627	12894
904.745	12985
904.863	13069
904.981	12745
905.098	12642
905.216	12608
905.334	12749
905.451	12639
905.569	12627
905.686	12795
905.803	12684
905.921	12479
906.038	12601
906.155	12483
906.272	12365
906.389	12304
906.506	12251
906.623	12262
906.74	12197
906.857	12125
906.974	12117
907.091	12308
907.208	12315
907.324	12247
907.441	12243
907.557	11965
907.674	12026
907.79	11961
907.907	11992
908.023	12064
908.139	12034
908.256	11992
908.372	11916
908.488	11866
908.604	11745
908.72	11733
908.836	11775
908.952	11741
909.068	11840
909.184	11851
909.3	11729
909.415	11813
909.531	11828
909.647	11535
909.762	11562
909.878	11448
909.993	11627
910.108	11482
910.224	11433
910.339	11516
910.454	11486
910.57	11444
910.685	11326
910.8	11642
910.915	11539
911.03	11410
911.145	11345
911.259	11250
911.374	11136
911.489	11140
911.604	11098
911.718	10942
911.833	11083
911.947	10843
912.062	10862
912.176	10911
912.291	10911
912.405	11033
912.519	11121
912.633	11235
912.748	10999
912.862	10980
912.976	10904
913.09	10778
913.204	10759
913.318	10850
913.431	10961
913.545	10953
913.659	10949
913.772	10923
913.886	10679
914	10733
914.113	10858
914.226	10869
914.34	10786
914.453	10683
914.566	10812
914.68	10634
914.793	10649
914.906	10554
915.019	10493
915.132	10371
915.245	10390
915.358	10546
915.47	10478
915.583	10538
915.696	10558
915.809	10603
915.921	10618
916.034	10519
916.146	10360
916.259	10409
916.371	10550
916.483	10455
916.595	10421
916.708	10386
916.82	10398
916.932	10402
917.044	10481
917.156	10394
917.268	10192
917.38	10287
917.491	10238
917.603	10348
917.715	10478
917.826	10405
917.938	10314
918.049	10150
918.161	10382
918.272	10478
918.384	10386
918.495	10348
918.606	10234
918.717	10200
918.828	10200
918.939	10211
919.05	10082
919.161	10200
919.272	10021
919.383	10025
919.494	10303
919.604	10413
919.715	10204
919.826	10105
919.936	10204
920.047	10234
920.157	10272
920.267	10344
920.378	10135
920.488	10253
920.598	10337
920.708	10542
920.818	10371
920.928	10375
921.038	10580
921.148	10497
921.258	10341
921.368	10196
921.477	10150
921.587	10036
921.697	9941
921.806	10040
921.916	9956
922.025	9835
922.134	9766
922.244	9781
922.353	9789
922.462	9667
922.571	9519
922.68	9416
922.789	9469
922.898	9488
923.007	9348
923.116	9542
923.224	9389
923.333	9466
923.442	9294
923.55	9325
923.659	9428
923.767	9412
923.876	9340
923.984	9431
924.092	9329
924.201	9416
924.309	9374
924.417	9291
924.525	9287
924.633	9279
924.741	10082
924.849	9127
924.956	9249
925.064	9081
925.172	9070
925.279	9089
925.387	9093
925.494	9161
925.602	9272
925.709	9165
925.816	9062
925.924	9146
926.031	9169
926.138	9108
926.245	9180
926.352	9066
926.459	9188
926.566	9283
926.673	9085
926.779	8963
926.886	8895
926.993	8918
927.099	8788
927.206	8868
927.312	8720
927.419	8838
927.525	8849
927.631	8880
927.737	8739
927.843	8750
927.95	8602
928.056	8708
928.162	8769
928.267	8830
928.373	9401
928.479	8804
928.585	8636
928.69	8735
928.796	8655
928.901	8587
929.007	8499
929.112	8568
929.218	8617
929.323	8537
929.428	8545
929.533	8667
929.638	8495
929.743	8556
929.848	8659
929.953	8522
930.058	8454
930.163	8370
930.267	8309
930.372	8469
930.477	8263
930.581	8522
930.685	8415
930.79	8237
930.894	8259
930.998	8259
931.103	8434
931.207	8020
931.311	7989
931.415	7917
931.519	7696
931.623	7784
