Data from test_V78500241_3054.txt Node
Date: Fri Mar 25 14:54:58 CST 2022
User: usil
Spectrometer: V785-0024
Trigger mode: 0
Integration Time (sec): 4.000000E-1
Scans to average: 1
Nonlinearity correction enabled: false
Boxcar width: 0
Storing dark spectrum: false
XAxis mode: Wavelengths
Number of Pixels in Spectrum: 1024
>>>>>Begin Spectral Data<<<<<
801.071	22139
801.214	21861
801.356	21713
801.499	21614
801.641	21481
801.783	21344
801.926	21523
802.068	21466
802.211	21313
802.353	21154
802.496	21089
802.638	20998
802.78	20986
802.923	20765
803.065	20815
803.208	20727
803.35	20823
803.492	20800
803.635	20937
803.777	20777
803.919	20906
804.061	21184
804.204	20914
804.346	20716
804.488	20682
804.63	20811
804.773	20598
804.915	20693
805.057	20823
805.199	20648
805.341	20727
805.483	20876
805.626	20796
805.768	20705
805.91	20823
806.052	20754
806.194	20594
806.336	20880
806.478	20667
806.62	20724
806.762	20712
806.904	21024
807.046	21009
807.188	21066
807.33	20807
807.472	21043
807.614	20872
807.756	20910
807.898	20838
808.04	20804
808.182	20594
808.324	20735
808.465	20838
808.607	21100
808.749	21127
808.891	21154
809.033	21275
809.174	21039
809.316	21013
809.458	21089
809.6	21005
809.741	21222
809.883	21180
810.025	21222
810.166	21214
810.308	21321
810.45	21214
810.591	21142
810.733	20914
810.875	20891
811.016	20758
811.158	20746
811.299	20902
811.441	20902
811.582	20868
811.724	20921
811.865	20746
812.007	20716
812.148	20765
812.29	20845
812.431	21017
812.573	21150
812.714	21230
812.855	21325
812.997	21462
813.138	21606
813.279	21595
813.421	21408
813.562	21245
813.703	21055
813.845	21009
813.986	20617
814.127	20644
814.268	20408
814.41	20423
814.551	20412
814.692	20408
814.833	20294
814.974	20377
815.115	20423
815.256	20343
815.397	20221
815.539	20252
815.68	20191
815.821	20077
815.962	20122
816.103	20157
816.244	20073
816.385	19898
816.526	19765
816.666	19540
816.807	19544
816.948	19651
817.089	19666
817.23	19518
817.371	19529
817.512	19445
817.653	19438
817.793	19445
817.934	19392
818.075	19506
818.216	19506
818.356	19392
818.497	19308
818.638	19088
818.778	19171
818.919	19213
819.06	19259
819.2	19365
819.341	19285
819.481	19312
819.622	19487
819.762	19696
819.903	19586
820.043	19472
820.184	19449
820.324	19518
820.465	19491
820.605	19369
820.746	19472
820.886	19396
821.026	19430
821.167	19419
821.307	19514
821.447	19540
821.588	19350
821.728	19263
821.868	18993
822.008	18871
822.149	18886
822.289	18821
822.429	18681
822.569	18650
822.709	18612
822.849	18448
822.99	18353
823.13	18433
823.27	18372
823.41	18190
823.55	18117
823.69	18117
823.83	18190
823.97	17999
824.11	17958
824.25	17916
824.389	17927
824.529	17980
824.669	17935
824.809	17996
824.949	17931
825.089	17992
825.228	18034
825.368	17764
825.508	17764
825.648	17756
825.787	17794
825.927	17771
826.067	17741
826.206	17665
826.346	17718
826.485	17752
826.625	17687
826.765	17775
826.904	17748
827.044	17528
827.183	17551
827.323	17395
827.462	17474
827.601	17433
827.741	17368
827.88	17410
828.02	17334
828.159	17364
828.298	17440
828.437	17436
828.577	17353
828.716	17505
828.855	17345
828.994	17159
829.134	17113
829.273	17136
829.412	17022
829.551	17105
829.69	17166
829.829	17132
829.968	17178
830.107	17231
830.246	17189
830.385	17166
830.524	17003
830.663	16927
830.802	16759
830.941	16755
831.08	16698
831.219	16892
831.357	16873
831.496	16995
831.635	16824
831.774	16736
831.913	16763
832.051	16508
832.19	16584
832.329	16618
832.467	16432
832.606	16447
832.744	16337
832.883	16390
833.022	16443
833.16	16535
833.299	16493
833.437	16478
833.576	16485
833.714	16497
833.852	16489
833.991	16500
834.129	16565
834.267	16558
834.406	16493
834.544	16622
834.682	16493
834.821	16504
834.959	16668
835.097	16462
835.235	16634
835.373	16489
835.511	16561
835.65	16333
835.788	16291
835.926	16303
836.064	16181
836.202	16276
836.34	16398
836.478	16607
836.615	16322
836.753	16390
836.891	16500
837.029	16405
837.167	16318
837.305	16352
837.443	16356
837.58	16200
837.718	16398
837.856	16272
837.993	16242
838.131	16280
838.269	16147
838.406	16249
838.544	16120
838.681	16032
838.819	16078
838.956	15873
839.094	15915
839.231	15816
839.369	15873
839.506	16303
839.643	16051
839.781	15793
839.918	15698
840.055	15949
840.193	15808
840.33	15743
840.467	15751
840.604	15717
840.742	16105
840.879	15648
841.016	15728
841.153	15819
841.29	15911
841.427	15835
841.564	15838
841.701	15823
841.838	15789
841.975	15629
842.112	15766
842.249	15515
842.385	15545
842.522	15709
842.659	15675
842.796	15545
842.933	15561
843.069	15553
843.206	15580
843.343	15762
843.479	15629
843.616	15679
843.752	15329
843.889	15344
844.025	15511
844.162	15264
844.298	15492
844.435	15443
844.571	15344
844.708	15443
844.844	15492
844.98	15561
845.117	15485
845.253	15287
845.389	15351
845.525	15317
845.661	15237
845.798	15116
845.934	15070
846.07	15127
846.206	15237
846.342	15249
846.478	15081
846.614	15009
846.75	14925
846.886	14914
847.022	15100
847.158	14941
847.294	14929
847.429	15005
847.565	14872
847.701	15199
847.837	14716
847.972	14590
848.108	14781
848.244	14792
848.379	14579
848.515	14556
848.65	14571
848.786	14446
848.921	14533
849.057	14632
849.192	14655
849.328	14514
849.463	14598
849.598	14522
849.734	14636
849.869	14358
850.004	14362
850.14	14332
850.275	14309
850.41	14202
850.545	14218
850.68	14324
850.815	14343
850.95	14278
851.085	14511
851.22	14419
851.355	14180
851.49	14199
851.625	14240
851.76	14366
851.895	14149
852.03	14168
852.165	14332
852.299	14309
852.434	14400
852.569	14298
852.703	14282
852.838	14351
852.973	14499
853.107	14336
853.242	14263
853.376	14278
853.511	14062
853.645	14123
853.78	14339
853.914	14233
854.048	14183
854.183	14218
854.317	14145
854.451	14389
854.585	14225
854.72	14149
854.854	14130
854.988	14115
855.122	14096
855.256	14016
855.39	14073
855.524	14290
855.658	14145
855.792	14244
855.926	14153
856.06	14252
856.194	14202
856.327	14107
856.461	14100
856.595	14088
856.729	14191
856.862	14317
856.996	14153
857.13	14199
857.263	14286
857.397	14317
857.53	14183
857.664	14221
857.797	14130
857.931	14301
858.064	14172
858.197	14172
858.331	14183
858.464	14187
858.597	14046
858.731	14206
858.864	14218
858.997	14126
859.13	14225
859.263	14187
859.396	14244
859.529	14100
859.662	14077
859.795	14088
859.928	14233
860.061	14282
860.194	14317
860.327	14183
860.46	14153
860.592	14374
860.725	14317
860.858	14271
860.99	14256
861.123	14073
861.256	13982
861.388	14183
861.521	14842
861.653	14039
861.786	13947
861.918	14069
862.05	14092
862.183	14031
862.315	14172
862.447	14263
862.58	14199
862.712	13936
862.844	13868
862.976	14031
863.108	14016
863.24	14278
863.372	13894
863.504	13947
863.636	13947
863.768	13989
863.9	13925
864.032	13917
864.164	13955
864.296	14001
864.428	14005
864.559	14142
864.691	14062
864.823	14043
864.954	13986
865.086	14027
865.217	13967
865.349	13799
865.48	13982
865.612	13967
865.743	14107
865.875	13997
866.006	13993
866.137	14005
866.269	13963
866.4	13890
866.531	13894
866.662	13944
866.793	13765
866.924	13883
867.055	13970
867.186	13932
867.317	13906
867.448	13772
867.579	13830
867.71	13871
867.841	13750
867.972	13860
868.103	13959
868.233	13883
868.364	13967
868.495	14001
868.625	14168
868.756	14339
868.886	14088
869.017	14206
869.147	14298
869.278	14286
869.408	14240
869.539	14225
869.669	14275
869.799	14256
869.929	14271
870.06	14320
870.19	14545
870.32	14594
870.45	14469
870.58	14602
870.71	14777
870.84	14765
870.97	14533
871.1	14575
871.23	14773
871.36	14815
871.489	14617
871.619	14701
871.749	14781
871.879	14880
872.008	14910
872.138	14781
872.267	14830
872.397	14705
872.526	14632
872.656	14602
872.785	14610
872.915	14785
873.044	14967
873.173	14689
873.303	14937
873.432	14762
873.561	14853
873.69	14773
873.819	14857
873.948	14899
874.077	14834
874.206	14785
874.335	14891
874.464	15043
874.593	15116
874.722	15047
874.851	15207
874.979	15157
875.108	15214
875.237	15150
875.365	15100
875.494	15108
875.623	15207
875.751	15066
875.88	15173
876.008	15291
876.136	15291
876.265	15622
876.393	15690
876.521	15701
876.65	15709
876.778	15519
876.906	15382
877.034	15515
877.162	15576
877.29	15500
877.418	15603
877.546	15393
877.674	15606
877.802	15595
877.93	15515
878.058	15599
878.185	15450
878.313	15545
878.441	15606
878.568	15325
878.696	15530
878.824	15485
878.951	15698
879.079	15770
879.206	15800
879.333	15766
879.461	15564
879.588	15717
879.715	15679
879.842	15823
879.97	15652
880.097	15477
880.224	15397
880.351	15458
880.478	15454
880.605	15443
880.732	15416
880.859	15641
880.986	15382
881.112	15500
881.239	15317
881.366	15180
881.493	15119
881.619	15097
881.746	15047
881.872	15039
881.999	14979
882.125	14990
882.252	15093
882.378	15188
882.505	15264
882.631	14979
882.757	14891
882.883	14941
883.01	14895
883.136	14876
883.262	14857
883.388	14758
883.514	14929
883.64	14868
883.766	14899
883.892	14739
884.018	14708
884.143	14830
884.269	14963
884.395	14613
884.52	14621
884.646	14480
884.772	14526
884.897	14484
885.023	14636
885.148	14712
885.274	14693
885.399	14632
885.524	14556
885.65	14598
885.775	14625
885.9	14587
886.025	14625
886.15	14648
886.275	14606
886.4	14446
886.525	14613
886.65	14552
886.775	14526
886.9	14712
887.025	14910
887.149	14560
887.274	14438
887.399	14351
887.523	14423
887.648	14370
887.773	14385
887.897	14511
888.021	14469
888.146	14355
888.27	14514
888.395	14522
888.519	14488
888.643	14473
888.767	14446
888.891	14286
889.015	14218
889.139	14412
889.263	14240
889.387	14389
889.511	14492
889.635	14408
889.759	14278
889.883	14233
890.006	14351
890.13	14366
890.254	14294
890.377	14248
890.501	14073
890.624	14149
890.748	14103
890.871	14062
890.995	13970
891.118	13921
891.241	14050
891.364	13947
891.488	14176
891.611	14005
891.734	13959
891.857	14084
891.98	14012
892.103	14050
892.226	13898
892.349	13947
892.471	13837
892.594	13936
892.717	13963
892.839	13944
892.962	14092
893.085	14039
893.207	13875
893.33	13860
893.452	13902
893.575	14050
893.697	13917
893.819	14054
893.941	14214
894.064	14092
894.186	13989
894.308	13932
894.43	14123
894.552	14259
894.674	14199
894.796	14039
894.918	14058
895.04	14062
895.161	14145
895.283	14100
895.405	14077
895.526	14145
895.648	14123
895.769	14214
895.891	14164
896.012	14267
896.134	14180
896.255	14138
896.376	14153
896.498	14183
896.619	14237
896.74	14176
896.861	14229
896.982	14590
897.103	14720
897.224	14454
897.345	14537
897.466	14396
897.587	14473
897.708	14670
897.828	14552
897.949	14457
898.07	14366
898.19	14389
898.311	14594
898.431	14473
898.552	14602
898.672	14663
898.792	14632
898.913	14598
899.033	14507
899.153	14339
899.273	14305
899.393	14431
899.513	14434
899.633	14355
899.753	14488
899.873	14484
899.993	14381
900.113	14389
900.232	14419
900.352	14309
900.472	14404
900.591	14286
900.711	14370
900.83	14199
900.95	14427
901.069	14377
901.189	14221
901.308	13909
901.427	13944
901.546	13970
901.665	13986
901.784	13921
901.904	13879
902.023	13791
902.141	13605
902.26	13525
902.379	13552
902.498	13510
902.617	13540
902.735	13685
902.854	13563
902.973	13468
903.091	13244
903.21	13194
903.328	13266
903.446	13236
903.565	13164
903.683	13160
903.801	13053
903.919	13160
904.038	13080
904.156	13008
904.274	13057
904.392	12909
904.51	12821
904.627	12943
904.745	13004
904.863	12981
904.981	12760
905.098	12604
905.216	12563
905.334	12677
905.451	12654
905.569	12650
905.686	12593
905.803	12642
905.921	12460
906.038	12506
906.155	12475
906.272	12311
906.389	12357
906.506	12235
906.623	12182
906.74	12285
906.857	12083
906.974	12163
907.091	12361
907.208	12277
907.324	12220
907.441	12095
907.557	12015
907.674	11920
907.79	11889
907.907	11897
908.023	11942
908.139	11946
908.256	11908
908.372	11927
908.488	11870
908.604	11737
908.72	11627
908.836	11699
908.952	11722
909.068	11688
909.184	11874
909.3	11661
909.415	11714
909.531	11737
909.647	11505
909.762	11463
909.878	11455
909.993	11592
910.108	11493
910.224	11497
910.339	11505
910.454	11307
910.57	11360
910.685	11254
910.8	11535
910.915	11383
911.03	11429
911.145	11223
911.259	11151
911.374	11223
911.489	11071
911.604	11094
911.718	10847
911.833	10858
911.947	10801
912.062	10748
912.176	10881
912.291	10972
912.405	10881
912.519	11212
912.633	11140
912.748	11098
912.862	10972
912.976	10881
913.09	10691
913.204	10763
913.318	10801
913.431	10862
913.545	10892
913.659	10892
913.772	10736
913.886	10767
914	10618
914.113	10812
914.226	10774
914.34	10725
914.453	10577
914.566	10790
914.68	10596
914.793	10687
914.906	10466
915.019	10421
915.132	10371
915.245	10398
915.358	10485
915.47	10459
915.583	10470
915.696	10413
915.809	10596
915.921	10675
916.034	10512
916.146	10390
916.259	10360
916.371	10409
916.483	10459
916.595	10333
916.708	10382
916.82	10409
916.932	10390
917.044	10371
917.156	10333
917.268	10215
917.38	10299
917.491	10265
917.603	10268
917.715	10379
917.826	10447
917.938	10238
918.049	10215
918.161	10314
918.272	10451
918.384	10421
918.495	10249
918.606	10150
918.717	10101
918.828	10169
918.939	10246
919.05	9998
919.161	10192
919.272	9949
919.383	9975
919.494	10150
919.604	10390
919.715	10131
919.826	10131
919.936	10200
920.047	10322
920.157	10192
920.267	10402
920.378	10173
920.488	10185
920.598	10318
920.708	10508
920.818	10367
920.928	10375
921.038	10573
921.148	10512
921.258	10215
921.368	10143
921.477	10025
921.587	10055
921.697	9854
921.806	10044
921.916	9960
922.025	9770
922.134	9861
922.244	9713
922.353	9778
922.462	9660
922.571	9622
922.68	9481
922.789	9428
922.898	9496
923.007	9389
923.116	9511
923.224	9458
923.333	9473
923.442	9359
923.55	9302
923.659	9431
923.767	9416
923.876	9256
923.984	9302
924.092	9268
924.201	9253
924.309	9348
924.417	9325
924.525	9203
924.633	9222
924.741	10219
924.849	9085
924.956	9184
925.064	9058
925.172	8979
925.279	9032
925.387	9146
925.494	9097
925.602	9237
925.709	9237
925.816	9070
925.924	9085
926.031	9203
926.138	9081
926.245	9108
926.352	9055
926.459	9176
926.566	9230
926.673	9077
926.779	9009
926.886	8986
926.993	8830
927.099	8857
927.206	8804
927.312	8750
927.419	8883
927.525	8823
927.631	8853
927.737	8750
927.843	8689
927.95	8590
928.056	8712
928.162	8720
928.267	8750
928.373	9287
928.479	8857
928.585	8598
928.69	8762
928.796	8762
928.901	8514
929.007	8552
929.112	8625
929.218	8625
929.323	8507
929.428	8518
929.533	8659
929.638	8545
929.743	8488
929.848	8549
929.953	8492
930.058	8465
930.163	8263
930.267	8301
930.372	8415
930.477	8237
930.581	8518
930.685	8339
930.79	8210
930.894	8183
930.998	8248
931.103	8404
931.207	8062
931.311	7970
931.415	7936
931.519	7727
931.623	7723
