Data from test_V78500241_1301.txt Node
Date: Fri Mar 25 14:42:46 CST 2022
User: usil
Spectrometer: V785-0024
Trigger mode: 0
Integration Time (sec): 4.000000E-1
Scans to average: 1
Nonlinearity correction enabled: false
Boxcar width: 0
Storing dark spectrum: false
XAxis mode: Wavelengths
Number of Pixels in Spectrum: 1024
>>>>>Begin Spectral Data<<<<<
801.071	22519
801.214	22265
801.356	22036
801.499	21899
801.641	21804
801.783	21717
801.926	21823
802.068	21641
802.211	21545
802.353	21469
802.496	21351
802.638	21329
802.78	21279
802.923	21157
803.065	20956
803.208	21116
803.35	21138
803.492	21283
803.635	21249
803.777	21150
803.919	21237
804.061	21405
804.204	21184
804.346	21036
804.488	20967
804.63	21112
804.773	20944
804.915	21123
805.057	21195
805.199	20994
805.341	21036
805.483	21249
805.626	21055
805.768	21062
805.91	20994
806.052	21032
806.194	20941
806.336	21138
806.478	21051
806.62	20994
806.762	21077
806.904	21306
807.046	21504
807.188	21374
807.33	21329
807.472	21405
807.614	21260
807.756	21351
807.898	21252
808.04	21173
808.182	21180
808.324	21127
808.465	21245
808.607	21507
808.749	21679
808.891	21717
809.033	21728
809.174	21641
809.316	21564
809.458	21595
809.6	21515
809.741	21599
809.883	21523
810.025	21633
810.166	21553
810.308	21606
810.45	21485
810.591	21431
810.733	21355
810.875	21192
811.016	21104
811.158	21233
811.299	21287
811.441	21359
811.582	21382
811.724	21218
811.865	21188
812.007	21192
812.148	21116
812.29	21283
812.431	21378
812.573	21515
812.714	21614
812.855	21770
812.997	21698
813.138	22017
813.279	21812
813.421	21637
813.562	21583
813.703	21477
813.845	21386
813.986	21047
814.127	21058
814.268	20750
814.41	20727
814.551	20842
814.692	20876
814.833	20629
814.974	20731
815.115	20788
815.256	20503
815.397	20629
815.539	20602
815.68	20427
815.821	20450
815.962	20564
816.103	20461
816.244	20320
816.385	20225
816.526	20195
816.666	20145
816.807	19932
816.948	19849
817.089	20046
817.23	19818
817.371	19795
817.512	19731
817.653	19970
817.793	19860
817.934	19879
818.075	19909
818.216	19909
818.356	19776
818.497	19776
818.638	19594
818.778	19567
818.919	19544
819.06	19772
819.2	19696
819.341	19772
819.481	19780
819.622	19890
819.762	20126
819.903	20161
820.043	19974
820.184	19898
820.324	19807
820.465	19913
820.605	19830
820.746	19955
820.886	19742
821.026	19807
821.167	19811
821.307	20069
821.447	19894
821.588	19727
821.728	19491
821.868	19434
822.008	19217
822.149	19377
822.289	19247
822.429	18981
822.569	19008
822.709	18958
822.849	18745
822.99	18741
823.13	18730
823.27	18738
823.41	18707
823.55	18532
823.69	18650
823.83	18635
823.97	18502
824.11	18376
824.25	18353
824.389	18399
824.529	18494
824.669	18403
824.809	18475
824.949	18475
825.089	18399
825.228	18437
825.368	18243
825.508	18209
825.648	18243
825.787	18311
825.927	18254
826.067	18045
826.206	18015
826.346	18243
826.485	18155
826.625	18125
826.765	18289
826.904	18258
827.044	17939
827.183	17931
827.323	17836
827.462	17942
827.601	17878
827.741	17840
827.88	17878
828.02	17752
828.159	17843
828.298	17878
828.437	17870
828.577	17680
828.716	18041
828.855	17832
828.994	17665
829.134	17619
829.273	17672
829.412	17623
829.551	17490
829.69	17528
829.829	17611
829.968	17783
830.107	17649
830.246	17581
830.385	17558
830.524	17387
830.663	17280
830.802	17360
830.941	17261
831.08	17246
831.219	17345
831.357	17258
831.496	17391
831.635	17098
831.774	17159
831.913	17193
832.051	16972
832.19	16980
832.329	17037
832.467	16927
832.606	16877
832.744	16820
832.883	16923
833.022	16843
833.16	16896
833.299	16976
833.437	16919
833.576	16976
833.714	16968
833.852	16946
833.991	17052
834.129	17010
834.267	16984
834.406	17003
834.544	17048
834.682	16968
834.821	16900
834.959	17193
835.097	17010
835.235	17037
835.373	16949
835.511	17003
835.65	16820
835.788	16873
835.926	16782
836.064	16573
836.202	16744
836.34	16930
836.478	16900
836.615	16839
836.753	16915
836.891	16915
837.029	16896
837.167	16736
837.305	16729
837.443	16778
837.58	16755
837.718	16801
837.856	16660
837.993	16698
838.131	16698
838.269	16759
838.406	16618
838.544	16653
838.681	16386
838.819	16478
838.956	16284
839.094	16284
839.231	16272
839.369	16363
839.506	16668
839.643	16466
839.781	16303
839.918	16268
840.055	16230
840.193	16253
840.33	16181
840.467	16276
840.604	16253
840.742	16451
840.879	16158
841.016	16185
841.153	16185
841.29	16363
841.427	16337
841.564	16325
841.701	16379
841.838	16200
841.975	16166
842.112	16188
842.249	16169
842.385	16078
842.522	16360
842.659	16139
842.796	15991
842.933	16021
843.069	16105
843.206	16071
843.343	16181
843.479	16082
843.616	16090
843.752	15941
843.889	15873
844.025	15964
844.162	15888
844.298	15934
844.435	15842
844.571	15739
844.708	15937
844.844	16010
844.98	15964
845.117	16013
845.253	15789
845.389	15690
845.525	15945
845.661	15911
845.798	15774
845.934	15720
846.07	15911
846.206	15903
846.342	15987
846.478	15724
846.614	15500
846.75	15363
846.886	15374
847.022	15553
847.158	15321
847.294	15450
847.429	15378
847.565	15416
847.701	15591
847.837	15085
847.972	15138
848.108	15298
848.244	15226
848.379	15043
848.515	15024
848.65	14982
848.786	15039
848.921	14914
849.057	15184
849.192	15028
849.328	15001
849.463	14948
849.598	15013
849.734	15013
849.869	14842
850.004	14800
850.14	14838
850.275	14705
850.41	14746
850.545	14610
850.68	14765
850.815	14781
850.95	14796
851.085	14868
851.22	14899
851.355	14785
851.49	14670
851.625	14743
851.76	14731
851.895	14606
852.03	14667
852.165	14739
852.299	14754
852.434	14891
852.569	14868
852.703	14864
852.838	14811
852.973	14823
853.107	14895
853.242	14834
853.376	14701
853.511	14549
853.645	14655
853.78	14781
853.914	14636
854.048	14545
854.183	14610
854.317	14613
854.451	14842
854.585	14602
854.72	14560
854.854	14754
854.988	14556
855.122	14632
855.256	14488
855.39	14602
855.524	14750
855.658	14610
855.792	14689
855.926	14693
856.06	14712
856.194	14781
856.327	14674
856.461	14549
856.595	14617
856.729	14644
856.862	14777
856.996	14674
857.13	14746
857.263	14750
857.397	14754
857.53	14674
857.664	14667
857.797	14804
857.931	14849
858.064	14693
858.197	14769
858.331	14648
858.464	14659
858.597	14606
858.731	14678
858.864	14617
858.997	14560
859.13	14598
859.263	14769
859.396	14746
859.529	14640
859.662	14613
859.795	14678
859.928	14644
860.061	14758
860.194	14845
860.327	14594
860.46	14610
860.592	14720
860.725	14777
860.858	14796
860.99	14533
861.123	14568
861.256	14579
861.388	14606
861.521	15420
861.653	14484
861.786	14533
861.918	14454
862.05	14594
862.183	14590
862.315	14518
862.447	14587
862.58	14575
862.712	14400
862.844	14328
862.976	14495
863.108	14469
863.24	14925
863.372	14343
863.504	14484
863.636	14374
863.768	14465
863.9	14476
864.032	14438
864.164	14332
864.296	14457
864.428	14465
864.559	14484
864.691	14450
864.823	14438
864.954	14404
865.086	14488
865.217	14393
865.349	14317
865.48	14362
865.612	14427
865.743	14613
865.875	14389
866.006	14347
866.137	14454
866.269	14358
866.4	14355
866.531	14290
866.662	14282
866.793	14343
866.924	14419
867.055	14362
867.186	14358
867.317	14393
867.448	14320
867.579	14290
867.71	14377
867.841	14313
867.972	14294
868.103	14324
868.233	14454
868.364	14282
868.495	14533
868.625	14594
868.756	14743
868.886	14552
869.017	14625
869.147	14655
869.278	14727
869.408	14575
869.539	14617
869.669	14739
869.799	14670
869.929	14773
870.06	14819
870.19	15028
870.32	14994
870.45	15013
870.58	15001
870.71	15173
870.84	15165
870.97	14975
871.1	15055
871.23	15195
871.36	15199
871.489	15173
871.619	15237
871.749	15165
871.879	15192
872.008	15462
872.138	15275
872.267	15268
872.397	15161
872.526	15055
872.656	15077
872.785	15070
872.915	15252
873.044	15351
873.173	15291
873.303	15340
873.432	15180
873.561	15336
873.69	15279
873.819	15264
873.948	15420
874.077	15363
874.206	15287
874.335	15283
874.464	15466
874.593	15629
874.722	15462
874.851	15671
874.979	15542
875.108	15584
875.237	15542
875.365	15450
875.494	15622
875.623	15652
875.751	15564
875.88	15542
876.008	15755
876.136	15850
876.265	15998
876.393	16150
876.521	16017
876.65	16147
876.778	15991
876.906	15972
877.034	15964
877.162	16010
877.29	15937
877.418	16048
877.546	16029
877.674	15903
877.802	16101
877.93	16002
878.058	15998
878.185	15899
878.313	16021
878.441	16025
878.568	15880
878.696	15930
878.824	16074
878.951	16166
879.079	16169
879.206	16390
879.333	16112
879.461	16265
879.588	16185
879.715	16344
879.842	16333
879.97	16162
880.097	15857
880.224	15911
880.351	15922
880.478	15926
880.605	15949
880.732	15861
880.859	16162
880.986	15873
881.112	15991
881.239	15789
881.366	15572
881.493	15618
881.619	15633
881.746	15561
881.872	15519
881.999	15553
882.125	15447
882.252	15652
882.378	15549
882.505	15743
882.631	15424
882.757	15431
882.883	15397
883.01	15340
883.136	15321
883.262	15203
883.388	15207
883.514	15306
883.64	15401
883.766	15302
883.892	15180
884.018	15211
884.143	15416
884.269	15488
884.395	15077
884.52	15001
884.646	15146
884.772	14941
884.897	14948
885.023	15047
885.148	15173
885.274	15272
885.399	15161
885.524	15039
885.65	15093
885.775	15104
885.9	15005
886.025	15131
886.15	15097
886.275	15009
886.4	14921
886.525	14979
886.65	14956
886.775	15036
886.9	15146
887.025	15226
887.149	15024
887.274	14982
887.399	14811
887.523	14883
887.648	14724
887.773	14785
887.897	14914
888.021	14891
888.146	14735
888.27	14967
888.395	14979
888.519	14963
888.643	14967
888.767	14883
888.891	14781
889.015	14796
889.139	14708
889.263	14777
889.387	14849
889.511	14842
889.635	14868
889.759	14765
889.883	14754
890.006	14807
890.13	14861
890.254	14629
890.377	14697
890.501	14564
890.624	14488
890.748	14564
890.871	14442
890.995	14423
891.118	14286
891.241	14419
891.364	14320
891.488	14511
891.611	14320
891.734	14476
891.857	14602
891.98	14556
892.103	14434
892.226	14434
892.349	14412
892.471	14225
892.594	14370
892.717	14507
892.839	14351
892.962	14488
893.085	14465
893.207	14457
893.33	14305
893.452	14271
893.575	14476
893.697	14400
893.819	14530
893.941	14545
894.064	14545
894.186	14427
894.308	14377
894.43	14427
894.552	14598
894.674	14545
894.796	14347
894.918	14370
895.04	14469
895.161	14537
895.283	14476
895.405	14476
895.526	14454
895.648	14446
895.769	14438
895.891	14552
896.012	14625
896.134	14602
896.255	14621
896.376	14484
896.498	14587
896.619	14564
896.74	14587
896.861	14632
896.982	14933
897.103	15047
897.224	14872
897.345	14815
897.466	14792
897.587	14811
897.708	15097
897.828	14899
897.949	14849
898.07	14720
898.19	14804
898.311	14944
898.431	14811
898.552	14887
898.672	14952
898.792	14967
898.913	14979
899.033	14819
899.153	14781
899.273	14674
899.393	14716
899.513	14792
899.633	14773
899.753	14735
899.873	14819
899.993	14769
900.113	14769
900.232	14785
900.352	14781
900.472	14682
900.591	14590
900.711	14625
900.83	14606
900.95	14838
901.069	14758
901.189	14492
901.308	14347
901.427	14301
901.546	14423
901.665	14324
901.784	14275
901.904	14161
902.023	14088
902.141	13951
902.26	13879
902.379	13883
902.498	13826
902.617	13883
902.735	13890
902.854	13772
902.973	13811
903.091	13655
903.21	13483
903.328	13537
903.446	13476
903.565	13396
903.683	13510
903.801	13312
903.919	13438
904.038	13438
904.156	13187
904.274	13259
904.392	13164
904.51	13251
904.627	13232
904.745	13297
904.863	13266
904.981	12989
905.098	12894
905.216	12932
905.334	13031
905.451	12932
905.569	12772
905.686	12859
905.803	12920
905.921	12791
906.038	12901
906.155	12760
906.272	12700
906.389	12711
906.506	12547
906.623	12498
906.74	12593
906.857	12376
906.974	12422
907.091	12654
907.208	12658
907.324	12471
907.441	12410
907.557	12281
907.674	12213
907.79	12175
907.907	12201
908.023	12254
908.139	12220
908.256	12224
908.372	12110
908.488	12178
908.604	12144
908.72	11977
908.836	12041
908.952	12087
909.068	12068
909.184	12041
909.3	12022
909.415	12087
909.531	11961
909.647	11805
909.762	11741
909.878	11866
909.993	11729
910.108	11752
910.224	11680
910.339	11695
910.454	11623
910.57	11657
910.685	11535
910.8	11779
910.915	11847
911.03	11680
911.145	11459
911.259	11482
911.374	11436
911.489	11353
911.604	11284
911.718	11296
911.833	11296
911.947	11174
912.062	11029
912.176	11212
912.291	11227
912.405	11166
912.519	11509
912.633	11463
912.748	11376
912.862	11261
912.976	11136
913.09	10999
913.204	11041
913.318	11132
913.431	11265
913.545	11147
913.659	11181
913.772	11098
913.886	10968
914	10961
914.113	11094
914.226	11067
914.34	11109
914.453	10911
914.566	11102
914.68	10942
914.793	10938
914.906	10816
915.019	10744
915.132	10729
915.245	10668
915.358	10679
915.47	10698
915.583	10790
915.696	10748
915.809	10797
915.921	10850
916.034	10698
916.146	10687
916.259	10675
916.371	10801
916.483	10752
916.595	10649
916.708	10679
916.82	10599
916.932	10615
917.044	10535
917.156	10691
917.268	10443
917.38	10584
917.491	10432
917.603	10573
917.715	10596
917.826	10592
917.938	10504
918.049	10489
918.161	10497
918.272	10668
918.384	10683
918.495	10535
918.606	10462
918.717	10402
918.828	10470
918.939	10413
919.05	10344
919.161	10363
919.272	10219
919.383	10268
919.494	10462
919.604	10622
919.715	10402
919.826	10303
919.936	10424
920.047	10504
920.157	10402
920.267	10683
920.378	10577
920.488	10428
920.598	10580
920.708	10801
920.818	10558
920.928	10641
921.038	10752
921.148	10717
921.258	10409
921.368	10363
921.477	10234
921.587	10337
921.697	10169
921.806	10379
921.916	10021
922.025	9975
922.134	9934
922.244	9956
922.353	10010
922.462	9838
922.571	9861
922.68	9652
922.789	9724
922.898	9690
923.007	9610
923.116	9720
923.224	9587
923.333	9675
923.442	9576
923.55	9458
923.659	9568
923.767	9641
923.876	9469
923.984	9553
924.092	9485
924.201	9504
924.309	9526
924.417	9572
924.525	9523
924.633	9519
924.741	10287
924.849	9222
924.956	9431
925.064	9283
925.172	9218
925.279	9203
925.387	9329
925.494	9359
925.602	9462
925.709	9317
925.816	9355
925.924	9306
926.031	9306
926.138	9374
926.245	9401
926.352	9264
926.459	9386
926.566	9378
926.673	9279
926.779	9161
926.886	9127
926.993	9047
927.099	8948
927.206	8963
927.312	8918
927.419	9100
927.525	9032
927.631	9058
927.737	8952
927.843	8933
927.95	8807
928.056	8857
928.162	8864
928.267	8971
928.373	9549
928.479	8967
928.585	8735
928.69	8861
928.796	8902
928.901	8811
929.007	8678
929.112	8861
929.218	8800
929.323	8689
929.428	8785
929.533	8792
929.638	8682
929.743	8682
929.848	8781
929.953	8708
930.058	8629
930.163	8484
930.267	8526
930.372	8575
930.477	8442
930.581	8731
930.685	8541
930.79	8454
930.894	8488
930.998	8412
931.103	8522
931.207	8244
931.311	8176
931.415	8050
931.519	7925
931.623	7951
