Data from test_V78500241_3583.txt Node
Date: Fri Mar 25 14:58:40 CST 2022
User: usil
Spectrometer: V785-0024
Trigger mode: 0
Integration Time (sec): 4.000000E-1
Scans to average: 1
Nonlinearity correction enabled: false
Boxcar width: 0
Storing dark spectrum: false
XAxis mode: Wavelengths
Number of Pixels in Spectrum: 1024
>>>>>Begin Spectral Data<<<<<
801.071	21911
801.214	21694
801.356	21469
801.499	21416
801.641	21332
801.783	21249
801.926	21230
802.068	21211
802.211	21154
802.353	21051
802.496	20765
802.638	20739
802.78	20632
802.923	20705
803.065	20564
803.208	20651
803.35	20583
803.492	20621
803.635	20594
803.777	20621
803.919	20590
804.061	20933
804.204	20640
804.346	20541
804.488	20457
804.63	20518
804.773	20511
804.915	20400
805.057	20522
805.199	20461
805.341	20533
805.483	20598
805.626	20511
805.768	20461
805.91	20488
806.052	20541
806.194	20370
806.336	20625
806.478	20419
806.62	20450
806.762	20560
806.904	20674
807.046	20895
807.188	20906
807.33	20823
807.472	20853
807.614	20678
807.756	20632
807.898	20606
808.04	20518
808.182	20552
808.324	20571
808.465	20587
808.607	20800
808.749	20769
808.891	20937
809.033	21062
809.174	20861
809.316	20807
809.458	20731
809.6	20697
809.741	20807
809.883	20864
810.025	20979
810.166	20971
810.308	20853
810.45	20902
810.591	20834
810.733	20606
810.875	20613
811.016	20514
811.158	20404
811.299	20598
811.441	20667
811.582	20632
811.724	20640
811.865	20503
812.007	20507
812.148	20659
812.29	20583
812.431	20819
812.573	20876
812.714	20944
812.855	21233
812.997	21146
813.138	21416
813.279	21245
813.421	21089
813.562	20994
813.703	20910
813.845	20800
813.986	20484
814.127	20240
814.268	20145
814.41	20237
814.551	20058
814.692	20210
814.833	20012
814.974	20039
815.115	20161
815.256	20050
815.397	19978
815.539	19868
815.68	19902
815.821	19776
815.962	19932
816.103	19731
816.244	19746
816.385	19601
816.526	19510
816.666	19358
816.807	19331
816.948	19266
817.089	19411
817.23	19327
817.371	19255
817.512	19251
817.653	19175
817.793	19190
817.934	19179
818.075	19213
818.216	19156
818.356	19312
818.497	19107
818.638	18928
818.778	18859
818.919	18856
819.06	19008
819.2	19050
819.341	19137
819.481	19114
819.622	19221
819.762	19453
819.903	19263
820.043	19263
820.184	19312
820.324	19274
820.465	19289
820.605	19225
820.746	19225
820.886	19095
821.026	19171
821.167	19198
821.307	19175
821.447	19160
821.588	19015
821.728	18913
821.868	18817
822.008	18544
822.149	18612
822.289	18616
822.429	18388
822.569	18342
822.709	18399
822.849	18258
822.99	18095
823.13	18220
823.27	18129
823.41	17931
823.55	17847
823.69	17931
823.83	18022
823.97	17889
824.11	17684
824.25	17726
824.389	17676
824.529	17847
824.669	17703
824.809	17805
824.949	17786
825.089	17798
825.228	17748
825.368	17505
825.508	17600
825.648	17551
825.787	17539
825.927	17573
826.067	17474
826.206	17524
826.346	17448
826.485	17619
826.625	17577
826.765	17615
826.904	17459
827.044	17227
827.183	17273
827.323	17174
827.462	17258
827.601	17200
827.741	17166
827.88	17178
828.02	17079
828.159	17261
828.298	17269
828.437	17155
828.577	17147
828.716	17345
828.855	17102
828.994	17033
829.134	16965
829.273	16976
829.412	16885
829.551	16896
829.69	16953
829.829	16984
829.968	17075
830.107	17045
830.246	16980
830.385	16934
830.524	16961
830.663	16831
830.802	16729
830.941	16561
831.08	16584
831.219	16664
831.357	16660
831.496	16778
831.635	16489
831.774	16618
831.913	16443
832.051	16379
832.19	16348
832.329	16459
832.467	16234
832.606	16261
832.744	16291
832.883	16329
833.022	16261
833.16	16257
833.299	16299
833.437	16394
833.576	16417
833.714	16428
833.852	16348
833.991	16363
834.129	16344
834.267	16367
834.406	16303
834.544	16440
834.682	16417
834.821	16310
834.959	16531
835.097	16379
835.235	16402
835.373	16341
835.511	16481
835.65	16303
835.788	16280
835.926	16192
836.064	15994
836.202	16067
836.34	16226
836.478	16386
836.615	16226
836.753	16306
836.891	16360
837.029	16169
837.167	16230
837.305	16196
837.443	16200
837.58	16204
837.718	16226
837.856	16120
837.993	16124
838.131	16105
838.269	16109
838.406	16029
838.544	16010
838.681	15865
838.819	15759
838.956	15812
839.094	15728
839.231	15720
839.369	15922
839.506	16158
839.643	15953
839.781	15701
839.918	15694
840.055	15778
840.193	15717
840.33	15694
840.467	15622
840.604	15644
840.742	15972
840.879	15496
841.016	15629
841.153	15595
841.29	15850
841.427	15633
841.564	15667
841.701	15724
841.838	15667
841.975	15614
842.112	15633
842.249	15420
842.385	15466
842.522	15652
842.659	15496
842.796	15424
842.933	15564
843.069	15530
843.206	15454
843.343	15557
843.479	15401
843.616	15526
843.752	15211
843.889	15310
844.025	15363
844.162	15214
844.298	15363
844.435	15180
844.571	15203
844.708	15245
844.844	15553
844.98	15466
845.117	15329
845.253	15218
845.389	15142
845.525	15226
845.661	15249
845.798	15081
845.934	15146
846.07	15051
846.206	15097
846.342	15207
846.478	15070
846.614	14819
846.75	14830
846.886	14876
847.022	14864
847.158	14887
847.294	14845
847.429	14933
847.565	14804
847.701	15127
847.837	14621
847.972	14598
848.108	14708
848.244	14632
848.379	14438
848.515	14396
848.65	14412
848.786	14492
848.921	14488
849.057	14530
849.192	14560
849.328	14457
849.463	14457
849.598	14408
849.734	14404
849.869	14290
850.004	14214
850.14	14324
850.275	14259
850.41	14130
850.545	14164
850.68	14320
850.815	14248
850.95	14199
851.085	14385
851.22	14317
851.355	14130
851.49	14161
851.625	14214
851.76	14202
851.895	14088
852.03	14058
852.165	14149
852.299	14168
852.434	14328
852.569	14237
852.703	14263
852.838	14290
852.973	14328
853.107	14381
853.242	14240
853.376	14088
853.511	13978
853.645	14062
853.78	14168
853.914	14145
854.048	14058
854.183	14126
854.317	14005
854.451	14313
854.585	14161
854.72	14157
854.854	14229
854.988	14096
855.122	14119
855.256	13940
855.39	14092
855.524	14191
855.658	14130
855.792	14119
855.926	14107
856.06	14134
856.194	14210
856.327	14069
856.461	14081
856.595	14119
856.729	14103
856.862	14195
856.996	14073
857.13	14123
857.263	14199
857.397	14263
857.53	14043
857.664	14069
857.797	14168
857.931	14206
858.064	14149
858.197	14195
858.331	14039
858.464	13959
858.597	13940
858.731	14107
858.864	14005
858.997	14077
859.13	14134
859.263	14214
859.396	14168
859.529	14058
859.662	14096
859.795	14123
859.928	14103
860.061	14278
860.194	14263
860.327	14088
860.46	14088
860.592	14195
860.725	14229
860.858	14157
860.99	14077
861.123	14062
861.256	13982
861.388	14062
861.521	14819
861.653	13928
861.786	13951
861.918	13887
862.05	14065
862.183	14024
862.315	14103
862.447	14096
862.58	14065
862.712	13856
862.844	13822
862.976	13970
863.108	13841
863.24	14290
863.372	13856
863.504	13890
863.636	13868
863.768	13913
863.9	13860
864.032	13887
864.164	13875
864.296	13947
864.428	13963
864.559	13970
864.691	13951
864.823	13944
864.954	13883
865.086	14020
865.217	13936
865.349	13852
865.48	13841
865.612	13837
865.743	13989
865.875	13906
866.006	13841
866.137	13936
866.269	13921
866.4	13898
866.531	13864
866.662	13799
866.793	13826
866.924	13734
867.055	13917
867.186	13875
867.317	13856
867.448	13704
867.579	13727
867.71	13715
867.841	13849
867.972	13868
868.103	13833
868.233	13860
868.364	13837
868.495	13887
868.625	14043
868.756	14229
868.886	13997
869.017	14142
869.147	14206
869.278	14271
869.408	14191
869.539	14206
869.669	14126
869.799	14153
869.929	14252
870.06	14244
870.19	14412
870.32	14419
870.45	14461
870.58	14651
870.71	14617
870.84	14568
870.97	14537
871.1	14488
871.23	14678
871.36	14632
871.489	14594
871.619	14739
871.749	14762
871.879	14617
872.008	14849
872.138	14743
872.267	14746
872.397	14617
872.526	14610
872.656	14514
872.785	14568
872.915	14724
873.044	14765
873.173	14765
873.303	14838
873.432	14826
873.561	14811
873.69	14819
873.819	14739
873.948	14899
874.077	14746
874.206	14788
874.335	14781
874.464	14800
874.593	15017
874.722	15062
874.851	15024
874.979	15138
875.108	15135
875.237	15032
875.365	15039
875.494	15062
875.623	15055
875.751	15070
875.88	15093
876.008	15241
876.136	15306
876.265	15469
876.393	15656
876.521	15507
876.65	15561
876.778	15561
876.906	15477
877.034	15363
877.162	15450
877.29	15428
877.418	15462
877.546	15443
877.674	15458
877.802	15523
877.93	15519
878.058	15401
878.185	15389
878.313	15542
878.441	15454
878.568	15275
878.696	15439
878.824	15603
878.951	15469
879.079	15762
879.206	15747
879.333	15656
879.461	15587
879.588	15519
879.715	15804
879.842	15770
879.97	15557
880.097	15283
880.224	15363
880.351	15344
880.478	15386
880.605	15317
880.732	15420
880.859	15606
880.986	15397
881.112	15500
881.239	15291
881.366	15195
881.493	15051
881.619	14994
881.746	15085
881.872	15001
881.999	15009
882.125	14876
882.252	15055
882.378	15043
882.505	15207
882.631	14864
882.757	14834
882.883	14994
883.01	14876
883.136	14823
883.262	14644
883.388	14773
883.514	14849
883.64	14925
883.766	14716
883.892	14575
884.018	14651
884.143	14807
884.269	14960
884.395	14602
884.52	14469
884.646	14610
884.772	14427
884.897	14446
885.023	14514
885.148	14613
885.274	14739
885.399	14629
885.524	14556
885.65	14503
885.775	14674
885.9	14613
886.025	14682
886.15	14659
886.275	14526
886.4	14469
886.525	14499
886.65	14476
886.775	14484
886.9	14651
887.025	14697
887.149	14541
887.274	14412
887.399	14263
887.523	14336
887.648	14301
887.773	14282
887.897	14320
888.021	14480
888.146	14358
888.27	14461
888.395	14473
888.519	14419
888.643	14362
888.767	14434
888.891	14408
889.015	14195
889.139	14286
889.263	14271
889.387	14461
889.511	14438
889.635	14305
889.759	14305
889.883	14225
890.006	14263
890.13	14336
890.254	14130
890.377	14130
890.501	14130
890.624	14081
890.748	14123
890.871	13944
890.995	13928
891.118	13845
891.241	13963
891.364	13894
891.488	14054
891.611	13974
891.734	13849
891.857	14012
891.98	13997
892.103	14046
892.226	13947
892.349	13959
892.471	13700
892.594	13814
892.717	13940
892.839	13978
892.962	13963
893.085	13993
893.207	13970
893.33	13868
893.452	14001
893.575	14062
893.697	13871
893.819	14020
893.941	14176
894.064	14062
894.186	13875
894.308	13921
894.43	13997
894.552	14138
894.674	14092
894.796	13974
894.918	13982
895.04	13974
895.161	14096
895.283	14077
895.405	13959
895.526	14005
895.648	14149
895.769	14107
895.891	14119
896.012	14191
896.134	14073
896.255	14157
896.376	14157
896.498	14065
896.619	14077
896.74	14077
896.861	14240
896.982	14495
897.103	14613
897.224	14385
897.345	14313
897.466	14271
897.587	14461
897.708	14511
897.828	14423
897.949	14324
898.07	14237
898.19	14374
898.311	14427
898.431	14366
898.552	14377
898.672	14415
898.792	14488
898.913	14450
899.033	14320
899.153	14324
899.273	14336
899.393	14256
899.513	14320
899.633	14263
899.753	14290
899.873	14275
899.993	14412
900.113	14275
900.232	14301
900.352	14313
900.472	14259
900.591	14111
900.711	14240
900.83	14073
900.95	14290
901.069	14313
901.189	14111
901.308	13951
901.427	13856
901.546	13936
901.665	13803
901.784	13868
901.904	13655
902.023	13590
902.141	13510
902.26	13521
902.379	13514
902.498	13384
902.617	13354
902.735	13472
902.854	13373
902.973	13316
903.091	13270
903.21	13110
903.328	13084
903.446	13129
903.565	13012
903.683	12954
903.801	12928
903.919	13012
904.038	13015
904.156	12859
904.274	12958
904.392	12833
904.51	12722
904.627	12738
904.745	12863
904.863	12875
904.981	12570
905.098	12475
905.216	12521
905.334	12658
905.451	12532
905.569	12483
905.686	12547
905.803	12517
905.921	12315
906.038	12399
906.155	12426
906.272	12235
906.389	12239
906.506	12110
906.623	12152
906.74	12060
906.857	11935
906.974	12083
907.091	12155
907.208	12232
907.324	12140
907.441	12030
907.557	11923
907.674	11783
907.79	11771
907.907	11878
908.023	11882
908.139	11935
908.256	11824
908.372	11790
908.488	11707
908.604	11615
908.72	11532
908.836	11691
908.952	11547
909.068	11581
909.184	11722
909.3	11710
909.415	11627
909.531	11707
909.647	11509
909.762	11471
909.878	11398
909.993	11482
910.108	11364
910.224	11307
910.339	11395
910.454	11277
910.57	11277
910.685	11151
910.8	11444
910.915	11379
911.03	11296
911.145	11075
911.259	11067
911.374	11136
911.489	11041
911.604	11052
911.718	10858
911.833	10908
911.947	10736
912.062	10740
912.176	10831
912.291	10892
912.405	10892
912.519	11029
912.633	11162
912.748	10923
912.862	10877
912.976	10752
913.09	10660
913.204	10691
913.318	10717
913.431	10790
913.545	10866
913.659	10854
913.772	10816
913.886	10599
914	10542
914.113	10755
914.226	10755
914.34	10721
914.453	10504
914.566	10656
914.68	10546
914.793	10546
914.906	10466
915.019	10310
915.132	10249
915.245	10360
915.358	10432
915.47	10390
915.583	10367
915.696	10443
915.809	10436
915.921	10512
916.034	10375
916.146	10257
916.259	10314
916.371	10390
916.483	10348
916.595	10379
916.708	10329
916.82	10268
916.932	10344
917.044	10405
917.156	10215
917.268	10158
917.38	10181
917.491	10135
917.603	10253
917.715	10268
917.826	10265
917.938	10192
918.049	10051
918.161	10192
918.272	10421
918.384	10310
918.495	10295
918.606	10116
918.717	10044
918.828	10082
918.939	10112
919.05	10051
919.161	10139
919.272	9857
919.383	9956
919.494	10242
919.604	10379
919.715	10101
919.826	10036
919.936	10109
920.047	10131
920.157	10154
920.267	10207
920.378	10124
920.488	10067
920.598	10352
920.708	10398
920.818	10322
920.928	10257
921.038	10500
921.148	10424
921.258	10143
921.368	10055
921.477	10006
921.587	9922
921.697	9793
921.806	10032
921.916	9831
922.025	9778
922.134	9732
922.244	9660
922.353	9827
922.462	9599
922.571	9386
922.68	9393
922.789	9401
922.898	9412
923.007	9310
923.116	9458
923.224	9348
923.333	9313
923.442	9279
923.55	9192
923.659	9287
923.767	9291
923.876	9253
923.984	9306
924.092	9119
924.201	9291
924.309	9207
924.417	9283
924.525	9157
924.633	9249
924.741	9972
924.849	8952
924.956	9165
925.064	9047
925.172	8963
925.279	8994
925.387	9047
925.494	9055
925.602	9108
925.709	9104
925.816	8891
925.924	9127
926.031	9188
926.138	9112
926.245	9085
926.352	8956
926.459	9085
926.566	9131
926.673	8998
926.779	8933
926.886	8902
926.993	8811
927.099	8716
927.206	8727
927.312	8655
927.419	8788
927.525	8724
927.631	8758
927.737	8651
927.843	8667
927.95	8465
928.056	8610
928.162	8610
928.267	8746
928.373	9214
928.479	8724
928.585	8552
928.69	8655
928.796	8674
928.901	8484
929.007	8461
929.112	8571
929.218	8537
929.323	8514
929.428	8480
929.533	8533
929.638	8415
929.743	8419
929.848	8484
929.953	8404
930.058	8343
930.163	8259
930.267	8210
930.372	8385
930.477	8214
930.581	8434
930.685	8286
930.79	8221
930.894	8225
930.998	8157
931.103	8267
931.207	7963
931.311	7925
931.415	7909
931.519	7677
931.623	7662
