Data from test_V78500241_3476.txt Node
Date: Fri Mar 25 14:57:55 CST 2022
User: usil
Spectrometer: V785-0024
Trigger mode: 0
Integration Time (sec): 4.000000E-1
Scans to average: 1
Nonlinearity correction enabled: false
Boxcar width: 0
Storing dark spectrum: false
XAxis mode: Wavelengths
Number of Pixels in Spectrum: 1024
>>>>>Begin Spectral Data<<<<<
801.071	21941
801.214	21816
801.356	21568
801.499	21405
801.641	21412
801.783	21287
801.926	21237
802.068	21199
802.211	21093
802.353	21123
802.496	20906
802.638	20876
802.78	20689
802.923	20636
803.065	20511
803.208	20480
803.35	20625
803.492	20712
803.635	20861
803.777	20655
803.919	20617
804.061	20929
804.204	20613
804.346	20545
804.488	20564
804.63	20594
804.773	20484
804.915	20552
805.057	20518
805.199	20514
805.341	20423
805.483	20739
805.626	20598
805.768	20381
805.91	20613
806.052	20602
806.194	20370
806.336	20708
806.478	20495
806.62	20419
806.762	20625
806.904	20560
807.046	20910
807.188	20921
807.33	20735
807.472	20895
807.614	20651
807.756	20731
807.898	20549
808.04	20469
808.182	20514
808.324	20503
808.465	20701
808.607	20777
808.749	20868
808.891	20864
809.033	21043
809.174	20941
809.316	20929
809.458	20895
809.6	20746
809.741	20815
809.883	20952
810.025	20994
810.166	20933
810.308	21047
810.45	20979
810.591	20963
810.733	20697
810.875	20678
811.016	20457
811.158	20438
811.299	20621
811.441	20746
811.582	20651
811.724	20587
811.865	20621
812.007	20541
812.148	20659
812.29	20549
812.431	20880
812.573	20925
812.714	20941
812.855	21074
812.997	21298
813.138	21313
813.279	21245
813.421	21119
813.562	21032
813.703	20815
813.845	20648
813.986	20495
814.127	20275
814.268	20058
814.41	20286
814.551	20100
814.692	20195
814.833	20043
814.974	20134
815.115	20187
815.256	20073
815.397	20012
815.539	20035
815.68	19902
815.821	19856
815.962	19947
816.103	19833
816.244	19849
816.385	19639
816.526	19586
816.666	19419
816.807	19259
816.948	19331
817.089	19411
817.23	19430
817.371	19274
817.512	19247
817.653	19278
817.793	19133
817.934	19274
818.075	19293
818.216	19301
818.356	19110
818.497	19168
818.638	19012
818.778	18924
818.919	19061
819.06	18935
819.2	19065
819.341	19251
819.481	19240
819.622	19285
819.762	19537
819.903	19362
820.043	19289
820.184	19358
820.324	19225
820.465	19274
820.605	19304
820.746	19209
820.886	19088
821.026	19183
821.167	19126
821.307	19202
821.447	19175
821.588	19004
821.728	19000
821.868	18833
822.008	18696
822.149	18768
822.289	18700
822.429	18452
822.569	18353
822.709	18391
822.849	18152
822.99	18148
823.13	18300
823.27	18197
823.41	18022
823.55	17889
823.69	17927
823.83	18159
823.97	18007
824.11	17817
824.25	17752
824.389	17741
824.529	17832
824.669	17707
824.809	17855
824.949	17817
825.089	17745
825.228	17851
825.368	17646
825.508	17501
825.648	17512
825.787	17554
825.927	17528
826.067	17425
826.206	17558
826.346	17528
826.485	17573
826.625	17562
826.765	17646
826.904	17532
827.044	17239
827.183	17280
827.323	17124
827.462	17307
827.601	17239
827.741	17307
827.88	17337
828.02	17098
828.159	17273
828.298	17288
828.437	17326
828.577	17216
828.716	17269
828.855	17250
828.994	16984
829.134	17006
829.273	17025
829.412	16942
829.551	16976
829.69	16908
829.829	16991
829.968	17022
830.107	17128
830.246	17109
830.385	17090
830.524	16923
830.663	16816
830.802	16801
830.941	16577
831.08	16561
831.219	16698
831.357	16729
831.496	16858
831.635	16500
831.774	16538
831.913	16470
832.051	16360
832.19	16470
832.329	16379
832.467	16329
832.606	16246
832.744	16390
832.883	16310
833.022	16287
833.16	16253
833.299	16360
833.437	16310
833.576	16386
833.714	16344
833.852	16497
833.991	16371
834.129	16519
834.267	16455
834.406	16455
834.544	16386
834.682	16424
834.821	16265
834.959	16512
835.097	16367
835.235	16440
835.373	16500
835.511	16394
835.65	16325
835.788	16280
835.926	16120
836.064	16074
836.202	16154
836.34	16284
836.478	16405
836.615	16204
836.753	16272
836.891	16367
837.029	16280
837.167	16261
837.305	16101
837.443	16154
837.58	16158
837.718	16253
837.856	16299
837.993	16166
838.131	16253
838.269	16109
838.406	16097
838.544	16074
838.681	15899
838.819	15922
838.956	15774
839.094	15785
839.231	15732
839.369	15819
839.506	16143
839.643	15960
839.781	15762
839.918	15694
840.055	15793
840.193	15774
840.33	15648
840.467	15644
840.604	15724
840.742	16017
840.879	15591
841.016	15660
841.153	15671
841.29	15816
841.427	15762
841.564	15797
841.701	15694
841.838	15679
841.975	15648
842.112	15637
842.249	15622
842.385	15447
842.522	15633
842.659	15477
842.796	15435
842.933	15622
843.069	15523
843.206	15397
843.343	15614
843.479	15603
843.616	15599
843.752	15302
843.889	15294
844.025	15469
844.162	15176
844.298	15374
844.435	15329
844.571	15157
844.708	15291
844.844	15538
844.98	15450
845.117	15344
845.253	15211
845.389	15123
845.525	15195
845.661	15203
845.798	15112
845.934	15165
846.07	15051
846.206	15135
846.342	15169
846.478	15097
846.614	15005
846.75	14887
846.886	14906
847.022	15077
847.158	14796
847.294	14899
847.429	14929
847.565	14804
847.701	15100
847.837	14708
847.972	14667
848.108	14712
848.244	14701
848.379	14461
848.515	14583
848.65	14400
848.786	14423
848.921	14457
849.057	14518
849.192	14594
849.328	14442
849.463	14465
849.598	14499
849.734	14480
849.869	14347
850.004	14324
850.14	14339
850.275	14240
850.41	14191
850.545	14149
850.68	14263
850.815	14252
850.95	14180
851.085	14408
851.22	14298
851.355	14347
851.49	14240
851.625	14237
851.76	14183
851.895	14210
852.03	14168
852.165	14195
852.299	14237
852.434	14278
852.569	14240
852.703	14176
852.838	14294
852.973	14454
853.107	14400
853.242	14248
853.376	14221
853.511	14050
853.645	14046
853.78	14259
853.914	14100
854.048	14084
854.183	14123
854.317	14039
854.451	14233
854.585	14005
854.72	14005
854.854	14210
854.988	14103
855.122	14138
855.256	13864
855.39	14096
855.524	14229
855.658	14119
855.792	14123
855.926	14252
856.06	14142
856.194	14214
856.327	14145
856.461	14008
856.595	14039
856.729	14164
856.862	14153
856.996	14119
857.13	14263
857.263	14233
857.397	14237
857.53	14107
857.664	14229
857.797	14259
857.931	14252
858.064	14191
858.197	14263
858.331	14084
858.464	14073
858.597	14031
858.731	14100
858.864	14134
858.997	14084
859.13	14187
859.263	14206
859.396	14111
859.529	14081
859.662	14142
859.795	14111
859.928	14149
860.061	14263
860.194	14206
860.327	14157
860.46	14210
860.592	14240
860.725	14252
860.858	14237
860.99	14149
861.123	13978
861.256	13974
861.388	14149
861.521	14838
861.653	13982
861.786	13909
861.918	13986
862.05	13921
862.183	14092
862.315	14008
862.447	14119
862.58	14115
862.712	13871
862.844	13894
862.976	14005
863.108	13993
863.24	14332
863.372	13883
863.504	13868
863.636	13906
863.768	13936
863.9	13928
864.032	13890
864.164	13875
864.296	13906
864.428	14012
864.559	14077
864.691	13936
864.823	13986
864.954	14058
865.086	13974
865.217	13955
865.349	13849
865.48	13917
865.612	13944
865.743	14062
865.875	13856
866.006	13890
866.137	13909
866.269	13925
866.4	13841
866.531	13875
866.662	13803
866.793	13898
866.924	13814
867.055	13936
867.186	13951
867.317	13753
867.448	13852
867.579	13826
867.71	13799
867.841	13811
867.972	13906
868.103	13936
868.233	13936
868.364	13811
868.495	14077
868.625	14039
868.756	14134
868.886	14054
869.017	14119
869.147	14210
869.278	14324
869.408	14130
869.539	14149
869.669	14244
869.799	14145
869.929	14240
870.06	14221
870.19	14492
870.32	14446
870.45	14488
870.58	14575
870.71	14640
870.84	14716
870.97	14503
871.1	14598
871.23	14705
871.36	14731
871.489	14705
871.619	14735
871.749	14727
871.879	14777
872.008	14834
872.138	14804
872.267	14663
872.397	14629
872.526	14545
872.656	14606
872.785	14598
872.915	14716
873.044	14880
873.173	14785
873.303	14689
873.432	14735
873.561	14842
873.69	14754
873.819	14754
873.948	14842
874.077	14845
874.206	14754
874.335	14804
874.464	14952
874.593	14967
874.722	14986
874.851	15123
874.979	15074
875.108	15173
875.237	15074
875.365	14967
875.494	14986
875.623	15142
875.751	15032
875.88	15043
876.008	15310
876.136	15344
876.265	15564
876.393	15736
876.521	15587
876.65	15530
876.778	15686
876.906	15454
877.034	15462
877.162	15595
877.29	15511
877.418	15587
877.546	15591
877.674	15466
877.802	15458
877.93	15553
878.058	15530
878.185	15454
878.313	15515
878.441	15564
878.568	15420
878.696	15439
878.824	15519
878.951	15614
879.079	15671
879.206	15827
879.333	15660
879.461	15663
879.588	15663
879.715	15637
879.842	15675
879.97	15641
880.097	15344
880.224	15370
880.351	15458
880.478	15370
880.605	15291
880.732	15374
880.859	15671
880.986	15507
881.112	15393
881.239	15203
881.366	15195
881.493	15173
881.619	15142
881.746	15077
881.872	15085
881.999	14933
882.125	15009
882.252	15131
882.378	15032
882.505	15093
882.631	15032
882.757	14895
882.883	14944
883.01	14914
883.136	14735
883.262	14708
883.388	14739
883.514	14895
883.64	14876
883.766	14845
883.892	14667
884.018	14587
884.143	14769
884.269	14868
884.395	14651
884.52	14537
884.646	14499
884.772	14560
884.897	14511
885.023	14549
885.148	14610
885.274	14724
885.399	14670
885.524	14552
885.65	14587
885.775	14571
885.9	14579
886.025	14670
886.15	14469
886.275	14564
886.4	14427
886.525	14476
886.65	14514
886.775	14385
886.9	14708
887.025	14777
887.149	14610
887.274	14374
887.399	14377
887.523	14408
887.648	14290
887.773	14343
887.897	14396
888.021	14480
888.146	14362
888.27	14431
888.395	14476
888.519	14549
888.643	14332
888.767	14423
888.891	14336
889.015	14240
889.139	14389
889.263	14278
889.387	14358
889.511	14511
889.635	14347
889.759	14252
889.883	14317
890.006	14370
890.13	14324
890.254	14252
890.377	14172
890.501	14054
890.624	14008
890.748	14115
890.871	13993
890.995	13993
891.118	13852
891.241	13974
891.364	14005
891.488	13944
891.611	13989
891.734	13997
891.857	14058
891.98	13928
892.103	14031
892.226	14058
892.349	13917
892.471	13879
892.594	13974
892.717	13959
892.839	13936
892.962	13997
893.085	14077
893.207	13947
893.33	13837
893.452	13902
893.575	14039
893.697	13841
893.819	14111
893.941	14221
894.064	14161
894.186	14035
894.308	13833
894.43	14123
894.552	14183
894.674	14043
894.796	14035
894.918	14027
895.04	14046
895.161	14088
895.283	14107
895.405	14008
895.526	14168
895.648	14119
895.769	14096
895.891	14119
896.012	14149
896.134	14290
896.255	14073
896.376	14191
896.498	14168
896.619	14244
896.74	14157
896.861	14218
896.982	14358
897.103	14663
897.224	14503
897.345	14313
897.466	14237
897.587	14358
897.708	14541
897.828	14476
897.949	14396
898.07	14290
898.19	14301
898.311	14412
898.431	14381
898.552	14473
898.672	14514
898.792	14560
898.913	14518
899.033	14389
899.153	14351
899.273	14263
899.393	14301
899.513	14419
899.633	14400
899.753	14301
899.873	14328
899.993	14465
900.113	14298
900.232	14446
900.352	14404
900.472	14286
900.591	14073
900.711	14267
900.83	14176
900.95	14195
901.069	14313
901.189	14202
901.308	13936
901.427	13837
901.546	13849
901.665	13917
901.784	13986
901.904	13772
902.023	13651
902.141	13491
902.26	13582
902.379	13472
902.498	13457
902.617	13464
902.735	13430
902.854	13457
902.973	13289
903.091	13179
903.21	13053
903.328	13232
903.446	13057
903.565	13084
903.683	13042
903.801	12989
903.919	12920
904.038	12939
904.156	12817
904.274	12947
904.392	12840
904.51	12840
904.627	12867
904.745	12943
904.863	12905
904.981	12684
905.098	12532
905.216	12570
905.334	12578
905.451	12513
905.569	12513
905.686	12555
905.803	12570
905.921	12384
906.038	12471
906.155	12369
906.272	12296
906.389	12273
906.506	12140
906.623	12106
906.74	12114
906.857	12155
906.974	11980
907.091	12224
907.208	12239
907.324	12194
907.441	12015
907.557	11935
907.674	11855
907.79	11817
907.907	11783
908.023	11908
908.139	11870
908.256	11866
908.372	11859
908.488	11798
908.604	11684
908.72	11623
908.836	11592
908.952	11592
909.068	11668
909.184	11707
909.3	11634
909.415	11752
909.531	11718
909.647	11341
909.762	11391
909.878	11379
909.993	11395
910.108	11296
910.224	11372
910.339	11398
910.454	11334
910.57	11307
910.685	11227
910.8	11570
910.915	11436
911.03	11341
911.145	11113
911.259	11147
911.374	11132
911.489	11098
911.604	11052
911.718	10831
911.833	10885
911.947	10786
912.062	10706
912.176	10900
912.291	10961
912.405	10911
912.519	11098
912.633	11094
912.748	10987
912.862	10797
912.976	10736
913.09	10687
913.204	10752
913.318	10691
913.431	10869
913.545	10881
913.659	10923
913.772	10721
913.886	10599
914	10519
914.113	10736
914.226	10763
914.34	10645
914.453	10618
914.566	10763
914.68	10672
914.793	10519
914.906	10413
915.019	10261
915.132	10318
915.245	10325
915.358	10485
915.47	10413
915.583	10360
915.696	10394
915.809	10504
915.921	10596
916.034	10447
916.146	10333
916.259	10268
916.371	10344
916.483	10424
916.595	10352
916.708	10318
916.82	10363
916.932	10287
917.044	10272
917.156	10268
917.268	10177
917.38	10318
917.491	10166
917.603	10265
917.715	10280
917.826	10310
917.938	10128
918.049	10120
918.161	10242
918.272	10409
918.384	10337
918.495	10246
918.606	10173
918.717	10006
918.828	10109
918.939	10131
919.05	10036
919.161	10147
919.272	9895
919.383	9953
919.494	10131
919.604	10363
919.715	10051
919.826	9998
919.936	10097
920.047	10204
920.157	10223
920.267	10382
920.378	10181
920.488	10139
920.598	10322
920.708	10455
920.818	10337
920.928	10276
921.038	10474
921.148	10424
921.258	10128
921.368	10017
921.477	9998
921.587	9949
921.697	9835
921.806	10059
921.916	9907
922.025	9804
922.134	9781
922.244	9728
922.353	9778
922.462	9625
922.571	9500
922.68	9450
922.789	9439
922.898	9393
923.007	9374
923.116	9428
923.224	9462
923.333	9424
923.442	9298
923.55	9317
923.659	9340
923.767	9325
923.876	9256
923.984	9416
924.092	9237
924.201	9275
924.309	9291
924.417	9306
924.525	9207
924.633	9253
924.741	10154
924.849	9104
924.956	9230
925.064	9100
925.172	8990
925.279	9047
925.387	9119
925.494	9062
925.602	9180
925.709	9222
925.816	9097
925.924	9047
926.031	9150
926.138	9097
926.245	9119
926.352	9009
926.459	9176
926.566	9161
926.673	8971
926.779	9020
926.886	8887
926.993	8857
927.099	8792
927.206	8697
927.312	8826
927.419	8762
927.525	8769
927.631	8899
927.737	8769
927.843	8644
927.95	8568
928.056	8640
928.162	8720
928.267	8796
928.373	9348
928.479	8796
928.585	8545
928.69	8697
928.796	8766
928.901	8583
929.007	8488
929.112	8621
929.218	8625
929.323	8545
929.428	8465
929.533	8663
929.638	8442
929.743	8484
929.848	8514
929.953	8556
930.058	8412
930.163	8317
930.267	8294
930.372	8385
930.477	8263
930.581	8480
930.685	8389
930.79	8229
930.894	8275
930.998	8168
931.103	8377
931.207	8024
931.311	7978
931.415	7841
931.519	7761
931.623	7658
