Data from test_V78500241_1962.txt Node
Date: Fri Mar 25 14:47:22 CST 2022
User: usil
Spectrometer: V785-0024
Trigger mode: 0
Integration Time (sec): 4.000000E-1
Scans to average: 1
Nonlinearity correction enabled: false
Boxcar width: 0
Storing dark spectrum: false
XAxis mode: Wavelengths
Number of Pixels in Spectrum: 1024
>>>>>Begin Spectral Data<<<<<
801.071	22032
801.214	21991
801.356	21667
801.499	21629
801.641	21389
801.783	21439
801.926	21424
802.068	21435
802.211	21279
802.353	21161
802.496	21123
802.638	20956
802.78	20857
802.923	20765
803.065	20811
803.208	20781
803.35	20842
803.492	20842
803.635	21024
803.777	20823
803.919	20830
804.061	21249
804.204	20830
804.346	20743
804.488	20674
804.63	20693
804.773	20583
804.915	20674
805.057	20750
805.199	20579
805.341	20678
805.483	20872
805.626	20819
805.768	20617
805.91	20674
806.052	20697
806.194	20667
806.336	20857
806.478	20762
806.62	20594
806.762	20636
806.904	20769
807.046	20975
807.188	21024
807.33	21043
807.472	21020
807.614	20845
807.756	20975
807.898	20800
808.04	20678
808.182	20590
808.324	20762
808.465	20769
808.607	21009
808.749	21051
808.891	21184
809.033	21241
809.174	21180
809.316	21089
809.458	21089
809.6	21096
809.741	21123
809.883	21161
810.025	21313
810.166	21272
810.308	21188
810.45	21249
810.591	21036
810.733	20921
810.875	20838
811.016	20788
811.158	20590
811.299	20853
811.441	20883
811.582	20994
811.724	20883
811.865	20834
812.007	20804
812.148	20796
812.29	20830
812.431	20952
812.573	21062
812.714	21150
812.855	21382
812.997	21458
813.138	21530
813.279	21523
813.421	21412
813.562	21176
813.703	21116
813.845	20971
813.986	20632
814.127	20621
814.268	20446
814.41	20454
814.551	20362
814.692	20412
814.833	20336
814.974	20282
815.115	20313
815.256	20138
815.397	20187
815.539	20252
815.68	20077
815.821	20027
815.962	20134
816.103	19970
816.244	19944
816.385	19970
816.526	19845
816.666	19765
816.807	19601
816.948	19635
817.089	19655
817.23	19567
817.371	19499
817.512	19521
817.653	19537
817.793	19540
817.934	19552
818.075	19594
818.216	19487
818.356	19445
818.497	19381
818.638	19202
818.778	19076
818.919	19324
819.06	19183
819.2	19362
819.341	19335
819.481	19434
819.622	19518
819.762	19689
819.903	19712
820.043	19571
820.184	19540
820.324	19491
820.465	19655
820.605	19514
820.746	19449
820.886	19392
821.026	19476
821.167	19525
821.307	19457
821.447	19464
821.588	19324
821.728	19190
821.868	18989
822.008	18962
822.149	18954
822.289	18856
822.429	18764
822.569	18536
822.709	18578
822.849	18410
822.99	18410
823.13	18334
823.27	18342
823.41	18319
823.55	18178
823.69	18178
823.83	18266
823.97	18144
824.11	17863
824.25	17965
824.389	18019
824.529	18144
824.669	17988
824.809	18072
824.949	18091
825.089	18087
825.228	18030
825.368	17802
825.508	17680
825.648	17802
825.787	17859
825.927	17756
826.067	17589
826.206	17703
826.346	17687
826.485	17752
826.625	17707
826.765	17866
826.904	17897
827.044	17551
827.183	17570
827.323	17486
827.462	17608
827.601	17398
827.741	17414
827.88	17497
828.02	17269
828.159	17452
828.298	17520
828.437	17452
828.577	17417
828.716	17573
828.855	17448
828.994	17181
829.134	17231
829.273	17174
829.412	17220
829.551	17056
829.69	17178
829.829	17334
829.968	17231
830.107	17307
830.246	17216
830.385	17155
830.524	17113
830.663	16991
830.802	16938
830.941	16801
831.08	16866
831.219	16987
831.357	16786
831.496	17022
831.635	16793
831.774	16668
831.913	16668
832.051	16618
832.19	16561
832.329	16565
832.467	16561
832.606	16516
832.744	16516
832.883	16485
833.022	16508
833.16	16554
833.299	16512
833.437	16603
833.576	16523
833.714	16580
833.852	16736
833.991	16603
834.129	16668
834.267	16679
834.406	16500
834.544	16573
834.682	16596
834.821	16577
834.959	16763
835.097	16618
835.235	16698
835.373	16558
835.511	16691
835.65	16447
835.788	16493
835.926	16337
836.064	16329
836.202	16382
836.34	16516
836.478	16592
836.615	16493
836.753	16508
836.891	16691
837.029	16577
837.167	16489
837.305	16451
837.443	16356
837.58	16291
837.718	16489
837.856	16443
837.993	16447
838.131	16398
838.269	16291
838.406	16234
838.544	16215
838.681	16093
838.819	16120
838.956	15865
839.094	15945
839.231	15975
839.369	16021
839.506	16314
839.643	16211
839.781	15972
839.918	15838
840.055	15850
840.193	15922
840.33	15861
840.467	15892
840.604	15937
840.742	16185
840.879	15907
841.016	15785
841.153	15804
841.29	16063
841.427	15888
841.564	16002
841.701	15972
841.838	15873
841.975	15785
842.112	15895
842.249	15823
842.385	15667
842.522	15907
842.659	15724
842.796	15667
842.933	15743
843.069	15701
843.206	15637
843.343	15819
843.479	15724
843.616	15732
843.752	15462
843.889	15584
844.025	15652
844.162	15443
844.298	15667
844.435	15473
844.571	15431
844.708	15644
844.844	15724
844.98	15694
845.117	15644
845.253	15443
845.389	15317
845.525	15469
845.661	15439
845.798	15291
845.934	15340
846.07	15332
846.206	15294
846.342	15431
846.478	15272
846.614	15157
846.75	14979
846.886	14994
847.022	15135
847.158	15074
847.294	15165
847.429	15058
847.565	15066
847.701	15272
847.837	14800
847.972	14777
848.108	14925
848.244	14895
848.379	14716
848.515	14724
848.65	14644
848.786	14678
848.921	14651
849.057	14754
849.192	14788
849.328	14701
849.463	14636
849.598	14651
849.734	14537
849.869	14598
850.004	14469
850.14	14473
850.275	14412
850.41	14328
850.545	14389
850.68	14427
850.815	14461
850.95	14438
851.085	14651
851.22	14568
851.355	14454
851.49	14492
851.625	14492
851.76	14404
851.895	14294
852.03	14294
852.165	14374
852.299	14461
852.434	14552
852.569	14526
852.703	14533
852.838	14579
852.973	14579
853.107	14590
853.242	14438
853.376	14282
853.511	14324
853.645	14324
853.78	14484
853.914	14442
854.048	14385
854.183	14336
854.317	14374
854.451	14533
854.585	14358
854.72	14324
854.854	14442
854.988	14336
855.122	14290
855.256	14142
855.39	14313
855.524	14454
855.658	14393
855.792	14381
855.926	14366
856.06	14412
856.194	14438
856.327	14362
856.461	14282
856.595	14309
856.729	14282
856.862	14526
856.996	14503
857.13	14473
857.263	14415
857.397	14461
857.53	14328
857.664	14377
857.797	14415
857.931	14533
858.064	14400
858.197	14465
858.331	14320
858.464	14370
858.597	14317
858.731	14252
858.864	14355
858.997	14267
859.13	14347
859.263	14457
859.396	14469
859.529	14301
859.662	14267
859.795	14180
859.928	14362
860.061	14526
860.194	14579
860.327	14370
860.46	14324
860.592	14419
860.725	14427
860.858	14488
860.99	14381
861.123	14317
861.256	14286
861.388	14351
861.521	14979
861.653	14183
861.786	14263
861.918	14191
862.05	14305
862.183	14290
862.315	14332
862.447	14343
862.58	14221
862.712	14149
862.844	14088
862.976	14176
863.108	14248
863.24	14454
863.372	14107
863.504	14191
863.636	14123
863.768	14100
863.9	14161
864.032	14092
864.164	14058
864.296	14103
864.428	14229
864.559	14248
864.691	14244
864.823	14142
864.954	14229
865.086	14103
865.217	14100
865.349	14092
865.48	14126
865.612	14062
865.743	14256
865.875	14073
866.006	14027
866.137	14138
866.269	14225
866.4	14126
866.531	14115
866.662	14058
866.793	13959
866.924	14123
867.055	14138
867.186	14081
867.317	14050
867.448	14020
867.579	14084
867.71	14138
867.841	14020
867.972	14164
868.103	14145
868.233	14183
868.364	14096
868.495	14191
868.625	14301
868.756	14374
868.886	14282
869.017	14332
869.147	14438
869.278	14412
869.408	14339
869.539	14358
869.669	14362
869.799	14412
869.929	14526
870.06	14522
870.19	14796
870.32	14632
870.45	14693
870.58	14773
870.71	14792
870.84	14921
870.97	14724
871.1	14682
871.23	14921
871.36	14937
871.489	14834
871.619	14868
871.749	14895
871.879	14967
872.008	14998
872.138	14937
872.267	14929
872.397	14750
872.526	14765
872.656	14788
872.785	14788
872.915	14937
873.044	15142
873.173	14960
873.303	15066
873.432	15104
873.561	15180
873.69	15043
873.819	15058
873.948	15028
874.077	14963
874.206	15020
874.335	15051
874.464	15203
874.593	15279
874.722	15275
874.851	15302
874.979	15306
875.108	15428
875.237	15241
875.365	15184
875.494	15237
875.623	15329
875.751	15389
875.88	15310
876.008	15488
876.136	15507
876.265	15694
876.393	15808
876.521	15774
876.65	15842
876.778	15743
876.906	15709
877.034	15694
877.162	15675
877.29	15614
877.418	15755
877.546	15800
877.674	15759
877.802	15838
877.93	15762
878.058	15759
878.185	15576
878.313	15682
878.441	15720
878.568	15614
878.696	15751
878.824	15785
878.951	15854
879.079	15873
879.206	15983
879.333	15793
879.461	15827
879.588	15797
879.715	15972
879.842	16055
879.97	15770
880.097	15603
880.224	15462
880.351	15599
880.478	15675
880.605	15534
880.732	15618
880.859	15778
880.986	15545
881.112	15614
881.239	15496
881.366	15374
881.493	15272
881.619	15310
881.746	15306
881.872	15268
881.999	15241
882.125	15207
882.252	15291
882.378	15260
882.505	15389
882.631	15135
882.757	15005
882.883	15100
883.01	15097
883.136	14975
883.262	14933
883.388	14842
883.514	15135
883.64	15108
883.766	14963
883.892	14906
884.018	14849
884.143	15028
884.269	15165
884.395	14765
884.52	14750
884.646	14861
884.772	14644
884.897	14689
885.023	14895
885.148	14941
885.274	14906
885.399	14883
885.524	14788
885.65	14727
885.775	14815
885.9	14811
886.025	14906
886.15	14876
886.275	14731
886.4	14708
886.525	14686
886.65	14689
886.775	14769
886.9	14876
887.025	14914
887.149	14655
887.274	14530
887.399	14522
887.523	14556
887.648	14522
887.773	14522
887.897	14651
888.021	14606
888.146	14606
888.27	14758
888.395	14731
888.519	14693
888.643	14655
888.767	14659
888.891	14583
889.015	14446
889.139	14507
889.263	14434
889.387	14564
889.511	14636
889.635	14568
889.759	14427
889.883	14404
890.006	14549
890.13	14571
890.254	14362
890.377	14362
890.501	14244
890.624	14237
890.748	14271
890.871	14199
890.995	14107
891.118	14039
891.241	14096
891.364	14191
891.488	14199
891.611	14210
891.734	14176
891.857	14233
891.98	14157
892.103	14134
892.226	14252
892.349	14043
892.471	13959
892.594	14145
892.717	14126
892.839	14187
892.962	14176
893.085	14214
893.207	14149
893.33	14024
893.452	14096
893.575	14286
893.697	14111
893.819	14290
893.941	14336
894.064	14259
894.186	14073
894.308	14107
894.43	14282
894.552	14343
894.674	14237
894.796	14119
894.918	14107
895.04	14202
895.161	14271
895.283	14294
895.405	14218
895.526	14218
895.648	14244
895.769	14427
895.891	14320
896.012	14347
896.134	14328
896.255	14377
896.376	14298
896.498	14267
896.619	14385
896.74	14400
896.861	14339
896.982	14575
897.103	14857
897.224	14583
897.345	14549
897.466	14537
897.587	14625
897.708	14670
897.828	14674
897.949	14469
898.07	14507
898.19	14556
898.311	14724
898.431	14594
898.552	14655
898.672	14750
898.792	14788
898.913	14689
899.033	14564
899.153	14419
899.273	14484
899.393	14533
899.513	14518
899.633	14579
899.753	14526
899.873	14457
899.993	14450
900.113	14469
900.232	14434
900.352	14499
900.472	14473
900.591	14351
900.711	14412
900.83	14400
900.95	14454
901.069	14438
901.189	14347
901.308	14092
901.427	14039
901.546	14058
901.665	14069
901.784	14008
901.904	13974
902.023	13883
902.141	13746
902.26	13700
902.379	13738
902.498	13677
902.617	13540
902.735	13647
902.854	13620
902.973	13586
903.091	13331
903.21	13282
903.328	13362
903.446	13266
903.565	13209
903.683	13171
903.801	12989
903.919	13156
904.038	13171
904.156	13015
904.274	13118
904.392	12897
904.51	13053
904.627	13019
904.745	13057
904.863	13042
904.981	12791
905.098	12688
905.216	12734
905.334	12715
905.451	12722
905.569	12684
905.686	12764
905.803	12711
905.921	12631
906.038	12665
906.155	12555
906.272	12479
906.389	12422
906.506	12266
906.623	12342
906.74	12346
906.857	12155
906.974	12182
907.091	12247
907.208	12433
907.324	12285
907.441	12266
907.557	12102
907.674	12003
907.79	12007
907.907	12060
908.023	12034
908.139	12091
908.256	11999
908.372	11939
908.488	11973
908.604	11870
908.72	11767
908.836	11824
908.952	11737
909.068	11870
909.184	11889
909.3	11752
909.415	11813
909.531	11764
909.647	11600
909.762	11577
909.878	11668
909.993	11592
910.108	11543
910.224	11543
910.339	11562
910.454	11467
910.57	11467
910.685	11379
910.8	11665
910.915	11608
911.03	11493
911.145	11330
911.259	11315
911.374	11235
911.489	11086
911.604	11159
911.718	10965
911.833	11018
911.947	10934
912.062	10873
912.176	10946
912.291	10999
912.405	10984
912.519	11147
912.633	11201
912.748	11151
912.862	11045
912.976	10877
913.09	10824
913.204	10839
913.318	10968
913.431	10965
913.545	10980
913.659	11079
913.772	10881
913.886	10820
914	10816
914.113	10885
914.226	10869
914.34	10915
914.453	10706
914.566	10858
914.68	10733
914.793	10710
914.906	10523
915.019	10455
915.132	10485
915.245	10535
915.358	10592
915.47	10592
915.583	10603
915.696	10611
915.809	10637
915.921	10596
916.034	10512
916.146	10523
916.259	10432
916.371	10637
916.483	10577
916.595	10470
916.708	10405
916.82	10493
916.932	10443
917.044	10394
917.156	10432
917.268	10329
917.38	10447
917.491	10295
917.603	10398
917.715	10459
917.826	10428
917.938	10322
918.049	10192
918.161	10447
918.272	10550
918.384	10493
918.495	10379
918.606	10318
918.717	10177
918.828	10177
918.939	10246
919.05	10169
919.161	10242
919.272	9998
919.383	10093
919.494	10242
919.604	10497
919.715	10322
919.826	10207
919.936	10253
920.047	10352
920.157	10276
920.267	10413
920.378	10299
920.488	10230
920.598	10462
920.708	10645
920.818	10531
920.928	10398
921.038	10649
921.148	10607
921.258	10333
921.368	10249
921.477	10166
921.587	10124
921.697	10002
921.806	10143
921.916	10055
922.025	9888
922.134	9835
922.244	9785
922.353	9903
922.462	9740
922.571	9644
922.68	9534
922.789	9564
922.898	9526
923.007	9462
923.116	9526
923.224	9530
923.333	9466
923.442	9443
923.55	9393
923.659	9443
923.767	9466
923.876	9397
923.984	9447
924.092	9374
924.201	9382
924.309	9370
924.417	9428
924.525	9287
924.633	9355
924.741	10284
924.849	9173
924.956	9340
925.064	9150
925.172	9081
925.279	9112
925.387	9241
925.494	9135
925.602	9275
925.709	9249
925.816	9112
925.924	9176
926.031	9313
926.138	9222
926.245	9222
926.352	9074
926.459	9195
926.566	9291
926.673	9150
926.779	9043
926.886	9127
926.993	8929
927.099	8826
927.206	8868
927.312	8800
927.419	8963
927.525	8895
927.631	8880
927.737	8842
927.843	8796
927.95	8678
928.056	8739
928.162	8811
928.267	8842
928.373	9507
928.479	8975
928.585	8667
928.69	8785
928.796	8762
928.901	8735
929.007	8640
929.112	8724
929.218	8720
929.323	8610
929.428	8579
929.533	8712
929.638	8590
929.743	8571
929.848	8629
929.953	8564
930.058	8503
930.163	8347
930.267	8431
930.372	8514
930.477	8301
930.581	8636
930.685	8492
930.79	8294
930.894	8305
930.998	8347
931.103	8393
931.207	8119
931.311	8100
931.415	8016
931.519	7849
931.623	7830
