Data from test_V78500241_1456.txt Node
Date: Fri Mar 25 14:43:51 CST 2022
User: usil
Spectrometer: V785-0024
Trigger mode: 0
Integration Time (sec): 4.000000E-1
Scans to average: 1
Nonlinearity correction enabled: false
Boxcar width: 0
Storing dark spectrum: false
XAxis mode: Wavelengths
Number of Pixels in Spectrum: 1024
>>>>>Begin Spectral Data<<<<<
801.071	22379
801.214	22219
801.356	22105
801.499	21926
801.641	21759
801.783	21751
801.926	21903
802.068	21682
802.211	21713
802.353	21637
802.496	21416
802.638	21310
802.78	21135
802.923	21169
803.065	21096
803.208	21180
803.35	21165
803.492	21203
803.635	21298
803.777	21100
803.919	21146
804.061	21424
804.204	21192
804.346	21085
804.488	20929
804.63	21043
804.773	21017
804.915	21074
805.057	21123
805.199	20994
805.341	21089
805.483	21116
805.626	21096
805.768	20918
805.91	21055
806.052	21066
806.194	20986
806.336	21131
806.478	20952
806.62	21062
806.762	21001
806.904	21298
807.046	21416
807.188	21428
807.33	21405
807.472	21644
807.614	21359
807.756	21382
807.898	21226
808.04	21264
808.182	21321
808.324	21291
808.465	21306
808.607	21458
808.749	21698
808.891	21728
809.033	21812
809.174	21709
809.316	21644
809.458	21618
809.6	21545
809.741	21599
809.883	21625
810.025	21736
810.166	21679
810.308	21663
810.45	21591
810.591	21557
810.733	21329
810.875	21329
811.016	21165
811.158	21252
811.299	21469
811.441	21321
811.582	21416
811.724	21287
811.865	21226
812.007	21264
812.148	21306
812.29	21226
812.431	21397
812.573	21488
812.714	21606
812.855	21816
812.997	21884
813.138	21941
813.279	21842
813.421	21538
813.562	21633
813.703	21637
813.845	21393
813.986	21169
814.127	20990
814.268	20883
814.41	20853
814.551	20815
814.692	20941
814.833	20602
814.974	20876
815.115	20834
815.256	20549
815.397	20701
815.539	20644
815.68	20575
815.821	20488
815.962	20427
816.103	20571
816.244	20324
816.385	20294
816.526	20161
816.666	20100
816.807	19909
816.948	20050
817.089	20149
817.23	20016
817.371	19993
817.512	19883
817.653	19925
817.793	19936
817.934	19917
818.075	19913
818.216	20001
818.356	19875
818.497	19811
818.638	19677
818.778	19529
818.919	19624
819.06	19677
819.2	19799
819.341	19936
819.481	19818
819.622	19906
819.762	20248
819.903	20062
820.043	20012
820.184	19978
820.324	19909
820.465	20077
820.605	19963
820.746	19849
820.886	19715
821.026	19890
821.167	19845
821.307	19864
821.447	19795
821.588	19753
821.728	19708
821.868	19422
822.008	19289
822.149	19289
822.289	19331
822.429	19065
822.569	18935
822.709	19023
822.849	18840
822.99	18863
823.13	18783
823.27	18795
823.41	18722
823.55	18498
823.69	18612
823.83	18597
823.97	18616
824.11	18410
824.25	18319
824.389	18365
824.529	18471
824.669	18365
824.809	18490
824.949	18498
825.089	18426
825.228	18346
825.368	18209
825.508	18133
825.648	18197
825.787	18178
825.927	18266
826.067	18152
826.206	18155
826.346	18232
826.485	18163
826.625	18057
826.765	18304
826.904	18171
827.044	17965
827.183	17977
827.323	17855
827.462	17916
827.601	17847
827.741	17764
827.88	17824
828.02	17729
828.159	17828
828.298	17885
828.437	17847
828.577	17870
828.716	17908
828.855	17840
828.994	17661
829.134	17539
829.273	17646
829.412	17562
829.551	17558
829.69	17592
829.829	17543
829.968	17741
830.107	17748
830.246	17592
830.385	17532
830.524	17509
830.663	17433
830.802	17379
830.941	17166
831.08	17220
831.219	17341
831.357	17277
831.496	17448
831.635	17189
831.774	17136
831.913	17181
832.051	17052
832.19	16968
832.329	17067
832.467	16866
832.606	16790
832.744	16850
832.883	16984
833.022	16828
833.16	16858
833.299	16953
833.437	16972
833.576	17048
833.714	16938
833.852	16976
833.991	17010
834.129	16976
834.267	17010
834.406	16919
834.544	16984
834.682	16976
834.821	16953
834.959	17045
835.097	16911
835.235	17041
835.373	16908
835.511	16850
835.65	16843
835.788	16980
835.926	16611
836.064	16538
836.202	16656
836.34	16957
836.478	16965
836.615	16877
836.753	16908
836.891	16908
837.029	16889
837.167	16812
837.305	16744
837.443	16668
837.58	16729
837.718	16752
837.856	16744
837.993	16664
838.131	16653
838.269	16649
838.406	16744
838.544	16637
838.681	16386
838.819	16432
838.956	16257
839.094	16322
839.231	16261
839.369	16360
839.506	16656
839.643	16512
839.781	16268
839.918	16291
840.055	16238
840.193	16280
840.33	16150
840.467	16230
840.604	16204
840.742	16554
840.879	16185
841.016	16185
841.153	16257
841.29	16268
841.427	16299
841.564	16424
841.701	16325
841.838	16071
841.975	16223
842.112	16120
842.249	16124
842.385	15991
842.522	16261
842.659	16010
842.796	16044
842.933	16090
843.069	15941
843.206	16044
843.343	16067
843.479	16013
843.616	16002
843.752	15854
843.889	15739
844.025	15983
844.162	15793
844.298	15888
844.435	15899
844.571	15770
844.708	15835
844.844	16067
844.98	16032
845.117	15876
845.253	15884
845.389	15751
845.525	15812
845.661	15857
845.798	15778
845.934	15945
846.07	15861
846.206	15884
846.342	16017
846.478	15850
846.614	15663
846.75	15397
846.886	15439
847.022	15557
847.158	15435
847.294	15473
847.429	15370
847.565	15473
847.701	15591
847.837	15089
847.972	15039
848.108	15077
848.244	15245
848.379	15013
848.515	14967
848.65	15055
848.786	14952
848.921	14956
849.057	15154
849.192	15077
849.328	14910
849.463	14998
849.598	14861
849.734	14902
849.869	14804
850.004	14762
850.14	14819
850.275	14697
850.41	14598
850.545	14674
850.68	14678
850.815	14712
850.95	14769
851.085	14830
851.22	14823
851.355	14826
851.49	14731
851.625	14735
851.76	14762
851.895	14735
852.03	14610
852.165	14731
852.299	14842
852.434	14902
852.569	14834
852.703	14845
852.838	14830
852.973	14838
853.107	14811
853.242	14640
853.376	14644
853.511	14526
853.645	14465
853.78	14659
853.914	14598
854.048	14568
854.183	14575
854.317	14621
854.451	14750
854.585	14625
854.72	14663
854.854	14724
854.988	14518
855.122	14568
855.256	14351
855.39	14533
855.524	14659
855.658	14583
855.792	14686
855.926	14735
856.06	14640
856.194	14815
856.327	14663
856.461	14514
856.595	14518
856.729	14522
856.862	14663
856.996	14708
857.13	14750
857.263	14785
857.397	14769
857.53	14655
857.664	14727
857.797	14720
857.931	14701
858.064	14670
858.197	14758
858.331	14682
858.464	14617
858.597	14507
858.731	14670
858.864	14587
858.997	14724
859.13	14682
859.263	14731
859.396	14708
859.529	14545
859.662	14602
859.795	14617
859.928	14708
860.061	14777
860.194	14853
860.327	14648
860.46	14617
860.592	14697
860.725	14705
860.858	14807
860.99	14598
861.123	14507
861.256	14663
861.388	14731
861.521	15272
861.653	14514
861.786	14412
861.918	14545
862.05	14549
862.183	14568
862.315	14648
862.447	14682
862.58	14644
862.712	14393
862.844	14374
862.976	14522
863.108	14533
863.24	14895
863.372	14286
863.504	14518
863.636	14495
863.768	14450
863.9	14434
864.032	14332
864.164	14347
864.296	14438
864.428	14522
864.559	14549
864.691	14431
864.823	14332
864.954	14366
865.086	14442
865.217	14412
865.349	14328
865.48	14347
865.612	14355
865.743	14503
865.875	14434
866.006	14347
866.137	14362
866.269	14351
866.4	14385
866.531	14446
866.662	14336
866.793	14309
866.924	14358
867.055	14381
867.186	14351
867.317	14351
867.448	14252
867.579	14358
867.71	14271
867.841	14385
867.972	14324
868.103	14457
868.233	14434
868.364	14396
868.495	14499
868.625	14648
868.756	14636
868.886	14473
869.017	14625
869.147	14731
869.278	14727
869.408	14705
869.539	14568
869.669	14686
869.799	14727
869.929	14750
870.06	14663
870.19	14941
870.32	14960
870.45	14941
870.58	15043
870.71	15131
870.84	15112
870.97	15074
871.1	15032
871.23	15226
871.36	15237
871.489	15055
871.619	15207
871.749	15195
871.879	15233
872.008	15351
872.138	15207
872.267	15165
872.397	15146
872.526	15112
872.656	15028
872.785	15119
872.915	15226
873.044	15310
873.173	15173
873.303	15203
873.432	15443
873.561	15302
873.69	15344
873.819	15249
873.948	15393
874.077	15355
874.206	15203
874.335	15241
874.464	15332
874.593	15542
874.722	15473
874.851	15576
874.979	15606
875.108	15606
875.237	15652
875.365	15420
875.494	15519
875.623	15580
875.751	15507
875.88	15553
876.008	15686
876.136	15835
876.265	15953
876.393	16093
876.521	16029
876.65	16078
876.778	15892
876.906	15983
877.034	15983
877.162	15922
877.29	15972
877.418	16006
877.546	15899
877.674	16059
877.802	15956
877.93	15960
878.058	15941
878.185	15911
878.313	16097
878.441	16032
878.568	15876
878.696	16021
878.824	15994
878.951	16150
879.079	16268
879.206	16390
879.333	16318
879.461	16173
879.588	16162
879.715	16337
879.842	16424
879.97	16120
880.097	15895
880.224	16063
880.351	15884
880.478	15892
880.605	15781
880.732	15873
880.859	16173
880.986	15930
881.112	15895
881.239	15736
881.366	15686
881.493	15637
881.619	15458
881.746	15572
881.872	15576
881.999	15519
882.125	15435
882.252	15561
882.378	15530
882.505	15690
882.631	15481
882.757	15344
882.883	15443
883.01	15363
883.136	15355
883.262	15097
883.388	15127
883.514	15447
883.64	15370
883.766	15389
883.892	15207
884.018	15093
884.143	15310
884.269	15397
884.395	15161
884.52	14979
884.646	15074
884.772	15036
884.897	15047
885.023	15085
885.148	15131
885.274	15268
885.399	15157
885.524	14990
885.65	15066
885.775	15062
885.9	15036
886.025	15184
886.15	15062
886.275	15176
886.4	15047
886.525	14979
886.65	14880
886.775	14971
886.9	15188
887.025	15268
887.149	14990
887.274	14819
887.399	14781
887.523	14830
887.648	14743
887.773	14739
887.897	14864
888.021	14902
888.146	14811
888.27	14960
888.395	14975
888.519	14960
888.643	14845
888.767	14963
888.891	14834
889.015	14712
889.139	14746
889.263	14594
889.387	14769
889.511	14986
889.635	14785
889.759	14735
889.883	14678
890.006	14705
890.13	14887
890.254	14689
890.377	14602
890.501	14522
890.624	14450
890.748	14518
890.871	14492
890.995	14317
891.118	14324
891.241	14298
891.364	14374
891.488	14385
891.611	14377
891.734	14461
891.857	14476
891.98	14492
892.103	14552
892.226	14408
892.349	14389
892.471	14191
892.594	14465
892.717	14530
892.839	14358
892.962	14450
893.085	14442
893.207	14469
893.33	14305
893.452	14362
893.575	14549
893.697	14336
893.819	14537
893.941	14621
894.064	14423
894.186	14347
894.308	14332
894.43	14526
894.552	14518
894.674	14480
894.796	14442
894.918	14446
895.04	14362
895.161	14511
895.283	14526
895.405	14336
895.526	14457
895.648	14526
895.769	14564
895.891	14621
896.012	14613
896.134	14556
896.255	14617
896.376	14511
896.498	14530
896.619	14667
896.74	14583
896.861	14674
896.982	14921
897.103	15119
897.224	14864
897.345	14849
897.466	14693
897.587	14823
897.708	14937
897.828	14876
897.949	14781
898.07	14735
898.19	14651
898.311	14914
898.431	14777
898.552	14887
898.672	14982
898.792	15032
898.913	15032
899.033	14785
899.153	14712
899.273	14644
899.393	14796
899.513	14743
899.633	14769
899.753	14785
899.873	14682
899.993	14804
900.113	14693
900.232	14735
900.352	14750
900.472	14613
900.591	14602
900.711	14655
900.83	14560
900.95	14731
901.069	14708
901.189	14560
901.308	14374
901.427	14332
901.546	14267
901.665	14263
901.784	14305
901.904	14172
902.023	14054
902.141	13902
902.26	13776
902.379	13925
902.498	13860
902.617	13761
902.735	13750
902.854	13894
902.973	13803
903.091	13567
903.21	13559
903.328	13605
903.446	13464
903.565	13460
903.683	13438
903.801	13358
903.919	13377
904.038	13392
904.156	13209
904.274	13278
904.392	13228
904.51	13236
904.627	13232
904.745	13206
904.863	13270
904.981	12966
905.098	12973
905.216	12894
905.334	12962
905.451	12867
905.569	12837
905.686	12871
905.803	12973
905.921	12837
906.038	12806
906.155	12814
906.272	12711
906.389	12559
906.506	12467
906.623	12509
906.74	12414
906.857	12270
906.974	12456
907.091	12506
907.208	12566
907.324	12460
907.441	12403
907.557	12350
907.674	12163
907.79	12136
907.907	12205
908.023	12182
908.139	12224
908.256	12220
908.372	12148
908.488	12148
908.604	12015
908.72	11992
908.836	11912
908.952	11961
909.068	11961
909.184	12129
909.3	12038
909.415	11950
909.531	11965
909.647	11779
909.762	11802
909.878	11764
909.993	11783
910.108	11722
910.224	11710
910.339	11741
910.454	11630
910.57	11554
910.685	11539
910.8	11790
910.915	11733
911.03	11688
911.145	11482
911.259	11467
911.374	11417
911.489	11452
911.604	11349
911.718	11284
911.833	11269
911.947	11117
912.062	11071
912.176	11162
912.291	11220
912.405	11159
912.519	11311
912.633	11493
912.748	11235
912.862	11284
912.976	11117
913.09	11025
913.204	11079
913.318	11117
913.431	11174
913.545	11178
913.659	11280
913.772	11166
913.886	10934
914	10911
914.113	11071
914.226	11056
914.34	11045
914.453	10824
914.566	10972
914.68	10896
914.793	10847
914.906	10656
915.019	10710
915.132	10584
915.245	10664
915.358	10698
915.47	10729
915.583	10672
915.696	10656
915.809	10801
915.921	10820
916.034	10698
916.146	10717
916.259	10542
916.371	10752
916.483	10790
916.595	10588
916.708	10641
916.82	10588
916.932	10607
917.044	10683
917.156	10569
917.268	10466
917.38	10596
917.491	10535
917.603	10577
917.715	10599
917.826	10645
917.938	10516
918.049	10398
918.161	10504
918.272	10615
918.384	10698
918.495	10531
918.606	10413
918.717	10341
918.828	10417
918.939	10432
919.05	10299
919.161	10344
919.272	10169
919.383	10219
919.494	10519
919.604	10550
919.715	10443
919.826	10344
919.936	10413
920.047	10466
920.157	10421
920.267	10599
920.378	10436
920.488	10375
920.598	10641
920.708	10793
920.818	10558
920.928	10584
921.038	10755
921.148	10729
921.258	10527
921.368	10390
921.477	10291
921.587	10219
921.697	10120
921.806	10303
921.916	10207
922.025	9972
922.134	9956
922.244	9987
922.353	10017
922.462	9835
922.571	9865
922.68	9709
922.789	9564
922.898	9667
923.007	9625
923.116	9740
923.224	9641
923.333	9584
923.442	9587
923.55	9515
923.659	9523
923.767	9606
923.876	9454
923.984	9599
924.092	9504
924.201	9500
924.309	9553
924.417	9523
924.525	9515
924.633	9507
924.741	10398
924.849	9382
924.956	9424
925.064	9287
925.172	9199
925.279	9264
925.387	9283
925.494	9348
925.602	9458
925.709	9458
925.816	9264
925.924	9317
926.031	9443
926.138	9287
926.245	9359
926.352	9192
926.459	9332
926.566	9355
926.673	9249
926.779	9116
926.886	9127
926.993	9116
927.099	9028
927.206	8956
927.312	8937
927.419	9074
927.525	8941
927.631	9005
927.737	8975
927.843	8933
927.95	8777
928.056	8864
928.162	8921
928.267	8975
928.373	9557
928.479	8967
928.585	8746
928.69	8941
928.796	8982
928.901	8735
929.007	8701
929.112	8887
929.218	8792
929.323	8693
929.428	8720
929.533	8834
929.638	8625
929.743	8693
929.848	8758
929.953	8777
930.058	8587
930.163	8465
930.267	8434
930.372	8568
930.477	8419
930.581	8712
930.685	8625
930.79	8381
930.894	8511
930.998	8385
931.103	8571
931.207	8149
931.311	8142
931.415	8088
931.519	7928
931.623	7925
