Data from test_V78500241_2555.txt Node
Date: Fri Mar 25 14:51:30 CST 2022
User: usil
Spectrometer: V785-0024
Trigger mode: 0
Integration Time (sec): 4.000000E-1
Scans to average: 1
Nonlinearity correction enabled: false
Boxcar width: 0
Storing dark spectrum: false
XAxis mode: Wavelengths
Number of Pixels in Spectrum: 1024
>>>>>Begin Spectral Data<<<<<
801.071	22040
801.214	22025
801.356	21713
801.499	21504
801.641	21355
801.783	21458
801.926	21389
802.068	21237
802.211	21310
802.353	21249
802.496	20948
802.638	20834
802.78	20788
802.923	20880
803.065	20743
803.208	20678
803.35	20640
803.492	20910
803.635	20819
803.777	20724
803.919	20769
804.061	21081
804.204	20731
804.346	20659
804.488	20705
804.63	20743
804.773	20632
804.915	20667
805.057	20769
805.199	20579
805.341	20629
805.483	20693
805.626	20746
805.768	20609
805.91	20541
806.052	20648
806.194	20526
806.336	20762
806.478	20682
806.62	20552
806.762	20693
806.904	20849
807.046	21043
807.188	21024
807.33	21074
807.472	20891
807.614	20842
807.756	20998
807.898	20659
808.04	20743
808.182	20686
808.324	20811
808.465	20701
808.607	20864
808.749	21100
808.891	21085
809.033	21214
809.174	21074
809.316	20925
809.458	21085
809.6	20937
809.741	20918
809.883	21070
810.025	21207
810.166	21237
810.308	21058
810.45	21074
810.591	20986
810.733	20872
810.875	20682
811.016	20670
811.158	20663
811.299	20762
811.441	20876
811.582	20864
811.724	20678
811.865	20754
812.007	20720
812.148	20788
812.29	20769
812.431	20929
812.573	21051
812.714	21222
812.855	21260
812.997	21428
813.138	21557
813.279	21378
813.421	21355
813.562	21123
813.703	20998
813.845	20956
813.986	20655
814.127	20450
814.268	20358
814.41	20431
814.551	20320
814.692	20290
814.833	20187
814.974	20210
815.115	20374
815.256	20164
815.397	20119
815.539	20126
815.68	20077
815.821	19860
815.962	20062
816.103	20054
816.244	19875
816.385	19845
816.526	19742
816.666	19674
816.807	19510
816.948	19567
817.089	19552
817.23	19483
817.371	19441
817.512	19422
817.653	19445
817.793	19358
817.934	19354
818.075	19354
818.216	19434
818.356	19350
818.497	19335
818.638	19107
818.778	19126
818.919	19110
819.06	19194
819.2	19270
819.341	19369
819.481	19445
819.622	19438
819.762	19674
819.903	19472
820.043	19525
820.184	19476
820.324	19324
820.465	19502
820.605	19388
820.746	19426
820.886	19320
821.026	19324
821.167	19415
821.307	19441
821.447	19350
821.588	19213
821.728	19042
821.868	19000
822.008	18958
822.149	18875
822.289	18772
822.429	18517
822.569	18521
822.709	18532
822.849	18369
822.99	18277
823.13	18289
823.27	18300
823.41	18136
823.55	18163
823.69	18144
823.83	18041
823.97	18095
824.11	17923
824.25	17939
824.389	17901
824.529	17992
824.669	17813
824.809	17961
824.949	17904
825.089	17954
825.228	17916
825.368	17707
825.508	17665
825.648	17642
825.787	17718
825.927	17786
826.067	17630
826.206	17783
826.346	17756
826.485	17687
826.625	17699
826.765	17767
826.904	17786
827.044	17501
827.183	17448
827.323	17337
827.462	17391
827.601	17349
827.741	17334
827.88	17440
828.02	17311
828.159	17337
828.298	17356
828.437	17478
828.577	17311
828.716	17551
828.855	17307
828.994	17185
829.134	17250
829.273	17147
829.412	17117
829.551	17071
829.69	17140
829.829	17170
829.968	17265
830.107	17181
830.246	17090
830.385	17052
830.524	17098
830.663	16946
830.802	16809
830.941	16809
831.08	16698
831.219	16850
831.357	16885
831.496	16949
831.635	16828
831.774	16649
831.913	16588
832.051	16596
832.19	16493
832.329	16470
832.467	16500
832.606	16268
832.744	16459
832.883	16485
833.022	16348
833.16	16413
833.299	16421
833.437	16405
833.576	16519
833.714	16432
833.852	16565
833.991	16493
834.129	16580
834.267	16527
834.406	16485
834.544	16512
834.682	16603
834.821	16466
834.959	16535
835.097	16459
835.235	16599
835.373	16607
835.511	16550
835.65	16284
835.788	16367
835.926	16242
836.064	16246
836.202	16230
836.34	16428
836.478	16519
836.615	16421
836.753	16367
836.891	16527
837.029	16497
837.167	16405
837.305	16246
837.443	16230
837.58	16325
837.718	16341
837.856	16257
837.993	16147
838.131	16329
838.269	16215
838.406	16188
838.544	16154
838.681	16017
838.819	15975
838.956	15842
839.094	15770
839.231	15983
839.369	15907
839.506	16207
839.643	16124
839.781	15945
839.918	15850
840.055	15869
840.193	15797
840.33	15850
840.467	15827
840.604	15937
840.742	15964
840.879	15713
841.016	15720
841.153	15682
841.29	16032
841.427	15857
841.564	15808
841.701	15816
841.838	15873
841.975	15747
842.112	15789
842.249	15652
842.385	15660
842.522	15789
842.659	15698
842.796	15481
842.933	15675
843.069	15584
843.206	15606
843.343	15641
843.479	15576
843.616	15671
843.752	15420
843.889	15424
844.025	15530
844.162	15367
844.298	15549
844.435	15348
844.571	15405
844.708	15542
844.844	15587
844.98	15553
845.117	15477
845.253	15336
845.389	15233
845.525	15397
845.661	15344
845.798	15154
845.934	15211
846.07	15173
846.206	15298
846.342	15336
846.478	15180
846.614	15058
846.75	14994
846.886	14933
847.022	15005
847.158	14929
847.294	15024
847.429	15085
847.565	15036
847.701	15214
847.837	14689
847.972	14689
848.108	14842
848.244	14785
848.379	14613
848.515	14587
848.65	14575
848.786	14579
848.921	14606
849.057	14632
849.192	14621
849.328	14625
849.463	14701
849.598	14533
849.734	14511
849.869	14480
850.004	14412
850.14	14415
850.275	14374
850.41	14313
850.545	14351
850.68	14267
850.815	14374
850.95	14336
851.085	14522
851.22	14484
851.355	14419
851.49	14343
851.625	14237
851.76	14339
851.895	14157
852.03	14206
852.165	14374
852.299	14275
852.434	14347
852.569	14290
852.703	14431
852.838	14431
852.973	14530
853.107	14469
853.242	14320
853.376	14187
853.511	14187
853.645	14191
853.78	14244
853.914	14172
854.048	14164
854.183	14164
854.317	14248
854.451	14396
854.585	14202
854.72	14138
854.854	14271
854.988	14161
855.122	14199
855.256	14092
855.39	14263
855.524	14271
855.658	14278
855.792	14271
855.926	14191
856.06	14320
856.194	14404
856.327	14161
856.461	14187
856.595	14134
856.729	14202
856.862	14343
856.996	14282
857.13	14328
857.263	14328
857.397	14263
857.53	14259
857.664	14244
857.797	14263
857.931	14400
858.064	14259
858.197	14366
858.331	14275
858.464	14191
858.597	14206
858.731	14290
858.864	14168
858.997	14320
859.13	14218
859.263	14259
859.396	14374
859.529	14172
859.662	14138
859.795	14180
859.928	14320
860.061	14404
860.194	14404
860.327	14263
860.46	14199
860.592	14351
860.725	14347
860.858	14324
860.99	14309
861.123	14183
861.256	14134
861.388	14145
861.521	14937
861.653	14096
861.786	14031
861.918	13997
862.05	14153
862.183	14096
862.315	14157
862.447	14225
862.58	14161
862.712	13921
862.844	13959
862.976	13997
863.108	14077
863.24	14476
863.372	13932
863.504	13982
863.636	13940
863.768	13970
863.9	14039
864.032	13852
864.164	14008
864.296	14016
864.428	14005
864.559	14134
864.691	14130
864.823	14050
864.954	14027
865.086	14050
865.217	14008
865.349	14046
865.48	13989
865.612	13947
865.743	14103
865.875	14020
866.006	13982
866.137	13944
866.269	14115
866.4	14001
866.531	13936
866.662	13932
866.793	13947
866.924	13928
867.055	14024
867.186	14092
867.317	13940
867.448	13913
867.579	13932
867.71	13871
867.841	13913
867.972	13947
868.103	13959
868.233	13940
868.364	13993
868.495	14027
868.625	14210
868.756	14332
868.886	14218
869.017	14183
869.147	14358
869.278	14332
869.408	14271
869.539	14332
869.669	14362
869.799	14286
869.929	14393
870.06	14339
870.19	14552
870.32	14450
870.45	14602
870.58	14621
870.71	14765
870.84	14842
870.97	14754
871.1	14568
871.23	14796
871.36	14899
871.489	14705
871.619	14788
871.749	14861
871.879	14857
872.008	14960
872.138	14895
872.267	14830
872.397	14743
872.526	14674
872.656	14583
872.785	14682
872.915	14811
873.044	14918
873.173	14811
873.303	14960
873.432	14944
873.561	14990
873.69	14975
873.819	14895
873.948	14933
874.077	14921
874.206	14861
874.335	14906
874.464	15032
874.593	15218
874.722	15180
874.851	15268
874.979	15173
875.108	15264
875.237	15097
875.365	15150
875.494	15264
875.623	15199
875.751	15214
875.88	15268
876.008	15412
876.136	15374
876.265	15739
876.393	15770
876.521	15717
876.65	15751
876.778	15698
876.906	15667
877.034	15576
877.162	15644
877.29	15644
877.418	15690
877.546	15660
877.674	15641
877.802	15599
877.93	15663
878.058	15614
878.185	15580
878.313	15705
878.441	15591
878.568	15564
878.696	15591
878.824	15720
878.951	15759
879.079	15838
879.206	15960
879.333	15743
879.461	15698
879.588	15648
879.715	15899
879.842	15975
879.97	15599
880.097	15389
880.224	15572
880.351	15523
880.478	15576
880.605	15420
880.732	15504
880.859	15732
880.986	15545
881.112	15439
881.239	15386
881.366	15241
881.493	15131
881.619	15157
881.746	15245
881.872	15192
881.999	15119
882.125	15123
882.252	15211
882.378	15211
882.505	15302
882.631	15146
882.757	15032
882.883	15013
883.01	15001
883.136	14975
883.262	14807
883.388	14807
883.514	14899
883.64	15055
883.766	14960
883.892	14712
884.018	14887
884.143	14975
884.269	15070
884.395	14785
884.52	14697
884.646	14720
884.772	14686
884.897	14689
885.023	14667
885.148	14823
885.274	14830
885.399	14773
885.524	14724
885.65	14670
885.775	14739
885.9	14739
886.025	14765
886.15	14804
886.275	14602
886.4	14632
886.525	14686
886.65	14606
886.775	14545
886.9	14910
887.025	14834
887.149	14712
887.274	14503
887.399	14533
887.523	14423
887.648	14465
887.773	14396
887.897	14636
888.021	14514
888.146	14450
888.27	14598
888.395	14644
888.519	14503
888.643	14602
888.767	14590
888.891	14305
889.015	14301
889.139	14393
889.263	14294
889.387	14457
889.511	14674
889.635	14438
889.759	14465
889.883	14427
890.006	14518
890.13	14541
890.254	14336
890.377	14267
890.501	14263
890.624	14218
890.748	14229
890.871	14176
890.995	14005
891.118	13925
891.241	14027
891.364	14088
891.488	14138
891.611	14073
891.734	14046
891.857	14164
891.98	14069
892.103	14191
892.226	14157
892.349	14073
892.471	13890
892.594	14065
892.717	14119
892.839	13997
892.962	14058
893.085	14115
893.207	14077
893.33	14012
893.452	14020
893.575	14168
893.697	14069
893.819	14180
893.941	14221
894.064	14126
894.186	14073
894.308	14088
894.43	14142
894.552	14320
894.674	14259
894.796	14103
894.918	14142
895.04	14168
895.161	14256
895.283	14119
895.405	14069
895.526	14218
895.648	14153
895.769	14218
895.891	14328
896.012	14237
896.134	14317
896.255	14374
896.376	14183
896.498	14161
896.619	14324
896.74	14286
896.861	14149
896.982	14621
897.103	14686
897.224	14583
897.345	14514
897.466	14579
897.587	14549
897.708	14682
897.828	14571
897.949	14488
898.07	14518
898.19	14427
898.311	14659
898.431	14556
898.552	14648
898.672	14651
898.792	14644
898.913	14610
899.033	14564
899.153	14476
899.273	14393
899.393	14393
899.513	14450
899.633	14457
899.753	14503
899.873	14457
899.993	14530
900.113	14465
900.232	14446
900.352	14522
900.472	14408
900.591	14290
900.711	14362
900.83	14313
900.95	14461
901.069	14473
901.189	14221
901.308	14054
901.427	14012
901.546	13997
901.665	14005
901.784	13997
901.904	13967
902.023	13852
902.141	13582
902.26	13533
902.379	13685
902.498	13472
902.617	13480
902.735	13586
902.854	13571
902.973	13480
903.091	13297
903.21	13362
903.328	13331
903.446	13198
903.565	13183
903.683	13206
903.801	13042
903.919	13103
904.038	13122
904.156	12962
904.274	13053
904.392	13042
904.51	12970
904.627	12970
904.745	13114
904.863	12981
904.981	12711
905.098	12650
905.216	12604
905.334	12665
905.451	12627
905.569	12658
905.686	12673
905.803	12536
905.921	12490
906.038	12566
906.155	12426
906.272	12361
906.389	12308
906.506	12273
906.623	12308
906.74	12243
906.857	12144
906.974	12152
907.091	12281
907.208	12300
907.324	12224
907.441	12178
907.557	12007
907.674	11965
907.79	11935
907.907	11950
908.023	12053
908.139	11984
908.256	11832
908.372	11893
908.488	11958
908.604	11874
908.72	11688
908.836	11790
908.952	11756
909.068	11802
909.184	11893
909.3	11794
909.415	11836
909.531	11726
909.647	11558
909.762	11577
909.878	11467
909.993	11467
910.108	11596
910.224	11520
910.339	11570
910.454	11372
910.57	11345
910.685	11379
910.8	11592
910.915	11570
911.03	11410
911.145	11212
911.259	11143
911.374	11273
911.489	11239
911.604	11098
911.718	11048
911.833	10999
911.947	10885
912.062	10797
912.176	10923
912.291	10957
912.405	10946
912.519	11166
912.633	11235
912.748	11136
912.862	10885
912.976	10831
913.09	10790
913.204	10744
913.318	10869
913.431	10877
913.545	10892
913.659	11003
913.772	10824
913.886	10740
914	10778
914.113	10812
914.226	10900
914.34	10839
914.453	10649
914.566	10866
914.68	10679
914.793	10618
914.906	10470
915.019	10466
915.132	10440
915.245	10474
915.358	10417
915.47	10531
915.583	10550
915.696	10481
915.809	10626
915.921	10630
916.034	10417
916.146	10474
916.259	10481
916.371	10512
916.483	10489
916.595	10402
916.708	10382
916.82	10432
916.932	10371
917.044	10417
917.156	10424
917.268	10371
917.38	10318
917.491	10188
917.603	10333
917.715	10462
917.826	10402
917.938	10344
918.049	10173
918.161	10329
918.272	10447
918.384	10561
918.495	10367
918.606	10166
918.717	10200
918.828	10162
918.939	10223
919.05	10128
919.161	10173
919.272	9934
919.383	9960
919.494	10268
919.604	10409
919.715	10219
919.826	10017
919.936	10227
920.047	10318
920.157	10265
920.267	10360
920.378	10295
920.488	10211
920.598	10360
920.708	10596
920.818	10325
920.928	10405
921.038	10550
921.148	10459
921.258	10249
921.368	10120
921.477	10044
921.587	10006
921.697	9968
921.806	10120
921.916	9911
922.025	9816
922.134	9724
922.244	9740
922.353	9797
922.462	9671
922.571	9667
922.68	9416
922.789	9439
922.898	9412
923.007	9435
923.116	9515
923.224	9420
923.333	9454
923.442	9348
923.55	9317
923.659	9336
923.767	9382
923.876	9367
923.984	9412
924.092	9249
924.201	9367
924.309	9321
924.417	9325
924.525	9294
924.633	9340
924.741	10059
924.849	9058
924.956	9233
925.064	9157
925.172	9017
925.279	9036
925.387	9127
925.494	9150
925.602	9268
925.709	9214
925.816	9108
925.924	9077
926.031	9180
926.138	9138
926.245	9154
926.352	9036
926.459	9184
926.566	9214
926.673	9085
926.779	8979
926.886	8960
926.993	8914
927.099	8834
927.206	8796
927.312	8807
927.419	8838
927.525	8902
927.631	8914
927.737	8701
927.843	8815
927.95	8640
928.056	8697
928.162	8804
928.267	8823
928.373	9405
928.479	8819
928.585	8610
928.69	8667
928.796	8701
928.901	8613
929.007	8583
929.112	8636
929.218	8579
929.323	8583
929.428	8530
929.533	8686
929.638	8526
929.743	8560
929.848	8613
929.953	8507
930.058	8545
930.163	8282
930.267	8301
930.372	8461
930.477	8252
930.581	8514
930.685	8408
930.79	8180
930.894	8339
930.998	8240
931.103	8339
931.207	7967
931.311	7970
931.415	7913
931.519	7761
931.623	7761
