Data from test_V78500241_3541.txt Node
Date: Fri Mar 25 14:58:22 CST 2022
User: usil
Spectrometer: V785-0024
Trigger mode: 0
Integration Time (sec): 4.000000E-1
Scans to average: 1
Nonlinearity correction enabled: false
Boxcar width: 0
Storing dark spectrum: false
XAxis mode: Wavelengths
Number of Pixels in Spectrum: 1024
>>>>>Begin Spectral Data<<<<<
801.071	21983
801.214	21869
801.356	21580
801.499	21389
801.641	21283
801.783	21157
801.926	21222
802.068	21294
802.211	21081
802.353	21180
802.496	20800
802.638	20648
802.78	20743
802.923	20716
803.065	20583
803.208	20583
803.35	20613
803.492	20773
803.635	20731
803.777	20556
803.919	20708
804.061	20868
804.204	20693
804.346	20659
804.488	20606
804.63	20648
804.773	20385
804.915	20541
805.057	20560
805.199	20457
805.341	20503
805.483	20678
805.626	20533
805.768	20415
805.91	20442
806.052	20526
806.194	20457
806.336	20560
806.478	20518
806.62	20450
806.762	20537
806.904	20621
807.046	20982
807.188	20765
807.33	20800
807.472	20777
807.614	20708
807.756	20826
807.898	20541
808.04	20552
808.182	20583
808.324	20621
808.465	20606
808.607	20750
808.749	20914
808.891	20982
809.033	21028
809.174	20883
809.316	20739
809.458	20754
809.6	20815
809.741	20785
809.883	21001
810.025	21047
810.166	20941
810.308	21001
810.45	20895
810.591	20819
810.733	20739
810.875	20594
811.016	20469
811.158	20431
811.299	20651
811.441	20693
811.582	20686
811.724	20621
811.865	20571
812.007	20594
812.148	20674
812.29	20629
812.431	20838
812.573	20910
812.714	20967
812.855	21081
812.997	21222
813.138	21336
813.279	21313
813.421	21081
813.562	20979
813.703	20876
813.845	20758
813.986	20503
814.127	20393
814.268	20183
814.41	20138
814.551	20210
814.692	20157
814.833	20012
814.974	20122
815.115	20119
815.256	20111
815.397	19936
815.539	19928
815.68	19837
815.821	19788
815.962	19807
816.103	19887
816.244	19662
816.385	19510
816.526	19727
816.666	19415
816.807	19301
816.948	19415
817.089	19453
817.23	19274
817.371	19335
817.512	19285
817.653	19270
817.793	19324
817.934	19266
818.075	19304
818.216	19297
818.356	19187
818.497	19053
818.638	18932
818.778	19000
818.919	18954
819.06	19027
819.2	19202
819.341	19209
819.481	19183
819.622	19339
819.762	19483
819.903	19331
820.043	19266
820.184	19145
820.324	19221
820.465	19259
820.605	19213
820.746	19213
820.886	19145
821.026	19156
821.167	19168
821.307	19171
821.447	19225
821.588	19129
821.728	18977
821.868	18932
822.008	18726
822.149	18738
822.289	18669
822.429	18414
822.569	18460
822.709	18399
822.849	18213
822.99	18163
823.13	18060
823.27	18003
823.41	17996
823.55	17923
823.69	17904
823.83	18022
823.97	17950
824.11	17756
824.25	17756
824.389	17752
824.529	17851
824.669	17771
824.809	17859
824.949	17802
825.089	17775
825.228	17775
825.368	17535
825.508	17543
825.648	17611
825.787	17619
825.927	17493
826.067	17505
826.206	17520
826.346	17573
826.485	17459
826.625	17478
826.765	17596
826.904	17558
827.044	17303
827.183	17292
827.323	17140
827.462	17288
827.601	17193
827.741	17124
827.88	17197
828.02	17189
828.159	17220
828.298	17246
828.437	17349
828.577	17200
828.716	17315
828.855	17212
828.994	17136
829.134	16987
829.273	16930
829.412	16869
829.551	16923
829.69	16972
829.829	16957
829.968	16999
830.107	17033
830.246	17060
830.385	16976
830.524	16881
830.663	16793
830.802	16759
830.941	16622
831.08	16641
831.219	16630
831.357	16527
831.496	16793
831.635	16558
831.774	16516
831.913	16531
832.051	16459
832.19	16371
832.329	16485
832.467	16371
832.606	16261
832.744	16322
832.883	16219
833.022	16234
833.16	16314
833.299	16299
833.437	16295
833.576	16360
833.714	16379
833.852	16428
833.991	16440
834.129	16436
834.267	16394
834.406	16360
834.544	16470
834.682	16341
834.821	16356
834.959	16413
835.097	16284
835.235	16512
835.373	16322
835.511	16402
835.65	16303
835.788	16322
835.926	16204
836.064	16067
836.202	16029
836.34	16310
836.478	16352
836.615	16147
836.753	16280
836.891	16280
837.029	16310
837.167	16230
837.305	16219
837.443	16173
837.58	16097
837.718	16246
837.856	16188
837.993	16040
838.131	16219
838.269	16063
838.406	16051
838.544	15975
838.681	15785
838.819	15861
838.956	15762
839.094	15709
839.231	15751
839.369	15800
839.506	16097
839.643	15983
839.781	15759
839.918	15766
840.055	15770
840.193	15663
840.33	15705
840.467	15622
840.604	15682
840.742	15972
840.879	15633
841.016	15625
841.153	15648
841.29	15831
841.427	15728
841.564	15701
841.701	15652
841.838	15732
841.975	15717
842.112	15587
842.249	15485
842.385	15443
842.522	15736
842.659	15568
842.796	15500
842.933	15549
843.069	15401
843.206	15477
843.343	15545
843.479	15580
843.616	15515
843.752	15329
843.889	15237
844.025	15473
844.162	15325
844.298	15405
844.435	15283
844.571	15294
844.708	15378
844.844	15477
844.98	15466
845.117	15374
845.253	15230
845.389	15131
845.525	15268
845.661	15173
845.798	15074
845.934	15112
846.07	15077
846.206	15192
846.342	15142
846.478	15104
846.614	14937
846.75	14838
846.886	14857
847.022	14937
847.158	14838
847.294	14956
847.429	14952
847.565	14842
847.701	15116
847.837	14617
847.972	14594
848.108	14765
848.244	14670
848.379	14484
848.515	14366
848.65	14514
848.786	14503
848.921	14415
849.057	14568
849.192	14606
849.328	14438
849.463	14465
849.598	14366
849.734	14408
849.869	14259
850.004	14259
850.14	14286
850.275	14244
850.41	14172
850.545	14176
850.68	14164
850.815	14233
850.95	14229
851.085	14446
851.22	14351
851.355	14271
851.49	14172
851.625	14172
851.76	14267
851.895	14084
852.03	14054
852.165	14183
852.299	14244
852.434	14324
852.569	14267
852.703	14309
852.838	14355
852.973	14465
853.107	14492
853.242	14168
853.376	14096
853.511	13974
853.645	14058
853.78	14225
853.914	14237
854.048	14111
854.183	14020
854.317	14218
854.451	14164
854.585	14008
854.72	14138
854.854	14077
854.988	14130
855.122	14111
855.256	14005
855.39	14039
855.524	14145
855.658	14145
855.792	14039
855.926	14058
856.06	14145
856.194	14199
856.327	14096
856.461	14027
856.595	14035
856.729	14123
856.862	14259
856.996	14149
857.13	14294
857.263	14149
857.397	14301
857.53	14187
857.664	14176
857.797	14278
857.931	14214
858.064	14111
858.197	14229
858.331	14077
858.464	14096
858.597	13982
858.731	14119
858.864	14107
858.997	14016
859.13	14096
859.263	14267
859.396	14176
859.529	14126
859.662	14119
859.795	14130
859.928	14191
860.061	14256
860.194	14370
860.327	14229
860.46	14062
860.592	14267
860.725	14328
860.858	14240
860.99	14119
861.123	14088
861.256	13963
861.388	14149
861.521	14933
861.653	14005
861.786	13993
861.918	13970
862.05	13978
862.183	13982
862.315	14142
862.447	14161
862.58	14031
862.712	13780
862.844	13909
862.976	14024
863.108	14001
863.24	14298
863.372	13772
863.504	13864
863.636	13856
863.768	13852
863.9	13826
864.032	13860
864.164	13845
864.296	13841
864.428	14016
864.559	13989
864.691	13997
864.823	13986
864.954	13864
865.086	13951
865.217	13868
865.349	13811
865.48	13791
865.612	13860
865.743	14058
865.875	13894
866.006	13822
866.137	13902
866.269	13845
866.4	13841
866.531	13849
866.662	13830
866.793	13841
866.924	13864
867.055	13841
867.186	13811
867.317	13833
867.448	13780
867.579	13780
867.71	13811
867.841	13879
867.972	13875
868.103	13860
868.233	13898
868.364	13887
868.495	13921
868.625	14100
868.756	14107
868.886	14035
869.017	14172
869.147	14278
869.278	14168
869.408	14172
869.539	14157
869.669	14138
869.799	14210
869.929	14221
870.06	14183
870.19	14404
870.32	14400
870.45	14469
870.58	14518
870.71	14667
870.84	14602
870.97	14533
871.1	14457
871.23	14712
871.36	14762
871.489	14568
871.619	14838
871.749	14682
871.879	14739
872.008	14842
872.138	14724
872.267	14746
872.397	14617
872.526	14530
872.656	14450
872.785	14590
872.915	14758
873.044	14762
873.173	14788
873.303	14807
873.432	14796
873.561	14785
873.69	14712
873.819	14743
873.948	14853
874.077	14750
874.206	14754
874.335	14811
874.464	14918
874.593	15119
874.722	15043
874.851	15077
874.979	15077
875.108	15135
875.237	15066
875.365	15013
875.494	15009
875.623	15157
875.751	15108
875.88	15112
876.008	15222
876.136	15329
876.265	15584
876.393	15568
876.521	15545
876.65	15591
876.778	15549
876.906	15545
877.034	15439
877.162	15542
877.29	15439
877.418	15458
877.546	15504
877.674	15553
877.802	15500
877.93	15580
878.058	15466
878.185	15336
878.313	15572
878.441	15485
878.568	15294
878.696	15439
878.824	15580
878.951	15496
879.079	15667
879.206	15800
879.333	15690
879.461	15644
879.588	15580
879.715	15759
879.842	15739
879.97	15679
880.097	15389
880.224	15462
880.351	15321
880.478	15507
880.605	15370
880.732	15348
880.859	15728
880.986	15397
881.112	15496
881.239	15367
881.366	15135
881.493	15066
881.619	15089
881.746	15123
881.872	15024
881.999	15028
882.125	15020
882.252	15058
882.378	15173
882.505	15226
882.631	15051
882.757	14830
882.883	14914
883.01	14967
883.136	14857
883.262	14697
883.388	14739
883.514	14986
883.64	14967
883.766	14834
883.892	14739
884.018	14731
884.143	14834
884.269	14944
884.395	14674
884.52	14636
884.646	14606
884.772	14537
884.897	14522
885.023	14629
885.148	14708
885.274	14777
885.399	14724
885.524	14701
885.65	14602
885.775	14552
885.9	14476
886.025	14674
886.15	14629
886.275	14484
886.4	14537
886.525	14598
886.65	14412
886.775	14404
886.9	14693
887.025	14845
887.149	14636
887.274	14507
887.399	14385
887.523	14469
887.648	14362
887.773	14275
887.897	14518
888.021	14492
888.146	14332
888.27	14507
888.395	14526
888.519	14434
888.643	14442
888.767	14484
888.891	14374
889.015	14286
889.139	14263
889.263	14301
889.387	14377
889.511	14412
889.635	14434
889.759	14298
889.883	14199
890.006	14370
890.13	14336
890.254	14149
890.377	14290
890.501	14115
890.624	14073
890.748	14130
890.871	14069
890.995	13989
891.118	13890
891.241	13997
891.364	13982
891.488	14069
891.611	13928
891.734	14024
891.857	13970
891.98	13963
892.103	14100
892.226	13955
892.349	13871
892.471	13932
892.594	13944
892.717	14054
892.839	13970
892.962	13970
893.085	14062
893.207	13936
893.33	13936
893.452	13978
893.575	14069
893.697	13982
893.819	14043
893.941	14225
894.064	14100
894.186	14062
894.308	14001
894.43	14149
894.552	14206
894.674	14172
894.796	14024
894.918	14046
895.04	14001
895.161	14092
895.283	14164
895.405	14046
895.526	14088
895.648	14088
895.769	14031
895.891	14092
896.012	14214
896.134	14229
896.255	14130
896.376	14069
896.498	14199
896.619	14187
896.74	14157
896.861	14195
896.982	14503
897.103	14667
897.224	14476
897.345	14415
897.466	14374
897.587	14298
897.708	14473
897.828	14404
897.949	14438
898.07	14362
898.19	14309
898.311	14629
898.431	14476
898.552	14461
898.672	14594
898.792	14598
898.913	14522
899.033	14431
899.153	14366
899.273	14317
899.393	14366
899.513	14259
899.633	14427
899.753	14385
899.873	14396
899.993	14438
900.113	14294
900.232	14473
900.352	14400
900.472	14313
900.591	14244
900.711	14275
900.83	14210
900.95	14377
901.069	14404
901.189	14149
901.308	13947
901.427	13940
901.546	13925
901.665	13974
901.784	13894
901.904	13795
902.023	13708
902.141	13472
902.26	13502
902.379	13529
902.498	13369
902.617	13350
902.735	13491
902.854	13537
902.973	13453
903.091	13168
903.21	13164
903.328	13175
903.446	13084
903.565	13057
903.683	13141
903.801	12977
903.919	12981
904.038	13042
904.156	12878
904.274	13004
904.392	12848
904.51	12993
904.627	12859
904.745	12905
904.863	12878
904.981	12738
905.098	12502
905.216	12669
905.334	12620
905.451	12582
905.569	12540
905.686	12601
905.803	12471
905.921	12357
906.038	12536
906.155	12403
906.272	12300
906.389	12353
906.506	12144
906.623	12171
906.74	12125
906.857	12079
906.974	12053
907.091	12194
907.208	12216
907.324	12190
907.441	12076
907.557	11969
907.674	11961
907.79	11897
907.907	11870
908.023	11977
908.139	11950
908.256	11901
908.372	11904
908.488	11904
908.604	11699
908.72	11642
908.836	11680
908.952	11638
909.068	11638
909.184	11786
909.3	11630
909.415	11691
909.531	11722
909.647	11482
909.762	11440
909.878	11414
909.993	11414
910.108	11387
910.224	11364
910.339	11512
910.454	11356
910.57	11261
910.685	11296
910.8	11516
910.915	11436
911.03	11318
911.145	11117
911.259	11166
911.374	11151
911.489	11045
911.604	10972
911.718	10942
911.833	10885
911.947	10881
912.062	10767
912.176	10885
912.291	10946
912.405	10889
912.519	11094
912.633	11140
912.748	10965
912.862	10877
912.976	10843
913.09	10672
913.204	10634
913.318	10774
913.431	10820
913.545	10850
913.659	10927
913.772	10809
913.886	10694
914	10626
914.113	10736
914.226	10763
914.34	10691
914.453	10573
914.566	10740
914.68	10637
914.793	10516
914.906	10428
915.019	10443
915.132	10363
915.245	10394
915.358	10375
915.47	10375
915.583	10466
915.696	10451
915.809	10577
915.921	10694
916.034	10386
916.146	10402
916.259	10424
916.371	10504
916.483	10447
916.595	10318
916.708	10390
916.82	10352
916.932	10272
917.044	10318
917.156	10295
917.268	10234
917.38	10303
917.491	10249
917.603	10257
917.715	10352
917.826	10348
917.938	10234
918.049	10124
918.161	10333
918.272	10413
918.384	10360
918.495	10257
918.606	10112
918.717	10097
918.828	10143
918.939	10097
919.05	10021
919.161	10147
919.272	9884
919.383	9979
919.494	10162
919.604	10276
919.715	10181
919.826	10002
919.936	10082
920.047	10200
920.157	10211
920.267	10322
920.378	10177
920.488	10128
920.598	10363
920.708	10424
920.818	10276
920.928	10272
921.038	10470
921.148	10428
921.258	10188
921.368	10120
921.477	9987
921.587	9983
921.697	9854
921.806	9998
921.916	9892
922.025	9732
922.134	9698
922.244	9717
922.353	9736
922.462	9618
922.571	9553
922.68	9428
922.789	9386
922.898	9378
923.007	9397
923.116	9393
923.224	9329
923.333	9374
923.442	9253
923.55	9272
923.659	9275
923.767	9336
923.876	9294
923.984	9287
924.092	9218
924.201	9275
924.309	9298
924.417	9241
924.525	9180
924.633	9275
924.741	9979
924.849	9112
924.956	9161
925.064	9013
925.172	8948
925.279	8975
925.387	9100
925.494	9127
925.602	9154
925.709	9207
925.816	9028
925.924	9077
926.031	9173
926.138	9070
926.245	9146
926.352	9013
926.459	9119
926.566	9218
926.673	8986
926.779	8944
926.886	8918
926.993	8762
927.099	8781
927.206	8769
927.312	8693
927.419	8838
927.525	8826
927.631	8811
927.737	8651
927.843	8644
927.95	8575
928.056	8644
928.162	8716
928.267	8750
928.373	9329
928.479	8750
928.585	8587
928.69	8651
928.796	8674
928.901	8621
929.007	8423
929.112	8575
929.218	8518
929.323	8499
929.428	8450
929.533	8621
929.638	8488
929.743	8488
929.848	8511
929.953	8461
930.058	8488
930.163	8324
930.267	8336
930.372	8423
930.477	8244
930.581	8499
930.685	8358
930.79	8233
930.894	8206
930.998	8221
931.103	8317
931.207	7997
931.311	7913
931.415	7913
931.519	7700
931.623	7734
