Data from test_V78500241_3278.txt Node
Date: Fri Mar 25 14:56:32 CST 2022
User: usil
Spectrometer: V785-0024
Trigger mode: 0
Integration Time (sec): 4.000000E-1
Scans to average: 1
Nonlinearity correction enabled: false
Boxcar width: 0
Storing dark spectrum: false
XAxis mode: Wavelengths
Number of Pixels in Spectrum: 1024
>>>>>Begin Spectral Data<<<<<
801.071	21854
801.214	21865
801.356	21648
801.499	21485
801.641	21496
801.783	21245
801.926	21405
802.068	21260
802.211	21165
802.353	21058
802.496	20868
802.638	20918
802.78	20830
802.923	20648
803.065	20606
803.208	20743
803.35	20655
803.492	20807
803.635	20842
803.777	20739
803.919	20743
804.061	21024
804.204	20663
804.346	20682
804.488	20541
804.63	20552
804.773	20518
804.915	20629
805.057	20689
805.199	20526
805.341	20598
805.483	20632
805.626	20571
805.768	20492
805.91	20670
806.052	20549
806.194	20545
806.336	20777
806.478	20590
806.62	20431
806.762	20617
806.904	20644
807.046	20956
807.188	20864
807.33	20857
807.472	20845
807.614	20777
807.756	20701
807.898	20678
808.04	20606
808.182	20640
808.324	20571
808.465	20651
808.607	20830
808.749	20994
808.891	21036
809.033	21070
809.174	20963
809.316	20853
809.458	20902
809.6	20880
809.741	20986
809.883	20914
810.025	21089
810.166	21055
810.308	21032
810.45	21009
810.591	20895
810.733	20804
810.875	20689
811.016	20609
811.158	20537
811.299	20758
811.441	20796
811.582	20883
811.724	20659
811.865	20663
812.007	20667
812.148	20644
812.29	20731
812.431	20842
812.573	21070
812.714	20830
812.855	21195
812.997	21192
813.138	21389
813.279	21291
813.421	21203
813.562	21161
813.703	20948
813.845	20830
813.986	20655
814.127	20301
814.268	20278
814.41	20244
814.551	20309
814.692	20263
814.833	20225
814.974	20180
815.115	20176
815.256	20130
815.397	19989
815.539	20187
815.68	19932
815.821	19890
815.962	19989
816.103	19974
816.244	19723
816.385	19700
816.526	19571
816.666	19567
816.807	19316
816.948	19381
817.089	19476
817.23	19476
817.371	19289
817.512	19438
817.653	19365
817.793	19282
817.934	19327
818.075	19339
818.216	19274
818.356	19270
818.497	19198
818.638	18996
818.778	18993
818.919	19038
819.06	19088
819.2	19137
819.341	19202
819.481	19289
819.622	19297
819.762	19582
819.903	19495
820.043	19441
820.184	19434
820.324	19327
820.465	19407
820.605	19301
820.746	19350
820.886	19259
821.026	19278
821.167	19274
821.307	19388
821.447	19358
821.588	19118
821.728	19076
821.868	18844
822.008	18757
822.149	18700
822.289	18738
822.429	18589
822.569	18346
822.709	18483
822.849	18292
822.99	18209
823.13	18258
823.27	18194
823.41	17999
823.55	18015
823.69	18095
823.83	18057
823.97	18083
824.11	17920
824.25	17741
824.389	17904
824.529	17904
824.669	17828
824.809	17999
824.949	17863
825.089	17855
825.228	17809
825.368	17726
825.508	17649
825.648	17501
825.787	17627
825.927	17726
826.067	17528
826.206	17532
826.346	17623
826.485	17600
826.625	17566
826.765	17627
826.904	17604
827.044	17368
827.183	17242
827.323	17197
827.462	17417
827.601	17273
827.741	17261
827.88	17170
828.02	17189
828.159	17292
828.298	17360
828.437	17383
828.577	17220
828.716	17429
828.855	17235
828.994	16980
829.134	17109
829.273	17147
829.412	17090
829.551	16987
829.69	17029
829.829	17094
829.968	17178
830.107	17094
830.246	16968
830.385	17052
830.524	16930
830.663	16858
830.802	16759
830.941	16649
831.08	16645
831.219	16831
831.357	16725
831.496	16930
831.635	16592
831.774	16550
831.913	16535
832.051	16436
832.19	16497
832.329	16436
832.467	16356
832.606	16276
832.744	16409
832.883	16394
833.022	16409
833.16	16413
833.299	16413
833.437	16390
833.576	16379
833.714	16375
833.852	16436
833.991	16470
834.129	16493
834.267	16516
834.406	16360
834.544	16447
834.682	16470
834.821	16329
834.959	16607
835.097	16402
835.235	16653
835.373	16478
835.511	16405
835.65	16333
835.788	16295
835.926	16219
836.064	16188
836.202	16105
836.34	16322
836.478	16421
836.615	16325
836.753	16436
836.891	16386
837.029	16299
837.167	16379
837.305	16211
837.443	16185
837.58	16169
837.718	16272
837.856	16181
837.993	16196
838.131	16261
838.269	16048
838.406	16025
838.544	16002
838.681	15899
838.819	15808
838.956	15808
839.094	15793
839.231	15743
839.369	15926
839.506	16147
839.643	15911
839.781	15831
839.918	15652
840.055	15895
840.193	15831
840.33	15603
840.467	15759
840.604	15743
840.742	15979
840.879	15671
841.016	15652
841.153	15671
841.29	15876
841.427	15857
841.564	15770
841.701	15816
841.838	15701
841.975	15584
842.112	15774
842.249	15564
842.385	15511
842.522	15690
842.659	15682
842.796	15519
842.933	15595
843.069	15405
843.206	15507
843.343	15519
843.479	15545
843.616	15545
843.752	15401
843.889	15336
844.025	15447
844.162	15351
844.298	15439
844.435	15363
844.571	15329
844.708	15538
844.844	15492
844.98	15481
845.117	15504
845.253	15260
845.389	15142
845.525	15245
845.661	15294
845.798	15081
845.934	15043
846.07	15093
846.206	15131
846.342	15275
846.478	15112
846.614	14998
846.75	14948
846.886	14823
847.022	14921
847.158	14880
847.294	14815
847.429	14887
847.565	14914
847.701	15108
847.837	14678
847.972	14568
848.108	14659
848.244	14735
848.379	14530
848.515	14552
848.65	14530
848.786	14560
848.921	14583
849.057	14560
849.192	14629
849.328	14655
849.463	14518
849.598	14533
849.734	14454
849.869	14431
850.004	14294
850.14	14298
850.275	14370
850.41	14126
850.545	14278
850.68	14259
850.815	14313
850.95	14278
851.085	14358
851.22	14324
851.355	14309
851.49	14290
851.625	14271
851.76	14199
851.895	14153
852.03	14153
852.165	14218
852.299	14305
852.434	14366
852.569	14351
852.703	14324
852.838	14336
852.973	14374
853.107	14450
853.242	14256
853.376	14259
853.511	14103
853.645	14058
853.78	14168
853.914	14134
854.048	14134
854.183	14123
854.317	14191
854.451	14332
854.585	14043
854.72	14031
854.854	14263
854.988	14065
855.122	14039
855.256	13951
855.39	14077
855.524	14282
855.658	14233
855.792	14145
855.926	14206
856.06	14229
856.194	14202
856.327	14107
856.461	14142
856.595	14191
856.729	14157
856.862	14282
856.996	14157
857.13	14161
857.263	14252
857.397	14271
857.53	14088
857.664	14282
857.797	14229
857.931	14278
858.064	14183
858.197	14263
858.331	14107
858.464	14176
858.597	14020
858.731	14103
858.864	14100
858.997	14092
859.13	14191
859.263	14081
859.396	14218
859.529	14088
859.662	14119
859.795	14031
859.928	14153
860.061	14294
860.194	14259
860.327	14157
860.46	14115
860.592	14206
860.725	14400
860.858	14271
860.99	14126
861.123	14058
861.256	14100
861.388	14221
861.521	14925
861.653	14126
861.786	13864
861.918	14016
862.05	14123
862.183	14062
862.315	14149
862.447	14123
862.58	14077
862.712	13940
862.844	13837
862.976	14005
863.108	14001
863.24	14176
863.372	13860
863.504	13864
863.636	13928
863.768	13921
863.9	13944
864.032	13845
864.164	13917
864.296	13967
864.428	14039
864.559	13978
864.691	14020
864.823	13959
864.954	13970
865.086	13921
865.217	13940
865.349	13811
865.48	13921
865.612	13913
865.743	14054
865.875	13917
866.006	13826
866.137	13887
866.269	13963
866.4	13879
866.531	13822
866.662	13913
866.793	13830
866.924	13875
867.055	13818
867.186	13803
867.317	13833
867.448	13795
867.579	13803
867.71	13803
867.841	13788
867.972	13826
868.103	13913
868.233	13940
868.364	13917
868.495	13940
868.625	14077
868.756	14240
868.886	14046
869.017	14206
869.147	14347
869.278	14324
869.408	14126
869.539	14123
869.669	14176
869.799	14153
869.929	14278
870.06	14351
870.19	14526
870.32	14355
870.45	14541
870.58	14492
870.71	14735
870.84	14632
870.97	14598
871.1	14526
871.23	14640
871.36	14739
871.489	14678
871.619	14716
871.749	14815
871.879	14826
872.008	14807
872.138	14686
872.267	14811
872.397	14560
872.526	14545
872.656	14575
872.785	14606
872.915	14815
873.044	14842
873.173	14880
873.303	14811
873.432	14883
873.561	14929
873.69	14887
873.819	14788
873.948	14933
874.077	14788
874.206	14758
874.335	14891
874.464	15039
874.593	15017
874.722	15028
874.851	15176
874.979	15112
875.108	15127
875.237	15127
875.365	14994
875.494	15097
875.623	15214
875.751	15104
875.88	15245
876.008	15214
876.136	15344
876.265	15622
876.393	15717
876.521	15561
876.65	15644
876.778	15641
876.906	15447
877.034	15466
877.162	15561
877.29	15439
877.418	15519
877.546	15564
877.674	15618
877.802	15530
877.93	15507
878.058	15447
878.185	15443
878.313	15625
878.441	15538
878.568	15389
878.696	15500
878.824	15416
878.951	15629
879.079	15766
879.206	15751
879.333	15728
879.461	15603
879.588	15660
879.715	15652
879.842	15903
879.97	15584
880.097	15355
880.224	15378
880.351	15302
880.478	15370
880.605	15302
880.732	15355
880.859	15625
880.986	15466
881.112	15397
881.239	15268
881.366	15157
881.493	15077
881.619	15097
881.746	15055
881.872	14994
881.999	15020
882.125	15039
882.252	15112
882.378	15070
882.505	15302
882.631	15024
882.757	14937
882.883	14971
883.01	14918
883.136	14834
883.262	14773
883.388	14788
883.514	14868
883.64	14906
883.766	14891
883.892	14750
884.018	14701
884.143	14864
884.269	15032
884.395	14716
884.52	14590
884.646	14552
884.772	14556
884.897	14492
885.023	14530
885.148	14594
885.274	14758
885.399	14682
885.524	14526
885.65	14667
885.775	14648
885.9	14552
886.025	14762
886.15	14674
886.275	14564
886.4	14495
886.525	14503
886.65	14450
886.775	14533
886.9	14712
887.025	14853
887.149	14610
887.274	14370
887.399	14267
887.523	14446
887.648	14362
887.773	14320
887.897	14552
888.021	14419
888.146	14374
888.27	14355
888.395	14610
888.519	14415
888.643	14457
888.767	14484
888.891	14473
889.015	14324
889.139	14305
889.263	14214
889.387	14305
889.511	14434
889.635	14320
889.759	14237
889.883	14263
890.006	14305
890.13	14423
890.254	14172
890.377	14278
890.501	14138
890.624	14107
890.748	14225
890.871	14062
890.995	13932
891.118	13902
891.241	13845
891.364	13967
891.488	14138
891.611	14043
891.734	14065
891.857	13959
891.98	14008
892.103	14081
892.226	13947
892.349	13921
892.471	13849
892.594	13902
892.717	14012
892.839	13894
892.962	14039
893.085	14024
893.207	13936
893.33	13875
893.452	13909
893.575	14046
893.697	13993
893.819	14248
893.941	14145
894.064	14218
894.186	13909
894.308	13947
894.43	14073
894.552	14172
894.674	14187
894.796	14001
894.918	14073
895.04	13974
895.161	14130
895.283	14191
895.405	14103
895.526	13993
895.648	14020
895.769	14195
895.891	14161
896.012	14153
896.134	14153
896.255	14126
896.376	14088
896.498	14130
896.619	14237
896.74	14199
896.861	14153
896.982	14602
897.103	14602
897.224	14427
897.345	14393
897.466	14381
897.587	14473
897.708	14644
897.828	14492
897.949	14389
898.07	14305
898.19	14431
898.311	14556
898.431	14476
898.552	14526
898.672	14636
898.792	14602
898.913	14450
899.033	14492
899.153	14419
899.273	14324
899.393	14351
899.513	14454
899.633	14305
899.753	14290
899.873	14347
899.993	14347
900.113	14393
900.232	14370
900.352	14305
900.472	14229
900.591	14176
900.711	14290
900.83	14195
900.95	14396
901.069	14419
901.189	14157
901.308	13898
901.427	13818
901.546	13906
901.665	13951
901.784	13921
901.904	13818
902.023	13651
902.141	13491
902.26	13430
902.379	13529
902.498	13430
902.617	13407
902.735	13472
902.854	13438
902.973	13434
903.091	13198
903.21	13255
903.328	13149
903.446	13103
903.565	13019
903.683	13050
903.801	12878
903.919	13027
904.038	12989
904.156	12791
904.274	12962
904.392	12753
904.51	12852
904.627	12814
904.745	12954
904.863	12928
904.981	12654
905.098	12547
905.216	12559
905.334	12623
905.451	12597
905.569	12498
905.686	12612
905.803	12544
905.921	12380
906.038	12464
906.155	12452
906.272	12209
906.389	12292
906.506	12175
906.623	12155
906.74	12182
906.857	12019
906.974	12102
907.091	12186
907.208	12281
907.324	12197
907.441	12049
907.557	11950
907.674	11931
907.79	11771
907.907	11824
908.023	11927
908.139	11950
908.256	11870
908.372	11824
908.488	11813
908.604	11688
908.72	11684
908.836	11657
908.952	11581
909.068	11600
909.184	11798
909.3	11726
909.415	11619
909.531	11684
909.647	11474
909.762	11455
909.878	11448
909.993	11440
910.108	11410
910.224	11334
910.339	11421
910.454	11360
910.57	11315
910.685	11242
910.8	11505
910.915	11417
911.03	11235
911.145	11212
911.259	11170
911.374	11147
911.489	11064
911.604	11041
911.718	10793
911.833	10911
911.947	10835
912.062	10812
912.176	10847
912.291	10942
912.405	10927
912.519	11109
912.633	11113
912.748	10961
912.862	10869
912.976	10706
913.09	10607
913.204	10774
913.318	10782
913.431	10839
913.545	10835
913.659	10892
913.772	10763
913.886	10656
914	10603
914.113	10752
914.226	10763
914.34	10801
914.453	10577
914.566	10706
914.68	10603
914.793	10580
914.906	10371
915.019	10310
915.132	10306
915.245	10375
915.358	10466
915.47	10428
915.583	10363
915.696	10451
915.809	10493
915.921	10500
916.034	10382
916.146	10318
916.259	10291
916.371	10474
916.483	10405
916.595	10284
916.708	10299
916.82	10375
916.932	10299
917.044	10257
917.156	10268
917.268	10211
917.38	10246
917.491	10204
917.603	10223
917.715	10284
917.826	10367
917.938	10234
918.049	10116
918.161	10207
918.272	10402
918.384	10459
918.495	10310
918.606	10112
918.717	10101
918.828	10021
918.939	10131
919.05	10029
919.161	10093
919.272	9880
919.383	9934
919.494	10230
919.604	10318
919.715	10166
919.826	10051
919.936	10074
920.047	10143
920.157	10086
920.267	10253
920.378	10215
920.488	10124
920.598	10421
920.708	10504
920.818	10314
920.928	10325
921.038	10516
921.148	10478
921.258	10253
921.368	10059
921.477	9979
921.587	9994
921.697	9857
921.806	9979
921.916	9838
922.025	9717
922.134	9641
922.244	9682
922.353	9705
922.462	9675
922.571	9492
922.68	9382
922.789	9348
922.898	9374
923.007	9340
923.116	9416
923.224	9397
923.333	9351
923.442	9272
923.55	9272
923.659	9294
923.767	9370
923.876	9329
923.984	9306
924.092	9207
924.201	9302
924.309	9230
924.417	9291
924.525	9241
924.633	9245
924.741	10188
924.849	9081
924.956	9272
925.064	9066
925.172	8971
925.279	9009
925.387	9074
925.494	9070
925.602	9245
925.709	9169
925.816	9009
925.924	9097
926.031	9233
926.138	9100
926.245	9108
926.352	9001
926.459	9165
926.566	9218
926.673	9112
926.779	8921
926.886	8967
926.993	8838
927.099	8792
927.206	8796
927.312	8807
927.419	8849
927.525	8800
927.631	8838
927.737	8830
927.843	8644
927.95	8587
928.056	8655
928.162	8731
928.267	8777
928.373	9298
928.479	8880
928.585	8594
928.69	8697
928.796	8712
928.901	8590
929.007	8446
929.112	8636
929.218	8571
929.323	8621
929.428	8594
929.533	8629
929.638	8419
929.743	8514
929.848	8484
929.953	8568
930.058	8495
930.163	8290
930.267	8294
930.372	8473
930.477	8294
930.581	8492
930.685	8370
930.79	8229
930.894	8290
930.998	8294
931.103	8374
931.207	8054
931.311	8020
931.415	7879
931.519	7765
931.623	7700
