Data from test_V78500241_1280.txt Node
Date: Fri Mar 25 14:42:37 CST 2022
User: usil
Spectrometer: V785-0024
Trigger mode: 0
Integration Time (sec): 4.000000E-1
Scans to average: 1
Nonlinearity correction enabled: false
Boxcar width: 0
Storing dark spectrum: false
XAxis mode: Wavelengths
Number of Pixels in Spectrum: 1024
>>>>>Begin Spectral Data<<<<<
801.071	22329
801.214	22310
801.356	22021
801.499	22010
801.641	21819
801.783	21755
801.926	21770
802.068	21690
802.211	21545
802.353	21568
802.496	21332
802.638	21249
802.78	21142
802.923	21131
803.065	21100
803.208	21013
803.35	21089
803.492	21272
803.635	21230
803.777	21036
803.919	21138
804.061	21450
804.204	21138
804.346	21081
804.488	20925
804.63	21047
804.773	20990
804.915	20899
805.057	21047
805.199	21062
805.341	21142
805.483	21127
805.626	21070
805.768	20921
805.91	21036
806.052	20982
806.194	20929
806.336	21127
806.478	21081
806.62	21077
806.762	21108
806.904	21279
807.046	21393
807.188	21329
807.33	21245
807.472	21447
807.614	21317
807.756	21332
807.898	21211
808.04	21142
808.182	21032
808.324	21119
808.465	21138
808.607	21291
808.749	21538
808.891	21656
809.033	21720
809.174	21625
809.316	21447
809.458	21405
809.6	21481
809.741	21568
809.883	21469
810.025	21629
810.166	21648
810.308	21507
810.45	21576
810.591	21401
810.733	21268
810.875	21279
811.016	21104
811.158	21131
811.299	21188
811.441	21370
811.582	21317
811.724	21096
811.865	21165
812.007	21306
812.148	21150
812.29	21199
812.431	21348
812.573	21485
812.714	21663
812.855	21663
812.997	21732
813.138	21816
813.279	21816
813.421	21618
813.562	21652
813.703	21401
813.845	21272
813.986	21066
814.127	20948
814.268	20842
814.41	20823
814.551	20769
814.692	20887
814.833	20655
814.974	20663
815.115	20590
815.256	20488
815.397	20587
815.539	20511
815.68	20446
815.821	20396
815.962	20499
816.103	20514
816.244	20229
816.385	20191
816.526	20183
816.666	20031
816.807	19807
816.948	19928
817.089	20043
817.23	19917
817.371	19879
817.512	19894
817.653	19852
817.793	19890
817.934	19799
818.075	19947
818.216	19989
818.356	19947
818.497	19685
818.638	19632
818.778	19605
818.919	19559
819.06	19643
819.2	19685
819.341	19681
819.481	19738
819.622	19974
819.762	20199
819.903	19940
820.043	19951
820.184	19852
820.324	19932
820.465	19909
820.605	19906
820.746	19795
820.886	19731
821.026	19830
821.167	19723
821.307	19944
821.447	19841
821.588	19795
821.728	19578
821.868	19529
822.008	19301
822.149	19308
822.289	19293
822.429	19103
822.569	18973
822.709	18943
822.849	18802
822.99	18821
823.13	18707
823.27	18722
823.41	18494
823.55	18467
823.69	18513
823.83	18574
823.97	18494
824.11	18372
824.25	18262
824.389	18315
824.529	18437
824.669	18311
824.809	18471
824.949	18422
825.089	18414
825.228	18464
825.368	18121
825.508	18163
825.648	18152
825.787	18228
825.927	18235
826.067	18057
826.206	18076
826.346	18186
826.485	18121
826.625	18182
826.765	18311
826.904	18133
827.044	17916
827.183	17821
827.323	17767
827.462	17859
827.601	17805
827.741	17783
827.88	17885
828.02	17649
828.159	17767
828.298	17737
828.437	17878
828.577	17737
828.716	17916
828.855	17756
828.994	17627
829.134	17535
829.273	17687
829.412	17573
829.551	17471
829.69	17524
829.829	17676
829.968	17623
830.107	17615
830.246	17592
830.385	17539
830.524	17410
830.663	17478
830.802	17356
830.941	17246
831.08	17155
831.219	17212
831.357	17360
831.496	17444
831.635	17181
831.774	17105
831.913	17166
832.051	17029
832.19	17010
832.329	16980
832.467	16976
832.606	16854
832.744	16869
832.883	16793
833.022	16820
833.16	16812
833.299	16896
833.437	17014
833.576	17006
833.714	16927
833.852	17033
833.991	16873
834.129	16957
834.267	16957
834.406	17022
834.544	17067
834.682	16976
834.821	16972
834.959	17155
835.097	16934
835.235	17083
835.373	16976
835.511	17010
835.65	16934
835.788	16892
835.926	16729
836.064	16641
836.202	16733
836.34	16892
836.478	16923
836.615	16793
836.753	16889
836.891	17006
837.029	16949
837.167	16824
837.305	16831
837.443	16748
837.58	16752
837.718	16816
837.856	16759
837.993	16710
838.131	16698
838.269	16672
838.406	16637
838.544	16573
838.681	16542
838.819	16379
838.956	16303
839.094	16196
839.231	16242
839.369	16447
839.506	16675
839.643	16504
839.781	16276
839.918	16303
840.055	16299
840.193	16268
840.33	16333
840.467	16295
840.604	16341
840.742	16538
840.879	16147
841.016	16234
841.153	16204
841.29	16394
841.427	16310
841.564	16238
841.701	16318
841.838	16268
841.975	16181
842.112	16162
842.249	16078
842.385	15998
842.522	16211
842.659	16169
842.796	16013
842.933	16010
843.069	16090
843.206	16051
843.343	16135
843.479	16109
843.616	16051
843.752	15861
843.889	15888
844.025	15949
844.162	15819
844.298	15956
844.435	15922
844.571	15770
844.708	15869
844.844	15941
844.98	16006
845.117	15968
845.253	15797
845.389	15865
845.525	15766
845.661	15778
845.798	15732
845.934	15949
846.07	15759
846.206	15941
846.342	15907
846.478	15675
846.614	15500
846.75	15420
846.886	15443
847.022	15500
847.158	15374
847.294	15488
847.429	15469
847.565	15466
847.701	15728
847.837	15138
847.972	15104
848.108	15157
848.244	15119
848.379	15032
848.515	15074
848.65	15009
848.786	14982
848.921	15001
849.057	15119
849.192	15131
849.328	14998
849.463	14990
849.598	15028
849.734	14937
849.869	14838
850.004	14838
850.14	14826
850.275	14792
850.41	14686
850.545	14731
850.68	14743
850.815	14819
850.95	14743
851.085	15017
851.22	14876
851.355	14811
851.49	14804
851.625	14750
851.76	14636
851.895	14629
852.03	14625
852.165	14674
852.299	14796
852.434	14929
852.569	14746
852.703	14750
852.838	14857
852.973	14838
853.107	14921
853.242	14754
853.376	14674
853.511	14480
853.645	14663
853.78	14689
853.914	14689
854.048	14651
854.183	14621
854.317	14705
854.451	14785
854.585	14754
854.72	14644
854.854	14686
854.988	14610
855.122	14613
855.256	14454
855.39	14594
855.524	14724
855.658	14720
855.792	14693
855.926	14667
856.06	14743
856.194	14716
856.327	14697
856.461	14537
856.595	14556
856.729	14590
856.862	14750
856.996	14682
857.13	14705
857.263	14739
857.397	14800
857.53	14503
857.664	14686
857.797	14819
857.931	14800
858.064	14731
858.197	14785
858.331	14689
858.464	14514
858.597	14568
858.731	14590
858.864	14564
858.997	14579
859.13	14724
859.263	14670
859.396	14777
859.529	14648
859.662	14602
859.795	14606
859.928	14625
860.061	14891
860.194	14743
860.327	14606
860.46	14632
860.592	14716
860.725	14773
860.858	14781
860.99	14640
861.123	14610
861.256	14617
861.388	14594
861.521	15378
861.653	14507
861.786	14560
861.918	14526
862.05	14526
862.183	14617
862.315	14606
862.447	14663
862.58	14629
862.712	14415
862.844	14309
862.976	14450
863.108	14450
863.24	14861
863.372	14404
863.504	14370
863.636	14423
863.768	14522
863.9	14419
864.032	14377
864.164	14499
864.296	14404
864.428	14537
864.559	14560
864.691	14530
864.823	14480
864.954	14541
865.086	14480
865.217	14385
865.349	14286
865.48	14358
865.612	14381
865.743	14454
865.875	14355
866.006	14385
866.137	14415
866.269	14503
866.4	14400
866.531	14385
866.662	14252
866.793	14332
866.924	14370
867.055	14450
867.186	14374
867.317	14362
867.448	14275
867.579	14294
867.71	14237
867.841	14309
867.972	14400
868.103	14358
868.233	14404
868.364	14396
868.495	14503
868.625	14663
868.756	14682
868.886	14568
869.017	14590
869.147	14712
869.278	14743
869.408	14640
869.539	14606
869.669	14648
869.799	14708
869.929	14773
870.06	14758
870.19	15013
870.32	14880
870.45	15039
870.58	14956
870.71	15058
870.84	15207
870.97	14975
871.1	14998
871.23	15123
871.36	15195
871.489	15100
871.619	15154
871.749	15173
871.879	15283
872.008	15355
872.138	15207
872.267	15245
872.397	15146
872.526	15066
872.656	15089
872.785	15112
872.915	15272
873.044	15336
873.173	15199
873.303	15321
873.432	15310
873.561	15363
873.69	15336
873.819	15310
873.948	15378
874.077	15313
874.206	15233
874.335	15351
874.464	15469
874.593	15614
874.722	15557
874.851	15515
874.979	15603
875.108	15660
875.237	15526
875.365	15458
875.494	15515
875.623	15690
875.751	15637
875.88	15633
876.008	15671
876.136	15838
876.265	16063
876.393	16196
876.521	16162
876.65	16116
876.778	16006
876.906	15949
877.034	16021
877.162	15953
877.29	15838
877.418	15994
877.546	16010
877.674	16055
877.802	16074
877.93	15964
878.058	15945
878.185	15907
878.313	16032
878.441	16021
878.568	15915
878.696	15899
878.824	16078
878.951	16135
879.079	16135
879.206	16379
879.333	16200
879.461	16211
879.588	16226
879.715	16261
879.842	16436
879.97	16090
880.097	15903
880.224	15972
880.351	15865
880.478	16010
880.605	15842
880.732	15823
880.859	16169
880.986	15888
881.112	15945
881.239	15816
881.366	15580
881.493	15584
881.619	15526
881.746	15584
881.872	15561
881.999	15507
882.125	15572
882.252	15618
882.378	15591
882.505	15698
882.631	15545
882.757	15363
882.883	15485
883.01	15382
883.136	15336
883.262	15264
883.388	15146
883.514	15393
883.64	15454
883.766	15340
883.892	15230
884.018	15184
884.143	15389
884.269	15435
884.395	15230
884.52	15017
884.646	15058
884.772	15009
884.897	14994
885.023	15241
885.148	15218
885.274	15302
885.399	15184
885.524	15017
885.65	15100
885.775	15017
885.9	15085
886.025	15176
886.15	15089
886.275	15032
886.4	15070
886.525	15024
886.65	15089
886.775	15097
886.9	15211
887.025	15283
887.149	15135
887.274	14902
887.399	14914
887.523	14906
887.648	14899
887.773	14811
887.897	14944
888.021	14994
888.146	14807
888.27	15032
888.395	14998
888.519	14956
888.643	14838
888.767	14861
888.891	14830
889.015	14701
889.139	14785
889.263	14746
889.387	14906
889.511	14990
889.635	14792
889.759	14686
889.883	14739
890.006	14754
890.13	14826
890.254	14606
890.377	14663
890.501	14670
890.624	14598
890.748	14663
890.871	14571
890.995	14450
891.118	14271
891.241	14469
891.364	14495
891.488	14549
891.611	14404
891.734	14473
891.857	14568
891.98	14484
892.103	14556
892.226	14495
892.349	14366
892.471	14229
892.594	14450
892.717	14530
892.839	14355
892.962	14450
893.085	14423
893.207	14465
893.33	14362
893.452	14358
893.575	14457
893.697	14450
893.819	14659
893.941	14686
894.064	14575
894.186	14389
894.308	14396
894.43	14571
894.552	14724
894.674	14575
894.796	14438
894.918	14484
895.04	14533
895.161	14598
895.283	14549
895.405	14408
895.526	14514
895.648	14571
895.769	14678
895.891	14503
896.012	14533
896.134	14533
896.255	14651
896.376	14530
896.498	14579
896.619	14667
896.74	14651
896.861	14613
896.982	14960
897.103	15093
897.224	14876
897.345	14857
897.466	14777
897.587	14891
897.708	15001
897.828	14971
897.949	14819
898.07	14750
898.19	14857
898.311	14910
898.431	14975
898.552	14838
898.672	15138
898.792	15013
898.913	15043
899.033	14887
899.153	14697
899.273	14606
899.393	14830
899.513	14826
899.633	14864
899.753	14750
899.873	14701
899.993	14883
900.113	14750
900.232	14804
900.352	14754
900.472	14682
900.591	14602
900.711	14708
900.83	14674
900.95	14743
901.069	14849
901.189	14621
901.308	14324
901.427	14252
901.546	14290
901.665	14362
901.784	14377
901.904	14278
902.023	13989
902.141	13883
902.26	13909
902.379	13974
902.498	13864
902.617	13772
902.735	13944
902.854	13871
902.973	13799
903.091	13681
903.21	13533
903.328	13586
903.446	13540
903.565	13419
903.683	13438
903.801	13373
903.919	13400
904.038	13468
904.156	13179
904.274	13270
904.392	13206
904.51	13236
904.627	13289
904.745	13320
904.863	13339
904.981	13103
905.098	12996
905.216	12890
905.334	13042
905.451	12848
905.569	12966
905.686	13008
905.803	12993
905.921	12787
906.038	12833
906.155	12848
906.272	12703
906.389	12646
906.506	12566
906.623	12585
906.74	12452
906.857	12407
906.974	12418
907.091	12566
907.208	12741
907.324	12536
907.441	12452
907.557	12300
907.674	12254
907.79	12292
907.907	12266
908.023	12308
908.139	12338
908.256	12201
908.372	12182
908.488	12258
908.604	12079
908.72	12022
908.836	12083
908.952	11984
909.068	11965
909.184	12072
909.3	12015
909.415	12076
909.531	11992
909.647	11809
909.762	11771
909.878	11809
909.993	11866
910.108	11855
910.224	11726
910.339	11821
910.454	11707
910.57	11566
910.685	11615
910.8	11904
910.915	11794
911.03	11714
911.145	11611
911.259	11433
911.374	11459
911.489	11524
911.604	11326
911.718	11193
911.833	11330
911.947	11216
912.062	11075
912.176	11292
912.291	11261
912.405	11326
912.519	11448
912.633	11459
912.748	11436
912.862	11277
912.976	11102
913.09	11006
913.204	11124
913.318	11071
913.431	11159
913.545	11189
913.659	11242
913.772	11212
913.886	10995
914	10972
914.113	11117
914.226	11094
914.34	10972
914.453	10991
914.566	11105
914.68	10930
914.793	10908
914.906	10824
915.019	10675
915.132	10714
915.245	10797
915.358	10729
915.47	10816
915.583	10759
915.696	10847
915.809	10911
915.921	10892
916.034	10755
916.146	10687
916.259	10675
916.371	10793
916.483	10649
916.595	10691
916.708	10694
916.82	10649
916.932	10660
917.044	10550
917.156	10599
917.268	10478
917.38	10565
917.491	10550
917.603	10675
917.715	10618
917.826	10626
917.938	10607
918.049	10478
918.161	10577
918.272	10698
918.384	10721
918.495	10546
918.606	10470
918.717	10360
918.828	10459
918.939	10489
919.05	10284
919.161	10436
919.272	10173
919.383	10303
919.494	10474
919.604	10664
919.715	10447
919.826	10398
919.936	10398
920.047	10554
920.157	10542
920.267	10649
920.378	10508
920.488	10440
920.598	10660
920.708	10797
920.818	10710
920.928	10592
921.038	10820
921.148	10748
921.258	10535
921.368	10413
921.477	10329
921.587	10322
921.697	10204
921.806	10333
921.916	10219
922.025	10010
922.134	10006
922.244	9930
922.353	9991
922.462	9892
922.571	9850
922.68	9690
922.789	9663
922.898	9732
923.007	9584
923.116	9728
923.224	9705
923.333	9686
923.442	9576
923.55	9557
923.659	9519
923.767	9675
923.876	9507
923.984	9622
924.092	9568
924.201	9538
924.309	9534
924.417	9496
924.525	9549
924.633	9534
924.741	10272
924.849	9317
924.956	9507
925.064	9245
925.172	9298
925.279	9272
925.387	9405
925.494	9325
925.602	9466
925.709	9408
925.816	9188
925.924	9302
926.031	9382
926.138	9306
926.245	9408
926.352	9298
926.459	9412
926.566	9439
926.673	9317
926.779	9123
926.886	9184
926.993	9066
927.099	9028
927.206	8963
927.312	8986
927.419	9089
927.525	9066
927.631	9058
927.737	8982
927.843	8880
927.95	8826
928.056	8902
928.162	8941
928.267	8921
928.373	9629
928.479	9024
928.585	8739
928.69	8868
928.796	8944
928.901	8815
929.007	8762
929.112	8899
929.218	8743
929.323	8777
929.428	8712
929.533	8864
929.638	8693
929.743	8705
929.848	8769
929.953	8731
930.058	8670
930.163	8526
930.267	8461
930.372	8651
930.477	8537
930.581	8689
930.685	8587
930.79	8465
930.894	8488
930.998	8438
931.103	8613
931.207	8206
931.311	8180
931.415	8092
931.519	7940
931.623	7982
