Data from test_V78500241_1302.txt Node
Date: Fri Mar 25 14:42:46 CST 2022
User: usil
Spectrometer: V785-0024
Trigger mode: 0
Integration Time (sec): 4.000000E-1
Scans to average: 1
Nonlinearity correction enabled: false
Boxcar width: 0
Storing dark spectrum: false
XAxis mode: Wavelengths
Number of Pixels in Spectrum: 1024
>>>>>Begin Spectral Data<<<<<
801.071	22363
801.214	22299
801.356	22147
801.499	21994
801.641	21800
801.783	21823
801.926	21842
802.068	21679
802.211	21625
802.353	21625
802.496	21393
802.638	21272
802.78	21233
802.923	21218
803.065	21104
803.208	21081
803.35	21146
803.492	21119
803.635	21275
803.777	21180
803.919	21302
804.061	21511
804.204	21146
804.346	21032
804.488	20941
804.63	21192
804.773	21024
804.915	20971
805.057	21218
805.199	21085
805.341	21131
805.483	21165
805.626	21096
805.768	20952
805.91	21039
806.052	21051
806.194	20963
806.336	21321
806.478	20998
806.62	20880
806.762	21100
806.904	21287
807.046	21477
807.188	21367
807.33	21408
807.472	21496
807.614	21408
807.756	21340
807.898	21275
808.04	21256
808.182	21310
808.324	21157
808.465	21268
808.607	21477
808.749	21625
808.891	21713
809.033	21739
809.174	21595
809.316	21511
809.458	21526
809.6	21500
809.741	21500
809.883	21675
810.025	21679
810.166	21641
810.308	21545
810.45	21595
810.591	21466
810.733	21367
810.875	21252
811.016	21150
811.158	21237
811.299	21348
811.441	21310
811.582	21321
811.724	21157
811.865	21237
812.007	21116
812.148	21138
812.29	21218
812.431	21454
812.573	21454
812.714	21641
812.855	21660
812.997	21743
813.138	21892
813.279	21812
813.421	21618
813.562	21682
813.703	21351
813.845	21233
813.986	21154
814.127	20895
814.268	20686
814.41	20849
814.551	20659
814.692	20701
814.833	20754
814.974	20697
815.115	20640
815.256	20621
815.397	20609
815.539	20758
815.68	20492
815.821	20507
815.962	20495
816.103	20408
816.244	20275
816.385	20187
816.526	20343
816.666	20111
816.807	19822
816.948	19993
817.089	20035
817.23	20035
817.371	19894
817.512	19921
817.653	19906
817.793	19856
817.934	20001
818.075	19989
818.216	19837
818.356	19856
818.497	19803
818.638	19563
818.778	19696
818.919	19620
819.06	19670
819.2	19635
819.341	19837
819.481	19750
819.622	19852
819.762	20134
819.903	20001
820.043	19925
820.184	19959
820.324	19928
820.465	19955
820.605	19784
820.746	19849
820.886	19864
821.026	19890
821.167	19890
821.307	20001
821.447	19765
821.588	19727
821.728	19563
821.868	19441
822.008	19339
822.149	19209
822.289	19259
822.429	19110
822.569	18993
822.709	18863
822.849	18852
822.99	18863
823.13	18764
823.27	18722
823.41	18593
823.55	18547
823.69	18547
823.83	18665
823.97	18483
824.11	18475
824.25	18315
824.389	18422
824.529	18395
824.669	18414
824.809	18525
824.949	18441
825.089	18403
825.228	18422
825.368	18300
825.508	18186
825.648	18163
825.787	18258
825.927	18133
826.067	18174
826.206	18053
826.346	18243
826.485	18190
826.625	18110
826.765	18350
826.904	18171
827.044	17927
827.183	18007
827.323	17779
827.462	17980
827.601	17859
827.741	17859
827.88	17843
828.02	17760
828.159	17779
828.298	17840
828.437	18019
828.577	17798
828.716	17832
828.855	17794
828.994	17570
829.134	17611
829.273	17585
829.412	17657
829.551	17444
829.69	17600
829.829	17642
829.968	17786
830.107	17676
830.246	17592
830.385	17646
830.524	17547
830.663	17337
830.802	17299
830.941	17147
831.08	17162
831.219	17193
831.357	17280
831.496	17376
831.635	17178
831.774	17258
831.913	17109
832.051	16999
832.19	16961
832.329	17056
832.467	16957
832.606	16957
832.744	16850
832.883	16850
833.022	16923
833.16	16927
833.299	16957
833.437	16877
833.576	16961
833.714	16889
833.852	17056
833.991	16934
834.129	16904
834.267	16942
834.406	16972
834.544	16987
834.682	16923
834.821	16934
834.959	17140
835.097	16987
835.235	17006
835.373	16984
835.511	16961
835.65	16961
835.788	16984
835.926	16702
836.064	16603
836.202	16706
836.34	16904
836.478	16927
836.615	16816
836.753	16866
836.891	16999
837.029	16949
837.167	16843
837.305	16790
837.443	16702
837.58	16793
837.718	16812
837.856	16839
837.993	16713
838.131	16759
838.269	16618
838.406	16767
838.544	16611
838.681	16379
838.819	16310
838.956	16344
839.094	16318
839.231	16363
839.369	16421
839.506	16641
839.643	16607
839.781	16280
839.918	16268
840.055	16284
840.193	16295
840.33	16215
840.467	16287
840.604	16242
840.742	16535
840.879	16207
841.016	16226
841.153	16276
841.29	16402
841.427	16238
841.564	16333
841.701	16280
841.838	16196
841.975	16166
842.112	16177
842.249	16169
842.385	16097
842.522	16253
842.659	16105
842.796	16010
842.933	16120
843.069	16048
843.206	16040
843.343	16139
843.479	16143
843.616	15998
843.752	15838
843.889	15827
844.025	16036
844.162	15781
844.298	15968
844.435	15903
844.571	15880
844.708	15876
844.844	16017
844.98	16021
845.117	15994
845.253	15831
845.389	15797
845.525	15854
845.661	15861
845.798	15793
845.934	15846
846.07	15781
846.206	15884
846.342	15960
846.478	15804
846.614	15622
846.75	15363
846.886	15492
847.022	15564
847.158	15488
847.294	15439
847.429	15431
847.565	15454
847.701	15618
847.837	15161
847.972	15051
848.108	15294
848.244	15291
848.379	15070
848.515	15001
848.65	15058
848.786	15032
848.921	15032
849.057	15085
849.192	15131
849.328	14979
849.463	15085
849.598	14944
849.734	15032
849.869	14929
850.004	14868
850.14	14857
850.275	14743
850.41	14727
850.545	14758
850.68	14807
850.815	14868
850.95	14792
851.085	14891
851.22	14895
851.355	14792
851.49	14830
851.625	14701
851.76	14765
851.895	14674
852.03	14598
852.165	14735
852.299	14804
852.434	14880
852.569	14735
852.703	14701
852.838	14868
852.973	14853
853.107	14800
853.242	14788
853.376	14735
853.511	14514
853.645	14636
853.78	14800
853.914	14670
854.048	14488
854.183	14659
854.317	14621
854.451	14796
854.585	14682
854.72	14560
854.854	14697
854.988	14488
855.122	14636
855.256	14488
855.39	14686
855.524	14731
855.658	14564
855.792	14663
855.926	14674
856.06	14758
856.194	14724
856.327	14663
856.461	14697
856.595	14689
856.729	14636
856.862	14758
856.996	14697
857.13	14716
857.263	14735
857.397	14678
857.53	14659
857.664	14693
857.797	14731
857.931	14788
858.064	14739
858.197	14830
858.331	14655
858.464	14530
858.597	14606
858.731	14625
858.864	14590
858.997	14678
859.13	14659
859.263	14834
859.396	14792
859.529	14727
859.662	14590
859.795	14556
859.928	14689
860.061	14849
860.194	14724
860.327	14758
860.46	14693
860.592	14811
860.725	14883
860.858	14678
860.99	14693
861.123	14682
861.256	14644
861.388	14640
861.521	15329
861.653	14522
861.786	14473
861.918	14480
862.05	14632
862.183	14705
862.315	14651
862.447	14716
862.58	14530
862.712	14385
862.844	14404
862.976	14495
863.108	14492
863.24	14838
863.372	14259
863.504	14473
863.636	14427
863.768	14454
863.9	14431
864.032	14339
864.164	14332
864.296	14393
864.428	14469
864.559	14602
864.691	14476
864.823	14362
864.954	14450
865.086	14446
865.217	14355
865.349	14415
865.48	14374
865.612	14389
865.743	14503
865.875	14514
866.006	14480
866.137	14377
866.269	14476
866.4	14438
866.531	14290
866.662	14336
866.793	14370
866.924	14362
867.055	14370
867.186	14400
867.317	14358
867.448	14351
867.579	14336
867.71	14244
867.841	14347
867.972	14461
868.103	14396
868.233	14431
868.364	14328
868.495	14499
868.625	14621
868.756	14712
868.886	14518
869.017	14579
869.147	14750
869.278	14773
869.408	14720
869.539	14598
869.669	14762
869.799	14686
869.929	14754
870.06	14754
870.19	14998
870.32	14925
870.45	14990
870.58	14990
870.71	15119
870.84	15062
870.97	14975
871.1	15001
871.23	15161
871.36	15268
871.489	15203
871.619	15188
871.749	15154
871.879	15146
872.008	15298
872.138	15272
872.267	15283
872.397	15009
872.526	15097
872.656	15039
872.785	15013
872.915	15325
873.044	15264
873.173	15302
873.303	15325
873.432	15355
873.561	15408
873.69	15344
873.819	15306
873.948	15428
874.077	15348
874.206	15222
874.335	15393
874.464	15496
874.593	15667
874.722	15515
874.851	15652
874.979	15591
875.108	15747
875.237	15633
875.365	15507
875.494	15557
875.623	15564
875.751	15519
875.88	15572
876.008	15816
876.136	15698
876.265	15926
876.393	16204
876.521	16078
876.65	16063
876.778	15934
876.906	15979
877.034	15979
877.162	16006
877.29	15808
877.418	16013
877.546	16044
877.674	16006
877.802	15972
877.93	16025
878.058	16029
878.185	15949
878.313	16036
878.441	15983
878.568	16017
878.696	15960
878.824	16017
878.951	16169
879.079	16207
879.206	16379
879.333	16280
879.461	16215
879.588	16211
879.715	16272
879.842	16314
879.97	16181
880.097	15861
880.224	15922
880.351	15812
880.478	15960
880.605	15911
880.732	15884
880.859	16230
880.986	15842
881.112	15907
881.239	15724
881.366	15622
881.493	15675
881.619	15523
881.746	15572
881.872	15473
881.999	15477
882.125	15492
882.252	15515
882.378	15530
882.505	15641
882.631	15504
882.757	15344
882.883	15469
883.01	15374
883.136	15310
883.262	15222
883.388	15283
883.514	15412
883.64	15428
883.766	15302
883.892	15173
884.018	15188
884.143	15302
884.269	15443
884.395	15116
884.52	14994
884.646	14982
884.772	14952
884.897	14994
885.023	15097
885.148	15154
885.274	15176
885.399	15157
885.524	15047
885.65	15070
885.775	15070
885.9	15070
886.025	15256
886.15	15093
886.275	14963
886.4	14887
886.525	15032
886.65	14941
886.775	15017
886.9	15085
887.025	15332
887.149	15032
887.274	14781
887.399	14800
887.523	14895
887.648	14804
887.773	14781
887.897	14929
888.021	14929
888.146	14758
888.27	14952
888.395	15032
888.519	14960
888.643	14914
888.767	14960
888.891	14716
889.015	14746
889.139	14845
889.263	14655
889.387	14785
889.511	14963
889.635	14777
889.759	14727
889.883	14701
890.006	14796
890.13	14864
890.254	14613
890.377	14621
890.501	14457
890.624	14461
890.748	14625
890.871	14511
890.995	14358
891.118	14328
891.241	14438
891.364	14461
891.488	14480
891.611	14450
891.734	14434
891.857	14446
891.98	14442
892.103	14571
892.226	14415
892.349	14415
892.471	14229
892.594	14400
892.717	14317
892.839	14317
892.962	14366
893.085	14389
893.207	14427
893.33	14275
893.452	14400
893.575	14499
893.697	14480
893.819	14621
893.941	14621
894.064	14556
894.186	14355
894.308	14450
894.43	14590
894.552	14549
894.674	14473
894.796	14336
894.918	14404
895.04	14431
895.161	14511
895.283	14556
895.405	14404
895.526	14518
895.648	14545
895.769	14499
895.891	14526
896.012	14640
896.134	14484
896.255	14438
896.376	14583
896.498	14495
896.619	14541
896.74	14587
896.861	14583
896.982	14815
897.103	15161
897.224	14948
897.345	14864
897.466	14735
897.587	14785
897.708	14899
897.828	14933
897.949	14807
898.07	14651
898.19	14899
898.311	14895
898.431	14902
898.552	14921
898.672	14853
898.792	14975
898.913	15024
899.033	14796
899.153	14724
899.273	14655
899.393	14773
899.513	14739
899.633	14811
899.753	14815
899.873	14765
899.993	14762
900.113	14720
900.232	14792
900.352	14750
900.472	14587
900.591	14663
900.711	14541
900.83	14541
900.95	14758
901.069	14788
901.189	14541
901.308	14434
901.427	14244
901.546	14256
901.665	14313
901.784	14396
901.904	14157
902.023	14050
902.141	13925
902.26	13902
902.379	13932
902.498	13860
902.617	13841
902.735	13849
902.854	13761
902.973	13791
903.091	13514
903.21	13514
903.328	13540
903.446	13495
903.565	13339
903.683	13434
903.801	13343
903.919	13415
904.038	13396
904.156	13160
904.274	13377
904.392	13209
904.51	13270
904.627	13255
904.745	13285
904.863	13320
904.981	12973
905.098	12954
905.216	12981
905.334	12924
905.451	12890
905.569	12886
905.686	12924
905.803	12882
905.921	12795
906.038	12878
906.155	12791
906.272	12673
906.389	12684
906.506	12570
906.623	12536
906.74	12502
906.857	12433
906.974	12486
907.091	12566
907.208	12665
907.324	12559
907.441	12407
907.557	12270
907.674	12254
907.79	12239
907.907	12228
908.023	12350
908.139	12224
908.256	12155
908.372	12152
908.488	12136
908.604	12015
908.72	12106
908.836	11999
908.952	11961
909.068	12007
909.184	12053
909.3	12015
909.415	12064
909.531	11977
909.647	11798
909.762	11748
909.878	11764
909.993	11843
910.108	11767
910.224	11665
910.339	11745
910.454	11661
910.57	11638
910.685	11589
910.8	11851
910.915	11737
911.03	11653
911.145	11512
911.259	11478
911.374	11444
911.489	11387
911.604	11387
911.718	11197
911.833	11254
911.947	11098
912.062	11048
912.176	11197
912.291	11239
912.405	11185
912.519	11410
912.633	11364
912.748	11315
912.862	11204
912.976	11098
913.09	10987
913.204	11098
913.318	11086
913.431	11345
913.545	11079
913.659	11193
913.772	11147
913.886	11083
914	10927
914.113	11025
914.226	11033
914.34	11086
914.453	10999
914.566	11090
914.68	10866
914.793	10965
914.906	10687
915.019	10683
915.132	10626
915.245	10630
915.358	10740
915.47	10771
915.583	10793
915.696	10793
915.809	10835
915.921	10820
916.034	10664
916.146	10622
916.259	10622
916.371	10717
916.483	10790
916.595	10694
916.708	10649
916.82	10645
916.932	10664
917.044	10653
917.156	10565
917.268	10504
917.38	10592
917.491	10459
917.603	10584
917.715	10565
917.826	10649
917.938	10538
918.049	10504
918.161	10516
918.272	10649
918.384	10691
918.495	10546
918.606	10329
918.717	10310
918.828	10432
918.939	10398
919.05	10367
919.161	10363
919.272	10219
919.383	10268
919.494	10500
919.604	10637
919.715	10432
919.826	10379
919.936	10344
920.047	10512
920.157	10466
920.267	10656
920.378	10455
920.488	10367
920.598	10603
920.708	10843
920.818	10645
920.928	10664
921.038	10816
921.148	10767
921.258	10352
921.368	10337
921.477	10303
921.587	10192
921.697	10048
921.806	10337
921.916	10162
922.025	9994
922.134	9945
922.244	9850
922.353	10002
922.462	9770
922.571	9899
922.68	9694
922.789	9682
922.898	9663
923.007	9667
923.116	9759
923.224	9717
923.333	9637
923.442	9564
923.55	9496
923.659	9568
923.767	9580
923.876	9519
923.984	9614
924.092	9443
924.201	9485
924.309	9496
924.417	9492
924.525	9454
924.633	9462
924.741	10242
924.849	9310
924.956	9473
925.064	9233
925.172	9199
925.279	9241
925.387	9344
925.494	9325
925.602	9412
925.709	9389
925.816	9268
925.924	9351
926.031	9428
926.138	9302
926.245	9370
926.352	9184
926.459	9363
926.566	9378
926.673	9275
926.779	9138
926.886	9127
926.993	9104
927.099	9047
927.206	8975
927.312	8963
927.419	9097
927.525	8960
927.631	9085
927.737	8937
927.843	8967
927.95	8834
928.056	8937
928.162	8944
928.267	8982
928.373	9584
928.479	9058
928.585	8705
928.69	8895
928.796	8975
928.901	8845
929.007	8716
929.112	8845
929.218	8735
929.323	8796
929.428	8773
929.533	8838
929.638	8701
929.743	8629
929.848	8712
929.953	8781
930.058	8606
930.163	8473
930.267	8480
930.372	8697
930.477	8473
930.581	8705
930.685	8560
930.79	8438
930.894	8415
930.998	8370
931.103	8514
931.207	8202
931.311	8164
931.415	8142
931.519	7944
931.623	7932
