Data from test_V78500241_3715.txt Node
Date: Fri Mar 25 14:59:35 CST 2022
User: usil
Spectrometer: V785-0024
Trigger mode: 0
Integration Time (sec): 4.000000E-1
Scans to average: 1
Nonlinearity correction enabled: false
Boxcar width: 0
Storing dark spectrum: false
XAxis mode: Wavelengths
Number of Pixels in Spectrum: 1024
>>>>>Begin Spectral Data<<<<<
801.071	21903
801.214	21812
801.356	21526
801.499	21553
801.641	21321
801.783	21313
801.926	21283
802.068	21077
802.211	21093
802.353	20982
802.496	20777
802.638	20811
802.78	20750
802.923	20590
803.065	20575
803.208	20495
803.35	20663
803.492	20640
803.635	20636
803.777	20537
803.919	20640
804.061	20902
804.204	20667
804.346	20514
804.488	20488
804.63	20552
804.773	20320
804.915	20484
805.057	20541
805.199	20374
805.341	20560
805.483	20571
805.626	20484
805.768	20431
805.91	20636
806.052	20571
806.194	20434
806.336	20644
806.478	20507
806.62	20488
806.762	20568
806.904	20678
807.046	20731
807.188	20758
807.33	20750
807.472	20838
807.614	20735
807.756	20804
807.898	20564
808.04	20511
808.182	20564
808.324	20552
808.465	20667
808.607	20689
808.749	20815
808.891	20975
809.033	20971
809.174	20967
809.316	20853
809.458	20906
809.6	20883
809.741	20853
809.883	20876
810.025	21024
810.166	21077
810.308	20929
810.45	20845
810.591	20933
810.733	20629
810.875	20564
811.016	20484
811.158	20541
811.299	20644
811.441	20689
811.582	20667
811.724	20541
811.865	20655
812.007	20541
812.148	20488
812.29	20727
812.431	20659
812.573	20918
812.714	20921
812.855	21093
812.997	21207
813.138	21313
813.279	21131
813.421	21131
813.562	21108
813.703	20781
813.845	20708
813.986	20484
814.127	20313
814.268	20172
814.41	20183
814.551	20176
814.692	20252
814.833	20084
814.974	20084
815.115	20187
815.256	20035
815.397	19974
815.539	19967
815.68	20027
815.821	19750
815.962	19921
816.103	19989
816.244	19674
816.385	19552
816.526	19674
816.666	19419
816.807	19316
816.948	19327
817.089	19327
817.23	19419
817.371	19221
817.512	19285
817.653	19164
817.793	19206
817.934	19282
818.075	19240
818.216	19187
818.356	19202
818.497	19202
818.638	18867
818.778	18913
818.919	18970
819.06	18981
819.2	19031
819.341	19133
819.481	19110
819.622	19346
819.762	19594
819.903	19415
820.043	19285
820.184	19312
820.324	19324
820.465	19350
820.605	19202
820.746	19293
820.886	19145
821.026	19247
821.167	19145
821.307	19263
821.447	19217
821.588	19084
821.728	18935
821.868	18871
822.008	18684
822.149	18616
822.289	18684
822.429	18441
822.569	18323
822.709	18395
822.849	18155
822.99	18102
823.13	18159
823.27	18076
823.41	17958
823.55	17958
823.69	17973
823.83	17984
823.97	18030
824.11	17707
824.25	17760
824.389	17737
824.529	17741
824.669	17775
824.809	17840
824.949	17927
825.089	17767
825.228	17672
825.368	17608
825.508	17570
825.648	17474
825.787	17608
825.927	17638
826.067	17417
826.206	17433
826.346	17581
826.485	17543
826.625	17482
826.765	17539
826.904	17520
827.044	17360
827.183	17212
827.323	17147
827.462	17235
827.601	17288
827.741	17269
827.88	17208
828.02	17037
828.159	17155
828.298	17147
828.437	17258
828.577	17208
828.716	17296
828.855	17098
828.994	17029
829.134	16984
829.273	17140
829.412	16889
829.551	16862
829.69	16953
829.829	16938
829.968	17094
830.107	17064
830.246	17025
830.385	16892
830.524	16930
830.663	16831
830.802	16710
830.941	16584
831.08	16565
831.219	16713
831.357	16626
831.496	16949
831.635	16569
831.774	16512
831.913	16592
832.051	16478
832.19	16272
832.329	16504
832.467	16257
832.606	16238
832.744	16341
832.883	16272
833.022	16207
833.16	16398
833.299	16306
833.437	16398
833.576	16409
833.714	16337
833.852	16337
833.991	16329
834.129	16436
834.267	16447
834.406	16363
834.544	16356
834.682	16318
834.821	16322
834.959	16512
835.097	16337
835.235	16447
835.373	16287
835.511	16356
835.65	16344
835.788	16261
835.926	16086
836.064	16131
836.202	16147
836.34	16356
836.478	16348
836.615	16272
836.753	16265
836.891	16280
837.029	16261
837.167	16257
837.305	16177
837.443	16150
837.58	16109
837.718	16219
837.856	16223
837.993	16169
838.131	16078
838.269	16048
838.406	16032
838.544	16082
838.681	15831
838.819	15838
838.956	15717
839.094	15713
839.231	15755
839.369	15842
839.506	16051
839.643	15895
839.781	15637
839.918	15572
840.055	15835
840.193	15751
840.33	15694
840.467	15720
840.604	15713
840.742	15918
840.879	15595
841.016	15622
841.153	15568
841.29	15842
841.427	15720
841.564	15808
841.701	15701
841.838	15660
841.975	15595
842.112	15705
842.249	15466
842.385	15477
842.522	15667
842.659	15549
842.796	15408
842.933	15439
843.069	15473
843.206	15542
843.343	15564
843.479	15469
843.616	15568
843.752	15283
843.889	15317
844.025	15466
844.162	15173
844.298	15287
844.435	15180
844.571	15332
844.708	15340
844.844	15431
844.98	15378
845.117	15435
845.253	15203
845.389	15157
845.525	15291
845.661	15127
845.798	15119
845.934	15146
846.07	15001
846.206	15116
846.342	15218
846.478	15085
846.614	14929
846.75	14826
846.886	14861
847.022	14929
847.158	14960
847.294	14819
847.429	14864
847.565	14750
847.701	15123
847.837	14514
847.972	14552
848.108	14708
848.244	14590
848.379	14461
848.515	14396
848.65	14507
848.786	14492
848.921	14518
849.057	14625
849.192	14537
849.328	14530
849.463	14355
849.598	14412
849.734	14263
849.869	14278
850.004	14164
850.14	14267
850.275	14263
850.41	14145
850.545	14206
850.68	14233
850.815	14290
850.95	14138
851.085	14366
851.22	14267
851.355	14313
851.49	14161
851.625	14157
851.76	14088
851.895	14084
852.03	14096
852.165	14183
852.299	14244
852.434	14339
852.569	14237
852.703	14244
852.838	14240
852.973	14450
853.107	14370
853.242	14229
853.376	14172
853.511	14050
853.645	14008
853.78	14199
853.914	14062
854.048	14081
854.183	13967
854.317	14073
854.451	14237
854.585	14142
854.72	14039
854.854	14195
854.988	13967
855.122	13963
855.256	13890
855.39	14024
855.524	14191
855.658	14199
855.792	14142
855.926	14157
856.06	14180
856.194	14130
856.327	14149
856.461	14035
856.595	14020
856.729	14020
856.862	14206
856.996	14069
857.13	14157
857.263	14259
857.397	14244
857.53	14123
857.664	14126
857.797	14164
857.931	14153
858.064	14088
858.197	14275
858.331	14149
858.464	14164
858.597	14008
858.731	14111
858.864	14149
858.997	14092
859.13	14111
859.263	14111
859.396	14191
859.529	14107
859.662	14031
859.795	14069
859.928	14123
860.061	14256
860.194	14218
860.327	14161
860.46	14096
860.592	14214
860.725	14202
860.858	14275
860.99	14172
861.123	14084
861.256	14024
861.388	14111
861.521	14823
861.653	13978
861.786	13864
861.918	13967
862.05	14096
862.183	14107
862.315	14050
862.447	14065
862.58	13989
862.712	13887
862.844	13833
862.976	14027
863.108	13925
863.24	14282
863.372	13791
863.504	13894
863.636	13833
863.768	13951
863.9	13970
864.032	13864
864.164	13883
864.296	13879
864.428	13932
864.559	13887
864.691	13856
864.823	13936
864.954	14001
865.086	13989
865.217	13852
865.349	13845
865.48	13830
865.612	13864
865.743	14027
865.875	13902
866.006	13818
866.137	13856
866.269	13811
866.4	13849
866.531	13734
866.662	13864
866.793	13750
866.924	13765
867.055	13852
867.186	13894
867.317	13833
867.448	13731
867.579	13811
867.71	13803
867.841	13799
867.972	13849
868.103	13849
868.233	13883
868.364	13818
868.495	13959
868.625	14092
868.756	14161
868.886	13989
869.017	14081
869.147	14195
869.278	14218
869.408	14100
869.539	14172
869.669	14252
869.799	14161
869.929	14278
870.06	14305
870.19	14419
870.32	14469
870.45	14423
870.58	14454
870.71	14545
870.84	14613
870.97	14598
871.1	14590
871.23	14689
871.36	14640
871.489	14575
871.619	14689
871.749	14701
871.879	14743
872.008	14899
872.138	14678
872.267	14727
872.397	14651
872.526	14484
872.656	14530
872.785	14648
872.915	14674
873.044	14762
873.173	14670
873.303	14933
873.432	14762
873.561	14868
873.69	14876
873.819	14716
873.948	14838
874.077	14762
874.206	14735
874.335	14788
874.464	14880
874.593	15005
874.722	15051
874.851	15131
874.979	15112
875.108	15093
875.237	14910
875.365	14982
875.494	14994
875.623	15093
875.751	15074
875.88	15180
876.008	15237
876.136	15344
876.265	15507
876.393	15686
876.521	15637
876.65	15641
876.778	15450
876.906	15538
877.034	15591
877.162	15428
877.29	15431
877.418	15511
877.546	15538
877.674	15523
877.802	15370
877.93	15462
878.058	15405
878.185	15367
878.313	15462
878.441	15477
878.568	15306
878.696	15466
878.824	15534
878.951	15519
879.079	15663
879.206	15717
879.333	15675
879.461	15648
879.588	15568
879.715	15663
879.842	15762
879.97	15614
880.097	15344
880.224	15386
880.351	15382
880.478	15393
880.605	15462
880.732	15363
880.859	15584
880.986	15401
881.112	15355
881.239	15199
881.366	15051
881.493	15188
881.619	14880
881.746	15020
881.872	15070
881.999	15020
882.125	14918
882.252	15039
882.378	15043
882.505	15085
882.631	14941
882.757	14872
882.883	14914
883.01	14838
883.136	14773
883.262	14708
883.388	14689
883.514	14883
883.64	14872
883.766	14743
883.892	14640
884.018	14765
884.143	14804
884.269	14933
884.395	14594
884.52	14556
884.646	14568
884.772	14343
884.897	14537
885.023	14556
885.148	14644
885.274	14629
885.399	14655
885.524	14640
885.65	14629
885.775	14507
885.9	14499
886.025	14598
886.15	14621
886.275	14431
886.4	14427
886.525	14476
886.65	14617
886.775	14473
886.9	14617
887.025	14708
887.149	14610
887.274	14366
887.399	14332
887.523	14286
887.648	14351
887.773	14256
887.897	14499
888.021	14480
888.146	14381
888.27	14457
888.395	14389
888.519	14560
888.643	14366
888.767	14476
888.891	14324
889.015	14275
889.139	14225
889.263	14229
889.387	14298
889.511	14473
889.635	14328
889.759	14123
889.883	14267
890.006	14206
890.13	14415
890.254	14123
890.377	14161
890.501	14073
890.624	14081
890.748	14065
890.871	14031
890.995	13963
891.118	13822
891.241	13959
891.364	14016
891.488	14077
891.611	13887
891.734	13963
891.857	14005
891.98	13974
892.103	14069
892.226	13967
892.349	13921
892.471	13837
892.594	13906
892.717	13955
892.839	13875
892.962	13921
893.085	13986
893.207	13997
893.33	13894
893.452	13852
893.575	14027
893.697	13970
893.819	14054
893.941	14153
894.064	14142
894.186	13913
894.308	13909
894.43	14069
894.552	14134
894.674	14069
894.796	13932
894.918	13967
895.04	13932
895.161	14134
895.283	14050
895.405	14027
895.526	14142
895.648	14024
895.769	14107
895.891	14073
896.012	14119
896.134	14130
896.255	14035
896.376	14005
896.498	14107
896.619	14218
896.74	14191
896.861	14126
896.982	14434
897.103	14590
897.224	14389
897.345	14408
897.466	14358
897.587	14336
897.708	14587
897.828	14427
897.949	14309
898.07	14286
898.19	14396
898.311	14488
898.431	14457
898.552	14408
898.672	14526
898.792	14476
898.913	14503
899.033	14324
899.153	14358
899.273	14290
899.393	14328
899.513	14313
899.633	14252
899.753	14328
899.873	14400
899.993	14339
900.113	14366
900.232	14434
900.352	14275
900.472	14309
900.591	14161
900.711	14221
900.83	14119
900.95	14275
901.069	14278
901.189	14138
901.308	13841
901.427	13811
901.546	13799
901.665	13860
901.784	13887
901.904	13765
902.023	13693
902.141	13525
902.26	13411
902.379	13502
902.498	13438
902.617	13373
902.735	13597
902.854	13445
902.973	13282
903.091	13255
903.21	13137
903.328	13133
903.446	13065
903.565	13031
903.683	13042
903.801	12932
903.919	13069
904.038	12985
904.156	12814
904.274	12882
904.392	12821
904.51	12856
904.627	12852
904.745	12890
904.863	12897
904.981	12597
905.098	12544
905.216	12509
905.334	12479
905.451	12490
905.569	12525
905.686	12578
905.803	12479
905.921	12357
906.038	12517
906.155	12361
906.272	12239
906.389	12262
906.506	12095
906.623	12171
906.74	12064
906.857	11977
906.974	12045
907.091	12155
907.208	12232
907.324	12178
907.441	12034
907.557	11942
907.674	11866
907.79	11748
907.907	11855
908.023	11885
908.139	11923
908.256	11802
908.372	11775
908.488	11794
908.604	11646
908.72	11661
908.836	11657
908.952	11646
909.068	11596
909.184	11672
909.3	11608
909.415	11726
909.531	11589
909.647	11436
909.762	11395
909.878	11337
909.993	11372
910.108	11376
910.224	11448
910.339	11360
910.454	11311
910.57	11273
910.685	11185
910.8	11543
910.915	11391
911.03	11265
911.145	11155
911.259	11102
911.374	11083
911.489	10995
911.604	10972
911.718	10858
911.833	10873
911.947	10839
912.062	10752
912.176	10778
912.291	10835
912.405	10831
912.519	11025
912.633	11113
912.748	10900
912.862	10797
912.976	10774
913.09	10645
913.204	10626
913.318	10744
913.431	10850
913.545	10782
913.659	10835
913.772	10733
913.886	10622
914	10618
914.113	10736
914.226	10786
914.34	10733
914.453	10637
914.566	10683
914.68	10649
914.793	10649
914.906	10413
915.019	10367
915.132	10207
915.245	10344
915.358	10329
915.47	10470
915.583	10443
915.696	10440
915.809	10447
915.921	10569
916.034	10409
916.146	10356
916.259	10314
916.371	10409
916.483	10405
916.595	10356
916.708	10265
916.82	10402
916.932	10280
917.044	10382
917.156	10299
917.268	10207
917.38	10257
917.491	10207
917.603	10238
917.715	10284
917.826	10398
917.938	10211
918.049	10158
918.161	10211
918.272	10375
918.384	10375
918.495	10276
918.606	10169
918.717	9991
918.828	10131
918.939	10185
919.05	10071
919.161	10169
919.272	9907
919.383	10063
919.494	10173
919.604	10341
919.715	10207
919.826	10139
919.936	10143
920.047	10276
920.157	10147
920.267	10402
920.378	10177
920.488	10185
920.598	10318
920.708	10523
920.818	10344
920.928	10386
921.038	10500
921.148	10405
921.258	10158
921.368	10071
921.477	10071
921.587	10044
921.697	9865
921.806	10044
921.916	9850
922.025	9770
922.134	9660
922.244	9641
922.353	9778
922.462	9622
922.571	9606
922.68	9405
922.789	9329
922.898	9298
923.007	9351
923.116	9435
923.224	9431
923.333	9458
923.442	9332
923.55	9214
923.659	9253
923.767	9344
923.876	9146
923.984	9370
924.092	9173
924.201	9275
924.309	9298
924.417	9313
924.525	9207
924.633	9214
924.741	10188
924.849	8998
924.956	9233
925.064	9089
925.172	8963
925.279	8952
925.387	9089
925.494	9081
925.602	9176
925.709	9173
925.816	9047
925.924	9058
926.031	9127
926.138	9165
926.245	9112
926.352	9039
926.459	9074
926.566	9195
926.673	9047
926.779	8906
926.886	8998
926.993	8815
927.099	8750
927.206	8773
927.312	8682
927.419	8834
927.525	8819
927.631	8746
927.737	8670
927.843	8670
927.95	8556
928.056	8651
928.162	8697
928.267	8708
928.373	9253
928.479	8739
928.585	8621
928.69	8682
928.796	8682
928.901	8579
929.007	8434
929.112	8579
929.218	8530
929.323	8514
929.428	8514
929.533	8610
929.638	8419
929.743	8446
929.848	8564
929.953	8469
930.058	8400
930.163	8225
930.267	8294
930.372	8473
930.477	8237
930.581	8473
930.685	8355
930.79	8256
930.894	8225
930.998	8191
931.103	8336
931.207	7986
931.311	7967
931.415	7856
931.519	7723
931.623	7643
