Data from test_V78500241_2518.txt Node
Date: Fri Mar 25 14:51:14 CST 2022
User: usil
Spectrometer: V785-0024
Trigger mode: 0
Integration Time (sec): 4.000000E-1
Scans to average: 1
Nonlinearity correction enabled: false
Boxcar width: 0
Storing dark spectrum: false
XAxis mode: Wavelengths
Number of Pixels in Spectrum: 1024
>>>>>Begin Spectral Data<<<<<
801.071	22086
801.214	21998
801.356	21781
801.499	21587
801.641	21545
801.783	21386
801.926	21515
802.068	21230
802.211	21165
802.353	21252
802.496	20872
802.638	20906
802.78	20944
802.923	20697
803.065	20746
803.208	20648
803.35	20823
803.492	20845
803.635	20944
803.777	20792
803.919	20746
804.061	21127
804.204	20906
804.346	20724
804.488	20663
804.63	20705
804.773	20579
804.915	20697
805.057	20853
805.199	20621
805.341	20682
805.483	20921
805.626	20781
805.768	20765
805.91	20632
806.052	20598
806.194	20575
806.336	20864
806.478	20560
806.62	20629
806.762	20644
806.904	20861
807.046	21062
807.188	21005
807.33	21028
807.472	20914
807.614	20975
807.756	20834
807.898	20708
808.04	20777
808.182	20632
808.324	20819
808.465	20758
808.607	21028
808.749	21081
808.891	21233
809.033	21226
809.174	21108
809.316	21070
809.458	21074
809.6	20880
809.741	21180
809.883	21062
810.025	21195
810.166	21188
810.308	21272
810.45	21192
810.591	21017
810.733	20895
810.875	20777
811.016	20697
811.158	20762
811.299	20800
811.441	20952
811.582	20967
811.724	20918
811.865	20807
812.007	20724
812.148	20823
812.29	20891
812.431	21017
812.573	21093
812.714	21100
812.855	21332
812.997	21485
813.138	21545
813.279	21351
813.421	21344
813.562	21226
813.703	21112
813.845	20941
813.986	20705
814.127	20549
814.268	20313
814.41	20309
814.551	20396
814.692	20415
814.833	20294
814.974	20275
815.115	20434
815.256	20259
815.397	20244
815.539	20183
815.68	20016
815.821	19970
815.962	20077
816.103	20065
816.244	19864
816.385	19894
816.526	19746
816.666	19590
816.807	19563
816.948	19609
817.089	19567
817.23	19533
817.371	19521
817.512	19388
817.653	19419
817.793	19453
817.934	19483
818.075	19441
818.216	19457
818.356	19392
818.497	19304
818.638	19183
818.778	19126
818.919	19179
819.06	19285
819.2	19244
819.341	19346
819.481	19316
819.622	19510
819.762	19772
819.903	19609
820.043	19571
820.184	19495
820.324	19422
820.465	19533
820.605	19502
820.746	19476
820.886	19320
821.026	19392
821.167	19377
821.307	19480
821.447	19373
821.588	19282
821.728	19247
821.868	19012
822.008	18977
822.149	18977
822.289	18795
822.429	18623
822.569	18509
822.709	18551
822.849	18357
822.99	18232
823.13	18395
823.27	18350
823.41	18144
823.55	18140
823.69	18148
823.83	18041
823.97	17988
824.11	18034
824.25	17904
824.389	17958
824.529	18034
824.669	18003
824.809	18045
824.949	18079
825.089	18022
825.228	17802
825.368	17832
825.508	17847
825.648	17748
825.787	17855
825.927	17802
826.067	17600
826.206	17733
826.346	17714
826.485	17767
826.625	17684
826.765	17832
826.904	17836
827.044	17486
827.183	17448
827.323	17391
827.462	17448
827.601	17383
827.741	17341
827.88	17471
828.02	17265
828.159	17425
828.298	17429
828.437	17558
828.577	17307
828.716	17554
828.855	17337
828.994	17303
829.134	17083
829.273	17151
829.412	17136
829.551	17064
829.69	17067
829.829	17220
829.968	17254
830.107	17204
830.246	17231
830.385	17052
830.524	17090
830.663	17025
830.802	16889
830.941	16630
831.08	16691
831.219	16889
831.357	16854
831.496	16965
831.635	16713
831.774	16691
831.913	16649
832.051	16508
832.19	16485
832.329	16558
832.467	16546
832.606	16390
832.744	16512
832.883	16519
833.022	16409
833.16	16481
833.299	16489
833.437	16455
833.576	16409
833.714	16538
833.852	16493
833.991	16580
834.129	16561
834.267	16615
834.406	16455
834.544	16546
834.682	16504
834.821	16531
834.959	16771
835.097	16535
835.235	16554
835.373	16596
835.511	16527
835.65	16455
835.788	16466
835.926	16215
836.064	16341
836.202	16211
836.34	16630
836.478	16443
836.615	16402
836.753	16523
836.891	16588
837.029	16447
837.167	16432
837.305	16436
837.443	16398
837.58	16375
837.718	16371
837.856	16276
837.993	16249
838.131	16394
838.269	16249
838.406	16226
838.544	16143
838.681	16067
838.819	16017
838.956	15876
839.094	15861
839.231	15972
839.369	16036
839.506	16352
839.643	16223
839.781	15869
839.918	15827
840.055	15880
840.193	15789
840.33	15854
840.467	15857
840.604	15956
840.742	16082
840.879	15728
841.016	15770
841.153	15709
841.29	16017
841.427	15899
841.564	15945
841.701	15895
841.838	15804
841.975	15789
842.112	15838
842.249	15701
842.385	15629
842.522	15861
842.659	15690
842.796	15587
842.933	15698
843.069	15698
843.206	15663
843.343	15652
843.479	15743
843.616	15622
843.752	15408
843.889	15363
844.025	15610
844.162	15374
844.298	15500
844.435	15545
844.571	15431
844.708	15473
844.844	15625
844.98	15568
845.117	15538
845.253	15378
845.389	15298
845.525	15382
845.661	15226
845.798	15135
845.934	15279
846.07	15195
846.206	15237
846.342	15329
846.478	15199
846.614	15055
846.75	15005
846.886	15051
847.022	15123
847.158	15066
847.294	15089
847.429	15005
847.565	15051
847.701	15310
847.837	14853
847.972	14731
848.108	14830
848.244	14781
848.379	14598
848.515	14598
848.65	14686
848.786	14655
848.921	14648
849.057	14708
849.192	14670
849.328	14667
849.463	14701
849.598	14568
849.734	14480
849.869	14450
850.004	14446
850.14	14374
850.275	14370
850.41	14343
850.545	14229
850.68	14298
850.815	14324
850.95	14362
851.085	14511
851.22	14552
851.355	14514
851.49	14278
851.625	14343
851.76	14408
851.895	14278
852.03	14199
852.165	14320
852.299	14339
852.434	14495
852.569	14434
852.703	14336
852.838	14446
852.973	14575
853.107	14518
853.242	14366
853.376	14301
853.511	14176
853.645	14237
853.78	14282
853.914	14313
854.048	14225
854.183	14229
854.317	14278
854.451	14400
854.585	14229
854.72	14103
854.854	14347
854.988	14172
855.122	14206
855.256	14092
855.39	14183
855.524	14278
855.658	14267
855.792	14248
855.926	14229
856.06	14328
856.194	14278
856.327	14195
856.461	14252
856.595	14225
856.729	14214
856.862	14301
856.996	14210
857.13	14313
857.263	14317
857.397	14339
857.53	14187
857.664	14267
857.797	14393
857.931	14381
858.064	14362
858.197	14355
858.331	14294
858.464	14168
858.597	14206
858.731	14073
858.864	14187
858.997	14244
859.13	14202
859.263	14286
859.396	14271
859.529	14229
859.662	14161
859.795	14229
859.928	14164
860.061	14408
860.194	14423
860.327	14385
860.46	14263
860.592	14415
860.725	14454
860.858	14400
860.99	14153
861.123	14126
861.256	14244
861.388	14339
861.521	14807
861.653	14138
861.786	14031
861.918	14050
862.05	14168
862.183	14218
862.315	14271
862.447	14290
862.58	14100
862.712	14024
862.844	13932
862.976	14035
863.108	14046
863.24	14366
863.372	13967
863.504	14024
863.636	14043
863.768	14100
863.9	14054
864.032	13970
864.164	13970
864.296	14161
864.428	14111
864.559	14191
864.691	14176
864.823	14256
864.954	13982
865.086	14123
865.217	14001
865.349	13932
865.48	13986
865.612	14016
865.743	14096
865.875	14103
866.006	13963
866.137	14012
866.269	14050
866.4	13982
866.531	13978
866.662	13955
866.793	13940
866.924	13974
867.055	14027
867.186	14100
867.317	13951
867.448	13970
867.579	13993
867.71	13890
867.841	13959
867.972	14039
868.103	13970
868.233	13982
868.364	14001
868.495	14100
868.625	14278
868.756	14374
868.886	14157
869.017	14229
869.147	14381
869.278	14347
869.408	14267
869.539	14286
869.669	14328
869.799	14221
869.929	14492
870.06	14366
870.19	14492
870.32	14594
870.45	14587
870.58	14701
870.71	14754
870.84	14864
870.97	14670
871.1	14598
871.23	14785
871.36	14823
871.489	14693
871.619	14811
871.749	14781
871.879	14785
872.008	15055
872.138	14963
872.267	14838
872.397	14682
872.526	14602
872.656	14758
872.785	14705
872.915	14952
873.044	14937
873.173	14887
873.303	14994
873.432	14918
873.561	14956
873.69	14883
873.819	14887
873.948	14948
874.077	14929
874.206	14838
874.335	14990
874.464	15036
874.593	15150
874.722	15146
874.851	15230
874.979	15249
875.108	15241
875.237	15142
875.365	15119
875.494	15218
875.623	15256
875.751	15165
875.88	15294
876.008	15355
876.136	15473
876.265	15534
876.393	15739
876.521	15644
876.65	15766
876.778	15724
876.906	15614
877.034	15500
877.162	15701
877.29	15538
877.418	15675
877.546	15568
877.674	15705
877.802	15587
877.93	15701
878.058	15652
878.185	15591
878.313	15564
878.441	15682
878.568	15439
878.696	15534
878.824	15682
878.951	15690
879.079	15880
879.206	15934
879.333	15789
879.461	15686
879.588	15629
879.715	15736
879.842	15884
879.97	15739
880.097	15458
880.224	15534
880.351	15633
880.478	15507
880.605	15515
880.732	15466
880.859	15698
880.986	15526
881.112	15488
881.239	15435
881.366	15272
881.493	15230
881.619	15112
881.746	15119
881.872	15142
881.999	15119
882.125	15112
882.252	15237
882.378	15077
882.505	15336
882.631	15131
882.757	15043
882.883	15070
883.01	15043
883.136	14918
883.262	14887
883.388	14842
883.514	15001
883.64	15085
883.766	14891
883.892	14792
884.018	14823
884.143	14963
884.269	15066
884.395	14739
884.52	14693
884.646	14735
884.772	14606
884.897	14514
885.023	14670
885.148	14804
885.274	14796
885.399	14823
885.524	14651
885.65	14689
885.775	14716
885.9	14579
886.025	14743
886.15	14716
886.275	14610
886.4	14598
886.525	14579
886.65	14640
886.775	14522
886.9	14838
887.025	14838
887.149	14724
887.274	14438
887.399	14442
887.523	14533
887.648	14396
887.773	14423
887.897	14594
888.021	14484
888.146	14492
888.27	14552
888.395	14674
888.519	14549
888.643	14568
888.767	14514
888.891	14362
889.015	14305
889.139	14309
889.263	14438
889.387	14438
889.511	14526
889.635	14526
889.759	14362
889.883	14233
890.006	14374
890.13	14434
890.254	14210
890.377	14252
890.501	14134
890.624	14233
890.748	14275
890.871	14168
890.995	14073
891.118	14035
891.241	13989
891.364	14050
891.488	14187
891.611	14050
891.734	14058
891.857	14103
891.98	14126
892.103	14183
892.226	14134
892.349	14088
892.471	13940
892.594	13989
892.717	14008
892.839	13940
892.962	14012
893.085	14088
893.207	14138
893.33	13936
893.452	13963
893.575	14134
893.697	14073
893.819	14305
893.941	14263
894.064	14130
894.186	14008
894.308	14073
894.43	14248
894.552	14294
894.674	14275
894.796	13986
894.918	14119
895.04	14069
895.161	14256
895.283	14225
895.405	14126
895.526	14210
895.648	14031
895.769	14168
895.891	14233
896.012	14328
896.134	14320
896.255	14218
896.376	14237
896.498	14336
896.619	14328
896.74	14229
896.861	14298
896.982	14598
897.103	14720
897.224	14568
897.345	14579
897.466	14541
897.587	14495
897.708	14602
897.828	14465
897.949	14404
898.07	14450
898.19	14503
898.311	14682
898.431	14511
898.552	14636
898.672	14575
898.792	14705
898.913	14549
899.033	14499
899.153	14488
899.273	14362
899.393	14347
899.513	14476
899.633	14347
899.753	14526
899.873	14332
899.993	14434
900.113	14415
900.232	14533
900.352	14495
900.472	14415
900.591	14233
900.711	14248
900.83	14244
900.95	14377
901.069	14374
901.189	14206
901.308	14115
901.427	13947
901.546	13978
901.665	13978
901.784	13928
901.904	13887
902.023	13700
902.141	13601
902.26	13556
902.379	13647
902.498	13438
902.617	13377
902.735	13601
902.854	13597
902.973	13502
903.091	13225
903.21	13335
903.328	13392
903.446	13209
903.565	13312
903.683	13145
903.801	13065
903.919	13091
904.038	13076
904.156	12935
904.274	12973
904.392	12935
904.51	12909
904.627	12966
904.745	12875
904.863	12958
904.981	12749
905.098	12642
905.216	12642
905.334	12627
905.451	12696
905.569	12544
905.686	12703
905.803	12544
905.921	12350
906.038	12506
906.155	12513
906.272	12289
906.389	12471
906.506	12262
906.623	12175
906.74	12239
906.857	12114
906.974	12159
907.091	12262
907.208	12376
907.324	12270
907.441	12159
907.557	11950
907.674	11927
907.79	11946
907.907	11988
908.023	11939
908.139	11969
908.256	11980
908.372	11931
908.488	11847
908.604	11764
908.72	11764
908.836	11828
908.952	11657
909.068	11718
909.184	11882
909.3	11745
909.415	11779
909.531	11710
909.647	11505
909.762	11486
909.878	11471
909.993	11581
910.108	11463
910.224	11448
910.339	11501
910.454	11429
910.57	11391
910.685	11242
910.8	11543
910.915	11539
911.03	11387
911.145	11307
911.259	11143
911.374	11193
911.489	11086
911.604	11022
911.718	11048
911.833	10953
911.947	10854
912.062	10824
912.176	10987
912.291	10934
912.405	10942
912.519	11105
912.633	11052
912.748	10984
912.862	11022
912.976	10850
913.09	10736
913.204	10778
913.318	10892
913.431	10911
913.545	10885
913.659	10987
913.772	10858
913.886	10725
914	10706
914.113	10831
914.226	10850
914.34	10873
914.453	10634
914.566	10820
914.68	10634
914.793	10637
914.906	10462
915.019	10455
915.132	10386
915.245	10478
915.358	10424
915.47	10577
915.583	10443
915.696	10470
915.809	10611
915.921	10645
916.034	10474
916.146	10382
916.259	10363
916.371	10519
916.483	10565
916.595	10287
916.708	10405
916.82	10402
916.932	10405
917.044	10310
917.156	10363
917.268	10280
917.38	10337
917.491	10242
917.603	10306
917.715	10386
917.826	10265
917.938	10246
918.049	10238
918.161	10287
918.272	10402
918.384	10436
918.495	10360
918.606	10268
918.717	10169
918.828	10230
918.939	10139
919.05	10036
919.161	10192
919.272	10036
919.383	10071
919.494	10246
919.604	10352
919.715	10284
919.826	10082
919.936	10204
920.047	10230
920.157	10268
920.267	10394
920.378	10181
920.488	10215
920.598	10402
920.708	10618
920.818	10405
920.928	10478
921.038	10512
921.148	10508
921.258	10200
921.368	10200
921.477	10128
921.587	10044
921.697	9968
921.806	10135
921.916	9968
922.025	9857
922.134	9759
922.244	9717
922.353	9846
922.462	9724
922.571	9648
922.68	9473
922.789	9481
922.898	9557
923.007	9370
923.116	9481
923.224	9481
923.333	9511
923.442	9370
923.55	9389
923.659	9424
923.767	9416
923.876	9363
923.984	9454
924.092	9287
924.201	9435
924.309	9332
924.417	9275
924.525	9313
924.633	9313
924.741	10344
924.849	9085
924.956	9268
925.064	9169
925.172	9093
925.279	9081
925.387	9119
925.494	9184
925.602	9241
925.709	9237
925.816	9036
925.924	9123
926.031	9226
926.138	9157
926.245	9211
926.352	9036
926.459	9275
926.566	9226
926.673	9112
926.779	9047
926.886	9001
926.993	8864
927.099	8918
927.206	8766
927.312	8861
927.419	8921
927.525	8883
927.631	8868
927.737	8864
927.843	8735
927.95	8674
928.056	8727
928.162	8762
928.267	8823
928.373	9397
928.479	8823
928.585	8533
928.69	8746
928.796	8769
928.901	8613
929.007	8499
929.112	8602
929.218	8598
929.323	8571
929.428	8533
929.533	8651
929.638	8469
929.743	8507
929.848	8617
929.953	8617
930.058	8461
930.163	8317
930.267	8476
930.372	8473
930.477	8355
930.581	8552
930.685	8396
930.79	8218
930.894	8229
930.998	8290
931.103	8492
931.207	8103
931.311	8054
931.415	7989
931.519	7772
931.623	7765
