Data from test_V78500241_2101.txt Node
Date: Fri Mar 25 14:48:20 CST 2022
User: usil
Spectrometer: V785-0024
Trigger mode: 0
Integration Time (sec): 4.000000E-1
Scans to average: 1
Nonlinearity correction enabled: false
Boxcar width: 0
Storing dark spectrum: false
XAxis mode: Wavelengths
Number of Pixels in Spectrum: 1024
>>>>>Begin Spectral Data<<<<<
801.071	22318
801.214	22002
801.356	21690
801.499	21580
801.641	21580
801.783	21530
801.926	21580
802.068	21329
802.211	21469
802.353	21272
802.496	20994
802.638	20918
802.78	20990
802.923	20937
803.065	20781
803.208	20830
803.35	20830
803.492	20876
803.635	20941
803.777	20773
803.919	20853
804.061	21123
804.204	20876
804.346	20823
804.488	20716
804.63	20861
804.773	20663
804.915	20849
805.057	20689
805.199	20625
805.341	20857
805.483	20876
805.626	20872
805.768	20636
805.91	20731
806.052	20697
806.194	20606
806.336	20910
806.478	20663
806.62	20819
806.762	20804
806.904	20921
807.046	21211
807.188	21119
807.33	21123
807.472	21112
807.614	21005
807.756	20975
807.898	21043
808.04	20773
808.182	20746
808.324	20815
808.465	20864
808.607	21062
808.749	21013
808.891	21226
809.033	21237
809.174	21195
809.316	21085
809.458	21096
809.6	21032
809.741	21150
809.883	21142
810.025	21370
810.166	21294
810.308	21431
810.45	21287
810.591	21260
810.733	20971
810.875	20941
811.016	20727
811.158	20762
811.299	20899
811.441	21135
811.582	21013
811.724	20937
811.865	20765
812.007	20743
812.148	20918
812.29	20914
812.431	21047
812.573	21192
812.714	21150
812.855	21454
812.997	21466
813.138	21545
813.279	21443
813.421	21306
813.562	21370
813.703	21062
813.845	21127
813.986	20682
814.127	20587
814.268	20621
814.41	20484
814.551	20571
814.692	20499
814.833	20381
814.974	20370
815.115	20389
815.256	20275
815.397	20381
815.539	20305
815.68	20183
815.821	20016
815.962	20233
816.103	20199
816.244	19887
816.385	19925
816.526	19856
816.666	19742
816.807	19483
816.948	19575
817.089	19605
817.23	19635
817.371	19502
817.512	19544
817.653	19575
817.793	19449
817.934	19620
818.075	19540
818.216	19655
818.356	19384
818.497	19221
818.638	19232
818.778	19202
818.919	19225
819.06	19255
819.2	19396
819.341	19263
819.481	19563
819.622	19533
819.762	19723
819.903	19704
820.043	19655
820.184	19601
820.324	19525
820.465	19586
820.605	19632
820.746	19434
820.886	19426
821.026	19434
821.167	19620
821.307	19639
821.447	19384
821.588	19316
821.728	19251
821.868	19107
822.008	19000
822.149	18958
822.289	18951
822.429	18730
822.569	18635
822.709	18681
822.849	18528
822.99	18517
823.13	18483
823.27	18471
823.41	18311
823.55	18197
823.69	18285
823.83	18365
823.97	18174
824.11	17992
824.25	17973
824.389	17988
824.529	18087
824.669	18060
824.809	18140
824.949	18068
825.089	18140
825.228	18049
825.368	17908
825.508	17714
825.648	17783
825.787	17916
825.927	17847
826.067	17817
826.206	17821
826.346	17836
826.485	17741
826.625	17760
826.765	17923
826.904	17946
827.044	17501
827.183	17551
827.323	17402
827.462	17528
827.601	17474
827.741	17433
827.88	17486
828.02	17364
828.159	17410
828.298	17570
828.437	17547
828.577	17398
828.716	17630
828.855	17425
828.994	17250
829.134	17254
829.273	17235
829.412	17162
829.551	17216
829.69	17132
829.829	17277
829.968	17360
830.107	17299
830.246	17379
830.385	17113
830.524	17185
830.663	17102
830.802	16980
830.941	16858
831.08	16866
831.219	17014
831.357	16915
831.496	17067
831.635	16831
831.774	16786
831.913	16675
832.051	16702
832.19	16687
832.329	16809
832.467	16630
832.606	16489
832.744	16519
832.883	16466
833.022	16497
833.16	16569
833.299	16675
833.437	16508
833.576	16615
833.714	16698
833.852	16607
833.991	16622
834.129	16721
834.267	16656
834.406	16622
834.544	16748
834.682	16729
834.821	16535
834.959	16778
835.097	16447
835.235	16790
835.373	16717
835.511	16622
835.65	16478
835.788	16554
835.926	16451
836.064	16257
836.202	16306
836.34	16497
836.478	16523
836.615	16535
836.753	16538
836.891	16611
837.029	16599
837.167	16462
837.305	16421
837.443	16497
837.58	16398
837.718	16531
837.856	16413
837.993	16329
838.131	16386
838.269	16363
838.406	16379
838.544	16352
838.681	16055
838.819	15979
838.956	15857
839.094	15941
839.231	15888
839.369	16093
839.506	16394
839.643	16261
839.781	16032
839.918	15945
840.055	15953
840.193	16021
840.33	15869
840.467	15907
840.604	15892
840.742	16185
840.879	15808
841.016	15888
841.153	15888
841.29	16036
841.427	15987
841.564	15922
841.701	15907
841.838	15926
841.975	15747
842.112	15903
842.249	15709
842.385	15637
842.522	15930
842.659	15755
842.796	15785
842.933	15781
843.069	15622
843.206	15747
843.343	15724
843.479	15675
843.616	15728
843.752	15469
843.889	15469
844.025	15762
844.162	15496
844.298	15553
844.435	15500
844.571	15488
844.708	15553
844.844	15713
844.98	15599
845.117	15679
845.253	15496
845.389	15382
845.525	15397
845.661	15378
845.798	15294
845.934	15367
846.07	15275
846.206	15302
846.342	15428
846.478	15359
846.614	15165
846.75	15127
846.886	15055
847.022	15077
847.158	15176
847.294	15058
847.429	15116
847.565	15081
847.701	15291
847.837	14876
847.972	14864
848.108	14868
848.244	14891
848.379	14727
848.515	14727
848.65	14636
848.786	14708
848.921	14606
849.057	14651
849.192	14857
849.328	14663
849.463	14651
849.598	14636
849.734	14545
849.869	14469
850.004	14408
850.14	14427
850.275	14408
850.41	14366
850.545	14362
850.68	14495
850.815	14404
850.95	14488
851.085	14632
851.22	14442
851.355	14530
851.49	14431
851.625	14438
851.76	14377
851.895	14389
852.03	14415
852.165	14351
852.299	14484
852.434	14495
852.569	14492
852.703	14473
852.838	14541
852.973	14606
853.107	14644
853.242	14518
853.376	14298
853.511	14298
853.645	14275
853.78	14381
853.914	14404
854.048	14286
854.183	14225
854.317	14305
854.451	14514
854.585	14317
854.72	14256
854.854	14377
854.988	14252
855.122	14286
855.256	14202
855.39	14282
855.524	14423
855.658	14404
855.792	14355
855.926	14393
856.06	14282
856.194	14465
856.327	14309
856.461	14172
856.595	14317
856.729	14339
856.862	14465
856.996	14419
857.13	14499
857.263	14278
857.397	14415
857.53	14370
857.664	14301
857.797	14442
857.931	14473
858.064	14351
858.197	14533
858.331	14278
858.464	14275
858.597	14298
858.731	14275
858.864	14225
858.997	14301
859.13	14396
859.263	14355
859.396	14389
859.529	14358
859.662	14301
859.795	14237
859.928	14313
860.061	14469
860.194	14415
860.327	14381
860.46	14309
860.592	14393
860.725	14434
860.858	14412
860.99	14313
861.123	14202
861.256	14210
861.388	14278
861.521	14960
861.653	14244
861.786	14157
861.918	14206
862.05	14332
862.183	14252
862.315	14221
862.447	14336
862.58	14248
862.712	14107
862.844	14073
862.976	14130
863.108	14199
863.24	14488
863.372	14062
863.504	14100
863.636	14172
863.768	14180
863.9	14183
864.032	14062
864.164	14054
864.296	14161
864.428	14183
864.559	14187
864.691	14267
864.823	14210
864.954	14176
865.086	14107
865.217	14016
865.349	14024
865.48	14142
865.612	14119
865.743	14263
865.875	14130
866.006	13936
866.137	14134
866.269	14081
866.4	13997
866.531	14039
866.662	13997
866.793	14065
866.924	14100
867.055	14088
867.186	14050
867.317	14123
867.448	13947
867.579	13951
867.71	14035
867.841	14035
867.972	14050
868.103	14088
868.233	14081
868.364	14035
868.495	14130
868.625	14206
868.756	14473
868.886	14267
869.017	14339
869.147	14492
869.278	14404
869.408	14355
869.539	14404
869.669	14377
869.799	14355
869.929	14389
870.06	14404
870.19	14682
870.32	14648
870.45	14758
870.58	14765
870.71	14819
870.84	14819
870.97	14648
871.1	14754
871.23	14849
871.36	14975
871.489	14735
871.619	14864
871.749	14998
871.879	14956
872.008	14986
872.138	14963
872.267	14975
872.397	14762
872.526	14796
872.656	14682
872.785	14743
872.915	15062
873.044	15001
873.173	14906
873.303	14952
873.432	14937
873.561	15047
873.69	14952
873.819	15009
873.948	15028
874.077	14971
874.206	14952
874.335	15001
874.464	15112
874.593	15173
874.722	15256
874.851	15298
874.979	15306
875.108	15298
875.237	15218
875.365	15169
875.494	15245
875.623	15367
875.751	15218
875.88	15321
876.008	15466
876.136	15450
876.265	15743
876.393	15835
876.521	15808
876.65	15759
876.778	15778
876.906	15652
877.034	15690
877.162	15538
877.29	15679
877.418	15720
877.546	15682
877.674	15751
877.802	15671
877.93	15736
878.058	15656
878.185	15625
878.313	15736
878.441	15759
878.568	15534
878.696	15644
878.824	15770
878.951	15747
879.079	15941
879.206	15922
879.333	15892
879.461	15751
879.588	15774
879.715	15800
879.842	16017
879.97	15766
880.097	15557
880.224	15515
880.351	15485
880.478	15584
880.605	15549
880.732	15462
880.859	15755
880.986	15587
881.112	15584
881.239	15477
881.366	15264
881.493	15260
881.619	15142
881.746	15211
881.872	15203
881.999	15192
882.125	15123
882.252	15241
882.378	15351
882.505	15340
882.631	15245
882.757	14963
882.883	15058
883.01	14994
883.136	14925
883.262	14891
883.388	14750
883.514	15058
883.64	15047
883.766	14948
883.892	14864
884.018	14891
884.143	15097
884.269	15077
884.395	14792
884.52	14697
884.646	14765
884.772	14610
884.897	14594
885.023	14739
885.148	14891
885.274	14902
885.399	14781
885.524	14834
885.65	14800
885.775	14800
885.9	14705
886.025	14853
886.15	14712
886.275	14701
886.4	14678
886.525	14697
886.65	14594
886.775	14621
886.9	14868
887.025	14902
887.149	14781
887.274	14488
887.399	14537
887.523	14541
887.648	14385
887.773	14476
887.897	14651
888.021	14602
888.146	14469
888.27	14651
888.395	14758
888.519	14663
888.643	14571
888.767	14648
888.891	14522
889.015	14377
889.139	14442
889.263	14431
889.387	14415
889.511	14701
889.635	14514
889.759	14358
889.883	14423
890.006	14537
890.13	14533
890.254	14343
890.377	14427
890.501	14252
890.624	14172
890.748	14317
890.871	14180
890.995	14164
891.118	14020
891.241	14130
891.364	14100
891.488	14164
891.611	14111
891.734	14180
891.857	14244
891.98	14176
892.103	14206
892.226	14092
892.349	14153
892.471	14027
892.594	14039
892.717	14073
892.839	14077
892.962	14183
893.085	14149
893.207	14172
893.33	13982
893.452	14005
893.575	14180
893.697	14145
893.819	14275
893.941	14309
894.064	14256
894.186	14134
894.308	14096
894.43	14259
894.552	14423
894.674	14164
894.796	14062
894.918	14199
895.04	14199
895.161	14286
895.283	14161
895.405	14157
895.526	14199
895.648	14252
895.769	14229
895.891	14298
896.012	14351
896.134	14282
896.255	14328
896.376	14237
896.498	14233
896.619	14339
896.74	14187
896.861	14298
896.982	14625
897.103	14731
897.224	14457
897.345	14568
897.466	14533
897.587	14480
897.708	14705
897.828	14590
897.949	14488
898.07	14511
898.19	14571
898.311	14689
898.431	14644
898.552	14663
898.672	14705
898.792	14682
898.913	14743
899.033	14670
899.153	14541
899.273	14366
899.393	14507
899.513	14537
899.633	14507
899.753	14575
899.873	14461
899.993	14503
900.113	14434
900.232	14568
900.352	14377
900.472	14343
900.591	14389
900.711	14362
900.83	14301
900.95	14469
901.069	14522
901.189	14267
901.308	14145
901.427	14039
901.546	14035
901.665	14107
901.784	13978
901.904	13921
902.023	13940
902.141	13715
902.26	13636
902.379	13734
902.498	13567
902.617	13609
902.735	13681
902.854	13624
902.973	13499
903.091	13308
903.21	13289
903.328	13381
903.446	13244
903.565	13228
903.683	13175
903.801	13099
903.919	13099
904.038	13156
904.156	12924
904.274	13038
904.392	12996
904.51	13038
904.627	12996
904.745	13122
904.863	13053
904.981	12829
905.098	12711
905.216	12662
905.334	12703
905.451	12700
905.569	12722
905.686	12658
905.803	12658
905.921	12513
906.038	12604
906.155	12513
906.272	12376
906.389	12369
906.506	12372
906.623	12247
906.74	12254
906.857	12129
906.974	12190
907.091	12296
907.208	12403
907.324	12315
907.441	12239
907.557	12034
907.674	12038
907.79	11984
907.907	12079
908.023	11999
908.139	12034
908.256	11973
908.372	11992
908.488	11874
908.604	11817
908.72	11733
908.836	11779
908.952	11726
909.068	11824
909.184	11855
909.3	11798
909.415	11764
909.531	11760
909.647	11573
909.762	11543
909.878	11497
909.993	11627
910.108	11543
910.224	11535
910.339	11566
910.454	11528
910.57	11474
910.685	11330
910.8	11646
910.915	11516
911.03	11425
911.145	11204
911.259	11277
911.374	11227
911.489	11220
911.604	11109
911.718	11086
911.833	11041
911.947	10869
912.062	10797
912.176	10953
912.291	11025
912.405	10980
912.519	11166
912.633	11269
912.748	11045
912.862	11048
912.976	10862
913.09	10797
913.204	10877
913.318	10850
913.431	11010
913.545	10900
913.659	10972
913.772	10866
913.886	10706
914	10866
914.113	10858
914.226	10850
914.34	10793
914.453	10694
914.566	10854
914.68	10717
914.793	10717
914.906	10565
915.019	10500
915.132	10394
915.245	10500
915.358	10535
915.47	10538
915.583	10527
915.696	10554
915.809	10694
915.921	10641
916.034	10508
916.146	10462
916.259	10413
916.371	10630
916.483	10485
916.595	10360
916.708	10421
916.82	10550
916.932	10428
917.044	10455
917.156	10325
917.268	10249
917.38	10356
917.491	10390
917.603	10386
917.715	10462
917.826	10485
917.938	10299
918.049	10261
918.161	10276
918.272	10459
918.384	10421
918.495	10379
918.606	10177
918.717	10120
918.828	10257
918.939	10276
919.05	10173
919.161	10147
919.272	9964
919.383	10147
919.494	10257
919.604	10409
919.715	10284
919.826	10101
919.936	10154
920.047	10249
920.157	10223
920.267	10489
920.378	10291
920.488	10147
920.598	10386
920.708	10580
920.818	10462
920.928	10428
921.038	10615
921.148	10607
921.258	10234
921.368	10143
921.477	10109
921.587	10090
921.697	9945
921.806	10078
921.916	9934
922.025	9945
922.134	9789
922.244	9709
922.353	9850
922.462	9663
922.571	9553
922.68	9530
922.789	9462
922.898	9389
923.007	9496
923.116	9580
923.224	9412
923.333	9469
923.442	9355
923.55	9336
923.659	9386
923.767	9454
923.876	9355
923.984	9462
924.092	9294
924.201	9355
924.309	9378
924.417	9382
924.525	9279
924.633	9340
924.741	10246
924.849	9074
924.956	9283
925.064	9116
925.172	9089
925.279	9131
925.387	9112
925.494	9104
925.602	9268
925.709	9313
925.816	9131
925.924	9093
926.031	9203
926.138	9165
926.245	9150
926.352	9058
926.459	9146
926.566	9180
926.673	9116
926.779	9051
926.886	9005
926.993	8956
927.099	8826
927.206	8800
927.312	8796
927.419	8975
927.525	8834
927.631	8853
927.737	8819
927.843	8788
927.95	8587
928.056	8746
928.162	8746
928.267	8727
928.373	9420
928.479	8781
928.585	8632
928.69	8807
928.796	8743
928.901	8727
929.007	8461
929.112	8735
929.218	8621
929.323	8560
929.428	8579
929.533	8651
929.638	8579
929.743	8564
929.848	8610
929.953	8587
930.058	8507
930.163	8275
930.267	8336
930.372	8461
930.477	8221
930.581	8560
930.685	8446
930.79	8252
930.894	8301
930.998	8271
931.103	8427
931.207	8103
931.311	8027
931.415	7970
931.519	7761
931.623	7769
