Data from test_V78500241_1611.txt Node
Date: Fri Mar 25 14:44:55 CST 2022
User: usil
Spectrometer: V785-0024
Trigger mode: 0
Integration Time (sec): 4.000000E-1
Scans to average: 1
Nonlinearity correction enabled: false
Boxcar width: 0
Storing dark spectrum: false
XAxis mode: Wavelengths
Number of Pixels in Spectrum: 1024
>>>>>Begin Spectral Data<<<<<
801.071	22379
801.214	22303
801.356	22128
801.499	21838
801.641	21808
801.783	21732
801.926	21633
802.068	21648
802.211	21595
802.353	21393
802.496	21340
802.638	21230
802.78	21230
802.923	21222
803.065	21001
803.208	20895
803.35	20960
803.492	21233
803.635	21127
803.777	21058
803.919	21024
804.061	21283
804.204	21096
804.346	21112
804.488	20868
804.63	21009
804.773	20868
804.915	21066
805.057	21112
805.199	21024
805.341	21051
805.483	21173
805.626	21070
805.768	21009
805.91	21017
806.052	21066
806.194	20944
806.336	21058
806.478	20956
806.62	20944
806.762	20998
806.904	21131
807.046	21370
807.188	21336
807.33	21279
807.472	21336
807.614	21157
807.756	21237
807.898	21131
808.04	20960
808.182	21123
808.324	21024
808.465	21108
808.607	21359
808.749	21534
808.891	21610
809.033	21587
809.174	21595
809.316	21367
809.458	21374
809.6	21336
809.741	21523
809.883	21496
810.025	21633
810.166	21583
810.308	21469
810.45	21564
810.591	21378
810.733	21348
810.875	21222
811.016	21077
811.158	21028
811.299	21180
811.441	21340
811.582	21245
811.724	21283
811.865	21032
812.007	21211
812.148	21100
812.29	21131
812.431	21260
812.573	21492
812.714	21519
812.855	21713
812.997	21667
813.138	21892
813.279	21797
813.421	21690
813.562	21549
813.703	21408
813.845	21340
813.986	21020
814.127	20937
814.268	20830
814.41	20746
814.551	20697
814.692	20830
814.833	20568
814.974	20644
815.115	20549
815.256	20587
815.397	20480
815.539	20571
815.68	20484
815.821	20374
815.962	20533
816.103	20339
816.244	20408
816.385	20134
816.526	20252
816.666	19909
816.807	19841
816.948	20001
817.089	19932
817.23	19818
817.371	19841
817.512	19871
817.653	19799
817.793	19784
817.934	19909
818.075	19864
818.216	19841
818.356	19818
818.497	19696
818.638	19594
818.778	19552
818.919	19628
819.06	19495
819.2	19628
819.341	19620
819.481	19632
819.622	19670
819.762	20024
819.903	19875
820.043	19871
820.184	19814
820.324	19784
820.465	19898
820.605	19894
820.746	19693
820.886	19700
821.026	19761
821.167	19833
821.307	19803
821.447	19677
821.588	19613
821.728	19556
821.868	19320
822.008	19244
822.149	19202
822.289	19228
822.429	18993
822.569	18837
822.709	18871
822.849	18692
822.99	18726
823.13	18669
823.27	18646
823.41	18502
823.55	18498
823.69	18563
823.83	18506
823.97	18410
824.11	18270
824.25	18289
824.389	18365
824.529	18327
824.669	18292
824.809	18448
824.949	18315
825.089	18235
825.228	18254
825.368	18125
825.508	18038
825.648	18133
825.787	18155
825.927	18152
826.067	18007
826.206	18076
826.346	18030
826.485	18041
826.625	17893
826.765	18003
826.904	18144
827.044	17935
827.183	17847
827.323	17707
827.462	17824
827.601	17802
827.741	17604
827.88	17790
828.02	17634
828.159	17786
828.298	17783
828.437	17775
828.577	17741
828.716	17851
828.855	17718
828.994	17543
829.134	17490
829.273	17649
829.412	17417
829.551	17425
829.69	17478
829.829	17478
829.968	17486
830.107	17570
830.246	17509
830.385	17448
830.524	17471
830.663	17368
830.802	17284
830.941	17159
831.08	17162
831.219	17166
831.357	17143
831.496	17383
831.635	17060
831.774	16930
831.913	16919
832.051	16866
832.19	16885
832.329	17003
832.467	16820
832.606	16767
832.744	16710
832.883	16713
833.022	16816
833.16	16911
833.299	16892
833.437	16839
833.576	16934
833.714	16862
833.852	16835
833.991	16843
834.129	16965
834.267	16854
834.406	16835
834.544	16900
834.682	16862
834.821	16812
834.959	17033
835.097	16771
835.235	16850
835.373	16744
835.511	16858
835.65	16740
835.788	16858
835.926	16565
836.064	16645
836.202	16535
836.34	16790
836.478	16820
836.615	16790
836.753	16828
836.891	16843
837.029	16797
837.167	16679
837.305	16611
837.443	16664
837.58	16615
837.718	16786
837.856	16573
837.993	16497
838.131	16603
838.269	16455
838.406	16459
838.544	16428
838.681	16424
838.819	16204
838.956	16173
839.094	16169
839.231	16169
839.369	16306
839.506	16447
839.643	16310
839.781	16249
839.918	16090
840.055	16147
840.193	16188
840.33	16131
840.467	16124
840.604	16150
840.742	16341
840.879	15991
841.016	16032
841.153	16013
841.29	16200
841.427	16265
841.564	16211
841.701	16261
841.838	16101
841.975	16040
842.112	16025
842.249	15880
842.385	15869
842.522	16036
842.659	15823
842.796	15869
842.933	15991
843.069	15880
843.206	15918
843.343	16017
843.479	15876
843.616	15846
843.752	15732
843.889	15656
844.025	15732
844.162	15701
844.298	15899
844.435	15675
844.571	15633
844.708	15819
844.844	15800
844.98	15857
845.117	15747
845.253	15663
845.389	15641
845.525	15690
845.661	15690
845.798	15542
845.934	15618
846.07	15637
846.206	15561
846.342	15690
846.478	15492
846.614	15321
846.75	15184
846.886	15233
847.022	15287
847.158	15336
847.294	15222
847.429	15279
847.565	15249
847.701	15485
847.837	15093
847.972	14891
848.108	15077
848.244	15055
848.379	14925
848.515	14815
848.65	14754
848.786	14872
848.921	14895
849.057	14891
849.192	14990
849.328	14929
849.463	14929
849.598	14819
849.734	14781
849.869	14720
850.004	14590
850.14	14769
850.275	14686
850.41	14533
850.545	14594
850.68	14610
850.815	14727
850.95	14606
851.085	14834
851.22	14788
851.355	14621
851.49	14636
851.625	14632
851.76	14564
851.895	14499
852.03	14549
852.165	14594
852.299	14617
852.434	14678
852.569	14724
852.703	14667
852.838	14678
852.973	14845
853.107	14792
853.242	14644
853.376	14488
853.511	14343
853.645	14431
853.78	14514
853.914	14522
854.048	14530
854.183	14499
854.317	14571
854.451	14701
854.585	14450
854.72	14389
854.854	14514
854.988	14377
855.122	14484
855.256	14351
855.39	14396
855.524	14571
855.658	14655
855.792	14526
855.926	14484
856.06	14465
856.194	14610
856.327	14476
856.461	14476
856.595	14427
856.729	14533
856.862	14644
856.996	14556
857.13	14613
857.263	14613
857.397	14629
857.53	14507
857.664	14621
857.797	14598
857.931	14621
858.064	14587
858.197	14541
858.331	14545
858.464	14533
858.597	14347
858.731	14431
858.864	14450
858.997	14568
859.13	14465
859.263	14552
859.396	14469
859.529	14518
859.662	14389
859.795	14396
859.928	14457
860.061	14678
860.194	14689
860.327	14442
860.46	14579
860.592	14541
860.725	14610
860.858	14610
860.99	14526
861.123	14351
861.256	14431
861.388	14461
861.521	15298
861.653	14221
861.786	14385
861.918	14431
862.05	14415
862.183	14419
862.315	14530
862.447	14476
862.58	14412
862.712	14191
862.844	14214
862.976	14381
863.108	14282
863.24	14823
863.372	14267
863.504	14294
863.636	14320
863.768	14263
863.9	14465
864.032	14195
864.164	14164
864.296	14290
864.428	14393
864.559	14381
864.691	14431
864.823	14324
864.954	14313
865.086	14252
865.217	14275
865.349	14092
865.48	14240
865.612	14263
865.743	14385
865.875	14225
866.006	14282
866.137	14317
866.269	14180
866.4	14256
866.531	14183
866.662	14275
866.793	14225
866.924	14210
867.055	14271
867.186	14214
867.317	14218
867.448	14142
867.579	14142
867.71	14149
867.841	14092
867.972	14183
868.103	14267
868.233	14282
868.364	14221
868.495	14309
868.625	14415
868.756	14583
868.886	14488
869.017	14503
869.147	14606
869.278	14568
869.408	14495
869.539	14511
869.669	14682
869.799	14522
869.929	14583
870.06	14701
870.19	14693
870.32	14811
870.45	14834
870.58	14861
870.71	15001
870.84	14975
870.97	14872
871.1	14826
871.23	15112
871.36	15066
871.489	15028
871.619	15142
871.749	15116
871.879	15233
872.008	15104
872.138	15176
872.267	15077
872.397	14937
872.526	14948
872.656	14891
872.785	14956
872.915	15184
873.044	15146
873.173	15081
873.303	15138
873.432	15161
873.561	15154
873.69	15218
873.819	15070
873.948	15283
874.077	15157
874.206	15066
874.335	15135
874.464	15279
874.593	15443
874.722	15374
874.851	15473
874.979	15439
875.108	15485
875.237	15450
875.365	15298
875.494	15545
875.623	15599
875.751	15424
875.88	15504
876.008	15595
876.136	15633
876.265	15781
876.393	16006
876.521	15968
876.65	15911
876.778	15800
876.906	15838
877.034	15774
877.162	15812
877.29	15846
877.418	15991
877.546	15819
877.674	15842
877.802	15869
877.93	15895
878.058	15865
878.185	15739
878.313	15808
878.441	15831
878.568	15629
878.696	15804
878.824	15930
878.951	16032
879.079	16078
879.206	16268
879.333	16090
879.461	15972
879.588	16093
879.715	16139
879.842	16162
879.97	15960
880.097	15751
880.224	15705
880.351	15709
880.478	15819
880.605	15641
880.732	15682
880.859	15918
880.986	15819
881.112	15766
881.239	15599
881.366	15584
881.493	15462
881.619	15351
881.746	15374
881.872	15424
881.999	15359
882.125	15203
882.252	15447
882.378	15378
882.505	15477
882.631	15260
882.757	15123
882.883	15195
883.01	15116
883.136	15123
883.262	15058
883.388	15070
883.514	15150
883.64	15173
883.766	15184
883.892	15005
884.018	15055
884.143	15176
884.269	15233
884.395	15017
884.52	14925
884.646	14845
884.772	14819
884.897	14811
885.023	15039
885.148	14948
885.274	14975
885.399	14994
885.524	14838
885.65	14929
885.775	14921
885.9	14857
886.025	14986
886.15	15017
886.275	14804
886.4	14792
886.525	14845
886.65	14853
886.775	14807
886.9	15005
887.025	15123
887.149	14979
887.274	14861
887.399	14651
887.523	14735
887.648	14667
887.773	14564
887.897	14849
888.021	14739
888.146	14682
888.27	14819
888.395	14883
888.519	14807
888.643	14743
888.767	14807
888.891	14663
889.015	14587
889.139	14617
889.263	14495
889.387	14682
889.511	14826
889.635	14659
889.759	14545
889.883	14549
890.006	14579
890.13	14689
890.254	14465
890.377	14434
890.501	14385
890.624	14396
890.748	14476
890.871	14362
890.995	14187
891.118	14199
891.241	14275
891.364	14240
891.488	14385
891.611	14240
891.734	14336
891.857	14336
891.98	14355
892.103	14339
892.226	14252
892.349	14324
892.471	14180
892.594	14195
892.717	14313
892.839	14301
892.962	14263
893.085	14309
893.207	14313
893.33	14176
893.452	14199
893.575	14237
893.697	14286
893.819	14355
893.941	14606
894.064	14362
894.186	14244
894.308	14244
894.43	14305
894.552	14377
894.674	14339
894.796	14218
894.918	14339
895.04	14286
895.161	14389
895.283	14374
895.405	14229
895.526	14377
895.648	14476
895.769	14389
895.891	14313
896.012	14533
896.134	14465
896.255	14507
896.376	14469
896.498	14408
896.619	14499
896.74	14499
896.861	14469
896.982	14746
897.103	14937
897.224	14788
897.345	14731
897.466	14659
897.587	14621
897.708	14842
897.828	14769
897.949	14739
898.07	14632
898.19	14686
898.311	14857
898.431	14777
898.552	14773
898.672	14826
898.792	14899
898.913	14864
899.033	14765
899.153	14731
899.273	14457
899.393	14617
899.513	14602
899.633	14659
899.753	14518
899.873	14606
899.993	14693
900.113	14682
900.232	14689
900.352	14644
900.472	14602
900.591	14522
900.711	14564
900.83	14503
900.95	14590
901.069	14530
901.189	14431
901.308	14275
901.427	14252
901.546	14259
901.665	14172
901.784	14271
901.904	14065
902.023	13921
902.141	13791
902.26	13696
902.379	13830
902.498	13715
902.617	13738
902.735	13780
902.854	13776
902.973	13662
903.091	13495
903.21	13521
903.328	13529
903.446	13369
903.565	13377
903.683	13407
903.801	13168
903.919	13225
904.038	13343
904.156	13103
904.274	13122
904.392	13171
904.51	13171
904.627	13149
904.745	13160
904.863	13103
904.981	12947
905.098	12882
905.216	12848
905.334	12882
905.451	12852
905.569	12753
905.686	12878
905.803	12909
905.921	12589
906.038	12787
906.155	12642
906.272	12509
906.389	12555
906.506	12372
906.623	12410
906.74	12277
906.857	12304
906.974	12369
907.091	12445
907.208	12490
907.324	12452
907.441	12323
907.557	12167
907.674	12213
907.79	12079
907.907	12121
908.023	12098
908.139	12201
908.256	12117
908.372	12068
908.488	12041
908.604	11954
908.72	11912
908.836	11863
908.952	11889
909.068	11931
909.184	12015
909.3	11901
909.415	11935
909.531	11904
909.647	11729
909.762	11684
909.878	11646
909.993	11661
910.108	11577
910.224	11608
910.339	11642
910.454	11573
910.57	11551
910.685	11376
910.8	11703
910.915	11668
911.03	11558
911.145	11402
911.259	11379
911.374	11383
911.489	11254
911.604	11231
911.718	11124
911.833	11075
911.947	11003
912.062	10949
912.176	11109
912.291	11136
912.405	10995
912.519	11353
912.633	11353
912.748	11162
912.862	11178
912.976	10976
913.09	10968
913.204	10927
913.318	11006
913.431	10991
913.545	11094
913.659	11071
913.772	11048
913.886	10885
914	10915
914.113	10942
914.226	11033
914.34	10961
914.453	10839
914.566	10919
914.68	10790
914.793	10786
914.906	10656
915.019	10577
915.132	10519
915.245	10626
915.358	10611
915.47	10714
915.583	10694
915.696	10664
915.809	10778
915.921	10733
916.034	10584
916.146	10596
916.259	10489
916.371	10744
916.483	10653
916.595	10497
916.708	10622
916.82	10424
916.932	10527
917.044	10577
917.156	10455
917.268	10432
917.38	10489
917.491	10432
917.603	10443
917.715	10493
917.826	10466
917.938	10352
918.049	10341
918.161	10428
918.272	10561
918.384	10615
918.495	10504
918.606	10382
918.717	10253
918.828	10249
918.939	10394
919.05	10257
919.161	10344
919.272	10150
919.383	10177
919.494	10303
919.604	10580
919.715	10394
919.826	10261
919.936	10325
920.047	10337
920.157	10325
920.267	10497
920.378	10371
920.488	10352
920.598	10474
920.708	10618
920.818	10443
920.928	10565
921.038	10725
921.148	10615
921.258	10462
921.368	10310
921.477	10173
921.587	10139
921.697	10032
921.806	10185
921.916	10093
922.025	9869
922.134	9903
922.244	9808
922.353	9934
922.462	9812
922.571	9671
922.68	9656
922.789	9568
922.898	9644
923.007	9507
923.116	9671
923.224	9644
923.333	9580
923.442	9488
923.55	9466
923.659	9428
923.767	9561
923.876	9504
923.984	9576
924.092	9367
924.201	9519
924.309	9431
924.417	9519
924.525	9386
924.633	9378
924.741	10135
924.849	9241
924.956	9382
925.064	9302
925.172	9108
925.279	9184
925.387	9256
925.494	9256
925.602	9378
925.709	9332
925.816	9176
925.924	9264
926.031	9313
926.138	9249
926.245	9264
926.352	9161
926.459	9313
926.566	9332
926.673	9195
926.779	9077
926.886	9066
926.993	8944
927.099	8948
927.206	8944
927.312	8823
927.419	9020
927.525	8979
927.631	9043
927.737	8857
927.843	8766
927.95	8735
928.056	8811
928.162	8800
928.267	8861
928.373	9408
928.479	8910
928.585	8701
928.69	8815
928.796	8921
928.901	8724
929.007	8636
929.112	8712
929.218	8663
929.323	8621
929.428	8640
929.533	8826
929.638	8545
929.743	8629
929.848	8663
929.953	8663
930.058	8594
930.163	8351
930.267	8431
930.372	8549
930.477	8461
930.581	8590
930.685	8431
930.79	8298
930.894	8389
930.998	8374
931.103	8518
931.207	8229
931.311	8119
931.415	8024
931.519	7822
931.623	7913
