Data from test_V78500241_902.txt Node
Date: Fri Mar 25 14:39:59 CST 2022
User: usil
Spectrometer: V785-0024
Trigger mode: 0
Integration Time (sec): 4.000000E-1
Scans to average: 1
Nonlinearity correction enabled: false
Boxcar width: 0
Storing dark spectrum: false
XAxis mode: Wavelengths
Number of Pixels in Spectrum: 1024
>>>>>Begin Spectral Data<<<<<
801.071	25175
801.214	24970
801.356	24719
801.499	24669
801.641	24376
801.783	24456
801.926	24471
802.068	24308
802.211	24254
802.353	24079
802.496	24007
802.638	24015
802.78	23779
802.923	23756
803.065	23733
803.208	23691
803.35	23828
803.492	23809
803.635	23901
803.777	23798
803.919	23920
804.061	24087
804.204	23863
804.346	23821
804.488	23680
804.63	23710
804.773	23665
804.915	23760
805.057	23836
805.199	23718
805.341	23874
805.483	23908
805.626	23946
805.768	23870
805.91	23813
806.052	23832
806.194	23843
806.336	24155
806.478	24072
806.62	24163
806.762	24247
806.904	24342
807.046	24764
807.188	24658
807.33	24787
807.472	24939
807.614	25046
807.756	25148
807.898	25441
808.04	25540
808.182	26107
808.324	26708
808.465	27252
808.607	28090
808.749	28828
808.891	29246
809.033	29239
809.174	28664
809.316	27987
809.458	27416
809.6	26629
809.741	26172
809.883	25769
810.025	25635
810.166	25228
810.308	25107
810.45	24909
810.591	24890
810.733	24559
810.875	24388
811.016	24273
811.158	24395
811.299	24426
811.441	24441
811.582	24334
811.724	24144
811.865	24007
812.007	24007
812.148	24026
812.29	24110
812.431	24190
812.573	24372
812.714	24494
812.855	24410
812.997	24547
813.138	24798
813.279	24745
813.421	24528
813.562	24471
813.703	24251
813.845	24144
813.986	23786
814.127	23680
814.268	23452
814.41	23581
814.551	23452
814.692	23573
814.833	23387
814.974	23429
815.115	23539
815.256	23235
815.397	23269
815.539	23280
815.68	23307
815.821	23227
815.962	23265
816.103	23216
816.244	23014
816.385	22904
816.526	22820
816.666	22839
816.807	22691
816.948	22771
817.089	22790
817.23	22615
817.371	22588
817.512	22577
817.653	22626
817.793	22546
817.934	22664
818.075	22656
818.216	22653
818.356	22630
818.497	22386
818.638	22276
818.778	22246
818.919	22295
819.06	22284
819.2	22284
819.341	22573
819.481	22497
819.622	22603
819.762	22786
819.903	22843
820.043	22573
820.184	22470
820.324	22596
820.465	22618
820.605	22538
820.746	22618
820.886	22265
821.026	22462
821.167	22554
821.307	22554
821.447	22432
821.588	22295
821.728	22196
821.868	22074
822.008	21930
822.149	21808
822.289	21751
822.429	21515
822.569	21595
822.709	21412
822.849	21233
822.99	21302
823.13	21332
823.27	21291
823.41	21165
823.55	20944
823.69	21119
823.83	21093
823.97	21119
824.11	20864
824.25	20857
824.389	20849
824.529	20937
824.669	20883
824.809	20895
824.949	20956
825.089	20914
825.228	20914
825.368	20705
825.508	20735
825.648	20659
825.787	20712
825.927	20686
826.067	20613
826.206	20590
826.346	20648
826.485	20705
826.625	20686
826.765	20826
826.904	20682
827.044	20370
827.183	20290
827.323	20328
827.462	20415
827.601	20324
827.741	20237
827.88	20305
828.02	20298
828.159	20199
828.298	20404
828.437	20396
828.577	20267
828.716	20343
828.855	20221
828.994	19967
829.134	20008
829.273	20039
829.412	19902
829.551	19967
829.69	19940
829.829	20046
829.968	20092
830.107	20016
830.246	20016
830.385	19986
830.524	19955
830.663	19803
830.802	19693
830.941	19502
831.08	19594
831.219	19639
831.357	19727
831.496	19902
831.635	19647
831.774	19556
831.913	19540
832.051	19434
832.19	19335
832.329	19419
832.467	19480
832.606	19285
832.744	19285
832.883	19331
833.022	19274
833.16	19209
833.299	19422
833.437	19377
833.576	19506
833.714	19563
833.852	19628
833.991	19529
834.129	19567
834.267	19540
834.406	19525
834.544	19556
834.682	19460
834.821	19460
834.959	19624
835.097	19483
835.235	19510
835.373	19308
835.511	19384
835.65	19293
835.788	19244
835.926	19050
836.064	19012
836.202	19050
836.34	19183
836.478	19293
836.615	19179
836.753	19110
836.891	19110
837.029	19179
837.167	19095
837.305	19080
837.443	19034
837.58	18852
837.718	18996
837.856	19061
837.993	18894
838.131	18977
838.269	18890
838.406	18928
838.544	18817
838.681	18616
838.819	18604
838.956	18490
839.094	18452
839.231	18517
839.369	18639
839.506	18829
839.643	18681
839.781	18418
839.918	18380
840.055	18521
840.193	18433
840.33	18407
840.467	18506
840.604	18399
840.742	18608
840.879	18327
841.016	18422
841.153	18270
841.29	18437
841.427	18334
841.564	18521
841.701	18357
841.838	18277
841.975	18254
842.112	18304
842.249	18152
842.385	18178
842.522	18361
842.659	18174
842.796	18114
842.933	18186
843.069	18152
843.206	18140
843.343	18277
843.479	18197
843.616	18205
843.752	18011
843.889	17999
844.025	18076
844.162	18007
844.298	18163
844.435	18019
844.571	18022
844.708	18182
844.844	18475
844.98	18437
845.117	18551
845.253	18513
845.389	18825
845.525	19582
845.661	20636
845.798	22048
845.934	23220
846.07	23554
846.206	23505
846.342	22831
846.478	21203
846.614	19997
846.75	18859
846.886	18403
847.022	18209
847.158	17893
847.294	17771
847.429	17653
847.565	17630
847.701	17805
847.837	17273
847.972	17208
848.108	17341
848.244	17273
848.379	17060
848.515	17075
848.65	16999
848.786	17140
848.921	17067
849.057	17162
849.192	17124
849.328	17121
849.463	17140
849.598	17033
849.734	16923
849.869	16854
850.004	16843
850.14	16801
850.275	16778
850.41	16634
850.545	16672
850.68	16767
850.815	16850
850.95	16812
851.085	16904
851.22	16873
851.355	16672
851.49	16763
851.625	16729
851.76	16713
851.895	16713
852.03	16725
852.165	16786
852.299	16759
852.434	16835
852.569	16869
852.703	16733
852.838	16877
852.973	16934
853.107	16965
853.242	16774
853.376	16679
853.511	16558
853.645	16660
853.78	16672
853.914	16694
854.048	16748
854.183	16656
854.317	16767
854.451	16850
854.585	16584
854.72	16592
854.854	16687
854.988	16599
855.122	16649
855.256	16478
855.39	16656
855.524	16706
855.658	16702
855.792	16649
855.926	16577
856.06	16694
856.194	16725
856.327	16649
856.461	16592
856.595	16554
856.729	16527
856.862	16759
856.996	16535
857.13	16683
857.263	16797
857.397	16729
857.53	16519
857.664	16672
857.797	16672
857.931	16736
858.064	16694
858.197	16626
858.331	16550
858.464	16561
858.597	16466
858.731	16546
858.864	16512
858.997	16432
859.13	16550
859.263	16569
859.396	16538
859.529	16481
859.662	16466
859.795	16462
859.928	16558
860.061	16660
860.194	16672
860.327	16554
860.46	16538
860.592	16577
860.725	16778
860.858	16740
860.99	16504
861.123	16546
861.256	16466
861.388	16550
861.521	17174
861.653	16451
861.786	16295
861.918	16367
862.05	16500
862.183	16500
862.315	16569
862.447	16584
862.58	16481
862.712	16341
862.844	16246
862.976	16371
863.108	16352
863.24	16816
863.372	16204
863.504	16230
863.636	16291
863.768	16291
863.9	16314
864.032	16219
864.164	16215
864.296	16325
864.428	16386
864.559	16333
864.691	16474
864.823	16257
864.954	16242
865.086	16242
865.217	16242
865.349	16166
865.48	16078
865.612	16310
865.743	16424
865.875	16272
866.006	16185
866.137	16291
866.269	16204
866.4	16238
866.531	16173
866.662	16166
866.793	16192
866.924	16101
867.055	16207
867.186	16219
867.317	16226
867.448	16059
867.579	16139
867.71	16154
867.841	16143
867.972	16181
868.103	16196
868.233	16188
868.364	16257
868.495	16314
868.625	16443
868.756	16527
868.886	16508
869.017	16481
869.147	16588
869.278	16580
869.408	16394
869.539	16447
869.669	16409
869.799	16485
869.929	16573
870.06	16561
870.19	16767
870.32	16660
870.45	16877
870.58	16809
870.71	16889
870.84	16961
870.97	16835
871.1	16793
871.23	16984
871.36	16987
871.489	16972
871.619	16991
871.749	17056
871.879	17056
872.008	17181
872.138	17048
872.267	17056
872.397	16965
872.526	16915
872.656	16942
872.785	16862
872.915	17094
873.044	17151
873.173	17132
873.303	17105
873.432	17242
873.561	17132
873.69	17079
873.819	17174
873.948	17200
874.077	17223
874.206	17132
874.335	17235
874.464	17288
874.593	17402
874.722	17345
874.851	17539
874.979	17589
875.108	17486
875.237	17455
875.365	17459
875.494	17562
875.623	17497
875.751	17524
875.88	17539
876.008	17718
876.136	17794
876.265	17977
876.393	18174
876.521	18011
876.65	18102
876.778	18053
876.906	17961
877.034	17961
877.162	18019
877.29	17988
877.418	18007
877.546	18148
877.674	18102
877.802	18136
877.93	18190
878.058	18228
878.185	18182
878.313	18205
878.441	18346
878.568	18319
878.696	18448
878.824	18711
878.951	19061
879.079	19411
879.206	19989
879.333	20374
879.461	20609
879.588	20834
879.715	20994
879.842	20804
879.97	20294
880.097	19655
880.224	19179
880.351	19015
880.478	18852
880.605	18627
880.732	18635
880.859	18711
880.986	18559
881.112	18585
881.239	18441
881.366	18289
881.493	18152
881.619	18159
881.746	18216
881.872	18117
881.999	18155
882.125	18049
882.252	18182
882.378	18110
882.505	18311
882.631	18087
882.757	17904
882.883	18038
883.01	17992
883.136	17939
883.262	17840
883.388	17786
883.514	18133
883.64	17897
883.766	17901
883.892	17714
884.018	17794
884.143	17931
884.269	17984
884.395	17733
884.52	17733
884.646	17790
884.772	17676
884.897	17516
885.023	17703
885.148	17794
885.274	17790
885.399	17729
885.524	17505
885.65	17691
885.775	17585
885.9	17478
886.025	17657
886.15	17478
886.275	17383
886.4	17334
886.525	17395
886.65	17296
886.775	17124
886.9	17455
887.025	17528
887.149	17193
887.274	17052
887.399	17003
887.523	17003
887.648	16976
887.773	16961
887.897	17102
888.021	17010
888.146	16900
888.27	17086
888.395	17079
888.519	16995
888.643	16968
888.767	16957
888.891	16774
889.015	16626
889.139	16774
889.263	16744
889.387	16843
889.511	16942
889.635	16820
889.759	16649
889.883	16706
890.006	16717
890.13	16752
890.254	16527
890.377	16702
890.501	16569
890.624	16409
890.748	16405
890.871	16314
890.995	16325
891.118	16287
891.241	16322
891.364	16284
891.488	16413
891.611	16306
891.734	16242
891.857	16299
891.98	16325
892.103	16356
892.226	16196
892.349	16173
892.471	16067
892.594	16200
892.717	16226
892.839	16150
892.962	16166
893.085	16192
893.207	16173
893.33	15998
893.452	16074
893.575	16188
893.697	16093
893.819	16265
893.941	16417
894.064	16280
894.186	16147
894.308	16139
894.43	16249
894.552	16390
894.674	16287
894.796	16048
894.918	16223
895.04	16071
895.161	16280
895.283	16219
895.405	16032
895.526	16124
895.648	16105
895.769	16185
895.891	16226
896.012	16249
896.134	16188
896.255	16181
896.376	16143
896.498	16348
896.619	16242
896.74	16200
896.861	16356
896.982	16679
897.103	16702
897.224	16531
897.345	16466
897.466	16436
897.587	16466
897.708	16546
897.828	16573
897.949	16489
898.07	16375
898.19	16379
898.311	16615
898.431	16504
898.552	16508
898.672	16710
898.792	16645
898.913	16622
899.033	16466
899.153	16322
899.273	16234
899.393	16360
899.513	16314
899.633	16424
899.753	16348
899.873	16337
899.993	16405
900.113	16344
900.232	16375
900.352	16360
900.472	16306
900.591	16242
900.711	16287
900.83	16234
900.95	16360
901.069	16379
901.189	16071
901.308	15911
901.427	15823
901.546	15819
901.665	15953
901.784	15941
901.904	15747
902.023	15584
902.141	15481
902.26	15443
902.379	15511
902.498	15332
902.617	15310
902.735	15393
902.854	15264
902.973	15325
903.091	15211
903.21	15051
903.328	15028
903.446	15001
903.565	14796
903.683	14861
903.801	14815
903.919	14750
904.038	14811
904.156	14644
904.274	14708
904.392	14602
904.51	14617
904.627	14670
904.745	14655
904.863	14731
904.981	14533
905.098	14244
905.216	14282
905.334	14404
905.451	14332
905.569	14412
905.686	14301
905.803	14244
905.921	14145
906.038	14377
906.155	14210
906.272	13959
906.389	14027
906.506	13913
906.623	13852
906.74	13936
906.857	13658
906.974	13727
907.091	13856
907.208	13974
907.324	13890
907.441	13784
907.557	13586
907.674	13518
907.79	13487
907.907	13491
908.023	13616
908.139	13529
908.256	13430
908.372	13464
908.488	13464
908.604	13301
908.72	13289
908.836	13373
908.952	13274
909.068	13350
909.184	13377
909.3	13266
909.415	13316
909.531	13308
909.647	13164
909.762	13095
909.878	12993
909.993	13160
910.108	13057
910.224	13008
910.339	12970
910.454	12894
910.57	12867
910.685	12871
910.8	13061
910.915	13088
911.03	12973
911.145	12719
911.259	12673
911.374	12635
911.489	12540
911.604	12506
911.718	12357
911.833	12490
911.947	12369
912.062	12235
912.176	12380
912.291	12369
912.405	12437
912.519	12677
912.633	12601
912.748	12483
912.862	12506
912.976	12190
913.09	12232
913.204	12186
913.318	12311
913.431	12323
913.545	12319
913.659	12334
913.772	12155
913.886	12163
914	12159
914.113	12167
914.226	12254
914.34	12228
914.453	12098
914.566	12178
914.68	12064
914.793	12072
914.906	11946
915.019	11851
915.132	11840
915.245	11802
915.358	11851
915.47	11855
915.583	11901
915.696	11973
915.809	12026
915.921	11992
916.034	11893
916.146	11809
916.259	11756
916.371	11923
916.483	11885
916.595	11748
916.708	11737
916.82	11722
916.932	11760
917.044	11771
917.156	11630
917.268	11756
917.38	11676
917.491	11623
917.603	11703
917.715	11668
917.826	11767
917.938	11604
918.049	11493
918.161	11615
918.272	11710
918.384	11729
918.495	11649
918.606	11440
918.717	11452
918.828	11425
918.939	11589
919.05	11425
919.161	11463
919.272	11307
919.383	11368
919.494	11440
919.604	11691
919.715	11501
919.826	11387
919.936	11383
920.047	11543
920.157	11440
920.267	11608
920.378	11501
920.488	11501
920.598	11608
920.708	11729
920.818	11653
920.928	11634
921.038	11752
921.148	11771
921.258	11547
921.368	11417
921.477	11280
921.587	11193
921.697	11143
921.806	11341
921.916	11250
922.025	10984
922.134	10961
922.244	10885
922.353	11033
922.462	10858
922.571	10862
922.68	10672
922.789	10599
922.898	10630
923.007	10599
923.116	10656
923.224	10611
923.333	10603
923.442	10459
923.55	10523
923.659	10516
923.767	10558
923.876	10478
923.984	10554
924.092	10478
924.201	10474
924.309	10478
924.417	10500
924.525	10386
924.633	10417
924.741	11140
924.849	10322
924.956	10295
925.064	10287
925.172	10169
925.279	10257
925.387	10291
925.494	10246
925.602	10363
925.709	10295
925.816	10200
925.924	10162
926.031	10398
926.138	10211
926.245	10287
926.352	10128
926.459	10322
926.566	10215
926.673	10177
926.779	10109
926.886	9983
926.993	9937
927.099	9998
927.206	9857
927.312	9823
927.419	9941
927.525	9899
927.631	9903
927.737	9755
927.843	9770
927.95	9644
928.056	9701
928.162	9793
928.267	9740
928.373	10447
928.479	9884
928.585	9633
928.69	9766
928.796	9797
928.901	9641
929.007	9515
929.112	9606
929.218	9656
929.323	9633
929.428	9595
929.533	9679
929.638	9469
929.743	9530
929.848	9572
929.953	9606
930.058	9454
930.163	9222
930.267	9363
930.372	9443
930.477	9298
930.581	9534
930.685	9428
930.79	9302
930.894	9302
930.998	9245
931.103	9321
931.207	8979
931.311	8963
931.415	8944
931.519	8766
931.623	8682
