Data from test_V78500241_2317.txt Node
Date: Fri Mar 25 14:49:50 CST 2022
User: usil
Spectrometer: V785-0024
Trigger mode: 0
Integration Time (sec): 4.000000E-1
Scans to average: 1
Nonlinearity correction enabled: false
Boxcar width: 0
Storing dark spectrum: false
XAxis mode: Wavelengths
Number of Pixels in Spectrum: 1024
>>>>>Begin Spectral Data<<<<<
801.071	22105
801.214	21922
801.356	21770
801.499	21789
801.641	21587
801.783	21492
801.926	21663
802.068	21443
802.211	21408
802.353	21294
802.496	21047
802.638	21123
802.78	21074
802.923	21055
803.065	20872
803.208	20891
803.35	20861
803.492	21001
803.635	21043
803.777	20887
803.919	21039
804.061	21245
804.204	20902
804.346	20899
804.488	20708
804.63	20815
804.773	20788
804.915	20830
805.057	20929
805.199	20845
805.341	20910
805.483	20925
805.626	20952
805.768	20735
805.91	20807
806.052	20796
806.194	20937
806.336	21009
806.478	20731
806.62	20716
806.762	20857
806.904	21013
807.046	21214
807.188	21161
807.33	21074
807.472	21241
807.614	21157
807.756	20967
807.898	20979
808.04	20880
808.182	20883
808.324	20823
808.465	20994
808.607	20990
808.749	21268
808.891	21275
809.033	21378
809.174	21321
809.316	21237
809.458	21184
809.6	21131
809.741	21302
809.883	21207
810.025	21416
810.166	21355
810.308	21348
810.45	21294
810.591	21199
810.733	21001
810.875	20956
811.016	20842
811.158	20708
811.299	21058
811.441	21142
811.582	21116
811.724	20868
811.865	20910
812.007	21032
812.148	20883
812.29	21074
812.431	21138
812.573	21264
812.714	21458
812.855	21477
812.997	21633
813.138	21629
813.279	21587
813.421	21561
813.562	21443
813.703	21142
813.845	21237
813.986	20765
814.127	20484
814.268	20598
814.41	20602
814.551	20549
814.692	20484
814.833	20396
814.974	20309
815.115	20522
815.256	20320
815.397	20259
815.539	20476
815.68	20206
815.821	20115
815.962	20278
816.103	20263
816.244	20180
816.385	19940
816.526	19959
816.666	19734
816.807	19666
816.948	19674
817.089	19772
817.23	19727
817.371	19594
817.512	19601
817.653	19559
817.793	19521
817.934	19628
818.075	19632
818.216	19613
818.356	19468
818.497	19457
818.638	19316
818.778	19354
818.919	19244
819.06	19350
819.2	19483
819.341	19445
819.481	19457
819.622	19731
819.762	19928
819.903	19689
820.043	19563
820.184	19662
820.324	19499
820.465	19795
820.605	19571
820.746	19552
820.886	19396
821.026	19533
821.167	19537
821.307	19620
821.447	19567
821.588	19464
821.728	19377
821.868	19099
822.008	19080
822.149	18985
822.289	19023
822.429	18642
822.569	18673
822.709	18658
822.849	18528
822.99	18483
823.13	18502
823.27	18494
823.41	18308
823.55	18266
823.69	18315
823.83	18323
823.97	18232
824.11	18072
824.25	18011
824.389	18079
824.529	18041
824.669	18049
824.809	18148
824.949	18129
825.089	18064
825.228	18068
825.368	17870
825.508	17939
825.648	17832
825.787	17897
825.927	17783
826.067	17809
826.206	17718
826.346	17843
826.485	17805
826.625	17767
826.765	18045
826.904	17786
827.044	17592
827.183	17581
827.323	17554
827.462	17509
827.601	17459
827.741	17356
827.88	17535
828.02	17349
828.159	17493
828.298	17600
828.437	17611
828.577	17395
828.716	17649
828.855	17646
828.994	17391
829.134	17254
829.273	17307
829.412	17155
829.551	17178
829.69	17143
829.829	17307
829.968	17383
830.107	17349
830.246	17299
830.385	17109
830.524	17189
830.663	17048
830.802	17045
830.941	16828
831.08	16824
831.219	17048
831.357	16965
831.496	17193
831.635	16900
831.774	16733
831.913	16702
832.051	16618
832.19	16618
832.329	16672
832.467	16744
832.606	16558
832.744	16519
832.883	16538
833.022	16542
833.16	16561
833.299	16550
833.437	16615
833.576	16569
833.714	16615
833.852	16603
833.991	16626
834.129	16664
834.267	16645
834.406	16607
834.544	16569
834.682	16653
834.821	16660
834.959	16744
835.097	16580
835.235	16561
835.373	16687
835.511	16569
835.65	16577
835.788	16531
835.926	16443
836.064	16375
836.202	16337
836.34	16558
836.478	16500
836.615	16398
836.753	16481
836.891	16569
837.029	16519
837.167	16394
837.305	16440
837.443	16443
837.58	16322
837.718	16508
837.856	16500
837.993	16417
838.131	16379
838.269	16295
838.406	16363
838.544	16219
838.681	16025
838.819	15983
838.956	15907
839.094	15880
839.231	15979
839.369	16017
839.506	16394
839.643	16154
839.781	15915
839.918	15922
840.055	15926
840.193	15960
840.33	15979
840.467	15937
840.604	15941
840.742	16048
840.879	15781
841.016	15800
841.153	15770
841.29	16067
841.427	16010
841.564	16010
841.701	15956
841.838	15835
841.975	15846
842.112	15861
842.249	15800
842.385	15698
842.522	15911
842.659	15705
842.796	15774
842.933	15705
843.069	15618
843.206	15656
843.343	15755
843.479	15637
843.616	15675
843.752	15591
843.889	15458
844.025	15633
844.162	15393
844.298	15542
844.435	15526
844.571	15351
844.708	15614
844.844	15606
844.98	15557
845.117	15545
845.253	15416
845.389	15344
845.525	15363
845.661	15310
845.798	15298
845.934	15340
846.07	15264
846.206	15355
846.342	15450
846.478	15302
846.614	15131
846.75	14967
846.886	14982
847.022	15093
847.158	15028
847.294	15005
847.429	15074
847.565	15005
847.701	15211
847.837	14781
847.972	14754
848.108	14941
848.244	14876
848.379	14693
848.515	14663
848.65	14625
848.786	14686
848.921	14682
849.057	14659
849.192	14735
849.328	14678
849.463	14663
849.598	14667
849.734	14571
849.869	14476
850.004	14484
850.14	14499
850.275	14480
850.41	14351
850.545	14339
850.68	14389
850.815	14499
850.95	14313
851.085	14564
851.22	14465
851.355	14457
851.49	14374
851.625	14339
851.76	14389
851.895	14286
852.03	14301
852.165	14366
852.299	14362
852.434	14465
852.569	14442
852.703	14495
852.838	14404
852.973	14571
853.107	14571
853.242	14381
853.376	14362
853.511	14134
853.645	14305
853.78	14370
853.914	14324
854.048	14313
854.183	14202
854.317	14206
854.451	14370
854.585	14202
854.72	14195
854.854	14355
854.988	14225
855.122	14328
855.256	14050
855.39	14214
855.524	14259
855.658	14408
855.792	14290
855.926	14305
856.06	14298
856.194	14309
856.327	14248
856.461	14282
856.595	14317
856.729	14134
856.862	14419
856.996	14309
857.13	14313
857.263	14396
857.397	14309
857.53	14343
857.664	14370
857.797	14343
857.931	14358
858.064	14317
858.197	14374
858.331	14275
858.464	14221
858.597	14142
858.731	14157
858.864	14275
858.997	14263
859.13	14221
859.263	14278
859.396	14389
859.529	14199
859.662	14199
859.795	14221
859.928	14305
860.061	14415
860.194	14495
860.327	14332
860.46	14267
860.592	14351
860.725	14419
860.858	14438
860.99	14377
861.123	14210
861.256	14138
861.388	14339
861.521	14861
861.653	14088
861.786	14130
861.918	14138
862.05	14218
862.183	14267
862.315	14229
862.447	14286
862.58	14202
862.712	14020
862.844	14069
862.976	14092
863.108	14130
863.24	14305
863.372	14027
863.504	14043
863.636	14008
863.768	14202
863.9	14084
864.032	13967
864.164	14027
864.296	13989
864.428	14214
864.559	14073
864.691	14145
864.823	14062
864.954	14069
865.086	14073
865.217	14073
865.349	13925
865.48	14069
865.612	14065
865.743	14138
865.875	14027
866.006	14039
866.137	14081
866.269	14001
866.4	14084
866.531	13986
866.662	13951
866.793	14024
866.924	13982
867.055	13963
867.186	14107
867.317	13963
867.448	13947
867.579	14035
867.71	13936
867.841	14024
867.972	14088
868.103	14020
868.233	14062
868.364	14077
868.495	14088
868.625	14278
868.756	14408
868.886	14187
869.017	14248
869.147	14355
869.278	14313
869.408	14362
869.539	14221
869.669	14412
869.799	14400
869.929	14355
870.06	14450
870.19	14579
870.32	14530
870.45	14594
870.58	14689
870.71	14739
870.84	14819
870.97	14701
871.1	14731
871.23	14944
871.36	14918
871.489	14739
871.619	14823
871.749	14895
871.879	14819
872.008	15093
872.138	14830
872.267	14876
872.397	14754
872.526	14727
872.656	14670
872.785	14716
872.915	14975
873.044	15043
873.173	14937
873.303	14902
873.432	15028
873.561	14998
873.69	14750
873.819	14990
873.948	14975
874.077	14944
874.206	14914
874.335	14929
874.464	15093
874.593	15192
874.722	15146
874.851	15268
874.979	15256
875.108	15241
875.237	15058
875.365	15249
875.494	15237
875.623	15306
875.751	15192
875.88	15245
876.008	15397
876.136	15443
876.265	15713
876.393	15816
876.521	15739
876.65	15663
876.778	15667
876.906	15656
877.034	15629
877.162	15587
877.29	15542
877.418	15629
877.546	15652
877.674	15641
877.802	15637
877.93	15610
878.058	15648
878.185	15587
878.313	15614
878.441	15648
878.568	15591
878.696	15675
878.824	15690
878.951	15671
879.079	15850
879.206	15953
879.333	15857
879.461	15766
879.588	15892
879.715	15865
879.842	15960
879.97	15709
880.097	15538
880.224	15431
880.351	15530
880.478	15462
880.605	15515
880.732	15462
880.859	15770
880.986	15545
881.112	15473
881.239	15329
881.366	15302
881.493	15020
881.619	15077
881.746	15116
881.872	15165
881.999	15180
882.125	15051
882.252	15180
882.378	15230
882.505	15359
882.631	15123
882.757	14986
882.883	15093
883.01	15051
883.136	14933
883.262	14781
883.388	14921
883.514	15077
883.64	14941
883.766	14899
883.892	14804
884.018	14899
884.143	14982
884.269	14971
884.395	14731
884.52	14667
884.646	14724
884.772	14678
884.897	14629
885.023	14655
885.148	14815
885.274	14887
885.399	14769
885.524	14792
885.65	14724
885.775	14655
885.9	14598
886.025	14758
886.15	14750
886.275	14632
886.4	14560
886.525	14583
886.65	14541
886.775	14568
886.9	14765
887.025	14929
887.149	14636
887.274	14571
887.399	14393
887.523	14454
887.648	14530
887.773	14434
887.897	14602
888.021	14625
888.146	14450
888.27	14579
888.395	14625
888.519	14522
888.643	14613
888.767	14636
888.891	14442
889.015	14366
889.139	14442
889.263	14389
889.387	14450
889.511	14606
889.635	14530
889.759	14263
889.883	14351
890.006	14438
890.13	14473
890.254	14366
890.377	14313
890.501	14161
890.624	14126
890.748	14237
890.871	14115
890.995	14039
891.118	13868
891.241	14046
891.364	14039
891.488	14134
891.611	14012
891.734	14046
891.857	14111
891.98	14130
892.103	14172
892.226	14145
892.349	14069
892.471	13970
892.594	14012
892.717	14103
892.839	14065
892.962	14092
893.085	14126
893.207	14126
893.33	14020
893.452	14149
893.575	14092
893.697	14092
893.819	14290
893.941	14282
894.064	14248
894.186	14035
894.308	14043
894.43	14225
894.552	14313
894.674	14221
894.796	14210
894.918	14096
895.04	14058
895.161	14229
895.283	14206
895.405	14100
895.526	14176
895.648	14142
895.769	14180
895.891	14202
896.012	14282
896.134	14282
896.255	14164
896.376	14202
896.498	14183
896.619	14313
896.74	14343
896.861	14282
896.982	14651
897.103	14716
897.224	14533
897.345	14480
897.466	14404
897.587	14549
897.708	14693
897.828	14575
897.949	14476
898.07	14404
898.19	14484
898.311	14674
898.431	14583
898.552	14602
898.672	14670
898.792	14644
898.913	14583
899.033	14522
899.153	14457
899.273	14328
899.393	14427
899.513	14518
899.633	14473
899.753	14476
899.873	14511
899.993	14610
900.113	14495
900.232	14514
900.352	14503
900.472	14328
900.591	14339
900.711	14351
900.83	14347
900.95	14431
901.069	14412
901.189	14248
901.308	14062
901.427	13940
901.546	14012
901.665	14039
901.784	14084
901.904	13951
902.023	13894
902.141	13575
902.26	13609
902.379	13666
902.498	13533
902.617	13552
902.735	13651
902.854	13582
902.973	13483
903.091	13251
903.21	13285
903.328	13316
903.446	13324
903.565	13164
903.683	13198
903.801	13103
903.919	13232
904.038	13065
904.156	12920
904.274	13019
904.392	12951
904.51	12920
904.627	13015
904.745	13118
904.863	13004
904.981	12707
905.098	12722
905.216	12639
905.334	12760
905.451	12722
905.569	12555
905.686	12795
905.803	12597
905.921	12490
906.038	12547
906.155	12441
906.272	12334
906.389	12388
906.506	12258
906.623	12334
906.74	12213
906.857	12194
906.974	12152
907.091	12243
907.208	12391
907.324	12228
907.441	12098
907.557	11999
907.674	11931
907.79	11916
907.907	11950
908.023	11923
908.139	12026
908.256	11969
908.372	11920
908.488	11756
908.604	11817
908.72	11634
908.836	11733
908.952	11680
909.068	11824
909.184	11832
909.3	11699
909.415	11817
909.531	11733
909.647	11566
909.762	11558
909.878	11520
909.993	11452
910.108	11444
910.224	11490
910.339	11493
910.454	11391
910.57	11391
910.685	11315
910.8	11600
910.915	11532
911.03	11330
911.145	11235
911.259	11189
911.374	11235
911.489	11227
911.604	11113
911.718	10946
911.833	11045
911.947	10873
912.062	10824
912.176	10946
912.291	11010
912.405	10896
912.519	11128
912.633	11155
912.748	11025
912.862	11010
912.976	10892
913.09	10782
913.204	10755
913.318	10957
913.431	10972
913.545	10908
913.659	10961
913.772	10820
913.886	10694
914	10725
914.113	10862
914.226	10862
914.34	10752
914.453	10653
914.566	10831
914.68	10679
914.793	10725
914.906	10504
915.019	10546
915.132	10390
915.245	10538
915.358	10538
915.47	10424
915.583	10424
915.696	10493
915.809	10637
915.921	10588
916.034	10481
916.146	10348
916.259	10455
916.371	10523
916.483	10481
916.595	10337
916.708	10402
916.82	10436
916.932	10386
917.044	10398
917.156	10409
917.268	10211
917.38	10257
917.491	10284
917.603	10348
917.715	10424
917.826	10386
917.938	10246
918.049	10227
918.161	10280
918.272	10352
918.384	10417
918.495	10360
918.606	10139
918.717	10055
918.828	10230
918.939	10177
919.05	10177
919.161	10162
919.272	9979
919.383	10109
919.494	10211
919.604	10417
919.715	10150
919.826	10135
919.936	10169
920.047	10280
920.157	10257
920.267	10405
920.378	10272
920.488	10257
920.598	10382
920.708	10527
920.818	10459
920.928	10386
921.038	10538
921.148	10573
921.258	10325
921.368	10143
921.477	10131
921.587	10097
921.697	9964
921.806	10067
921.916	9956
922.025	9842
922.134	9770
922.244	9713
922.353	9869
922.462	9652
922.571	9606
922.68	9542
922.789	9473
922.898	9504
923.007	9435
923.116	9515
923.224	9488
923.333	9500
923.442	9359
923.55	9367
923.659	9370
923.767	9424
923.876	9317
923.984	9382
924.092	9184
924.201	9378
924.309	9275
924.417	9329
924.525	9317
924.633	9325
924.741	10177
924.849	9112
924.956	9291
925.064	9195
925.172	9119
925.279	9135
925.387	9176
925.494	9161
925.602	9306
925.709	9188
925.816	9093
925.924	9131
926.031	9245
926.138	9108
926.245	9150
926.352	9058
926.459	9237
926.566	9279
926.673	9157
926.779	9043
926.886	8967
926.993	8914
927.099	8868
927.206	8826
927.312	8750
927.419	8979
927.525	8891
927.631	8967
927.737	8864
927.843	8731
927.95	8674
928.056	8724
928.162	8849
928.267	8800
928.373	9397
928.479	8906
928.585	8636
928.69	8724
928.796	8777
928.901	8667
929.007	8545
929.112	8686
929.218	8598
929.323	8545
929.428	8552
929.533	8705
929.638	8522
929.743	8575
929.848	8552
929.953	8571
930.058	8507
930.163	8332
930.267	8343
930.372	8545
930.477	8324
930.581	8568
930.685	8514
930.79	8313
930.894	8362
930.998	8313
931.103	8412
931.207	8134
931.311	8012
931.415	8020
931.519	7712
931.623	7818
