Data from test_V78500241_920.txt Node
Date: Fri Mar 25 14:40:07 CST 2022
User: usil
Spectrometer: V785-0024
Trigger mode: 0
Integration Time (sec): 4.000000E-1
Scans to average: 1
Nonlinearity correction enabled: false
Boxcar width: 0
Storing dark spectrum: false
XAxis mode: Wavelengths
Number of Pixels in Spectrum: 1024
>>>>>Begin Spectral Data<<<<<
801.071	24734
801.214	24627
801.356	24407
801.499	24292
801.641	24201
801.783	24030
801.926	24110
802.068	23920
802.211	23942
802.353	23802
802.496	23608
802.638	23589
802.78	23615
802.923	23493
803.065	23341
803.208	23535
803.35	23471
803.492	23440
803.635	23665
803.777	23360
803.919	23505
804.061	23783
804.204	23604
804.346	23395
804.488	23353
804.63	23246
804.773	23379
804.915	23372
805.057	23467
805.199	23478
805.341	23516
805.483	23570
805.626	23490
805.768	23490
805.91	23501
806.052	23604
806.194	23490
806.336	23619
806.478	23562
806.62	23668
806.762	23752
806.904	23904
807.046	24273
807.188	24232
807.33	24102
807.472	24452
807.614	24369
807.756	24631
807.898	24627
808.04	24867
808.182	25122
808.324	25506
808.465	26107
808.607	26625
808.749	27116
808.891	27435
809.033	27542
809.174	26994
809.316	26667
809.458	26290
809.6	25613
809.741	25217
809.883	24935
810.025	24966
810.166	24753
810.308	24665
810.45	24350
810.591	24414
810.733	24087
810.875	23996
811.016	23980
811.158	23783
811.299	23912
811.441	23954
811.582	23859
811.724	23843
811.865	23649
812.007	23809
812.148	23707
812.29	23813
812.431	23916
812.573	24076
812.714	24079
812.855	24384
812.997	24201
813.138	24384
813.279	24159
813.421	24182
813.562	24159
813.703	23999
813.845	23836
813.986	23467
814.127	23299
814.268	23113
814.41	23315
814.551	23200
814.692	23204
814.833	23124
814.974	23113
815.115	23197
815.256	23185
815.397	22904
815.539	23014
815.68	22953
815.821	22877
815.962	22843
816.103	22850
816.244	22752
816.385	22797
816.526	22649
816.666	22478
816.807	22360
816.948	22341
817.089	22436
817.23	22299
817.371	22367
817.512	22428
817.653	22382
817.793	22268
817.934	22314
818.075	22341
818.216	22306
818.356	22173
818.497	22150
818.638	22002
818.778	22025
818.919	21873
819.06	22025
819.2	22215
819.341	22090
819.481	22067
819.622	22265
819.762	22504
819.903	22485
820.043	22226
820.184	22371
820.324	22272
820.465	22196
820.605	22249
820.746	22402
820.886	22166
821.026	22109
821.167	22120
821.307	22215
821.447	22063
821.588	22078
821.728	21934
821.868	21701
822.008	21641
822.149	21614
822.289	21591
822.429	21214
822.569	21249
822.709	21192
822.849	21051
822.99	21062
823.13	21089
823.27	20933
823.41	20811
823.55	20796
823.69	20948
823.83	20819
823.97	20838
824.11	20609
824.25	20461
824.389	20602
824.529	20712
824.669	20651
824.809	20716
824.949	20769
825.089	20594
825.228	20579
825.368	20396
825.508	20347
825.648	20480
825.787	20560
825.927	20488
826.067	20473
826.206	20370
826.346	20404
826.485	20381
826.625	20442
826.765	20545
826.904	20442
827.044	20145
827.183	20172
827.323	19955
827.462	20001
827.601	20100
827.741	19997
827.88	20035
828.02	19925
828.159	20001
828.298	19982
828.437	20020
828.577	19944
828.716	20195
828.855	19959
828.994	19830
829.134	19784
829.273	19765
829.412	19708
829.551	19696
829.69	19708
829.829	19723
829.968	19860
830.107	19693
830.246	19776
830.385	19685
830.524	19635
830.663	19499
830.802	19449
830.941	19358
831.08	19301
831.219	19419
831.357	19445
831.496	19556
831.635	19438
831.774	19168
831.913	19274
832.051	19175
832.19	19190
832.329	19179
832.467	19099
832.606	19015
832.744	19023
832.883	19080
833.022	19038
833.16	19015
833.299	19244
833.437	19179
833.576	19236
833.714	19095
833.852	19225
833.991	19247
834.129	19244
834.267	19190
834.406	19270
834.544	19247
834.682	19190
834.821	19206
834.959	19339
835.097	19107
835.235	19126
835.373	19160
835.511	19012
835.65	18962
835.788	18894
835.926	18825
836.064	18661
836.202	18787
836.34	18947
836.478	19023
836.615	18821
836.753	18867
836.891	18989
837.029	18840
837.167	18886
837.305	18954
837.443	18791
837.58	18848
837.718	18814
837.856	18886
837.993	18768
838.131	18715
838.269	18745
838.406	18738
838.544	18426
838.681	18448
838.819	18403
838.956	18334
839.094	18232
839.231	18251
839.369	18380
839.506	18585
839.643	18399
839.781	18232
839.918	18136
840.055	18197
840.193	18201
840.33	18201
840.467	18155
840.604	18174
840.742	18555
840.879	18015
841.016	18136
841.153	17988
841.29	18224
841.427	18197
841.564	18251
841.701	18224
841.838	18106
841.975	18045
842.112	18083
842.249	17988
842.385	17969
842.522	18205
842.659	17939
842.796	17984
842.933	17950
843.069	17912
843.206	17901
843.343	17988
843.479	18011
843.616	17946
843.752	17733
843.889	17741
844.025	17969
844.162	17733
844.298	17813
844.435	17760
844.571	17802
844.708	17912
844.844	18011
844.98	18144
845.117	18102
845.253	18228
845.389	18292
845.525	18852
845.661	19643
845.798	20552
845.934	21485
846.07	21892
846.206	21800
846.342	21009
846.478	20115
846.614	18985
846.75	18350
846.886	17809
847.022	17737
847.158	17444
847.294	17448
847.429	17482
847.565	17288
847.701	17463
847.837	17067
847.972	16938
848.108	17117
848.244	16987
848.379	16938
848.515	16885
848.65	16790
848.786	16839
848.921	16782
849.057	16911
849.192	16930
849.328	16790
849.463	16763
849.598	16774
849.734	16710
849.869	16542
850.004	16603
850.14	16573
850.275	16519
850.41	16512
850.545	16565
850.68	16516
850.815	16687
850.95	16618
851.085	16733
851.22	16607
851.355	16577
851.49	16500
851.625	16603
851.76	16485
851.895	16367
852.03	16379
852.165	16527
852.299	16577
852.434	16733
852.569	16561
852.703	16535
852.838	16691
852.973	16679
853.107	16615
853.242	16516
853.376	16367
853.511	16363
853.645	16382
853.78	16611
853.914	16455
854.048	16478
854.183	16489
854.317	16451
854.451	16558
854.585	16462
854.72	16535
854.854	16478
854.988	16390
855.122	16421
855.256	16322
855.39	16409
855.524	16554
855.658	16500
855.792	16390
855.926	16432
856.06	16367
856.194	16519
856.327	16394
856.461	16306
856.595	16459
856.729	16382
856.862	16527
856.996	16405
857.13	16485
857.263	16459
857.397	16447
857.53	16337
857.664	16481
857.797	16504
857.931	16485
858.064	16382
858.197	16485
858.331	16276
858.464	16295
858.597	16306
858.731	16382
858.864	16325
858.997	16352
859.13	16356
859.263	16386
859.396	16417
859.529	16375
859.662	16257
859.795	16382
859.928	16382
860.061	16493
860.194	16481
860.327	16261
860.46	16303
860.592	16371
860.725	16508
860.858	16508
860.99	16287
861.123	16314
861.256	16360
861.388	16303
861.521	16919
861.653	16211
861.786	16131
861.918	16177
862.05	16257
862.183	16280
862.315	16356
862.447	16402
862.58	16242
862.712	16116
862.844	16090
862.976	16200
863.108	16147
863.24	16550
863.372	15907
863.504	16071
863.636	16082
863.768	16105
863.9	16025
864.032	15964
864.164	16025
864.296	16017
864.428	16284
864.559	16204
864.691	16226
864.823	16112
864.954	16169
865.086	16097
865.217	16036
865.349	15918
865.48	16131
865.612	16147
865.743	16238
865.875	16158
866.006	15991
866.137	16051
866.269	16051
866.4	15922
866.531	15975
866.662	15945
866.793	15998
866.924	15998
867.055	16013
867.186	16051
867.317	16021
867.448	15899
867.579	15987
867.71	15964
867.841	15983
867.972	16010
868.103	15983
868.233	16040
868.364	16029
868.495	16097
868.625	16295
868.756	16310
868.886	16131
869.017	16234
869.147	16314
869.278	16402
869.408	16272
869.539	16348
869.669	16337
869.799	16329
869.929	16417
870.06	16341
870.19	16611
870.32	16485
870.45	16717
870.58	16653
870.71	16805
870.84	16660
870.97	16561
871.1	16622
871.23	16869
871.36	16923
871.489	16706
871.619	16824
871.749	16858
871.879	16927
872.008	16976
872.138	16839
872.267	16927
872.397	16763
872.526	16675
872.656	16729
872.785	16729
872.915	16904
873.044	16919
873.173	16911
873.303	16946
873.432	16968
873.561	17102
873.69	17037
873.819	16938
873.948	17067
874.077	16968
874.206	16908
874.335	16999
874.464	17128
874.593	17216
874.722	17246
874.851	17341
874.979	17326
875.108	17368
875.237	17307
875.365	17250
875.494	17223
875.623	17288
875.751	17284
875.88	17318
876.008	17444
876.136	17414
876.265	17703
876.393	17779
876.521	17874
876.65	17840
876.778	17733
876.906	17707
877.034	17710
877.162	17840
877.29	17676
877.418	17786
877.546	17802
877.674	17802
877.802	17847
877.93	17916
878.058	17798
878.185	17752
878.313	17950
878.441	17973
878.568	17843
878.696	18102
878.824	18323
878.951	18422
879.079	18814
879.206	19312
879.333	19396
879.461	19628
879.588	19868
879.715	19963
879.842	19902
879.97	19327
880.097	18821
880.224	18551
880.351	18410
880.478	18311
880.605	18083
880.732	18155
880.859	18304
880.986	18057
881.112	18083
881.239	17916
881.366	17904
881.493	17805
881.619	17570
881.746	17786
881.872	17570
881.999	17665
882.125	17707
882.252	17771
882.378	17737
882.505	17980
882.631	17619
882.757	17528
882.883	17634
883.01	17520
883.136	17478
883.262	17425
883.388	17376
883.514	17414
883.64	17653
883.766	17501
883.892	17311
884.018	17307
884.143	17539
884.269	17535
884.395	17216
884.52	17189
884.646	17162
884.772	17113
884.897	17162
885.023	17197
885.148	17307
885.274	17322
885.399	17345
885.524	17197
885.65	17143
885.775	17212
885.9	17052
886.025	17284
886.15	17060
886.275	17014
886.4	16961
886.525	16968
886.65	17071
886.775	16877
886.9	17041
887.025	17159
887.149	16938
887.274	16778
887.399	16683
887.523	16748
887.648	16683
887.773	16542
887.897	16801
888.021	16790
888.146	16607
888.27	16740
888.395	16839
888.519	16706
888.643	16573
888.767	16679
888.891	16569
889.015	16402
889.139	16577
889.263	16386
889.387	16550
889.511	16748
889.635	16592
889.759	16344
889.883	16481
890.006	16344
890.13	16424
890.254	16223
890.377	16314
890.501	16200
890.624	16116
890.748	16185
890.871	16097
890.995	16013
891.118	15934
891.241	15979
891.364	15987
891.488	16135
891.611	16051
891.734	15968
891.857	16036
891.98	16048
892.103	16131
892.226	16086
892.349	15903
892.471	15880
892.594	15991
892.717	16032
892.839	15854
892.962	15869
893.085	16071
893.207	15918
893.33	15766
893.452	15922
893.575	15945
893.697	15880
893.819	16086
893.941	16010
894.064	16071
894.186	15854
894.308	15956
894.43	16048
894.552	16051
894.674	16063
894.796	15854
894.918	15850
895.04	15911
895.161	16059
895.283	16036
895.405	15937
895.526	15918
895.648	15941
895.769	16025
895.891	15979
896.012	16036
896.134	16055
896.255	16002
896.376	15953
896.498	15941
896.619	16078
896.74	16105
896.861	16044
896.982	16459
897.103	16519
897.224	16417
897.345	16223
897.466	16287
897.587	16379
897.708	16455
897.828	16413
897.949	16295
898.07	16154
898.19	16299
898.311	16417
898.431	16360
898.552	16386
898.672	16462
898.792	16325
898.913	16356
899.033	16303
899.153	16173
899.273	16162
899.393	16226
899.513	16158
899.633	16101
899.753	16287
899.873	16112
899.993	16261
900.113	16272
900.232	16192
900.352	16173
900.472	16105
900.591	16063
900.711	16101
900.83	16021
900.95	16086
901.069	16090
901.189	15945
901.308	15724
901.427	15690
901.546	15766
901.665	15739
901.784	15713
901.904	15534
902.023	15542
902.141	15302
902.26	15233
902.379	15313
902.498	15249
902.617	15188
902.735	15241
902.854	15176
902.973	15066
903.091	14975
903.21	14857
903.328	14883
903.446	14773
903.565	14804
903.683	14762
903.801	14648
903.919	14678
904.038	14667
904.156	14503
904.274	14663
904.392	14442
904.51	14461
904.627	14484
904.745	14541
904.863	14514
904.981	14221
905.098	14138
905.216	14172
905.334	14195
905.451	14206
905.569	14221
905.686	14149
905.803	14172
905.921	13944
906.038	14008
906.155	13928
906.272	13894
906.389	14001
906.506	13689
906.623	13632
906.74	13696
906.857	13601
906.974	13590
907.091	13860
907.208	13864
907.324	13731
907.441	13582
907.557	13430
907.674	13468
907.79	13312
907.907	13445
908.023	13502
908.139	13369
908.256	13240
908.372	13270
908.488	13228
908.604	13270
908.72	13110
908.836	13164
908.952	13114
909.068	13091
909.184	13236
909.3	13110
909.415	13225
909.531	13152
909.647	13015
909.762	12878
909.878	12928
909.993	12878
910.108	12916
910.224	12875
910.339	12795
910.454	12852
910.57	12681
910.685	12688
910.8	12935
910.915	12916
911.03	12764
911.145	12631
911.259	12509
911.374	12566
911.489	12479
911.604	12517
911.718	12239
911.833	12304
911.947	12224
912.062	12163
912.176	12254
912.291	12308
912.405	12213
912.519	12528
912.633	12544
912.748	12399
912.862	12209
912.976	12121
913.09	12087
913.204	12129
913.318	12148
913.431	12243
913.545	12224
913.659	12235
913.772	12152
913.886	12125
914	12011
914.113	12110
914.226	12129
914.34	12053
914.453	11904
914.566	12053
914.68	11878
914.793	11996
914.906	11828
915.019	11767
915.132	11710
915.245	11680
915.358	11771
915.47	11805
915.583	11790
915.696	11813
915.809	11863
915.921	11923
916.034	11665
916.146	11684
916.259	11615
916.371	11836
916.483	11722
916.595	11649
916.708	11668
916.82	11623
916.932	11596
917.044	11592
917.156	11608
917.268	11414
917.38	11573
917.491	11353
917.603	11547
917.715	11581
917.826	11646
917.938	11455
918.049	11383
918.161	11512
918.272	11608
918.384	11623
918.495	11543
918.606	11455
918.717	11322
918.828	11406
918.939	11383
919.05	11299
919.161	11265
919.272	11193
919.383	11136
919.494	11345
919.604	11528
919.715	11391
919.826	11299
919.936	11311
920.047	11383
920.157	11322
920.267	11509
920.378	11383
920.488	11360
920.598	11596
920.708	11665
920.818	11535
920.928	11471
921.038	11657
921.148	11585
921.258	11360
921.368	11322
921.477	11231
921.587	11136
921.697	11075
921.806	11261
921.916	11022
922.025	10854
922.134	10847
922.244	10847
922.353	10885
922.462	10755
922.571	10744
922.68	10546
922.789	10592
922.898	10554
923.007	10462
923.116	10577
923.224	10523
923.333	10531
923.442	10405
923.55	10398
923.659	10379
923.767	10519
923.876	10303
923.984	10436
924.092	10284
924.201	10352
924.309	10360
924.417	10459
924.525	10284
924.633	10409
924.741	11086
924.849	10169
924.956	10306
925.064	10109
925.172	10044
925.279	10116
925.387	10181
925.494	10093
925.602	10223
925.709	10154
925.816	10051
925.924	10169
926.031	10200
926.138	10086
926.245	10112
926.352	10021
926.459	10192
926.566	10257
926.673	10063
926.779	9937
926.886	9945
926.993	9835
927.099	9800
927.206	9759
927.312	9732
927.419	9876
927.525	9819
927.631	9842
927.737	9831
927.843	9720
927.95	9568
928.056	9679
928.162	9694
928.267	9789
928.373	10325
928.479	9793
928.585	9553
928.69	9690
928.796	9679
928.901	9568
929.007	9481
929.112	9572
929.218	9595
929.323	9469
929.428	9458
929.533	9564
929.638	9462
929.743	9458
929.848	9462
929.953	9477
930.058	9367
930.163	9241
930.267	9222
930.372	9393
930.477	9199
930.581	9428
930.685	9302
930.79	9180
930.894	9218
930.998	9180
931.103	9321
931.207	8902
931.311	8876
931.415	8823
931.519	8587
931.623	8598
