Data from test_V78500241_3500.txt Node
Date: Fri Mar 25 14:58:05 CST 2022
User: usil
Spectrometer: V785-0024
Trigger mode: 0
Integration Time (sec): 4.000000E-1
Scans to average: 1
Nonlinearity correction enabled: false
Boxcar width: 0
Storing dark spectrum: false
XAxis mode: Wavelengths
Number of Pixels in Spectrum: 1024
>>>>>Begin Spectral Data<<<<<
801.071	21926
801.214	21778
801.356	21595
801.499	21473
801.641	21256
801.783	21355
801.926	21310
802.068	21150
802.211	21214
802.353	21150
802.496	20895
802.638	20842
802.78	20739
802.923	20670
803.065	20556
803.208	20465
803.35	20579
803.492	20663
803.635	20746
803.777	20560
803.919	20686
804.061	20864
804.204	20594
804.346	20545
804.488	20560
804.63	20522
804.773	20568
804.915	20526
805.057	20693
805.199	20545
805.341	20545
805.483	20579
805.626	20629
805.768	20499
805.91	20564
806.052	20522
806.194	20412
806.336	20609
806.478	20446
806.62	20575
806.762	20594
806.904	20697
807.046	20986
807.188	20819
807.33	20815
807.472	20868
807.614	20823
807.756	20811
807.898	20644
808.04	20541
808.182	20560
808.324	20530
808.465	20590
808.607	20838
808.749	20834
808.891	20975
809.033	20963
809.174	20952
809.316	20804
809.458	20845
809.6	20777
809.741	20952
809.883	20857
810.025	21009
810.166	20838
810.308	20948
810.45	20925
810.591	20811
810.733	20594
810.875	20712
811.016	20583
811.158	20495
811.299	20781
811.441	20697
811.582	20678
811.724	20674
811.865	20670
812.007	20655
812.148	20602
812.29	20613
812.431	20777
812.573	20838
812.714	20914
812.855	21123
812.997	21291
813.138	21348
813.279	21214
813.421	21180
813.562	21024
813.703	20918
813.845	20811
813.986	20438
814.127	20309
814.268	20161
814.41	20191
814.551	20062
814.692	20149
814.833	20183
814.974	20214
815.115	20092
815.256	19989
815.397	19993
815.539	20027
815.68	19928
815.821	19765
815.962	19989
816.103	19940
816.244	19799
816.385	19727
816.526	19613
816.666	19472
816.807	19259
816.948	19343
817.089	19430
817.23	19278
817.371	19213
817.512	19282
817.653	19232
817.793	19225
817.934	19190
818.075	19206
818.216	19259
818.356	19247
818.497	19046
818.638	18947
818.778	18901
818.919	18993
819.06	18943
819.2	19084
819.341	19202
819.481	19289
819.622	19324
819.762	19472
819.903	19350
820.043	19426
820.184	19266
820.324	19289
820.465	19293
820.605	19255
820.746	19228
820.886	19072
821.026	19103
821.167	19255
821.307	19392
821.447	19282
821.588	19126
821.728	18935
821.868	18730
822.008	18734
822.149	18696
822.289	18681
822.429	18479
822.569	18399
822.709	18395
822.849	18201
822.99	18194
823.13	18258
823.27	18133
823.41	18087
823.55	17893
823.69	18064
823.83	18083
823.97	17893
824.11	17851
824.25	17779
824.389	17786
824.529	17798
824.669	17752
824.809	17889
824.949	17912
825.089	17817
825.228	17851
825.368	17745
825.508	17668
825.648	17524
825.787	17699
825.927	17649
826.067	17497
826.206	17535
826.346	17661
826.485	17543
826.625	17497
826.765	17619
826.904	17623
827.044	17360
827.183	17326
827.323	17273
827.462	17334
827.601	17258
827.741	17269
827.88	17372
828.02	17162
828.159	17250
828.298	17250
828.437	17387
828.577	17242
828.716	17417
828.855	17113
828.994	16980
829.134	17113
829.273	17018
829.412	16923
829.551	16991
829.69	17098
829.829	16965
829.968	17151
830.107	16984
830.246	17086
830.385	17064
830.524	16995
830.663	16835
830.802	16759
830.941	16641
831.08	16721
831.219	16679
831.357	16755
831.496	16949
831.635	16694
831.774	16637
831.913	16580
832.051	16470
832.19	16447
832.329	16428
832.467	16443
832.606	16322
832.744	16287
832.883	16329
833.022	16306
833.16	16318
833.299	16417
833.437	16375
833.576	16440
833.714	16413
833.852	16470
833.991	16489
834.129	16443
834.267	16504
834.406	16390
834.544	16542
834.682	16459
834.821	16382
834.959	16596
835.097	16333
835.235	16500
835.373	16443
835.511	16379
835.65	16360
835.788	16261
835.926	16223
836.064	16154
836.202	16185
836.34	16398
836.478	16462
836.615	16223
836.753	16303
836.891	16409
837.029	16322
837.167	16379
837.305	16154
837.443	16192
837.58	16173
837.718	16417
837.856	16249
837.993	16086
838.131	16181
838.269	16082
838.406	16143
838.544	16173
838.681	15835
838.819	15979
838.956	15819
839.094	15736
839.231	15785
839.369	15937
839.506	16112
839.643	16124
839.781	15816
839.918	15720
840.055	15785
840.193	15736
840.33	15679
840.467	15778
840.604	15720
840.742	15926
840.879	15625
841.016	15652
841.153	15580
841.29	15747
841.427	15717
841.564	15903
841.701	15732
841.838	15633
841.975	15618
842.112	15705
842.249	15545
842.385	15488
842.522	15698
842.659	15488
842.796	15530
842.933	15606
843.069	15511
843.206	15477
843.343	15648
843.479	15557
843.616	15584
843.752	15370
843.889	15264
844.025	15507
844.162	15218
844.298	15386
844.435	15355
844.571	15355
844.708	15466
844.844	15405
844.98	15447
845.117	15431
845.253	15321
845.389	15207
845.525	15260
845.661	15203
845.798	15135
845.934	15211
846.07	15188
846.206	15127
846.342	15203
846.478	15043
846.614	14960
846.75	14883
846.886	14861
847.022	15005
847.158	14986
847.294	14990
847.429	14910
847.565	14880
847.701	15097
847.837	14621
847.972	14644
848.108	14735
848.244	14693
848.379	14587
848.515	14514
848.65	14484
848.786	14473
848.921	14484
849.057	14693
849.192	14530
849.328	14533
849.463	14438
849.598	14522
849.734	14324
849.869	14381
850.004	14309
850.14	14278
850.275	14244
850.41	14237
850.545	14221
850.68	14229
850.815	14263
850.95	14275
851.085	14431
851.22	14431
851.355	14339
851.49	14278
851.625	14301
851.76	14286
851.895	14180
852.03	14145
852.165	14214
852.299	14237
852.434	14275
852.569	14286
852.703	14240
852.838	14366
852.973	14423
853.107	14495
853.242	14172
853.376	14145
853.511	13925
853.645	14073
853.78	14267
853.914	14084
854.048	14126
854.183	14126
854.317	14084
854.451	14237
854.585	14096
854.72	14130
854.854	14180
854.988	14153
855.122	14149
855.256	14024
855.39	14092
855.524	14195
855.658	14206
855.792	14119
855.926	14138
856.06	14149
856.194	14286
856.327	14164
856.461	14081
856.595	14149
856.729	14111
856.862	14275
856.996	14149
857.13	14168
857.263	14286
857.397	14282
857.53	14054
857.664	14145
857.797	14130
857.931	14366
858.064	14092
858.197	14248
858.331	14142
858.464	14073
858.597	14024
858.731	14157
858.864	14221
858.997	14111
859.13	14130
859.263	14111
859.396	14317
859.529	14107
859.662	14111
859.795	14050
859.928	14103
860.061	14412
860.194	14358
860.327	14149
860.46	14168
860.592	14320
860.725	14286
860.858	14252
860.99	14145
861.123	14035
861.256	14161
861.388	14229
861.521	14807
861.653	14062
861.786	14020
861.918	14016
862.05	14016
862.183	14069
862.315	14138
862.447	14138
862.58	14043
862.712	13822
862.844	13871
862.976	14069
863.108	13940
863.24	14358
863.372	13875
863.504	13978
863.636	13879
863.768	13959
863.9	13856
864.032	13925
864.164	13894
864.296	13928
864.428	14058
864.559	14088
864.691	14054
864.823	13936
864.954	13982
865.086	13955
865.217	13940
865.349	13902
865.48	13921
865.612	13868
865.743	14039
865.875	14031
866.006	13925
866.137	13898
866.269	13928
866.4	13871
866.531	13944
866.662	13864
866.793	13845
866.924	13932
867.055	13932
867.186	13864
867.317	13879
867.448	13811
867.579	13772
867.71	13890
867.841	13879
867.972	13955
868.103	13906
868.233	13879
868.364	13883
868.495	14008
868.625	14088
868.756	14180
868.886	14001
869.017	14202
869.147	14248
869.278	14252
869.408	14244
869.539	14100
869.669	14145
869.799	14168
869.929	14313
870.06	14259
870.19	14442
870.32	14461
870.45	14476
870.58	14621
870.71	14663
870.84	14670
870.97	14541
871.1	14484
871.23	14716
871.36	14735
871.489	14644
871.619	14773
871.749	14792
871.879	14773
872.008	14891
872.138	14834
872.267	14724
872.397	14598
872.526	14560
872.656	14560
872.785	14648
872.915	14838
873.044	14895
873.173	14804
873.303	14800
873.432	14853
873.561	14921
873.69	14823
873.819	14895
873.948	14849
874.077	14826
874.206	14708
874.335	14902
874.464	14921
874.593	15173
874.722	15112
874.851	15074
874.979	15150
875.108	15093
875.237	15028
875.365	15077
875.494	15127
875.623	15165
875.751	15192
875.88	15146
876.008	15272
876.136	15310
876.265	15553
876.393	15633
876.521	15641
876.65	15603
876.778	15591
876.906	15488
877.034	15397
877.162	15488
877.29	15428
877.418	15587
877.546	15553
877.674	15511
877.802	15488
877.93	15538
878.058	15481
878.185	15401
878.313	15595
878.441	15466
878.568	15435
878.696	15374
878.824	15606
878.951	15660
879.079	15713
879.206	15800
879.333	15644
879.461	15584
879.588	15568
879.715	15656
879.842	15736
879.97	15545
880.097	15428
880.224	15363
880.351	15443
880.478	15466
880.605	15374
880.732	15393
880.859	15682
880.986	15370
881.112	15439
881.239	15348
881.366	15154
881.493	15017
881.619	15028
881.746	15039
881.872	15066
881.999	15081
882.125	15097
882.252	15062
882.378	15066
882.505	15218
882.631	15047
882.757	14982
882.883	14963
883.01	14895
883.136	14792
883.262	14788
883.388	14705
883.514	14906
883.64	14895
883.766	14826
883.892	14682
884.018	14667
884.143	14872
884.269	14887
884.395	14636
884.52	14655
884.646	14579
884.772	14427
884.897	14499
885.023	14602
885.148	14678
885.274	14754
885.399	14667
885.524	14625
885.65	14575
885.775	14602
885.9	14526
886.025	14648
886.15	14636
886.275	14560
886.4	14522
886.525	14594
886.65	14465
886.775	14514
886.9	14659
887.025	14727
887.149	14473
887.274	14469
887.399	14400
887.523	14419
887.648	14343
887.773	14286
887.897	14465
888.021	14469
888.146	14343
888.27	14568
888.395	14438
888.519	14465
888.643	14575
888.767	14423
888.891	14427
889.015	14248
889.139	14343
889.263	14195
889.387	14385
889.511	14404
889.635	14389
889.759	14240
889.883	14328
890.006	14415
890.13	14419
890.254	14320
890.377	14164
890.501	14153
890.624	14046
890.748	14123
890.871	14092
890.995	14001
891.118	13898
891.241	13913
891.364	14096
891.488	14058
891.611	13913
891.734	13997
891.857	14084
891.98	13932
892.103	14168
892.226	13959
892.349	13947
892.471	13795
892.594	13955
892.717	13970
892.839	13989
892.962	14024
893.085	14008
893.207	14008
893.33	13860
893.452	13845
893.575	14012
893.697	13959
893.819	14100
893.941	14210
894.064	14069
894.186	13909
894.308	14031
894.43	14046
894.552	14183
894.674	14153
894.796	14016
894.918	13906
895.04	14016
895.161	14218
895.283	14088
895.405	14027
895.526	14039
895.648	14031
895.769	14096
895.891	14115
896.012	14111
896.134	14199
896.255	14172
896.376	14138
896.498	14115
896.619	14191
896.74	14157
896.861	14187
896.982	14492
897.103	14590
897.224	14389
897.345	14362
897.466	14362
897.587	14457
897.708	14499
897.828	14419
897.949	14366
898.07	14313
898.19	14438
898.311	14571
898.431	14442
898.552	14446
898.672	14522
898.792	14636
898.913	14511
899.033	14419
899.153	14442
899.273	14298
899.393	14404
899.513	14465
899.633	14347
899.753	14324
899.873	14343
899.993	14408
900.113	14286
900.232	14389
900.352	14252
900.472	14267
900.591	14183
900.711	14225
900.83	14240
900.95	14324
901.069	14370
901.189	14168
901.308	13947
901.427	13864
901.546	13887
901.665	13959
901.784	13902
901.904	13753
902.023	13719
902.141	13480
902.26	13464
902.379	13590
902.498	13476
902.617	13445
902.735	13476
902.854	13476
902.973	13415
903.091	13099
903.21	13149
903.328	13175
903.446	13107
903.565	13023
903.683	13069
903.801	12939
903.919	13004
904.038	13000
904.156	12825
904.274	12996
904.392	12867
904.51	12829
904.627	12817
904.745	12871
904.863	12920
904.981	12669
905.098	12418
905.216	12547
905.334	12703
905.451	12547
905.569	12608
905.686	12502
905.803	12555
905.921	12300
906.038	12426
906.155	12410
906.272	12220
906.389	12292
906.506	12144
906.623	12175
906.74	12152
906.857	12064
906.974	12026
907.091	12190
907.208	12273
907.324	12194
907.441	12159
907.557	11977
907.674	11923
907.79	11794
907.907	11897
908.023	11935
908.139	11920
908.256	11817
908.372	11798
908.488	11851
908.604	11657
908.72	11653
908.836	11657
908.952	11672
909.068	11665
909.184	11699
909.3	11615
909.415	11691
909.531	11623
909.647	11532
909.762	11463
909.878	11349
909.993	11509
910.108	11391
910.224	11364
910.339	11425
910.454	11254
910.57	11220
910.685	11208
910.8	11497
910.915	11433
911.03	11269
911.145	11075
911.259	11140
911.374	11117
911.489	11037
911.604	11029
911.718	10900
911.833	10892
911.947	10786
912.062	10759
912.176	10797
912.291	10866
912.405	10984
912.519	11060
912.633	11067
912.748	10949
912.862	10862
912.976	10767
913.09	10618
913.204	10668
913.318	10778
913.431	10850
913.545	10809
913.659	10911
913.772	10790
913.886	10710
914	10599
914.113	10714
914.226	10740
914.34	10679
914.453	10565
914.566	10748
914.68	10611
914.793	10653
914.906	10405
915.019	10417
915.132	10261
915.245	10379
915.358	10405
915.47	10363
915.583	10360
915.696	10527
915.809	10466
915.921	10588
916.034	10371
916.146	10402
916.259	10287
916.371	10497
916.483	10394
916.595	10337
916.708	10360
916.82	10386
916.932	10314
917.044	10284
917.156	10284
917.268	10128
917.38	10185
917.491	10116
917.603	10185
917.715	10310
917.826	10363
917.938	10257
918.049	10101
918.161	10280
918.272	10344
918.384	10325
918.495	10265
918.606	10150
918.717	10021
918.828	10109
918.939	10086
919.05	10006
919.161	10051
919.272	9907
919.383	9880
919.494	10074
919.604	10341
919.715	10109
919.826	10025
919.936	10078
920.047	10227
920.157	10147
920.267	10284
920.378	10109
920.488	10162
920.598	10265
920.708	10455
920.818	10306
920.928	10276
921.038	10478
921.148	10455
921.258	10211
921.368	10139
921.477	10082
921.587	9987
921.697	9838
921.806	10029
921.916	9899
922.025	9747
922.134	9663
922.244	9595
922.353	9728
922.462	9545
922.571	9572
922.68	9447
922.789	9355
922.898	9466
923.007	9351
923.116	9397
923.224	9389
923.333	9355
923.442	9340
923.55	9283
923.659	9241
923.767	9272
923.876	9264
923.984	9359
924.092	9199
924.201	9294
924.309	9146
924.417	9253
924.525	9233
924.633	9237
924.741	10006
924.849	9062
924.956	9241
925.064	9005
925.172	8952
925.279	8971
925.387	9024
925.494	9062
925.602	9199
925.709	9161
925.816	8960
925.924	9032
926.031	9135
926.138	9074
926.245	9112
926.352	8899
926.459	9070
926.566	9135
926.673	9039
926.779	8921
926.886	8864
926.993	8815
927.099	8762
927.206	8750
927.312	8720
927.419	8777
927.525	8758
927.631	8773
927.737	8720
927.843	8636
927.95	8610
928.056	8632
928.162	8629
928.267	8724
928.373	9397
928.479	8716
928.585	8537
928.69	8587
928.796	8678
928.901	8518
929.007	8396
929.112	8575
929.218	8488
929.323	8480
929.428	8511
929.533	8670
929.638	8377
929.743	8434
929.848	8480
929.953	8526
930.058	8374
930.163	8183
930.267	8286
930.372	8412
930.477	8221
930.581	8473
930.685	8362
930.79	8145
930.894	8259
930.998	8233
931.103	8328
931.207	7940
931.311	7928
931.415	7792
931.519	7696
931.623	7700
