Data from test_V78500241_841.txt Node
Date: Fri Mar 25 14:39:34 CST 2022
User: usil
Spectrometer: V785-0024
Trigger mode: 0
Integration Time (sec): 4.000000E-1
Scans to average: 1
Nonlinearity correction enabled: false
Boxcar width: 0
Storing dark spectrum: false
XAxis mode: Wavelengths
Number of Pixels in Spectrum: 1024
>>>>>Begin Spectral Data<<<<<
801.071	26069
801.214	25871
801.356	25791
801.499	25449
801.641	25415
801.783	25335
801.926	25529
802.068	25194
802.211	25129
802.353	25145
802.496	25065
802.638	24871
802.78	24833
802.923	24757
803.065	24620
803.208	24791
803.35	24795
803.492	25050
803.635	24951
803.777	24901
803.919	25031
804.061	25301
804.204	25076
804.346	24897
804.488	24875
804.63	24966
804.773	24916
804.915	24913
805.057	25004
805.199	24981
805.341	25080
805.483	25251
805.626	25278
805.768	25187
805.91	25308
806.052	25384
806.194	25438
806.336	25814
806.478	25693
806.62	25727
806.762	26069
806.904	26332
807.046	26716
807.188	26762
807.33	27184
807.472	27397
807.614	27694
807.756	28322
807.898	29029
808.04	29745
808.182	30981
808.324	32583
808.465	34325
808.607	36327
808.749	38073
808.891	39055
809.033	39271
809.174	38237
809.316	36330
809.458	34443
809.6	32442
809.741	30848
809.883	29528
810.025	28782
810.166	28078
810.308	27652
810.45	27184
810.591	26967
810.733	26537
810.875	26259
811.016	26043
811.158	25887
811.299	25921
811.441	25795
811.582	25727
811.724	25529
811.865	25373
812.007	25571
812.148	25422
812.29	25495
812.431	25605
812.573	25704
812.714	25750
812.855	25658
812.997	25738
813.138	25959
813.279	25833
813.421	25674
813.562	25632
813.703	25346
813.845	25350
813.986	24996
814.127	24894
814.268	24703
814.41	24597
814.551	24650
814.692	24631
814.833	24505
814.974	24593
815.115	24525
815.256	24273
815.397	24300
815.539	24315
815.68	24262
815.821	24114
815.962	24266
816.103	24144
816.244	23950
816.385	23855
816.526	23882
816.666	23687
816.807	23558
816.948	23646
817.089	23672
817.23	23733
817.371	23482
817.512	23452
817.653	23486
817.793	23539
817.934	23455
818.075	23585
818.216	23414
818.356	23425
818.497	23315
818.638	23227
818.778	23105
818.919	23094
819.06	23128
819.2	23220
819.341	23535
819.481	23315
819.622	23459
819.762	23570
819.903	23589
820.043	23520
820.184	23372
820.324	23417
820.465	23463
820.605	23326
820.746	23425
820.886	23193
821.026	23254
821.167	23292
821.307	23261
821.447	23189
821.588	23121
821.728	23060
821.868	22812
822.008	22672
822.149	22653
822.289	22645
822.429	22333
822.569	22261
822.709	22276
822.849	22139
822.99	22169
823.13	22143
823.27	22150
823.41	21991
823.55	21705
823.69	21899
823.83	21991
823.97	21812
824.11	21652
824.25	21667
824.389	21739
824.529	21713
824.669	21690
824.809	21660
824.949	21800
825.089	21812
825.228	21686
825.368	21454
825.508	21397
825.648	21507
825.787	21443
825.927	21530
826.067	21431
826.206	21393
826.346	21439
826.485	21488
826.625	21291
826.765	21511
826.904	21538
827.044	21165
827.183	21165
827.323	21036
827.462	21230
827.601	21154
827.741	21104
827.88	21089
828.02	20963
828.159	21058
828.298	21089
828.437	20994
828.577	21036
828.716	21222
828.855	20975
828.994	20868
829.134	20754
829.273	20788
829.412	20708
829.551	20788
829.69	20663
829.829	20739
829.968	20876
830.107	20815
830.246	20792
830.385	20651
830.524	20579
830.663	20613
830.802	20583
830.941	20450
831.08	20282
831.219	20404
831.357	20434
831.496	20590
831.635	20374
831.774	20256
831.913	20240
832.051	20343
832.19	20122
832.329	20263
832.467	20111
832.606	20043
832.744	20225
832.883	20138
833.022	20366
833.16	20317
833.299	20324
833.437	20438
833.576	20423
833.714	20674
833.852	20701
833.991	20785
834.129	20899
834.267	20811
834.406	20788
834.544	20815
834.682	20701
834.821	20488
834.959	20674
835.097	20473
835.235	20446
835.373	20256
835.511	20328
835.65	20240
835.788	20180
835.926	19974
836.064	19818
836.202	19913
836.34	20084
836.478	19947
836.615	19864
836.753	20027
836.891	19928
837.029	19936
837.167	19921
837.305	19795
837.443	19685
837.58	19734
837.718	19784
837.856	19845
837.993	19700
838.131	19613
838.269	19567
838.406	19575
838.544	19597
838.681	19472
838.819	19407
838.956	19244
839.094	19175
839.231	19244
839.369	19343
839.506	19635
839.643	19426
839.781	19244
839.918	19091
840.055	19221
840.193	19171
840.33	19053
840.467	19148
840.604	19266
840.742	19468
840.879	18901
841.016	19133
841.153	19000
841.29	19350
841.427	19137
841.564	19099
841.701	19145
841.838	19156
841.975	19122
842.112	19050
842.249	18932
842.385	19076
842.522	19103
842.659	19031
842.796	18863
842.933	18932
843.069	18947
843.206	18913
843.343	19008
843.479	18981
843.616	19164
843.752	18802
843.889	18802
844.025	18970
844.162	18932
844.298	19088
844.435	19103
844.571	19297
844.708	19449
844.844	19731
844.98	19898
845.117	20290
845.253	20606
845.389	21660
845.525	23630
845.661	26914
845.798	30821
845.934	34025
846.07	35330
846.206	34809
846.342	32157
846.478	28310
846.614	24445
846.75	22200
846.886	20842
847.022	20027
847.158	19480
847.294	19122
847.429	18954
847.565	18642
847.701	18966
847.837	18342
847.972	18247
848.108	18281
848.244	18174
848.379	18022
848.515	17927
848.65	17908
848.786	18049
848.921	17870
849.057	17980
849.192	17984
849.328	17889
849.463	17893
849.598	17737
849.734	17783
849.869	17710
850.004	17611
850.14	17718
850.275	17490
850.41	17444
850.545	17528
850.68	17573
850.815	17581
850.95	17501
851.085	17764
851.22	17722
851.355	17493
851.49	17436
851.625	17459
851.76	17600
851.895	17448
852.03	17356
852.165	17547
852.299	17532
852.434	17611
852.569	17718
852.703	17592
852.838	17714
852.973	17604
853.107	17726
853.242	17604
853.376	17532
853.511	17398
853.645	17543
853.78	17760
853.914	17497
854.048	17627
854.183	17604
854.317	17600
854.451	17771
854.585	17668
854.72	17680
854.854	17653
854.988	17501
855.122	17501
855.256	17417
855.39	17471
855.524	17505
855.658	17543
855.792	17474
855.926	17520
856.06	17535
856.194	17444
856.327	17402
856.461	17383
856.595	17368
856.729	17395
856.862	17455
856.996	17467
857.13	17482
857.263	17486
857.397	17570
857.53	17311
857.664	17455
857.797	17414
857.931	17417
858.064	17391
858.197	17452
858.331	17364
858.464	17265
858.597	17105
858.731	17258
858.864	17250
858.997	17292
859.13	17296
859.263	17296
859.396	17379
859.529	17258
859.662	17349
859.795	17227
859.928	17299
860.061	17452
860.194	17516
860.327	17212
860.46	17261
860.592	17410
860.725	17398
860.858	17315
860.99	17315
861.123	17193
861.256	17200
861.388	17166
861.521	17954
861.653	17178
861.786	16991
861.918	17094
862.05	17273
862.183	17193
862.315	17269
862.447	17239
862.58	17193
862.712	17029
862.844	16885
862.976	17132
863.108	17117
863.24	17269
863.372	16915
863.504	17056
863.636	16949
863.768	17006
863.9	16934
864.032	16900
864.164	16961
864.296	17006
864.428	17067
864.559	17041
864.691	17083
864.823	17006
864.954	16915
865.086	16896
865.217	16946
865.349	16900
865.48	16930
865.612	16858
865.743	16953
865.875	16858
866.006	16816
866.137	16968
866.269	16949
866.4	16923
866.531	16858
866.662	16938
866.793	16866
866.924	16904
867.055	16801
867.186	16858
867.317	16793
867.448	16866
867.579	16824
867.71	16702
867.841	16778
867.972	16858
868.103	16911
868.233	16862
868.364	16930
868.495	16976
868.625	17006
868.756	17315
868.886	17079
869.017	17083
869.147	17242
869.278	17345
869.408	17204
869.539	17231
869.669	17277
869.799	17155
869.929	17303
870.06	17231
870.19	17535
870.32	17516
870.45	17566
870.58	17497
870.71	17623
870.84	17687
870.97	17512
871.1	17551
871.23	17699
871.36	17866
871.489	17646
871.619	17687
871.749	17813
871.879	17840
872.008	17977
872.138	17813
872.267	17923
872.397	17802
872.526	17665
872.656	17668
872.785	17699
872.915	17950
873.044	17939
873.173	17874
873.303	17996
873.432	17999
873.561	18106
873.69	17977
873.819	17931
873.948	18095
874.077	18102
874.206	17988
874.335	18144
874.464	18197
874.593	18338
874.722	18319
874.851	18486
874.979	18513
875.108	18452
875.237	18426
875.365	18357
875.494	18551
875.623	18574
875.751	18506
875.88	18604
876.008	18722
876.136	18745
876.265	19141
876.393	19145
876.521	19145
876.65	19312
876.778	19164
876.906	19240
877.034	18996
877.162	19266
877.29	19187
877.418	19426
877.546	19407
877.674	19480
877.802	19575
877.93	19658
878.058	19666
878.185	19715
878.313	19940
878.441	20142
878.568	20218
878.696	20632
878.824	21146
878.951	21869
879.079	22965
879.206	24064
879.333	25278
879.461	26320
879.588	26956
879.715	27051
879.842	26545
879.97	25358
880.097	23878
880.224	22790
880.351	22291
880.478	21873
880.605	21351
880.732	21173
880.859	21165
880.986	20960
881.112	20880
881.239	20648
881.366	20583
881.493	20457
881.619	20400
881.746	20541
881.872	20617
881.999	20484
882.125	20492
882.252	20564
882.378	20495
882.505	20758
882.631	20564
882.757	20412
882.883	20465
883.01	20393
883.136	20290
883.262	20256
883.388	20263
883.514	20522
883.64	20400
883.766	20351
883.892	20157
884.018	20263
884.143	20358
884.269	20370
884.395	20183
884.52	20077
884.646	20111
884.772	20046
884.897	20062
885.023	20180
885.148	20206
885.274	20149
885.399	20050
885.524	20001
885.65	19913
885.775	19696
885.9	19643
886.025	19757
886.15	19643
886.275	19388
886.4	19225
886.525	19274
886.65	19080
886.775	19095
886.9	19312
887.025	19190
887.149	18989
887.274	18779
887.399	18715
887.523	18665
887.648	18532
887.773	18285
887.897	18802
888.021	18589
888.146	18441
888.27	18517
888.395	18506
888.519	18369
888.643	18391
888.767	18334
888.891	18216
889.015	18079
889.139	18030
889.263	18057
889.387	18102
889.511	18209
889.635	18110
889.759	17961
889.883	17904
890.006	17939
890.13	18034
890.254	17832
890.377	17737
890.501	17684
890.624	17604
890.748	17672
890.871	17551
890.995	17501
891.118	17395
891.241	17353
891.364	17364
891.488	17463
891.611	17364
891.734	17341
891.857	17250
891.98	17368
892.103	17360
892.226	17246
892.349	17326
892.471	17113
892.594	17223
892.717	17200
892.839	17174
892.962	17121
893.085	17235
893.207	17189
893.33	17060
893.452	16946
893.575	17102
893.697	17113
893.819	17220
893.941	17216
894.064	17216
894.186	16995
894.308	16976
894.43	17022
894.552	17124
894.674	17010
894.796	16904
894.918	16911
895.04	17010
895.161	17010
895.283	17071
895.405	16896
895.526	16908
895.648	16938
895.769	16904
895.891	16980
896.012	17086
896.134	17003
896.255	16896
896.376	16847
896.498	16873
896.619	16980
896.74	16927
896.861	17010
896.982	17223
897.103	17356
897.224	17277
897.345	17124
897.466	17128
897.587	17197
897.708	17223
897.828	17105
897.949	17102
898.07	17052
898.19	17052
898.311	17246
898.431	17105
898.552	17166
898.672	17220
898.792	17311
898.913	17204
899.033	17067
899.153	17060
899.273	16930
899.393	17029
899.513	17071
899.633	16949
899.753	17018
899.873	16877
899.993	16953
900.113	17014
900.232	17003
900.352	16980
900.472	16911
900.591	16752
900.711	16957
900.83	16828
900.95	16911
901.069	16889
901.189	16725
901.308	16455
901.427	16447
901.546	16428
901.665	16440
901.784	16546
901.904	16272
902.023	16318
902.141	16025
902.26	15941
902.379	16086
902.498	15804
902.617	15895
902.735	15926
902.854	15972
902.973	15736
903.091	15686
903.21	15580
903.328	15572
903.446	15447
903.565	15348
903.683	15424
903.801	15325
903.919	15378
904.038	15351
904.156	15199
904.274	15184
904.392	15165
904.51	15081
904.627	15169
904.745	15142
904.863	15154
904.981	14941
905.098	14765
905.216	14746
905.334	14804
905.451	14891
905.569	14781
905.686	14807
905.803	14762
905.921	14720
906.038	14701
906.155	14598
906.272	14442
906.389	14454
906.506	14320
906.623	14290
906.74	14313
906.857	14206
906.974	14149
907.091	14328
907.208	14476
907.324	14324
907.441	14214
907.557	14050
907.674	14123
907.79	14001
907.907	13974
908.023	14035
908.139	14020
908.256	13997
908.372	13921
908.488	13902
908.604	13830
908.72	13788
908.836	13772
908.952	13734
909.068	13761
909.184	13868
909.3	13841
909.415	13864
909.531	13784
909.647	13502
909.762	13582
909.878	13468
909.993	13556
910.108	13552
910.224	13544
910.339	13445
910.454	13400
910.57	13312
910.685	13297
910.8	13594
910.915	13552
911.03	13327
911.145	13213
911.259	13118
911.374	13129
911.489	12993
911.604	13031
911.718	12962
911.833	12882
911.947	12897
912.062	12776
912.176	12913
912.291	12833
912.405	12970
912.519	13110
912.633	13057
912.748	12993
912.862	12848
912.976	12776
913.09	12677
913.204	12715
913.318	12798
913.431	12871
913.545	12856
913.659	12894
913.772	12764
913.886	12665
914	12585
914.113	12726
914.226	12703
914.34	12669
914.453	12555
914.566	12639
914.68	12513
914.793	12555
914.906	12334
915.019	12258
915.132	12254
915.245	12342
915.358	12372
915.47	12285
915.583	12273
915.696	12376
915.809	12372
915.921	12388
916.034	12251
916.146	12292
916.259	12209
916.371	12338
916.483	12334
916.595	12228
916.708	12266
916.82	12315
916.932	12194
917.044	12266
917.156	12194
917.268	12106
917.38	12083
917.491	12114
917.603	12155
917.715	12228
917.826	12235
917.938	12053
918.049	11996
918.161	12022
918.272	12167
918.384	12102
918.495	12019
918.606	11855
918.717	11786
918.828	11912
918.939	11885
919.05	11805
919.161	11843
919.272	11707
919.383	11714
919.494	11897
919.604	12159
919.715	11863
919.826	11840
919.936	11828
920.047	11901
920.157	11908
920.267	12045
920.378	11893
920.488	11882
920.598	12060
920.708	12175
920.818	12007
920.928	11984
921.038	12228
921.148	12155
921.258	11752
921.368	11805
921.477	11699
921.587	11638
921.697	11520
921.806	11649
921.916	11570
922.025	11349
922.134	11273
922.244	11296
922.353	11326
922.462	11235
922.571	11105
922.68	11117
922.789	10900
922.898	10968
923.007	10949
923.116	11003
923.224	10946
923.333	10934
923.442	10889
923.55	10881
923.659	10930
923.767	10957
923.876	10755
923.984	10900
924.092	10843
924.201	10820
924.309	10790
924.417	10805
924.525	10683
924.633	10694
924.741	11676
924.849	10596
924.956	10698
925.064	10603
925.172	10516
925.279	10550
925.387	10603
925.494	10538
925.602	10656
925.709	10645
925.816	10497
925.924	10535
926.031	10611
926.138	10478
926.245	10596
926.352	10470
926.459	10645
926.566	10634
926.673	10493
926.779	10360
926.886	10360
926.993	10360
927.099	10348
927.206	10158
927.312	10158
927.419	10246
927.525	10306
927.631	10204
927.737	10101
927.843	10162
927.95	9975
928.056	10097
928.162	10147
928.267	10166
928.373	10763
928.479	10188
928.585	10040
928.69	10196
928.796	10139
928.901	9975
929.007	9918
929.112	9991
929.218	9987
929.323	9903
929.428	9903
929.533	9983
929.638	9816
929.743	9854
929.848	9869
929.953	9850
930.058	9743
930.163	9648
930.267	9682
930.372	9812
930.477	9557
930.581	9770
930.685	9793
930.79	9603
930.894	9545
930.998	9526
931.103	9629
931.207	9313
931.311	9298
931.415	9138
931.519	9039
931.623	8971
