Data from test_V78500241_1996.txt Node
Date: Fri Mar 25 14:47:36 CST 2022
User: usil
Spectrometer: V785-0024
Trigger mode: 0
Integration Time (sec): 4.000000E-1
Scans to average: 1
Nonlinearity correction enabled: false
Boxcar width: 0
Storing dark spectrum: false
XAxis mode: Wavelengths
Number of Pixels in Spectrum: 1024
>>>>>Begin Spectral Data<<<<<
801.071	22116
801.214	21937
801.356	21698
801.499	21633
801.641	21458
801.783	21443
801.926	21424
802.068	21485
802.211	21344
802.353	21218
802.496	21116
802.638	20876
802.78	20986
802.923	20807
803.065	20849
803.208	20708
803.35	20842
803.492	20864
803.635	20956
803.777	20804
803.919	20902
804.061	21180
804.204	20906
804.346	20743
804.488	20689
804.63	20754
804.773	20530
804.915	20720
805.057	20933
805.199	20667
805.341	20758
805.483	20815
805.626	20773
805.768	20663
805.91	20735
806.052	20693
806.194	20705
806.336	20762
806.478	20663
806.62	20667
806.762	20777
806.904	20975
807.046	21268
807.188	21081
807.33	21020
807.472	21142
807.614	20963
807.756	20960
807.898	20823
808.04	20754
808.182	20796
808.324	20899
808.465	20933
808.607	21074
808.749	21218
808.891	21138
809.033	21412
809.174	21291
809.316	21077
809.458	21245
809.6	21020
809.741	21085
809.883	21138
810.025	21382
810.166	21321
810.308	21302
810.45	21203
810.591	21184
810.733	20937
810.875	20986
811.016	20853
811.158	20788
811.299	20842
811.441	21013
811.582	21077
811.724	20982
811.865	20769
812.007	20937
812.148	20891
812.29	20845
812.431	21165
812.573	21306
812.714	21325
812.855	21492
812.997	21545
813.138	21720
813.279	21458
813.421	21443
813.562	21401
813.703	21070
813.845	21077
813.986	20891
814.127	20636
814.268	20541
814.41	20465
814.551	20419
814.692	20469
814.833	20396
814.974	20339
815.115	20393
815.256	20339
815.397	20317
815.539	20309
815.68	20157
815.821	20103
815.962	20157
816.103	20111
816.244	19963
816.385	19925
816.526	19750
816.666	19761
816.807	19616
816.948	19685
817.089	19780
817.23	19674
817.371	19559
817.512	19620
817.653	19563
817.793	19563
817.934	19521
818.075	19670
818.216	19655
818.356	19525
818.497	19403
818.638	19190
818.778	19129
818.919	19232
819.06	19400
819.2	19358
819.341	19422
819.481	19582
819.622	19628
819.762	19643
819.903	19704
820.043	19521
820.184	19605
820.324	19567
820.465	19662
820.605	19544
820.746	19540
820.886	19381
821.026	19586
821.167	19480
821.307	19567
821.447	19571
821.588	19552
821.728	19225
821.868	19050
822.008	19053
822.149	19023
822.289	18966
822.429	18528
822.569	18623
822.709	18578
822.849	18517
822.99	18494
823.13	18384
823.27	18395
823.41	18327
823.55	18273
823.69	18285
823.83	18232
823.97	18308
824.11	17977
824.25	18049
824.389	17950
824.529	18125
824.669	18064
824.809	18194
824.949	18159
825.089	18060
825.228	18068
825.368	17729
825.508	17805
825.648	17786
825.787	17855
825.927	17805
826.067	17824
826.206	17786
826.346	17802
826.485	17779
826.625	17794
826.765	17920
826.904	17824
827.044	17551
827.183	17653
827.323	17493
827.462	17554
827.601	17429
827.741	17512
827.88	17501
828.02	17349
828.159	17455
828.298	17539
828.437	17543
828.577	17436
828.716	17532
828.855	17532
828.994	17353
829.134	17391
829.273	17296
829.412	17315
829.551	17239
829.69	17292
829.829	17303
829.968	17398
830.107	17383
830.246	17376
830.385	17170
830.524	17128
830.663	17094
830.802	16991
830.941	16930
831.08	16790
831.219	16984
831.357	17041
831.496	17178
831.635	16873
831.774	16793
831.913	16706
832.051	16698
832.19	16603
832.329	16736
832.467	16618
832.606	16618
832.744	16611
832.883	16573
833.022	16523
833.16	16535
833.299	16706
833.437	16706
833.576	16679
833.714	16588
833.852	16675
833.991	16599
834.129	16653
834.267	16740
834.406	16733
834.544	16763
834.682	16596
834.821	16603
834.959	16995
835.097	16584
835.235	16687
835.373	16675
835.511	16637
835.65	16554
835.788	16577
835.926	16443
836.064	16329
836.202	16497
836.34	16554
836.478	16558
836.615	16432
836.753	16607
836.891	16679
837.029	16675
837.167	16649
837.305	16535
837.443	16413
837.58	16409
837.718	16466
837.856	16459
837.993	16402
838.131	16421
838.269	16356
838.406	16333
838.544	16371
838.681	16101
838.819	16166
838.956	15869
839.094	16029
839.231	16059
839.369	16093
839.506	16382
839.643	16287
839.781	16013
839.918	15937
840.055	16013
840.193	15884
840.33	15934
840.467	15964
840.604	15979
840.742	16181
840.879	15903
841.016	15915
841.153	15934
841.29	16097
841.427	15960
841.564	16002
841.701	16040
841.838	15956
841.975	15876
842.112	15865
842.249	15682
842.385	15732
842.522	16013
842.659	15755
842.796	15819
842.933	15705
843.069	15842
843.206	15770
843.343	15804
843.479	15778
843.616	15770
843.752	15466
843.889	15542
844.025	15644
844.162	15439
844.298	15675
844.435	15564
844.571	15507
844.708	15553
844.844	15709
844.98	15789
845.117	15648
845.253	15405
845.389	15408
845.525	15557
845.661	15420
845.798	15306
845.934	15268
846.07	15272
846.206	15389
846.342	15473
846.478	15351
846.614	15195
846.75	15150
846.886	15017
847.022	15252
847.158	15100
847.294	15157
847.429	15237
847.565	15017
847.701	15279
847.837	14944
847.972	14727
848.108	14902
848.244	14842
848.379	14781
848.515	14735
848.65	14663
848.786	14830
848.921	14785
849.057	14807
849.192	14811
849.328	14765
849.463	14625
849.598	14708
849.734	14648
849.869	14659
850.004	14469
850.14	14484
850.275	14434
850.41	14339
850.545	14343
850.68	14434
850.815	14446
850.95	14454
851.085	14648
851.22	14606
851.355	14587
851.49	14488
851.625	14431
851.76	14473
851.895	14294
852.03	14355
852.165	14412
852.299	14492
852.434	14549
852.569	14514
852.703	14503
852.838	14495
852.973	14587
853.107	14682
853.242	14480
853.376	14389
853.511	14259
853.645	14317
853.78	14446
853.914	14339
854.048	14343
854.183	14271
854.317	14282
854.451	14492
854.585	14278
854.72	14313
854.854	14385
854.988	14225
855.122	14278
855.256	14233
855.39	14309
855.524	14374
855.658	14480
855.792	14305
855.926	14492
856.06	14339
856.194	14499
856.327	14347
856.461	14332
856.595	14282
856.729	14374
856.862	14431
856.996	14332
857.13	14465
857.263	14415
857.397	14511
857.53	14427
857.664	14442
857.797	14469
857.931	14434
858.064	14267
858.197	14434
858.331	14381
858.464	14427
858.597	14259
858.731	14377
858.864	14259
858.997	14400
859.13	14324
859.263	14347
859.396	14457
859.529	14313
859.662	14366
859.795	14225
859.928	14393
860.061	14526
860.194	14495
860.327	14408
860.46	14309
860.592	14434
860.725	14530
860.858	14419
860.99	14332
861.123	14244
861.256	14233
861.388	14351
861.521	15062
861.653	14244
861.786	14225
861.918	14271
862.05	14210
862.183	14298
862.315	14324
862.447	14396
862.58	14218
862.712	14157
862.844	14065
862.976	14187
863.108	14263
863.24	14492
863.372	14016
863.504	14176
863.636	14103
863.768	14206
863.9	14077
864.032	14123
864.164	14058
864.296	14183
864.428	14153
864.559	14210
864.691	14275
864.823	14218
864.954	14142
865.086	14168
865.217	14096
865.349	14111
865.48	14084
865.612	14180
865.743	14301
865.875	14142
866.006	14008
866.137	14130
866.269	14176
866.4	14088
866.531	14103
866.662	14084
866.793	14008
866.924	14123
867.055	14054
867.186	14107
867.317	13989
867.448	14005
867.579	14084
867.71	14035
867.841	14043
867.972	14145
868.103	14149
868.233	14115
868.364	14103
868.495	14153
868.625	14415
868.756	14442
868.886	14351
869.017	14332
869.147	14492
869.278	14423
869.408	14400
869.539	14351
869.669	14446
869.799	14313
869.929	14476
870.06	14499
870.19	14667
870.32	14716
870.45	14621
870.58	14800
870.71	14815
870.84	14899
870.97	14758
871.1	14765
871.23	14979
871.36	14956
871.489	14845
871.619	14918
871.749	14960
871.879	14982
872.008	14994
872.138	14986
872.267	14899
872.397	14815
872.526	14735
872.656	14807
872.785	14834
872.915	15020
873.044	15131
873.173	14925
873.303	14960
873.432	15138
873.561	15066
873.69	14921
873.819	14986
873.948	15039
874.077	14952
874.206	14948
874.335	15028
874.464	15070
874.593	15230
874.722	15260
874.851	15313
874.979	15313
875.108	15348
875.237	15214
875.365	15207
875.494	15287
875.623	15264
875.751	15214
875.88	15408
876.008	15469
876.136	15488
876.265	15694
876.393	15827
876.521	15770
876.65	15819
876.778	15850
876.906	15671
877.034	15709
877.162	15743
877.29	15686
877.418	15690
877.546	15778
877.674	15587
877.802	15854
877.93	15732
878.058	15766
878.185	15488
878.313	15629
878.441	15694
878.568	15606
878.696	15660
878.824	15812
878.951	15861
879.079	15979
879.206	16071
879.333	15983
879.461	15755
879.588	15808
879.715	15991
879.842	16021
879.97	15812
880.097	15622
880.224	15526
880.351	15637
880.478	15629
880.605	15530
880.732	15599
880.859	15823
880.986	15606
881.112	15595
881.239	15504
881.366	15458
881.493	15317
881.619	15355
881.746	15302
881.872	15264
881.999	15310
882.125	15287
882.252	15184
882.378	15306
882.505	15389
882.631	15176
882.757	15017
882.883	15161
883.01	15119
883.136	15062
883.262	15005
883.388	14895
883.514	15062
883.64	15176
883.766	15009
883.892	14899
884.018	14929
884.143	15001
884.269	15043
884.395	14899
884.52	14857
884.646	14769
884.772	14678
884.897	14712
885.023	14819
885.148	14876
885.274	14933
885.399	14937
885.524	14834
885.65	14800
885.775	14823
885.9	14849
886.025	14838
886.15	14842
886.275	14739
886.4	14655
886.525	14705
886.65	14762
886.775	14823
886.9	14857
887.025	15028
887.149	14785
887.274	14731
887.399	14590
887.523	14560
887.648	14492
887.773	14499
887.897	14720
888.021	14655
888.146	14564
888.27	14670
888.395	14796
888.519	14587
888.643	14739
888.767	14739
888.891	14518
889.015	14450
889.139	14499
889.263	14476
889.387	14590
889.511	14663
889.635	14568
889.759	14431
889.883	14309
890.006	14495
890.13	14686
890.254	14469
890.377	14374
890.501	14225
890.624	14218
890.748	14381
890.871	14263
890.995	14138
891.118	14123
891.241	14107
891.364	14096
891.488	14362
891.611	14138
891.734	14126
891.857	14282
891.98	14256
892.103	14275
892.226	14168
892.349	14153
892.471	13997
892.594	14062
892.717	14142
892.839	14172
892.962	14107
893.085	14183
893.207	14259
893.33	13986
893.452	14027
893.575	14172
893.697	14130
893.819	14309
893.941	14294
894.064	14290
894.186	14111
894.308	14119
894.43	14431
894.552	14332
894.674	14278
894.796	14069
894.918	14157
895.04	14248
895.161	14259
895.283	14263
895.405	14210
895.526	14180
895.648	14214
895.769	14233
895.891	14324
896.012	14396
896.134	14396
896.255	14393
896.376	14290
896.498	14320
896.619	14275
896.74	14278
896.861	14389
896.982	14686
897.103	14838
897.224	14678
897.345	14587
897.466	14564
897.587	14518
897.708	14716
897.828	14640
897.949	14518
898.07	14465
898.19	14602
898.311	14750
898.431	14590
898.552	14678
898.672	14731
898.792	14686
898.913	14648
899.033	14579
899.153	14507
899.273	14385
899.393	14499
899.513	14560
899.633	14434
899.753	14556
899.873	14503
899.993	14575
900.113	14598
900.232	14564
900.352	14461
900.472	14457
900.591	14351
900.711	14457
900.83	14351
900.95	14564
901.069	14537
901.189	14362
901.308	14126
901.427	14062
901.546	14046
901.665	14100
901.784	14016
901.904	14027
902.023	13833
902.141	13643
902.26	13624
902.379	13712
902.498	13586
902.617	13506
902.735	13693
902.854	13563
902.973	13590
903.091	13449
903.21	13327
903.328	13343
903.446	13354
903.565	13202
903.683	13312
903.801	13164
903.919	13221
904.038	13179
904.156	13034
904.274	13072
904.392	12981
904.51	12939
904.627	13004
904.745	13069
904.863	13038
904.981	12745
905.098	12677
905.216	12730
905.334	12825
905.451	12673
905.569	12753
905.686	12844
905.803	12741
905.921	12525
906.038	12631
906.155	12642
906.272	12467
906.389	12429
906.506	12258
906.623	12361
906.74	12334
906.857	12182
906.974	12159
907.091	12437
907.208	12437
907.324	12273
907.441	12205
907.557	12011
907.674	12011
907.79	12026
907.907	12026
908.023	12159
908.139	12125
908.256	11999
908.372	12034
908.488	11935
908.604	11859
908.72	11832
908.836	11973
908.952	11729
909.068	11882
909.184	11984
909.3	11847
909.415	11874
909.531	11855
909.647	11592
909.762	11634
909.878	11585
909.993	11688
910.108	11474
910.224	11577
910.339	11490
910.454	11532
910.57	11501
910.685	11345
910.8	11707
910.915	11627
911.03	11482
911.145	11258
911.259	11299
911.374	11269
911.489	11223
911.604	11235
911.718	11064
911.833	11113
911.947	10953
912.062	10805
912.176	11018
912.291	11018
912.405	11041
912.519	11280
912.633	11258
912.748	11136
912.862	11121
912.976	10957
913.09	10835
913.204	10889
913.318	10980
913.431	11022
913.545	11029
913.659	11006
913.772	10889
913.886	10843
914	10759
914.113	10900
914.226	10965
914.34	10889
914.453	10755
914.566	10866
914.68	10816
914.793	10691
914.906	10592
915.019	10542
915.132	10512
915.245	10527
915.358	10584
915.47	10577
915.583	10615
915.696	10573
915.809	10755
915.921	10752
916.034	10474
916.146	10497
916.259	10417
916.371	10611
916.483	10561
916.595	10360
916.708	10459
916.82	10489
916.932	10432
917.044	10436
917.156	10413
917.268	10379
917.38	10341
917.491	10402
917.603	10386
917.715	10443
917.826	10516
917.938	10322
918.049	10272
918.161	10363
918.272	10546
918.384	10481
918.495	10405
918.606	10268
918.717	10196
918.828	10249
918.939	10272
919.05	10181
919.161	10249
919.272	10017
919.383	10097
919.494	10348
919.604	10459
919.715	10261
919.826	10150
919.936	10196
920.047	10360
920.157	10318
920.267	10478
920.378	10276
920.488	10200
920.598	10527
920.708	10649
920.818	10481
920.928	10382
921.038	10603
921.148	10546
921.258	10314
921.368	10192
921.477	10215
921.587	10109
921.697	9987
921.806	10169
921.916	9949
922.025	9865
922.134	9854
922.244	9812
922.353	9884
922.462	9740
922.571	9614
922.68	9576
922.789	9580
922.898	9584
923.007	9477
923.116	9496
923.224	9443
923.333	9538
923.442	9412
923.55	9355
923.659	9435
923.767	9488
923.876	9405
923.984	9405
924.092	9325
924.201	9431
924.309	9408
924.417	9447
924.525	9344
924.633	9367
924.741	10238
924.849	9165
924.956	9260
925.064	9180
925.172	9127
925.279	9135
925.387	9104
925.494	9169
925.602	9264
925.709	9237
925.816	9085
925.924	9184
926.031	9237
926.138	9161
926.245	9180
926.352	9036
926.459	9195
926.566	9256
926.673	9157
926.779	8967
926.886	9039
926.993	8861
927.099	8819
927.206	8876
927.312	8834
927.419	8891
927.525	8941
927.631	8906
927.737	8743
927.843	8769
927.95	8674
928.056	8750
928.162	8842
928.267	8826
928.373	9481
928.479	8887
928.585	8644
928.69	8739
928.796	8785
928.901	8663
929.007	8564
929.112	8659
929.218	8670
929.323	8621
929.428	8613
929.533	8697
929.638	8564
929.743	8511
929.848	8610
929.953	8545
930.058	8530
930.163	8377
930.267	8343
930.372	8473
930.477	8377
930.581	8575
930.685	8461
930.79	8305
930.894	8343
930.998	8259
931.103	8419
931.207	8115
931.311	8046
931.415	7978
931.519	7811
931.623	7757
