Data from test_V78500241_1454.txt Node
Date: Fri Mar 25 14:43:50 CST 2022
User: usil
Spectrometer: V785-0024
Trigger mode: 0
Integration Time (sec): 4.000000E-1
Scans to average: 1
Nonlinearity correction enabled: false
Boxcar width: 0
Storing dark spectrum: false
XAxis mode: Wavelengths
Number of Pixels in Spectrum: 1024
>>>>>Begin Spectral Data<<<<<
801.071	22550
801.214	22329
801.356	22116
801.499	22105
801.641	21831
801.783	21880
801.926	21899
802.068	21800
802.211	21580
802.353	21656
802.496	21515
802.638	21199
802.78	21283
802.923	21264
803.065	21089
803.208	21112
803.35	21272
803.492	21138
803.635	21222
803.777	21089
803.919	21260
804.061	21447
804.204	21218
804.346	21123
804.488	21062
804.63	21062
804.773	20975
804.915	21062
805.057	21127
805.199	21077
805.341	21184
805.483	21138
805.626	21150
805.768	21074
805.91	21123
806.052	21028
806.194	21005
806.336	21116
806.478	21009
806.62	20998
806.762	21127
806.904	21302
807.046	21561
807.188	21481
807.33	21431
807.472	21485
807.614	21435
807.756	21576
807.898	21336
808.04	21214
808.182	21199
808.324	21241
808.465	21393
808.607	21591
808.749	21667
808.891	21785
809.033	21888
809.174	21736
809.316	21759
809.458	21583
809.6	21511
809.741	21534
809.883	21770
810.025	21660
810.166	21675
810.308	21713
810.45	21641
810.591	21542
810.733	21397
810.875	21275
811.016	21241
811.158	21043
811.299	21306
811.441	21428
811.582	21393
811.724	21184
811.865	21157
812.007	21332
812.148	21241
812.29	21188
812.431	21431
812.573	21534
812.714	21583
812.855	21739
812.997	21842
813.138	21968
813.279	21899
813.421	21823
813.562	21652
813.703	21591
813.845	21332
813.986	21154
814.127	21047
814.268	20872
814.41	20864
814.551	20842
814.692	20823
814.833	20716
814.974	20785
815.115	20667
815.256	20659
815.397	20579
815.539	20629
815.68	20488
815.821	20492
815.962	20492
816.103	20549
816.244	20351
816.385	20347
816.526	20252
816.666	20069
816.807	20027
816.948	20020
817.089	20077
817.23	19993
817.371	19826
817.512	20062
817.653	19902
817.793	19967
817.934	19955
818.075	20046
818.216	19970
818.356	19791
818.497	19753
818.638	19578
818.778	19693
818.919	19567
819.06	19632
819.2	19734
819.341	19788
819.481	19803
819.622	19917
819.762	20149
819.903	20100
820.043	19993
820.184	19875
820.324	19856
820.465	19947
820.605	19944
820.746	19921
820.886	19856
821.026	19856
821.167	19772
821.307	19871
821.447	19753
821.588	19708
821.728	19476
821.868	19483
822.008	19335
822.149	19365
822.289	19217
822.429	19107
822.569	18981
822.709	18962
822.849	18787
822.99	18856
823.13	18791
823.27	18810
823.41	18597
823.55	18395
823.69	18654
823.83	18631
823.97	18365
824.11	18460
824.25	18350
824.389	18525
824.529	18467
824.669	18437
824.809	18464
824.949	18498
825.089	18448
825.228	18342
825.368	18194
825.508	18289
825.648	18243
825.787	18220
825.927	18171
826.067	18155
826.206	18015
826.346	18213
826.485	18102
826.625	18140
826.765	18292
826.904	18182
827.044	17999
827.183	17859
827.323	17885
827.462	17855
827.601	17916
827.741	17859
827.88	17817
828.02	17684
828.159	17863
828.298	17870
828.437	17885
828.577	17737
828.716	17992
828.855	17847
828.994	17634
829.134	17570
829.273	17813
829.412	17619
829.551	17501
829.69	17600
829.829	17726
829.968	17745
830.107	17558
830.246	17562
830.385	17562
830.524	17577
830.663	17497
830.802	17402
830.941	17121
831.08	17265
831.219	17322
831.357	17311
831.496	17528
831.635	17280
831.774	17185
831.913	17109
832.051	17090
832.19	16968
832.329	17045
832.467	17010
832.606	16927
832.744	16786
832.883	16946
833.022	16908
833.16	16957
833.299	16987
833.437	16862
833.576	16949
833.714	16965
833.852	17056
833.991	17003
834.129	17052
834.267	16995
834.406	17014
834.544	17018
834.682	16968
834.821	17033
834.959	17151
835.097	16904
835.235	17098
835.373	16938
835.511	16873
835.65	16873
835.788	16892
835.926	16725
836.064	16641
836.202	16698
836.34	16854
836.478	16957
836.615	16759
836.753	16877
836.891	16911
837.029	16908
837.167	16843
837.305	16828
837.443	16740
837.58	16805
837.718	16786
837.856	16744
837.993	16691
838.131	16683
838.269	16478
838.406	16565
838.544	16561
838.681	16341
838.819	16341
838.956	16291
839.094	16147
839.231	16333
839.369	16287
839.506	16599
839.643	16375
839.781	16249
839.918	16139
840.055	16287
840.193	16306
840.33	16200
840.467	16246
840.604	16291
840.742	16462
840.879	16192
841.016	16135
841.153	16120
841.29	16295
841.427	16219
841.564	16322
841.701	16310
841.838	16234
841.975	16162
842.112	16162
842.249	16013
842.385	15937
842.522	16261
842.659	16074
842.796	16036
842.933	16025
843.069	15953
843.206	15949
843.343	16097
843.479	16029
843.616	16086
843.752	15899
843.889	15880
844.025	15960
844.162	15831
844.298	15865
844.435	15770
844.571	15720
844.708	15827
844.844	16090
844.98	15975
845.117	16029
845.253	15766
845.389	15781
845.525	15774
845.661	15861
845.798	15865
845.934	15934
846.07	15903
846.206	15949
846.342	16021
846.478	15698
846.614	15515
846.75	15454
846.886	15443
847.022	15557
847.158	15420
847.294	15424
847.429	15367
847.565	15416
847.701	15690
847.837	15230
847.972	15138
848.108	15154
848.244	15268
848.379	15039
848.515	14994
848.65	14967
848.786	14975
848.921	14933
849.057	15142
849.192	14975
849.328	14963
849.463	15058
849.598	14971
849.734	14781
849.869	14727
850.004	14792
850.14	14796
850.275	14667
850.41	14682
850.545	14689
850.68	14693
850.815	14804
850.95	14640
851.085	14902
851.22	14807
851.355	14727
851.49	14727
851.625	14724
851.76	14712
851.895	14632
852.03	14674
852.165	14781
852.299	14712
852.434	14857
852.569	14758
852.703	14788
852.838	14777
852.973	14910
853.107	14906
853.242	14743
853.376	14530
853.511	14549
853.645	14545
853.78	14815
853.914	14670
854.048	14617
854.183	14632
854.317	14530
854.451	14765
854.585	14602
854.72	14552
854.854	14682
854.988	14575
855.122	14625
855.256	14377
855.39	14590
855.524	14621
855.658	14610
855.792	14712
855.926	14663
856.06	14575
856.194	14632
856.327	14571
856.461	14571
856.595	14617
856.729	14526
856.862	14724
856.996	14667
857.13	14758
857.263	14750
857.397	14724
857.53	14598
857.664	14659
857.797	14727
857.931	14758
858.064	14682
858.197	14845
858.331	14571
858.464	14606
858.597	14465
858.731	14530
858.864	14617
858.997	14678
859.13	14617
859.263	14674
859.396	14613
859.529	14682
859.662	14663
859.795	14587
859.928	14682
860.061	14708
860.194	14788
860.327	14659
860.46	14571
860.592	14705
860.725	14712
860.858	14705
860.99	14716
861.123	14575
861.256	14606
861.388	14598
861.521	15260
861.653	14537
861.786	14454
861.918	14492
862.05	14518
862.183	14571
862.315	14640
862.447	14693
862.58	14575
862.712	14427
862.844	14275
862.976	14419
863.108	14317
863.24	14830
863.372	14290
863.504	14339
863.636	14404
863.768	14415
863.9	14362
864.032	14320
864.164	14309
864.296	14370
864.428	14450
864.559	14480
864.691	14454
864.823	14568
864.954	14336
865.086	14419
865.217	14355
865.349	14374
865.48	14434
865.612	14366
865.743	14473
865.875	14393
866.006	14328
866.137	14396
866.269	14370
866.4	14290
866.531	14317
866.662	14259
866.793	14347
866.924	14286
867.055	14377
867.186	14294
867.317	14294
867.448	14347
867.579	14301
867.71	14282
867.841	14252
867.972	14389
868.103	14370
868.233	14343
868.364	14412
868.495	14438
868.625	14549
868.756	14674
868.886	14419
869.017	14583
869.147	14743
869.278	14758
869.408	14602
869.539	14613
869.669	14777
869.799	14689
869.929	14727
870.06	14705
870.19	14941
870.32	14880
870.45	14902
870.58	14994
870.71	15077
870.84	15047
870.97	15009
871.1	15028
871.23	15199
871.36	15161
871.489	15104
871.619	15074
871.749	15176
871.879	15184
872.008	15241
872.138	15237
872.267	15203
872.397	15047
872.526	15005
872.656	15036
872.785	15013
872.915	15131
873.044	15287
873.173	15260
873.303	15256
873.432	15249
873.561	15332
873.69	15199
873.819	15256
873.948	15363
874.077	15249
874.206	15180
874.335	15325
874.464	15526
874.593	15538
874.722	15405
874.851	15660
874.979	15549
875.108	15603
875.237	15538
875.365	15466
875.494	15599
875.623	15614
875.751	15561
875.88	15488
876.008	15641
876.136	15797
876.265	16017
876.393	16112
876.521	16097
876.65	16017
876.778	16017
876.906	15930
877.034	15812
877.162	16055
877.29	15831
877.418	16059
877.546	16074
877.674	16036
877.802	16086
877.93	15968
878.058	15899
878.185	15888
878.313	15972
878.441	16025
878.568	15850
878.696	16040
878.824	15857
878.951	16071
879.079	16207
879.206	16265
879.333	16246
879.461	16139
879.588	16329
879.715	16299
879.842	16421
879.97	16139
880.097	15895
880.224	15926
880.351	15876
880.478	15895
880.605	15800
880.732	15884
880.859	16025
880.986	15846
881.112	15854
881.239	15816
881.366	15675
881.493	15610
881.619	15496
881.746	15481
881.872	15553
881.999	15485
882.125	15428
882.252	15572
882.378	15507
882.505	15717
882.631	15454
882.757	15348
882.883	15401
883.01	15348
883.136	15279
883.262	15199
883.388	15081
883.514	15367
883.64	15435
883.766	15313
883.892	15192
884.018	15135
884.143	15272
884.269	15416
884.395	15291
884.52	15032
884.646	15039
884.772	15005
884.897	14921
885.023	15093
885.148	15157
885.274	15241
885.399	15127
885.524	14998
885.65	15020
885.775	15017
885.9	14971
886.025	15123
886.15	15081
886.275	14990
886.4	14963
886.525	15005
886.65	14967
886.775	14925
886.9	15135
887.025	15252
887.149	15123
887.274	14971
887.399	14788
887.523	14792
887.648	14693
887.773	14739
887.897	14891
888.021	14876
888.146	14746
888.27	14906
888.395	14998
888.519	14815
888.643	14899
888.767	14906
888.891	14807
889.015	14667
889.139	14773
889.263	14575
889.387	14785
889.511	14963
889.635	14830
889.759	14610
889.883	14648
890.006	14651
890.13	14819
890.254	14727
890.377	14625
890.501	14598
890.624	14431
890.748	14587
890.871	14415
890.995	14339
891.118	14298
891.241	14385
891.364	14408
891.488	14419
891.611	14427
891.734	14423
891.857	14465
891.98	14423
892.103	14526
892.226	14343
892.349	14381
892.471	14336
892.594	14351
892.717	14309
892.839	14301
892.962	14415
893.085	14404
893.207	14423
893.33	14298
893.452	14298
893.575	14431
893.697	14347
893.819	14598
893.941	14602
894.064	14545
894.186	14415
894.308	14385
894.43	14431
894.552	14625
894.674	14514
894.796	14415
894.918	14412
895.04	14393
895.161	14549
895.283	14533
895.405	14473
895.526	14495
895.648	14484
895.769	14606
895.891	14469
896.012	14610
896.134	14492
896.255	14488
896.376	14465
896.498	14503
896.619	14518
896.74	14450
896.861	14636
896.982	14918
897.103	15043
897.224	14765
897.345	14845
897.466	14815
897.587	14864
897.708	14895
897.828	14849
897.949	14750
898.07	14533
898.19	14807
898.311	15024
898.431	14868
898.552	14937
898.672	14941
898.792	14887
898.913	14807
899.033	14762
899.153	14788
899.273	14636
899.393	14606
899.513	14830
899.633	14769
899.753	14693
899.873	14815
899.993	14750
900.113	14724
900.232	14712
900.352	14629
900.472	14610
900.591	14533
900.711	14640
900.83	14579
900.95	14678
901.069	14705
901.189	14590
901.308	14404
901.427	14286
901.546	14290
901.665	14263
901.784	14317
901.904	14081
902.023	14058
902.141	13864
902.26	13814
902.379	13970
902.498	13830
902.617	13757
902.735	13913
902.854	13841
902.973	13700
903.091	13521
903.21	13521
903.328	13529
903.446	13460
903.565	13354
903.683	13438
903.801	13221
903.919	13339
904.038	13358
904.156	13209
904.274	13350
904.392	13228
904.51	13202
904.627	13114
904.745	13206
904.863	13339
904.981	12943
905.098	12779
905.216	12863
905.334	12916
905.451	12875
905.569	12844
905.686	12886
905.803	12962
905.921	12673
906.038	12779
906.155	12692
906.272	12635
906.389	12612
906.506	12448
906.623	12490
906.74	12471
906.857	12414
906.974	12433
907.091	12490
907.208	12616
907.324	12540
907.441	12407
907.557	12228
907.674	12205
907.79	12224
907.907	12155
908.023	12213
908.139	12239
908.256	12182
908.372	12159
908.488	12106
908.604	12038
908.72	11935
908.836	11980
908.952	11866
909.068	12072
909.184	12110
909.3	11969
909.415	12041
909.531	11977
909.647	11710
909.762	11832
909.878	11802
909.993	11775
910.108	11767
910.224	11665
910.339	11779
910.454	11558
910.57	11630
910.685	11509
910.8	11916
910.915	11779
911.03	11661
911.145	11463
911.259	11493
911.374	11520
911.489	11372
911.604	11341
911.718	11303
911.833	11212
911.947	11014
912.062	11018
912.176	11250
912.291	11166
912.405	11193
912.519	11482
912.633	11429
912.748	11242
912.862	11162
912.976	11105
913.09	11003
913.204	11048
913.318	11071
913.431	11189
913.545	11174
913.659	11193
913.772	11075
913.886	10961
914	10946
914.113	11010
914.226	11048
914.34	11010
914.453	10923
914.566	11117
914.68	10953
914.793	10896
914.906	10752
915.019	10691
915.132	10702
915.245	10611
915.358	10698
915.47	10668
915.583	10660
915.696	10706
915.809	10858
915.921	10915
916.034	10706
916.146	10588
916.259	10588
916.371	10710
916.483	10706
916.595	10618
916.708	10626
916.82	10706
916.932	10637
917.044	10519
917.156	10561
917.268	10443
917.38	10550
917.491	10447
917.603	10535
917.715	10535
917.826	10641
917.938	10542
918.049	10394
918.161	10561
918.272	10691
918.384	10641
918.495	10466
918.606	10367
918.717	10337
918.828	10394
918.939	10341
919.05	10303
919.161	10306
919.272	10204
919.383	10257
919.494	10379
919.604	10603
919.715	10466
919.826	10329
919.936	10375
920.047	10481
920.157	10466
920.267	10569
920.378	10470
920.488	10478
920.598	10508
920.708	10793
920.818	10630
920.928	10637
921.038	10744
921.148	10675
921.258	10341
921.368	10341
921.477	10310
921.587	10268
921.697	10078
921.806	10318
921.916	10105
922.025	10059
922.134	9987
922.244	9899
922.353	9930
922.462	9865
922.571	9751
922.68	9599
922.789	9618
922.898	9690
923.007	9561
923.116	9618
923.224	9591
923.333	9610
923.442	9538
923.55	9496
923.659	9530
923.767	9584
923.876	9481
923.984	9553
924.092	9473
924.201	9530
924.309	9515
924.417	9545
924.525	9488
924.633	9477
924.741	10424
924.849	9321
924.956	9386
925.064	9317
925.172	9207
925.279	9237
925.387	9310
925.494	9359
925.602	9393
925.709	9439
925.816	9294
925.924	9340
926.031	9351
926.138	9321
926.245	9348
926.352	9230
926.459	9382
926.566	9420
926.673	9222
926.779	9123
926.886	9089
926.993	8925
927.099	8952
927.206	8921
927.312	8967
927.419	8960
927.525	9043
927.631	9135
927.737	8902
927.843	8857
927.95	8777
928.056	8857
928.162	8868
928.267	8986
928.373	9561
928.479	9005
928.585	8693
928.69	8891
928.796	8861
928.901	8735
929.007	8644
929.112	8796
929.218	8735
929.323	8735
929.428	8674
929.533	8819
929.638	8667
929.743	8720
929.848	8773
929.953	8644
930.058	8587
930.163	8438
930.267	8511
930.372	8629
930.477	8465
930.581	8701
930.685	8598
930.79	8461
930.894	8450
930.998	8488
931.103	8537
931.207	8214
931.311	8126
931.415	8107
931.519	7963
931.623	7913
