Data from test_V78500241_2198.txt Node
Date: Fri Mar 25 14:49:01 CST 2022
User: usil
Spectrometer: V785-0024
Trigger mode: 0
Integration Time (sec): 4.000000E-1
Scans to average: 1
Nonlinearity correction enabled: false
Boxcar width: 0
Storing dark spectrum: false
XAxis mode: Wavelengths
Number of Pixels in Spectrum: 1024
>>>>>Begin Spectral Data<<<<<
801.071	22139
801.214	22029
801.356	21842
801.499	21709
801.641	21587
801.783	21564
801.926	21519
802.068	21336
802.211	21428
802.353	21291
802.496	21089
802.638	20982
802.78	21119
802.923	20838
803.065	20845
803.208	20849
803.35	20826
803.492	20921
803.635	21055
803.777	20876
803.919	20971
804.061	21058
804.204	21017
804.346	20716
804.488	20796
804.63	20807
804.773	20838
804.915	20769
805.057	20849
805.199	20720
805.341	20906
805.483	20952
805.626	20861
805.768	20819
805.91	20697
806.052	20842
806.194	20731
806.336	20872
806.478	20823
806.62	20746
806.762	20804
806.904	20941
807.046	21169
807.188	21123
807.33	21180
807.472	21173
807.614	20952
807.756	21058
807.898	20918
808.04	20754
808.182	20895
808.324	20826
808.465	20933
808.607	21036
808.749	21275
808.891	21237
809.033	21405
809.174	21161
809.316	21039
809.458	21184
809.6	21055
809.741	21241
809.883	21230
810.025	21363
810.166	21291
810.308	21279
810.45	21256
810.591	21154
810.733	21039
810.875	20902
811.016	20807
811.158	20785
811.299	20948
811.441	20975
811.582	21036
811.724	20967
811.865	20845
812.007	20880
812.148	20952
812.29	20925
812.431	21013
812.573	21218
812.714	21317
812.855	21420
812.997	21454
813.138	21739
813.279	21526
813.421	21386
813.562	21291
813.703	21180
813.845	21001
813.986	20826
814.127	20590
814.268	20579
814.41	20541
814.551	20503
814.692	20522
814.833	20294
814.974	20305
815.115	20454
815.256	20324
815.397	20400
815.539	20374
815.68	20115
815.821	20084
815.962	20168
816.103	20202
816.244	19955
816.385	20005
816.526	19928
816.666	19772
816.807	19693
816.948	19738
817.089	19875
817.23	19723
817.371	19719
817.512	19635
817.653	19613
817.793	19578
817.934	19624
818.075	19727
818.216	19567
818.356	19521
818.497	19430
818.638	19343
818.778	19251
818.919	19278
819.06	19335
819.2	19388
819.341	19537
819.481	19643
819.622	19624
819.762	19871
819.903	19750
820.043	19605
820.184	19529
820.324	19483
820.465	19582
820.605	19540
820.746	19533
820.886	19434
821.026	19491
821.167	19613
821.307	19605
821.447	19457
821.588	19354
821.728	19377
821.868	19080
822.008	19076
822.149	18996
822.289	19027
822.429	18757
822.569	18700
822.709	18749
822.849	18532
822.99	18475
823.13	18517
823.27	18330
823.41	18220
823.55	18296
823.69	18410
823.83	18224
823.97	18239
824.11	18163
824.25	18060
824.389	18060
824.529	18053
824.669	18049
824.809	18110
824.949	18095
825.089	18125
825.228	18064
825.368	17832
825.508	17855
825.648	17882
825.787	17950
825.927	17992
826.067	17824
826.206	17840
826.346	17870
826.485	17729
826.625	17859
826.765	17821
826.904	17824
827.044	17646
827.183	17646
827.323	17490
827.462	17505
827.601	17535
827.741	17490
827.88	17543
828.02	17467
828.159	17455
828.298	17509
828.437	17627
828.577	17436
828.716	17630
828.855	17455
828.994	17303
829.134	17273
829.273	17288
829.412	17212
829.551	17132
829.69	17197
829.829	17334
829.968	17455
830.107	17307
830.246	17284
830.385	17288
830.524	17174
830.663	17045
830.802	17086
830.941	16972
831.08	16820
831.219	16987
831.357	16965
831.496	17094
831.635	16881
831.774	16748
831.913	16790
832.051	16713
832.19	16538
832.329	16752
832.467	16615
832.606	16561
832.744	16504
832.883	16573
833.022	16561
833.16	16516
833.299	16607
833.437	16569
833.576	16554
833.714	16615
833.852	16706
833.991	16588
834.129	16679
834.267	16508
834.406	16573
834.544	16691
834.682	16683
834.821	16656
834.959	16763
835.097	16504
835.235	16774
835.373	16607
835.511	16615
835.65	16497
835.788	16504
835.926	16394
836.064	16303
836.202	16379
836.34	16550
836.478	16523
836.615	16561
836.753	16542
836.891	16634
837.029	16565
837.167	16474
837.305	16402
837.443	16481
837.58	16356
837.718	16443
837.856	16436
837.993	16352
838.131	16382
838.269	16303
838.406	16462
838.544	16287
838.681	16120
838.819	16086
838.956	15994
839.094	15903
839.231	16029
839.369	16048
839.506	16424
839.643	16204
839.781	16010
839.918	15899
840.055	15994
840.193	15937
840.33	15892
840.467	15949
840.604	15972
840.742	16105
840.879	15819
841.016	15808
841.153	15911
841.29	16006
841.427	15979
841.564	16040
841.701	15930
841.838	15895
841.975	15789
842.112	15854
842.249	15675
842.385	15713
842.522	15987
842.659	15766
842.796	15682
842.933	15698
843.069	15781
843.206	15709
843.343	15743
843.479	15671
843.616	15728
843.752	15545
843.889	15538
844.025	15679
844.162	15481
844.298	15641
844.435	15481
844.571	15557
844.708	15595
844.844	15633
844.98	15652
845.117	15625
845.253	15466
845.389	15454
845.525	15393
845.661	15374
845.798	15283
845.934	15393
846.07	15260
846.206	15218
846.342	15367
846.478	15283
846.614	15135
846.75	15013
846.886	15024
847.022	15241
847.158	15070
847.294	15070
847.429	15157
847.565	15017
847.701	15272
847.837	14754
847.972	14823
848.108	14872
848.244	14883
848.379	14686
848.515	14693
848.65	14701
848.786	14655
848.921	14663
849.057	14792
849.192	14724
849.328	14701
849.463	14636
849.598	14610
849.734	14552
849.869	14545
850.004	14381
850.14	14575
850.275	14484
850.41	14336
850.545	14377
850.68	14415
850.815	14434
850.95	14427
851.085	14571
851.22	14511
851.355	14427
851.49	14362
851.625	14412
851.76	14412
851.895	14385
852.03	14313
852.165	14377
852.299	14469
852.434	14575
852.569	14442
852.703	14461
852.838	14537
852.973	14568
853.107	14579
853.242	14423
853.376	14419
853.511	14237
853.645	14214
853.78	14465
853.914	14343
854.048	14237
854.183	14267
854.317	14381
854.451	14465
854.585	14309
854.72	14271
854.854	14377
854.988	14309
855.122	14339
855.256	14126
855.39	14278
855.524	14370
855.658	14324
855.792	14309
855.926	14389
856.06	14355
856.194	14362
856.327	14267
856.461	14290
856.595	14294
856.729	14206
856.862	14389
856.996	14362
857.13	14404
857.263	14469
857.397	14457
857.53	14381
857.664	14301
857.797	14370
857.931	14419
858.064	14404
858.197	14389
858.331	14301
858.464	14317
858.597	14199
858.731	14317
858.864	14218
858.997	14290
859.13	14412
859.263	14351
859.396	14396
859.529	14362
859.662	14252
859.795	14168
859.928	14324
860.061	14492
860.194	14480
860.327	14298
860.46	14248
860.592	14465
860.725	14366
860.858	14438
860.99	14324
861.123	14252
861.256	14267
861.388	14351
861.521	14861
861.653	14191
861.786	14123
861.918	14275
862.05	14225
862.183	14336
862.315	14389
862.447	14366
862.58	14271
862.712	14176
862.844	13978
862.976	14244
863.108	14107
863.24	14389
863.372	14119
863.504	14043
863.636	13997
863.768	14145
863.9	14084
864.032	14046
864.164	14024
864.296	14111
864.428	14172
864.559	14100
864.691	14214
864.823	14161
864.954	13993
865.086	14069
865.217	14008
865.349	13959
865.48	14111
865.612	14031
865.743	14244
865.875	14096
866.006	13982
866.137	14016
866.269	14035
866.4	14119
866.531	14062
866.662	13997
866.793	13951
866.924	13982
867.055	14096
867.186	14145
867.317	13986
867.448	13989
867.579	13902
867.71	13894
867.841	13928
867.972	14020
868.103	14031
868.233	14024
868.364	14157
868.495	14138
868.625	14202
868.756	14358
868.886	14263
869.017	14309
869.147	14469
869.278	14431
869.408	14309
869.539	14339
869.669	14389
869.799	14370
869.929	14427
870.06	14438
870.19	14549
870.32	14621
870.45	14541
870.58	14682
870.71	14849
870.84	14800
870.97	14693
871.1	14735
871.23	14861
871.36	14956
871.489	14754
871.619	14842
871.749	14960
871.879	14963
872.008	15013
872.138	14883
872.267	14994
872.397	14773
872.526	14769
872.656	14712
872.785	14792
872.915	14952
873.044	15093
873.173	14918
873.303	14986
873.432	15013
873.561	15036
873.69	14910
873.819	14979
873.948	15032
874.077	15009
874.206	14975
874.335	15024
874.464	15161
874.593	15173
874.722	15195
874.851	15260
874.979	15443
875.108	15272
875.237	15268
875.365	15165
875.494	15313
875.623	15306
875.751	15325
875.88	15268
876.008	15412
876.136	15466
876.265	15736
876.393	15873
876.521	15800
876.65	15880
876.778	15785
876.906	15717
877.034	15633
877.162	15671
877.29	15644
877.418	15755
877.546	15648
877.674	15778
877.802	15705
877.93	15686
878.058	15747
878.185	15663
878.313	15599
878.441	15751
878.568	15511
878.696	15584
878.824	15785
878.951	15812
879.079	15800
879.206	16082
879.333	15816
879.461	15854
879.588	15778
879.715	15873
879.842	16067
879.97	15732
880.097	15496
880.224	15481
880.351	15534
880.478	15591
880.605	15431
880.732	15561
880.859	15739
880.986	15633
881.112	15488
881.239	15511
881.366	15275
881.493	15287
881.619	15195
881.746	15222
881.872	15058
881.999	15135
882.125	15203
882.252	15306
882.378	15157
882.505	15359
882.631	15161
882.757	15043
882.883	15017
883.01	14963
883.136	14933
883.262	14941
883.388	14910
883.514	14998
883.64	15127
883.766	15032
883.892	14800
884.018	14826
884.143	14982
884.269	15013
884.395	14800
884.52	14651
884.646	14708
884.772	14644
884.897	14579
885.023	14621
885.148	14849
885.274	14845
885.399	14773
885.524	14708
885.65	14758
885.775	14765
885.9	14701
886.025	14788
886.15	14769
886.275	14701
886.4	14625
886.525	14575
886.65	14594
886.775	14621
886.9	14838
887.025	15001
887.149	14617
887.274	14594
887.399	14590
887.523	14522
887.648	14457
887.773	14484
887.897	14621
888.021	14648
888.146	14480
888.27	14655
888.395	14682
888.519	14507
888.643	14655
888.767	14632
888.891	14484
889.015	14404
889.139	14450
889.263	14415
889.387	14507
889.511	14663
889.635	14499
889.759	14377
889.883	14434
890.006	14404
890.13	14545
890.254	14355
890.377	14366
890.501	14195
890.624	14195
890.748	14221
890.871	14164
890.995	13974
891.118	14065
891.241	14172
891.364	14168
891.488	14191
891.611	14073
891.734	14134
891.857	14096
891.98	14138
892.103	14157
892.226	14115
892.349	14008
892.471	13944
892.594	14119
892.717	14092
892.839	14062
892.962	14107
893.085	14164
893.207	14134
893.33	14016
893.452	13993
893.575	14161
893.697	14115
893.819	14229
893.941	14377
894.064	14351
894.186	14161
894.308	13993
894.43	14168
894.552	14343
894.674	14229
894.796	14081
894.918	14145
895.04	14084
895.161	14256
895.283	14187
895.405	14172
895.526	14248
895.648	14164
895.769	14221
895.891	14275
896.012	14278
896.134	14294
896.255	14153
896.376	14248
896.498	14339
896.619	14366
896.74	14275
896.861	14362
896.982	14644
897.103	14727
897.224	14568
897.345	14438
897.466	14476
897.587	14404
897.708	14670
897.828	14625
897.949	14503
898.07	14530
898.19	14495
898.311	14568
898.431	14537
898.552	14651
898.672	14842
898.792	14735
898.913	14804
899.033	14617
899.153	14507
899.273	14362
899.393	14507
899.513	14545
899.633	14480
899.753	14522
899.873	14431
899.993	14514
900.113	14484
900.232	14465
900.352	14549
900.472	14404
900.591	14278
900.711	14400
900.83	14347
900.95	14450
901.069	14499
901.189	14278
901.308	14096
901.427	14065
901.546	14107
901.665	14054
901.784	14130
901.904	13864
902.023	13830
902.141	13544
902.26	13620
902.379	13674
902.498	13586
902.617	13563
902.735	13613
902.854	13636
902.973	13616
903.091	13247
903.21	13335
903.328	13346
903.446	13225
903.565	13206
903.683	13175
903.801	13129
903.919	13198
904.038	13110
904.156	13008
904.274	12966
904.392	12951
904.51	12954
904.627	13019
904.745	13004
904.863	13088
904.981	12821
905.098	12650
905.216	12700
905.334	12665
905.451	12589
905.569	12612
905.686	12738
905.803	12692
905.921	12551
906.038	12555
906.155	12540
906.272	12403
906.389	12464
906.506	12277
906.623	12330
906.74	12247
906.857	12064
906.974	12148
907.091	12323
907.208	12357
907.324	12296
907.441	12254
907.557	12038
907.674	11965
907.79	11992
907.907	11885
908.023	11961
908.139	12053
908.256	11935
908.372	12034
908.488	11874
908.604	11737
908.72	11752
908.836	11752
908.952	11821
909.068	11710
909.184	11832
909.3	11764
909.415	11821
909.531	11828
909.647	11570
909.762	11623
909.878	11570
909.993	11516
910.108	11482
910.224	11512
910.339	11551
910.454	11455
910.57	11391
910.685	11303
910.8	11600
910.915	11581
911.03	11353
911.145	11223
911.259	11185
911.374	11220
911.489	11197
911.604	11166
911.718	11025
911.833	11029
911.947	10911
912.062	10839
912.176	10995
912.291	11014
912.405	10965
912.519	11216
912.633	11197
912.748	11113
912.862	10953
912.976	10919
913.09	10694
913.204	10877
913.318	10961
913.431	11045
913.545	10938
913.659	11037
913.772	10915
913.886	10801
914	10778
914.113	10885
914.226	10911
914.34	10805
914.453	10717
914.566	10801
914.68	10733
914.793	10653
914.906	10554
915.019	10436
915.132	10363
915.245	10493
915.358	10512
915.47	10489
915.583	10577
915.696	10550
915.809	10630
915.921	10584
916.034	10508
916.146	10481
916.259	10409
916.371	10603
916.483	10523
916.595	10409
916.708	10421
916.82	10451
916.932	10382
917.044	10455
917.156	10386
917.268	10310
917.38	10382
917.491	10287
917.603	10337
917.715	10375
917.826	10432
917.938	10421
918.049	10188
918.161	10424
918.272	10485
918.384	10565
918.495	10375
918.606	10143
918.717	10204
918.828	10166
918.939	10230
919.05	10139
919.161	10211
919.272	10017
919.383	10067
919.494	10223
919.604	10413
919.715	10196
919.826	10162
919.936	10135
920.047	10322
920.157	10284
920.267	10394
920.378	10325
920.488	10299
920.598	10413
920.708	10649
920.818	10443
920.928	10531
921.038	10664
921.148	10519
921.258	10291
921.368	10097
921.477	10040
921.587	10063
921.697	9949
921.806	10169
921.916	9998
922.025	9873
922.134	9770
922.244	9720
922.353	9755
922.462	9720
922.571	9587
922.68	9504
922.789	9458
922.898	9466
923.007	9401
923.116	9507
923.224	9553
923.333	9458
923.442	9401
923.55	9378
923.659	9408
923.767	9450
923.876	9321
923.984	9420
924.092	9283
924.201	9351
924.309	9351
924.417	9344
924.525	9367
924.633	9279
924.741	10230
924.849	9062
924.956	9241
925.064	9138
925.172	9093
925.279	9195
925.387	9169
925.494	9131
925.602	9291
925.709	9233
925.816	9127
925.924	9192
926.031	9218
926.138	9184
926.245	9188
926.352	9070
926.459	9233
926.566	9146
926.673	9043
926.779	9009
926.886	9028
926.993	8849
927.099	8826
927.206	8830
927.312	8689
927.419	8925
927.525	8910
927.631	8921
927.737	8781
927.843	8785
927.95	8625
928.056	8724
928.162	8785
928.267	8811
928.373	9336
928.479	8872
928.585	8579
928.69	8746
928.796	8781
928.901	8629
929.007	8503
929.112	8632
929.218	8636
929.323	8560
929.428	8598
929.533	8739
929.638	8556
929.743	8495
929.848	8621
929.953	8571
930.058	8457
930.163	8396
930.267	8393
930.372	8469
930.477	8290
930.581	8552
930.685	8317
930.79	8294
930.894	8305
930.998	8195
931.103	8454
931.207	8069
931.311	7970
931.415	7989
931.519	7799
931.623	7784
