Data from test_V78500241_1715.txt Node
Date: Fri Mar 25 14:45:39 CST 2022
User: usil
Spectrometer: V785-0024
Trigger mode: 0
Integration Time (sec): 4.000000E-1
Scans to average: 1
Nonlinearity correction enabled: false
Boxcar width: 0
Storing dark spectrum: false
XAxis mode: Wavelengths
Number of Pixels in Spectrum: 1024
>>>>>Begin Spectral Data<<<<<
801.071	22382
801.214	22105
801.356	21819
801.499	21808
801.641	21667
801.783	21587
801.926	21656
802.068	21603
802.211	21473
802.353	21515
802.496	21226
802.638	21024
802.78	21093
802.923	20842
803.065	20960
803.208	20933
803.35	20990
803.492	21070
803.635	21138
803.777	20975
803.919	21024
804.061	21207
804.204	21066
804.346	21039
804.488	20724
804.63	20937
804.773	20773
804.915	20800
805.057	20963
805.199	20895
805.341	20956
805.483	20906
805.626	20979
805.768	20788
805.91	20914
806.052	20849
806.194	20899
806.336	20937
806.478	20815
806.62	20883
806.762	20891
806.904	20960
807.046	21279
807.188	21306
807.33	21218
807.472	21302
807.614	21176
807.756	21157
807.898	20982
808.04	21028
808.182	21036
808.324	20998
808.465	21089
808.607	21032
808.749	21195
808.891	21408
809.033	21424
809.174	21420
809.316	21203
809.458	21367
809.6	21157
809.741	21313
809.883	21344
810.025	21485
810.166	21428
810.308	21447
810.45	21447
810.591	21313
810.733	21184
810.875	21070
811.016	20956
811.158	20952
811.299	21055
811.441	21237
811.582	21214
811.724	20990
811.865	21036
812.007	20982
812.148	21055
812.29	21116
812.431	21272
812.573	21363
812.714	21405
812.855	21393
812.997	21580
813.138	21656
813.279	21637
813.421	21561
813.562	21526
813.703	21275
813.845	21146
813.986	20857
814.127	20678
814.268	20648
814.41	20632
814.551	20609
814.692	20640
814.833	20522
814.974	20518
815.115	20552
815.256	20423
815.397	20434
815.539	20415
815.68	20385
815.821	20358
815.962	20347
816.103	20176
816.244	20134
816.385	20084
816.526	20088
816.666	19944
816.807	19788
816.948	19814
817.089	19852
817.23	19723
817.371	19700
817.512	19765
817.653	19727
817.793	19738
817.934	19791
818.075	19742
818.216	19742
818.356	19609
818.497	19483
818.638	19358
818.778	19415
818.919	19434
819.06	19502
819.2	19415
819.341	19635
819.481	19655
819.622	19898
819.762	19970
819.903	19951
820.043	19772
820.184	19662
820.324	19681
820.465	19693
820.605	19624
820.746	19616
820.886	19563
821.026	19655
821.167	19628
821.307	19620
821.447	19655
821.588	19495
821.728	19441
821.868	19244
822.008	19095
822.149	19118
822.289	19065
822.429	18905
822.569	18772
822.709	18745
822.849	18650
822.99	18620
823.13	18509
823.27	18582
823.41	18479
823.55	18285
823.69	18338
823.83	18429
823.97	18262
824.11	18178
824.25	18106
824.389	18098
824.529	18277
824.669	18178
824.809	18311
824.949	18334
825.089	18304
825.228	18102
825.368	18072
825.508	17988
825.648	17912
825.787	18060
825.927	18015
826.067	17935
826.206	17931
826.346	17992
826.485	17889
826.625	17946
826.765	17973
826.904	17904
827.044	17714
827.183	17703
827.323	17524
827.462	17687
827.601	17695
827.741	17710
827.88	17665
828.02	17634
828.159	17615
828.298	17608
828.437	17627
828.577	17619
828.716	17726
828.855	17585
828.994	17512
829.134	17345
829.273	17478
829.412	17356
829.551	17322
829.69	17337
829.829	17349
829.968	17551
830.107	17421
830.246	17448
830.385	17387
830.524	17292
830.663	17284
830.802	17136
830.941	17033
831.08	16999
831.219	17022
831.357	17010
831.496	17212
831.635	17056
831.774	16847
831.913	16915
832.051	16824
832.19	16786
832.329	16854
832.467	16675
832.606	16698
832.744	16630
832.883	16752
833.022	16634
833.16	16755
833.299	16786
833.437	16706
833.576	16694
833.714	16698
833.852	16740
833.991	16816
834.129	16835
834.267	16843
834.406	16573
834.544	16778
834.682	16824
834.821	16748
834.959	16889
835.097	16626
835.235	16786
835.373	16622
835.511	16729
835.65	16622
835.788	16759
835.926	16455
836.064	16443
836.202	16451
836.34	16577
836.478	16603
836.615	16767
836.753	16687
836.891	16702
837.029	16622
837.167	16675
837.305	16683
837.443	16459
837.58	16542
837.718	16542
837.856	16596
837.993	16489
838.131	16493
838.269	16322
838.406	16523
838.544	16382
838.681	16261
838.819	16200
838.956	16051
839.094	16036
839.231	16131
839.369	16166
839.506	16497
839.643	16188
839.781	16078
839.918	16063
840.055	16116
840.193	16093
840.33	16029
840.467	16044
840.604	16021
840.742	16291
840.879	15930
841.016	15964
841.153	15953
841.29	16234
841.427	16101
841.564	16116
841.701	16078
841.838	15972
841.975	16032
842.112	15960
842.249	15770
842.385	15823
842.522	15972
842.659	15857
842.796	15827
842.933	15831
843.069	15682
843.206	15755
843.343	15857
843.479	15823
843.616	15899
843.752	15656
843.889	15622
844.025	15720
844.162	15713
844.298	15698
844.435	15614
844.571	15587
844.708	15656
844.844	15880
844.98	15595
845.117	15705
845.253	15568
845.389	15504
845.525	15507
845.661	15473
845.798	15321
845.934	15424
846.07	15386
846.206	15519
846.342	15614
846.478	15401
846.614	15275
846.75	15161
846.886	15093
847.022	15214
847.158	15108
847.294	15184
847.429	15226
847.565	15218
847.701	15401
847.837	14857
847.972	14887
848.108	14986
848.244	14982
848.379	14819
848.515	14800
848.65	14727
848.786	14743
848.921	14785
849.057	14811
849.192	14914
849.328	14811
849.463	14705
849.598	14739
849.734	14659
849.869	14708
850.004	14625
850.14	14617
850.275	14590
850.41	14560
850.545	14545
850.68	14492
850.815	14613
850.95	14530
851.085	14746
851.22	14575
851.355	14590
851.49	14511
851.625	14564
851.76	14511
851.895	14454
852.03	14366
852.165	14518
852.299	14602
852.434	14602
852.569	14488
852.703	14564
852.838	14533
852.973	14743
853.107	14613
853.242	14530
853.376	14377
853.511	14317
853.645	14351
853.78	14511
853.914	14434
854.048	14324
854.183	14313
854.317	14480
854.451	14560
854.585	14415
854.72	14381
854.854	14495
854.988	14301
855.122	14366
855.256	14229
855.39	14412
855.524	14495
855.658	14488
855.792	14431
855.926	14415
856.06	14518
856.194	14446
856.327	14465
856.461	14351
856.595	14358
856.729	14404
856.862	14484
856.996	14442
857.13	14617
857.263	14495
857.397	14511
857.53	14423
857.664	14575
857.797	14598
857.931	14522
858.064	14438
858.197	14469
858.331	14454
858.464	14370
858.597	14332
858.731	14393
858.864	14339
858.997	14370
859.13	14503
859.263	14442
859.396	14465
859.529	14442
859.662	14381
859.795	14389
859.928	14541
860.061	14526
860.194	14693
860.327	14450
860.46	14389
860.592	14682
860.725	14549
860.858	14518
860.99	14404
861.123	14393
861.256	14427
861.388	14393
861.521	15001
861.653	14294
861.786	14256
861.918	14339
862.05	14290
862.183	14328
862.315	14324
862.447	14476
862.58	14370
862.712	14275
862.844	14054
862.976	14294
863.108	14252
863.24	14762
863.372	14058
863.504	14153
863.636	14092
863.768	14275
863.9	14244
864.032	14119
864.164	14130
864.296	14282
864.428	14263
864.559	14358
864.691	14271
864.823	14248
864.954	14286
865.086	14195
865.217	14176
865.349	14092
865.48	14271
865.612	14267
865.743	14320
865.875	14263
866.006	14054
866.137	14180
866.269	14180
866.4	14145
866.531	14077
866.662	14164
866.793	14111
866.924	14168
867.055	14355
867.186	14199
867.317	14233
867.448	14035
867.579	14138
867.71	13997
867.841	14092
867.972	14157
868.103	14107
868.233	14123
868.364	14191
868.495	14233
868.625	14488
868.756	14503
868.886	14385
869.017	14389
869.147	14514
869.278	14507
869.408	14431
869.539	14366
869.669	14549
869.799	14442
869.929	14507
870.06	14526
870.19	14781
870.32	14739
870.45	14735
870.58	14705
870.71	14971
870.84	14899
870.97	14758
871.1	14868
871.23	15009
871.36	15108
871.489	14918
871.619	15020
871.749	15062
871.879	14990
872.008	15108
872.138	15074
872.267	14960
872.397	14845
872.526	14826
872.656	14861
872.785	14918
872.915	15062
873.044	15123
873.173	14979
873.303	15089
873.432	15233
873.561	15184
873.69	15058
873.819	15047
873.948	15180
874.077	15119
874.206	15077
874.335	15218
874.464	15252
874.593	15325
874.722	15298
874.851	15469
874.979	15420
875.108	15443
875.237	15348
875.365	15332
875.494	15367
875.623	15504
875.751	15329
875.88	15447
876.008	15561
876.136	15515
876.265	15789
876.393	16032
876.521	15903
876.65	15797
876.778	15880
876.906	15690
877.034	15709
877.162	15751
877.29	15641
877.418	15747
877.546	15827
877.674	15800
877.802	15800
877.93	15732
878.058	15751
878.185	15686
878.313	15823
878.441	15686
878.568	15591
878.696	15690
878.824	15831
878.951	15895
879.079	16021
879.206	16051
879.333	15956
879.461	15907
879.588	15888
879.715	16044
879.842	16063
879.97	15926
880.097	15591
880.224	15618
880.351	15652
880.478	15633
880.605	15614
880.732	15618
880.859	15915
880.986	15603
881.112	15778
881.239	15587
881.366	15374
881.493	15439
881.619	15298
881.746	15397
881.872	15408
881.999	15306
882.125	15306
882.252	15348
882.378	15275
882.505	15374
882.631	15332
882.757	15097
882.883	15211
883.01	15108
883.136	15036
883.262	14899
883.388	15005
883.514	15127
883.64	15100
883.766	14975
883.892	14933
884.018	14982
884.143	15077
884.269	15127
884.395	14857
884.52	14883
884.646	14796
884.772	14872
884.897	14689
885.023	14830
885.148	14876
885.274	14979
885.399	14944
885.524	14864
885.65	14762
885.775	14842
885.9	14849
886.025	14990
886.15	14906
886.275	14781
886.4	14792
886.525	14819
886.65	14735
886.775	14838
886.9	14902
887.025	14990
887.149	14861
887.274	14724
887.399	14556
887.523	14663
887.648	14583
887.773	14583
887.897	14724
888.021	14659
888.146	14659
888.27	14701
888.395	14830
888.519	14705
888.643	14594
888.767	14807
888.891	14598
889.015	14526
889.139	14587
889.263	14488
889.387	14610
889.511	14689
889.635	14636
889.759	14549
889.883	14404
890.006	14518
890.13	14598
890.254	14434
890.377	14461
890.501	14294
890.624	14374
890.748	14431
890.871	14248
890.995	14164
891.118	14069
891.241	14157
891.364	14263
891.488	14385
891.611	14282
891.734	14191
891.857	14275
891.98	14278
892.103	14267
892.226	14195
892.349	14126
892.471	14039
892.594	14168
892.717	14267
892.839	14233
892.962	14164
893.085	14278
893.207	14195
893.33	14134
893.452	14107
893.575	14301
893.697	14138
893.819	14324
893.941	14324
894.064	14450
894.186	14210
894.308	14176
894.43	14339
894.552	14370
894.674	14374
894.796	14233
894.918	14134
895.04	14286
895.161	14393
895.283	14237
895.405	14206
895.526	14305
895.648	14328
895.769	14324
895.891	14370
896.012	14415
896.134	14438
896.255	14408
896.376	14385
896.498	14431
896.619	14480
896.74	14412
896.861	14446
896.982	14689
897.103	14845
897.224	14708
897.345	14659
897.466	14533
897.587	14571
897.708	14815
897.828	14716
897.949	14678
898.07	14442
898.19	14693
898.311	14769
898.431	14727
898.552	14640
898.672	14823
898.792	14838
898.913	14849
899.033	14632
899.153	14632
899.273	14438
899.393	14541
899.513	14571
899.633	14568
899.753	14579
899.873	14469
899.993	14655
900.113	14522
900.232	14606
900.352	14545
900.472	14465
900.591	14351
900.711	14400
900.83	14476
900.95	14480
901.069	14579
901.189	14396
901.308	14259
901.427	14088
901.546	14130
901.665	14100
901.784	14172
901.904	14024
902.023	13955
902.141	13715
902.26	13700
902.379	13814
902.498	13636
902.617	13674
902.735	13734
902.854	13636
902.973	13704
903.091	13365
903.21	13346
903.328	13350
903.446	13278
903.565	13327
903.683	13373
903.801	13244
903.919	13274
904.038	13190
904.156	13091
904.274	13103
904.392	12951
904.51	13095
904.627	13129
904.745	13126
904.863	13156
904.981	12840
905.098	12681
905.216	12875
905.334	12776
905.451	12795
905.569	12757
905.686	12779
905.803	12829
905.921	12631
906.038	12662
906.155	12623
906.272	12403
906.389	12475
906.506	12388
906.623	12422
906.74	12327
906.857	12243
906.974	12209
907.091	12350
907.208	12486
907.324	12361
907.441	12194
907.557	12098
907.674	12144
907.79	12091
907.907	12057
908.023	12087
908.139	12060
908.256	11992
908.372	11977
908.488	12015
908.604	11927
908.72	11843
908.836	11843
908.952	11824
909.068	11855
909.184	11954
909.3	11863
909.415	11923
909.531	11847
909.647	11726
909.762	11589
909.878	11535
909.993	11649
910.108	11623
910.224	11604
910.339	11627
910.454	11467
910.57	11459
910.685	11387
910.8	11703
910.915	11611
911.03	11436
911.145	11318
911.259	11372
911.374	11258
911.489	11223
911.604	11185
911.718	11102
911.833	11105
911.947	10972
912.062	10919
912.176	11083
912.291	11102
912.405	11083
912.519	11235
912.633	11269
912.748	11174
912.862	11105
912.976	10987
913.09	10854
913.204	10877
913.318	10976
913.431	11067
913.545	11006
913.659	11117
913.772	10999
913.886	10847
914	10881
914.113	10923
914.226	10892
914.34	10885
914.453	10771
914.566	10892
914.68	10721
914.793	10805
914.906	10538
915.019	10516
915.132	10489
915.245	10565
915.358	10538
915.47	10569
915.583	10599
915.696	10694
915.809	10649
915.921	10702
916.034	10500
916.146	10512
916.259	10451
916.371	10626
916.483	10618
916.595	10596
916.708	10538
916.82	10554
916.932	10481
917.044	10538
917.156	10402
917.268	10295
917.38	10432
917.491	10299
917.603	10409
917.715	10535
917.826	10542
917.938	10405
918.049	10310
918.161	10436
918.272	10481
918.384	10596
918.495	10443
918.606	10280
918.717	10238
918.828	10322
918.939	10234
919.05	10166
919.161	10257
919.272	10002
919.383	10188
919.494	10352
919.604	10451
919.715	10227
919.826	10196
919.936	10242
920.047	10367
920.157	10386
920.267	10417
920.378	10325
920.488	10322
920.598	10489
920.708	10584
920.818	10500
920.928	10523
921.038	10744
921.148	10622
921.258	10360
921.368	10272
921.477	10147
921.587	10147
921.697	10074
921.806	10135
921.916	10025
922.025	9850
922.134	9827
922.244	9819
922.353	9797
922.462	9724
922.571	9675
922.68	9549
922.789	9549
922.898	9553
923.007	9568
923.116	9576
923.224	9557
923.333	9519
923.442	9454
923.55	9412
923.659	9443
923.767	9496
923.876	9386
923.984	9443
924.092	9359
924.201	9458
924.309	9408
924.417	9447
924.525	9367
924.633	9355
924.741	10200
924.849	9199
924.956	9313
925.064	9176
925.172	9150
925.279	9089
925.387	9203
925.494	9157
925.602	9176
925.709	9325
925.816	9066
925.924	9112
926.031	9268
926.138	9142
926.245	9203
926.352	9097
926.459	9241
926.566	9253
926.673	9180
926.779	9028
926.886	8998
926.993	8872
927.099	8921
927.206	8826
927.312	8902
927.419	8967
927.525	8933
927.631	8979
927.737	8785
927.843	8857
927.95	8712
928.056	8838
928.162	8716
928.267	8944
928.373	9458
928.479	8941
928.585	8674
928.69	8769
928.796	8849
928.901	8682
929.007	8541
929.112	8705
929.218	8686
929.323	8621
929.428	8545
929.533	8735
929.638	8469
929.743	8587
929.848	8602
929.953	8590
930.058	8503
930.163	8328
930.267	8381
930.372	8541
930.477	8366
930.581	8610
930.685	8381
930.79	8343
930.894	8332
930.998	8332
931.103	8431
931.207	8123
931.311	8039
931.415	8005
931.519	7898
931.623	7799
