Data from test_V78500241_1830.txt Node
Date: Fri Mar 25 14:46:27 CST 2022
User: usil
Spectrometer: V785-0024
Trigger mode: 0
Integration Time (sec): 4.000000E-1
Scans to average: 1
Nonlinearity correction enabled: false
Boxcar width: 0
Storing dark spectrum: false
XAxis mode: Wavelengths
Number of Pixels in Spectrum: 1024
>>>>>Begin Spectral Data<<<<<
801.071	22207
801.214	21922
801.356	21720
801.499	21701
801.641	21568
801.783	21466
801.926	21564
802.068	21412
802.211	21481
802.353	21237
802.496	21127
802.638	21013
802.78	21047
802.923	20864
803.065	20804
803.208	20727
803.35	20826
803.492	20849
803.635	20975
803.777	20785
803.919	20868
804.061	21096
804.204	20921
804.346	20727
804.488	20754
804.63	20868
804.773	20667
804.915	20746
805.057	20910
805.199	20686
805.341	20872
805.483	20914
805.626	20880
805.768	20705
805.91	20788
806.052	20720
806.194	20727
806.336	20880
806.478	20933
806.62	20682
806.762	20754
806.904	20933
807.046	21195
807.188	21146
807.33	21104
807.472	21138
807.614	20979
807.756	21074
807.898	20925
808.04	20918
808.182	20861
808.324	20834
808.465	20895
808.607	21028
808.749	21211
808.891	21123
809.033	21393
809.174	21233
809.316	21157
809.458	21112
809.6	21116
809.741	21199
809.883	21211
810.025	21378
810.166	21359
810.308	21260
810.45	21294
810.591	21192
810.733	21051
810.875	21005
811.016	20830
811.158	20845
811.299	20994
811.441	21020
811.582	21032
811.724	20925
811.865	20982
812.007	20880
812.148	20830
812.29	20880
812.431	21108
812.573	21146
812.714	21279
812.855	21523
812.997	21450
813.138	21660
813.279	21526
813.421	21401
813.562	21408
813.703	21279
813.845	21157
813.986	20864
814.127	20678
814.268	20556
814.41	20495
814.551	20442
814.692	20583
814.833	20415
814.974	20389
815.115	20511
815.256	20244
815.397	20377
815.539	20218
815.68	20153
815.821	20077
815.962	20191
816.103	20100
816.244	19982
816.385	20024
816.526	19925
816.666	19765
816.807	19666
816.948	19731
817.089	19723
817.23	19609
817.371	19658
817.512	19529
817.653	19544
817.793	19635
817.934	19540
818.075	19624
818.216	19616
818.356	19624
818.497	19495
818.638	19316
818.778	19316
818.919	19289
819.06	19327
819.2	19499
819.341	19472
819.481	19453
819.622	19563
819.762	19791
819.903	19791
820.043	19693
820.184	19548
820.324	19674
820.465	19658
820.605	19529
820.746	19556
820.886	19350
821.026	19567
821.167	19521
821.307	19647
821.447	19514
821.588	19354
821.728	19282
821.868	19152
822.008	19050
822.149	18996
822.289	18897
822.429	18806
822.569	18677
822.709	18665
822.849	18555
822.99	18437
823.13	18448
823.27	18445
823.41	18235
823.55	18247
823.69	18308
823.83	18273
823.97	18251
824.11	18098
824.25	18034
824.389	18068
824.529	18019
824.669	18129
824.809	18072
824.949	18152
825.089	18098
825.228	18110
825.368	17863
825.508	17863
825.648	17901
825.787	17870
825.927	17988
826.067	17836
826.206	17863
826.346	17798
826.485	17722
826.625	17931
826.765	17874
826.904	17950
827.044	17661
827.183	17707
827.323	17573
827.462	17524
827.601	17566
827.741	17562
827.88	17630
828.02	17421
828.159	17520
828.298	17600
828.437	17589
828.577	17532
828.716	17619
828.855	17505
828.994	17273
829.134	17254
829.273	17337
829.412	17261
829.551	17265
829.69	17284
829.829	17330
829.968	17345
830.107	17345
830.246	17307
830.385	17277
830.524	17250
830.663	17242
830.802	17041
830.941	16942
831.08	16923
831.219	16904
831.357	16908
831.496	17220
831.635	16786
831.774	16873
831.913	16706
832.051	16706
832.19	16721
832.329	16748
832.467	16592
832.606	16584
832.744	16603
832.883	16596
833.022	16645
833.16	16599
833.299	16656
833.437	16637
833.576	16637
833.714	16668
833.852	16710
833.991	16736
834.129	16778
834.267	16649
834.406	16618
834.544	16691
834.682	16694
834.821	16675
834.959	16831
835.097	16645
835.235	16717
835.373	16573
835.511	16706
835.65	16516
835.788	16577
835.926	16379
836.064	16405
836.202	16447
836.34	16558
836.478	16649
836.615	16508
836.753	16611
836.891	16672
837.029	16554
837.167	16535
837.305	16596
837.443	16436
837.58	16413
837.718	16466
837.856	16470
837.993	16390
838.131	16508
838.269	16394
838.406	16424
838.544	16265
838.681	16158
838.819	16166
838.956	16032
839.094	15960
839.231	16078
839.369	16173
839.506	16421
839.643	16215
839.781	16078
839.918	15895
840.055	16051
840.193	16071
840.33	16010
840.467	15979
840.604	16059
840.742	16257
840.879	15846
841.016	15911
841.153	15968
841.29	16192
841.427	15991
841.564	16097
841.701	16036
841.838	15892
841.975	16002
842.112	15861
842.249	15785
842.385	15766
842.522	15968
842.659	15842
842.796	15751
842.933	15793
843.069	15743
843.206	15705
843.343	15736
843.479	15789
843.616	15850
843.752	15629
843.889	15587
844.025	15816
844.162	15485
844.298	15705
844.435	15519
844.571	15526
844.708	15591
844.844	15713
844.98	15747
845.117	15781
845.253	15454
845.389	15439
845.525	15496
845.661	15424
845.798	15336
845.934	15412
846.07	15336
846.206	15545
846.342	15564
846.478	15397
846.614	15184
846.75	14982
846.886	15138
847.022	15218
847.158	15116
847.294	15135
847.429	15188
847.565	15123
847.701	15374
847.837	14804
847.972	14804
848.108	15013
848.244	14960
848.379	14773
848.515	14750
848.65	14739
848.786	14811
848.921	14765
849.057	14864
849.192	14788
849.328	14823
849.463	14807
849.598	14712
849.734	14667
849.869	14648
850.004	14503
850.14	14655
850.275	14629
850.41	14370
850.545	14454
850.68	14499
850.815	14499
850.95	14476
851.085	14621
851.22	14667
851.355	14503
851.49	14427
851.625	14495
851.76	14511
851.895	14450
852.03	14393
852.165	14526
852.299	14545
852.434	14674
852.569	14571
852.703	14537
852.838	14511
852.973	14651
853.107	14674
853.242	14511
853.376	14351
853.511	14229
853.645	14343
853.78	14404
853.914	14355
854.048	14438
854.183	14358
854.317	14492
854.451	14537
854.585	14343
854.72	14404
854.854	14381
854.988	14278
855.122	14259
855.256	14214
855.39	14355
855.524	14324
855.658	14404
855.792	14355
855.926	14385
856.06	14442
856.194	14522
856.327	14404
856.461	14347
856.595	14271
856.729	14374
856.862	14545
856.996	14351
857.13	14450
857.263	14419
857.397	14511
857.53	14408
857.664	14495
857.797	14495
857.931	14442
858.064	14495
858.197	14492
858.331	14393
858.464	14336
858.597	14263
858.731	14507
858.864	14396
858.997	14305
859.13	14347
859.263	14374
859.396	14473
859.529	14339
859.662	14282
859.795	14298
859.928	14377
860.061	14522
860.194	14636
860.327	14396
860.46	14313
860.592	14419
860.725	14454
860.858	14454
860.99	14374
861.123	14389
861.256	14313
861.388	14332
861.521	15104
861.653	14278
861.786	14145
861.918	14115
862.05	14294
862.183	14332
862.315	14381
862.447	14438
862.58	14374
862.712	14123
862.844	14115
862.976	14343
863.108	14225
863.24	14454
863.372	14031
863.504	14142
863.636	14130
863.768	14130
863.9	14183
864.032	14012
864.164	14103
864.296	14233
864.428	14210
864.559	14256
864.691	14229
864.823	14206
864.954	14161
865.086	14229
865.217	14126
865.349	14008
865.48	14115
865.612	14130
865.743	14214
865.875	14202
866.006	14035
866.137	14123
866.269	14195
866.4	14138
866.531	14145
866.662	14069
866.793	14100
866.924	14081
867.055	14073
867.186	14100
867.317	14039
867.448	14024
867.579	14020
867.71	13978
867.841	14024
867.972	14123
868.103	14248
868.233	14100
868.364	14176
868.495	14214
868.625	14396
868.756	14446
868.886	14290
869.017	14355
869.147	14522
869.278	14568
869.408	14457
869.539	14404
869.669	14408
869.799	14419
869.929	14454
870.06	14518
870.19	14807
870.32	14712
870.45	14705
870.58	14762
870.71	14853
870.84	14830
870.97	14689
871.1	14678
871.23	14902
871.36	14960
871.489	14895
871.619	14906
871.749	15058
871.879	15070
872.008	14967
872.138	14967
872.267	14990
872.397	14819
872.526	14834
872.656	14815
872.785	14811
872.915	15013
873.044	15100
873.173	15085
873.303	14990
873.432	15199
873.561	15154
873.69	15009
873.819	14944
873.948	15074
874.077	15039
874.206	14941
874.335	15097
874.464	15195
874.593	15313
874.722	15340
874.851	15264
874.979	15462
875.108	15405
875.237	15291
875.365	15252
875.494	15264
875.623	15447
875.751	15313
875.88	15363
876.008	15500
876.136	15538
876.265	15720
876.393	15869
876.521	15888
876.65	15819
876.778	15743
876.906	15705
877.034	15667
877.162	15846
877.29	15724
877.418	15675
877.546	15785
877.674	15785
877.802	15728
877.93	15736
878.058	15812
878.185	15633
878.313	15755
878.441	15759
878.568	15549
878.696	15690
878.824	15736
878.951	15789
879.079	15994
879.206	16116
879.333	15880
879.461	15816
879.588	15755
879.715	15953
879.842	16128
879.97	15751
880.097	15614
880.224	15561
880.351	15698
880.478	15686
880.605	15534
880.732	15584
880.859	15831
880.986	15591
881.112	15580
881.239	15580
881.366	15370
881.493	15317
881.619	15302
881.746	15321
881.872	15283
881.999	15264
882.125	15199
882.252	15264
882.378	15249
882.505	15439
882.631	15237
882.757	14937
882.883	15116
883.01	15077
883.136	15097
883.262	14929
883.388	14925
883.514	15097
883.64	15165
883.766	14990
883.892	14868
884.018	14830
884.143	15104
884.269	15195
884.395	14807
884.52	14823
884.646	14746
884.772	14720
884.897	14625
885.023	14838
885.148	14773
885.274	14960
885.399	14948
885.524	14823
885.65	14785
885.775	14727
885.9	14823
886.025	14975
886.15	14792
886.275	14823
886.4	14655
886.525	14765
886.65	14724
886.775	14746
886.9	14914
887.025	14982
887.149	14842
887.274	14556
887.399	14655
887.523	14632
887.648	14545
887.773	14537
887.897	14651
888.021	14602
888.146	14579
888.27	14708
888.395	14678
888.519	14667
888.643	14632
888.767	14644
888.891	14571
889.015	14480
889.139	14651
889.263	14507
889.387	14594
889.511	14674
889.635	14492
889.759	14495
889.883	14526
890.006	14514
890.13	14579
890.254	14412
890.377	14393
890.501	14298
890.624	14210
890.748	14385
890.871	14278
890.995	14221
891.118	14157
891.241	14130
891.364	14149
891.488	14298
891.611	14237
891.734	14149
891.857	14282
891.98	14210
892.103	14221
892.226	14126
892.349	14126
892.471	14005
892.594	14084
892.717	14043
892.839	14195
892.962	14248
893.085	14202
893.207	14191
893.33	14107
893.452	14081
893.575	14240
893.697	14202
893.819	14313
893.941	14339
894.064	14301
894.186	14149
894.308	14142
894.43	14290
894.552	14347
894.674	14313
894.796	14092
894.918	14183
895.04	14195
895.161	14298
895.283	14271
895.405	14187
895.526	14206
895.648	14324
895.769	14347
895.891	14324
896.012	14415
896.134	14339
896.255	14263
896.376	14214
896.498	14320
896.619	14389
896.74	14275
896.861	14446
896.982	14667
897.103	14762
897.224	14568
897.345	14594
897.466	14492
897.587	14541
897.708	14739
897.828	14682
897.949	14495
898.07	14396
898.19	14613
898.311	14796
898.431	14587
898.552	14705
898.672	14777
898.792	14731
898.913	14773
899.033	14545
899.153	14594
899.273	14446
899.393	14541
899.513	14564
899.633	14533
899.753	14564
899.873	14473
899.993	14682
900.113	14457
900.232	14484
900.352	14549
900.472	14480
900.591	14317
900.711	14469
900.83	14389
900.95	14465
901.069	14571
901.189	14427
901.308	14145
901.427	14027
901.546	14123
901.665	14081
901.784	14107
901.904	13913
902.023	13936
902.141	13738
902.26	13647
902.379	13727
902.498	13624
902.617	13559
902.735	13727
902.854	13643
902.973	13605
903.091	13377
903.21	13320
903.328	13441
903.446	13487
903.565	13228
903.683	13282
903.801	13053
903.919	13202
904.038	13129
904.156	13004
904.274	13122
904.392	12985
904.51	13038
904.627	13046
904.745	13088
904.863	13008
904.981	12840
905.098	12688
905.216	12681
905.334	12696
905.451	12715
905.569	12791
905.686	12749
905.803	12726
905.921	12540
906.038	12623
906.155	12467
906.272	12498
906.389	12448
906.506	12342
906.623	12334
906.74	12289
906.857	12106
906.974	12140
907.091	12372
907.208	12414
907.324	12311
907.441	12243
907.557	12114
907.674	12091
907.79	11988
907.907	12015
908.023	12091
908.139	12045
908.256	12072
908.372	11992
908.488	11946
908.604	11901
908.72	11908
908.836	11805
908.952	11866
909.068	11870
909.184	11885
909.3	11767
909.415	11992
909.531	11836
909.647	11634
909.762	11600
909.878	11589
909.993	11672
910.108	11604
910.224	11444
910.339	11611
910.454	11463
910.57	11421
910.685	11353
910.8	11691
910.915	11539
911.03	11467
911.145	11322
911.259	11303
911.374	11254
911.489	11174
911.604	11231
911.718	11075
911.833	11010
911.947	10938
912.062	10835
912.176	11022
912.291	11029
912.405	10968
912.519	11189
912.633	11204
912.748	11041
912.862	11014
912.976	10953
913.09	10771
913.204	10892
913.318	10991
913.431	11018
913.545	11006
913.659	11018
913.772	10900
913.886	10831
914	10782
914.113	10824
914.226	10908
914.34	10957
914.453	10786
914.566	10812
914.68	10694
914.793	10748
914.906	10569
915.019	10542
915.132	10493
915.245	10573
915.358	10531
915.47	10538
915.583	10580
915.696	10675
915.809	10744
915.921	10706
916.034	10535
916.146	10554
916.259	10443
916.371	10588
916.483	10565
916.595	10424
916.708	10466
916.82	10493
916.932	10481
917.044	10451
917.156	10428
917.268	10382
917.38	10322
917.491	10333
917.603	10371
917.715	10432
917.826	10474
917.938	10371
918.049	10253
918.161	10398
918.272	10500
918.384	10538
918.495	10428
918.606	10257
918.717	10204
918.828	10234
918.939	10246
919.05	10158
919.161	10268
919.272	10017
919.383	10109
919.494	10348
919.604	10519
919.715	10246
919.826	10234
919.936	10192
920.047	10238
920.157	10284
920.267	10516
920.378	10291
920.488	10318
920.598	10409
920.708	10580
920.818	10466
920.928	10485
921.038	10683
921.148	10580
921.258	10272
921.368	10223
921.477	10139
921.587	10097
921.697	10006
921.806	10158
921.916	9975
922.025	9842
922.134	9861
922.244	9781
922.353	9838
922.462	9720
922.571	9667
922.68	9523
922.789	9496
922.898	9572
923.007	9496
923.116	9545
923.224	9515
923.333	9469
923.442	9408
923.55	9401
923.659	9355
923.767	9431
923.876	9374
923.984	9515
924.092	9283
924.201	9439
924.309	9325
924.417	9336
924.525	9272
924.633	9336
924.741	10261
924.849	9176
924.956	9313
925.064	9146
925.172	9009
925.279	9081
925.387	9233
925.494	9150
925.602	9298
925.709	9302
925.816	9123
925.924	9123
926.031	9241
926.138	9195
926.245	9253
926.352	9104
926.459	9275
926.566	9287
926.673	9108
926.779	9009
926.886	9013
926.993	8937
927.099	8883
927.206	8796
927.312	8842
927.419	8937
927.525	8891
927.631	8944
927.737	8788
927.843	8800
927.95	8663
928.056	8781
928.162	8659
928.267	8853
928.373	9374
928.479	8914
928.585	8636
928.69	8754
928.796	8766
928.901	8708
929.007	8564
929.112	8678
929.218	8659
929.323	8632
929.428	8541
929.533	8693
929.638	8545
929.743	8552
929.848	8670
929.953	8648
930.058	8526
930.163	8347
930.267	8404
930.372	8461
930.477	8328
930.581	8590
930.685	8434
930.79	8290
930.894	8355
930.998	8309
931.103	8408
931.207	8142
931.311	8069
931.415	8054
931.519	7742
931.623	7803
