Data from test_V78500241_504.txt Node
Date: Fri Mar 25 14:37:13 CST 2022
User: usil
Spectrometer: V785-0024
Trigger mode: 0
Integration Time (sec): 4.000000E-1
Scans to average: 1
Nonlinearity correction enabled: false
Boxcar width: 0
Storing dark spectrum: false
XAxis mode: Wavelengths
Number of Pixels in Spectrum: 1024
>>>>>Begin Spectral Data<<<<<
801.071	26880
801.214	26830
801.356	26442
801.499	26492
801.641	26199
801.783	26172
801.926	26278
802.068	26164
802.211	26088
802.353	26081
802.496	25864
802.638	25776
802.78	25772
802.923	25674
803.065	25731
803.208	25723
803.35	25780
803.492	25753
803.635	25791
803.777	25799
803.919	25734
804.061	26164
804.204	25852
804.346	25780
804.488	25738
804.63	25624
804.773	25655
804.915	25750
805.057	25845
805.199	25715
805.341	25890
805.483	26031
805.626	25902
805.768	25708
805.91	25723
806.052	25681
806.194	25685
806.336	25982
806.478	25887
806.62	25894
806.762	25932
806.904	26100
807.046	26495
807.188	26267
807.33	26233
807.472	26488
807.614	26492
807.756	26362
807.898	26412
808.04	26278
808.182	26598
808.324	26788
808.465	26975
808.607	27340
808.749	27686
808.891	27865
809.033	27960
809.174	27819
809.316	27500
809.458	27252
809.6	26868
809.741	26792
809.883	26735
810.025	26785
810.166	26788
810.308	26746
810.45	26526
810.591	26511
810.733	26298
810.875	26256
811.016	26092
811.158	26142
811.299	26328
811.441	26305
811.582	26202
811.724	26252
811.865	26119
812.007	25940
812.148	26145
812.29	26161
812.431	26358
812.573	26328
812.714	26419
812.855	26549
812.997	26636
813.138	26746
813.279	26739
813.421	26415
813.562	26514
813.703	26290
813.845	26138
813.986	25913
814.127	25788
814.268	25502
814.41	25624
814.551	25533
814.692	25670
814.833	25556
814.974	25575
815.115	25419
815.256	25457
815.397	25373
815.539	25400
815.68	25263
815.821	25206
815.962	25232
816.103	25297
816.244	25187
816.385	24821
816.526	24943
816.666	24837
816.807	24505
816.948	24795
817.089	24760
817.23	24711
817.371	24661
817.512	24684
817.653	24719
817.793	24536
817.934	24753
818.075	24688
818.216	24593
818.356	24654
818.497	24395
818.638	24399
818.778	24376
818.919	24384
819.06	24334
819.2	24574
819.341	24578
819.481	24635
819.622	24730
819.762	24939
819.903	24817
820.043	24806
820.184	24749
820.324	24555
820.465	24665
820.605	24677
820.746	24604
820.886	24547
821.026	24646
821.167	24448
821.307	24612
821.447	24479
821.588	24323
821.728	24319
821.868	24209
822.008	23950
822.149	24091
822.289	23813
822.429	23756
822.569	23752
822.709	23520
822.849	23383
822.99	23452
823.13	23444
823.27	23433
823.41	23231
823.55	23235
823.69	23303
823.83	23235
823.97	23166
824.11	23014
824.25	22904
824.389	23010
824.529	23071
824.669	22965
824.809	23113
824.949	23022
825.089	23022
825.228	23052
825.368	22771
825.508	22759
825.648	22812
825.787	22911
825.927	22839
826.067	22771
826.206	22820
826.346	22782
826.485	22892
826.625	22774
826.765	22801
826.904	22778
827.044	22580
827.183	22462
827.323	22413
827.462	22538
827.601	22538
827.741	22466
827.88	22375
828.02	22367
828.159	22337
828.298	22531
828.437	22497
828.577	22356
828.716	22367
828.855	22303
828.994	22185
829.134	22048
829.273	22109
829.412	22090
829.551	22059
829.69	22070
829.829	22135
829.968	22162
830.107	22200
830.246	22055
830.385	22166
830.524	22013
830.663	21960
830.802	21869
830.941	21663
831.08	21622
831.219	21667
831.357	21736
831.496	21865
831.635	21614
831.774	21583
831.913	21599
832.051	21488
832.19	21553
832.329	21572
832.467	21348
832.606	21287
832.744	21420
832.883	21291
833.022	21287
833.16	21443
833.299	21370
833.437	21447
833.576	21408
833.714	21439
833.852	21462
833.991	21454
834.129	21595
834.267	21405
834.406	21382
834.544	21386
834.682	21519
834.821	21348
834.959	21553
835.097	21401
835.235	21420
835.373	21313
835.511	21230
835.65	21218
835.788	21195
835.926	21028
836.064	21028
836.202	21119
836.34	21256
836.478	21313
836.615	21222
836.753	21230
836.891	21302
837.029	21275
837.167	21146
837.305	21005
837.443	21157
837.58	21051
837.718	21108
837.856	21135
837.993	20990
838.131	21066
838.269	20921
838.406	21028
838.544	20834
838.681	20693
838.819	20750
838.956	20457
839.094	20412
839.231	20457
839.369	20769
839.506	20861
839.643	20708
839.781	20415
839.918	20366
840.055	20381
840.193	20434
840.33	20343
840.467	20358
840.604	20396
840.742	20674
840.879	20317
841.016	20343
841.153	20328
841.29	20541
841.427	20355
841.564	20419
841.701	20381
841.838	20309
841.975	20256
842.112	20259
842.249	20248
842.385	20073
842.522	20267
842.659	20149
842.796	20126
842.933	20084
843.069	19959
843.206	20050
843.343	20119
843.479	20100
843.616	20134
843.752	19841
843.889	19879
844.025	19989
844.162	19856
844.298	19982
844.435	19868
844.571	19868
844.708	19955
844.844	20122
844.98	20195
845.117	20142
845.253	20107
845.389	20008
845.525	20404
845.661	20629
845.798	21005
845.934	21587
846.07	21595
846.206	21523
846.342	21325
846.478	20739
846.614	20164
846.75	19750
846.886	19635
847.022	19609
847.158	19464
847.294	19464
847.429	19377
847.565	19320
847.701	19422
847.837	19206
847.972	19156
848.108	19095
848.244	19171
848.379	18833
848.515	18920
848.65	18821
848.786	18905
848.921	18817
849.057	18958
849.192	19019
849.328	18943
849.463	18882
849.598	18882
849.734	18829
849.869	18760
850.004	18719
850.14	18642
850.275	18692
850.41	18506
850.545	18608
850.68	18722
850.815	18639
850.95	18585
851.085	18776
851.22	18563
851.355	18654
851.49	18711
851.625	18532
851.76	18593
851.895	18521
852.03	18410
852.165	18521
852.299	18528
852.434	18627
852.569	18597
852.703	18578
852.838	18692
852.973	18795
853.107	18726
853.242	18601
853.376	18464
853.511	18376
853.645	18479
853.78	18540
853.914	18540
854.048	18445
854.183	18441
854.317	18445
854.451	18631
854.585	18441
854.72	18532
854.854	18433
854.988	18353
855.122	18235
855.256	18365
855.39	18410
855.524	18566
855.658	18528
855.792	18479
855.926	18544
856.06	18426
856.194	18631
856.327	18407
856.461	18380
856.595	18433
856.729	18304
856.862	18517
856.996	18414
857.13	18475
857.263	18585
857.397	18509
857.53	18414
857.664	18342
857.797	18410
857.931	18483
858.064	18334
858.197	18486
858.331	18350
858.464	18273
858.597	18220
858.731	18338
858.864	18327
858.997	18330
859.13	18353
859.263	18376
859.396	18452
859.529	18372
859.662	18281
859.795	18300
859.928	18426
860.061	18426
860.194	18559
860.327	18361
860.46	18388
860.592	18559
860.725	18517
860.858	18437
860.99	18361
861.123	18239
861.256	18311
861.388	18342
861.521	19126
861.653	18174
861.786	18144
861.918	18201
862.05	18319
862.183	18357
862.315	18384
862.447	18399
862.58	18319
862.712	18182
862.844	17973
862.976	18186
863.108	18205
863.24	18673
863.372	17935
863.504	18057
863.636	18091
863.768	18171
863.9	18091
864.032	18117
864.164	18022
864.296	18152
864.428	18152
864.559	18186
864.691	17969
864.823	18003
864.954	18034
865.086	18003
865.217	18030
865.349	18068
865.48	18011
865.612	18011
865.743	18083
865.875	17912
866.006	17950
866.137	18045
866.269	17996
866.4	17977
866.531	18007
866.662	17939
866.793	17927
866.924	17927
867.055	18019
867.186	18015
867.317	17897
867.448	17855
867.579	17988
867.71	17824
867.841	17805
867.972	17912
868.103	17855
868.233	18068
868.364	17882
868.495	18041
868.625	18186
868.756	18369
868.886	18144
869.017	18121
869.147	18327
869.278	18300
869.408	18296
869.539	18163
869.669	18399
869.799	18144
869.929	18266
870.06	18258
870.19	18452
870.32	18544
870.45	18445
870.58	18464
870.71	18597
870.84	18711
870.97	18521
871.1	18525
871.23	18684
871.36	18829
871.489	18661
871.619	18738
871.749	18760
871.879	18726
872.008	18909
872.138	18859
872.267	18802
872.397	18700
872.526	18658
872.656	18589
872.785	18547
872.915	18779
873.044	18878
873.173	18783
873.303	18905
873.432	18928
873.561	18897
873.69	18863
873.819	18825
873.948	18951
874.077	18905
874.206	18848
874.335	18848
874.464	18939
874.593	19088
874.722	18954
874.851	19194
874.979	19118
875.108	19316
875.237	19209
875.365	19008
875.494	19179
875.623	19168
875.751	19228
875.88	19015
876.008	19381
876.136	19343
876.265	19506
876.393	19696
876.521	19567
876.65	19586
876.778	19506
876.906	19468
877.034	19491
877.162	19624
877.29	19396
877.418	19441
877.546	19719
877.674	19575
877.802	19616
877.93	19658
878.058	19727
878.185	19559
878.313	19544
878.441	19723
878.568	19510
878.696	19708
878.824	19803
878.951	19871
879.079	20126
879.206	20400
879.333	20370
879.461	20343
879.588	20545
879.715	20632
879.842	20659
879.97	20358
880.097	20027
880.224	19826
880.351	19712
880.478	19700
880.605	19655
880.732	19533
880.859	19822
880.986	19674
881.112	19533
881.239	19487
881.366	19422
881.493	19331
881.619	19320
881.746	19274
881.872	19255
881.999	19221
882.125	19175
882.252	19293
882.378	19179
882.505	19365
882.631	19129
882.757	19107
882.883	19069
883.01	19053
883.136	18973
883.262	18859
883.388	18852
883.514	19053
883.64	18993
883.766	18935
883.892	18844
884.018	18760
884.143	19046
884.269	19031
884.395	18768
884.52	18700
884.646	18722
884.772	18715
884.897	18536
885.023	18646
885.148	18776
885.274	18753
885.399	18707
885.524	18566
885.65	18696
885.775	18627
885.9	18532
886.025	18791
886.15	18532
886.275	18410
886.4	18437
886.525	18521
886.65	18426
886.775	18517
886.9	18585
887.025	18612
887.149	18509
887.274	18357
887.399	18247
887.523	18159
887.648	18247
887.773	18186
887.897	18437
888.021	18308
888.146	18140
888.27	18346
888.395	18418
888.519	18300
888.643	18327
888.767	18300
888.891	18083
889.015	18091
889.139	18064
889.263	17950
889.387	18289
889.511	18350
889.635	18182
889.759	18026
889.883	18007
890.006	18041
890.13	18110
890.254	17885
890.377	17988
890.501	17760
890.624	17726
890.748	17851
890.871	17707
890.995	17680
891.118	17623
891.241	17657
891.364	17657
891.488	17726
891.611	17627
891.734	17680
891.857	17741
891.98	17627
892.103	17668
892.226	17646
892.349	17608
892.471	17478
892.594	17573
892.717	17611
892.839	17566
892.962	17604
893.085	17638
893.207	17608
893.33	17482
893.452	17516
893.575	17665
893.697	17512
893.819	17745
893.941	17794
894.064	17646
894.186	17535
894.308	17520
894.43	17630
894.552	17623
894.674	17577
894.796	17528
894.918	17611
895.04	17585
895.161	17581
895.283	17657
895.405	17577
895.526	17604
895.648	17596
895.769	17581
895.891	17611
896.012	17649
896.134	17657
896.255	17676
896.376	17596
896.498	17604
896.619	17691
896.74	17687
896.861	17703
896.982	17969
897.103	18216
897.224	17973
897.345	17950
897.466	17779
897.587	17863
897.708	17980
897.828	17893
897.949	17824
898.07	17703
898.19	17718
898.311	17916
898.431	17893
898.552	17908
898.672	17920
898.792	17950
898.913	18007
899.033	17847
899.153	17687
899.273	17691
899.393	17630
899.513	17748
899.633	17737
899.753	17695
899.873	17627
899.993	17726
900.113	17657
900.232	17737
900.352	17642
900.472	17551
900.591	17421
900.711	17646
900.83	17532
900.95	17672
901.069	17585
901.189	17455
901.308	17086
901.427	17132
901.546	17060
901.665	17128
901.784	17170
901.904	16999
902.023	16965
902.141	16573
902.26	16672
902.379	16820
902.498	16580
902.617	16664
902.735	16618
902.854	16607
902.973	16523
903.091	16379
903.21	16367
903.328	16257
903.446	16257
903.565	16166
903.683	16204
903.801	16006
903.919	16116
904.038	16169
904.156	15899
904.274	16006
904.392	15865
904.51	15956
904.627	15888
904.745	16021
904.863	16006
904.981	15694
905.098	15595
905.216	15557
905.334	15614
905.451	15523
905.569	15523
905.686	15530
905.803	15557
905.921	15454
906.038	15538
906.155	15405
906.272	15237
906.389	15317
906.506	15104
906.623	15154
906.74	15081
906.857	15013
906.974	14979
907.091	15070
907.208	15150
907.324	15108
907.441	15032
907.557	14807
907.674	14902
907.79	14640
907.907	14826
908.023	14758
908.139	14720
908.256	14682
908.372	14743
908.488	14701
908.604	14545
908.72	14518
908.836	14583
908.952	14457
909.068	14469
909.184	14617
909.3	14454
909.415	14575
909.531	14434
909.647	14343
909.762	14233
909.878	14138
909.993	14275
910.108	14180
910.224	14123
910.339	14142
910.454	14142
910.57	14073
910.685	14024
910.8	14225
910.915	14084
911.03	14069
911.145	13951
911.259	13837
911.374	13856
911.489	13875
911.604	13715
911.718	13620
911.833	13571
911.947	13373
912.062	13384
912.176	13552
912.291	13601
912.405	13632
912.519	13715
912.633	13719
912.748	13590
912.862	13556
912.976	13339
913.09	13278
913.204	13354
913.318	13415
913.431	13518
913.545	13563
913.659	13514
913.772	13384
913.886	13312
914	13320
914.113	13339
914.226	13362
914.34	13312
914.453	13183
914.566	13335
914.68	13312
914.793	13122
914.906	13012
915.019	12916
915.132	12829
915.245	12928
915.358	12928
915.47	12913
915.583	12962
915.696	12981
915.809	13057
915.921	13126
916.034	12897
916.146	12882
916.259	12825
916.371	13019
916.483	12913
916.595	12779
916.708	12848
916.82	12947
916.932	12730
917.044	12821
917.156	12791
917.268	12646
917.38	12608
917.491	12642
917.603	12722
917.715	12772
917.826	12833
917.938	12658
918.049	12498
918.161	12623
918.272	12783
918.384	12753
918.495	12711
918.606	12528
918.717	12456
918.828	12555
918.939	12513
919.05	12327
919.161	12391
919.272	12262
919.383	12323
919.494	12536
919.604	12616
919.715	12414
919.826	12350
919.936	12445
920.047	12517
920.157	12304
920.267	12665
920.378	12391
920.488	12338
920.598	12620
920.708	12760
920.818	12582
920.928	12506
921.038	12772
921.148	12726
921.258	12456
921.368	12327
921.477	12266
921.587	12239
921.697	12201
921.806	12216
921.916	12114
922.025	11958
922.134	11885
922.244	11760
922.353	11882
922.462	11760
922.571	11786
922.68	11657
922.789	11627
922.898	11604
923.007	11497
923.116	11558
923.224	11505
923.333	11528
923.442	11436
923.55	11463
923.659	11398
923.767	11463
923.876	11292
923.984	11406
924.092	11170
924.201	11368
924.309	11379
924.417	11463
924.525	11242
924.633	11254
924.741	12178
924.849	11151
924.956	11269
925.064	11117
925.172	11075
925.279	11018
925.387	11083
925.494	11071
925.602	11254
925.709	11071
925.816	11064
925.924	11098
926.031	11185
926.138	11048
926.245	11102
926.352	10881
926.459	11064
926.566	11143
926.673	10923
926.779	10908
926.886	10866
926.993	10656
927.099	10687
927.206	10649
927.312	10687
927.419	10759
927.525	10698
927.631	10679
927.737	10672
927.843	10577
927.95	10466
928.056	10569
928.162	10626
928.267	10558
928.373	11178
928.479	10668
928.585	10455
928.69	10523
928.796	10519
928.901	10440
929.007	10306
929.112	10375
929.218	10440
929.323	10295
929.428	10322
929.533	10417
929.638	10261
929.743	10318
929.848	10303
929.953	10238
930.058	10223
930.163	9987
930.267	10124
930.372	10090
930.477	10010
930.581	10223
930.685	10074
930.79	9934
930.894	9983
930.998	9865
931.103	10116
931.207	9728
931.311	9644
931.415	9595
931.519	9405
931.623	9336
