Data from test_V78500241_1073.txt Node
Date: Fri Mar 25 14:41:11 CST 2022
User: usil
Spectrometer: V785-0024
Trigger mode: 0
Integration Time (sec): 4.000000E-1
Scans to average: 1
Nonlinearity correction enabled: false
Boxcar width: 0
Storing dark spectrum: false
XAxis mode: Wavelengths
Number of Pixels in Spectrum: 1024
>>>>>Begin Spectral Data<<<<<
801.071	22767
801.214	22653
801.356	22462
801.499	22352
801.641	22215
801.783	22105
801.926	22074
802.068	22036
802.211	22021
802.353	21915
802.496	21785
802.638	21633
802.78	21557
802.923	21511
803.065	21519
803.208	21534
803.35	21420
803.492	21622
803.635	21690
803.777	21542
803.919	21481
804.061	21831
804.204	21591
804.346	21431
804.488	21340
804.63	21443
804.773	21279
804.915	21420
805.057	21511
805.199	21416
805.341	21401
805.483	21542
805.626	21454
805.768	21348
805.91	21393
806.052	21321
806.194	21298
806.336	21534
806.478	21382
806.62	21450
806.762	21431
806.904	21610
807.046	21945
807.188	21762
807.33	21854
807.472	21808
807.614	21823
807.756	21743
807.898	21732
808.04	21705
808.182	21751
808.324	21804
808.465	21899
808.607	22112
808.749	22360
808.891	22516
809.033	22455
809.174	22375
809.316	22154
809.458	22154
809.6	22044
809.741	22109
809.883	22010
810.025	21998
810.166	22135
810.308	22124
810.45	21987
810.591	21816
810.733	21800
810.875	21713
811.016	21557
811.158	21603
811.299	21717
811.441	21644
811.582	21686
811.724	21576
811.865	21511
812.007	21576
812.148	21507
812.29	21759
812.431	21751
812.573	21907
812.714	22059
812.855	22200
812.997	22284
813.138	22299
813.279	22150
813.421	22143
813.562	22188
813.703	21888
813.845	21827
813.986	21500
814.127	21367
814.268	21211
814.41	21237
814.551	21161
814.692	21348
814.833	21081
814.974	21184
815.115	21184
815.256	20998
815.397	21013
815.539	21043
815.68	20933
815.821	20887
815.962	21085
816.103	20773
816.244	20807
816.385	20697
816.526	20625
816.666	20522
816.807	20362
816.948	20358
817.089	20545
817.23	20495
817.371	20275
817.512	20248
817.653	20301
817.793	20218
817.934	20332
818.075	20332
818.216	20263
818.356	20313
818.497	20176
818.638	19898
818.778	19993
818.919	20096
819.06	19978
819.2	20153
819.341	20256
819.481	20149
819.622	20294
819.762	20499
819.903	20442
820.043	20339
820.184	20389
820.324	20332
820.465	20415
820.605	20317
820.746	20244
820.886	20084
821.026	20343
821.167	20320
821.307	20191
821.447	20252
821.588	20172
821.728	19974
821.868	19788
822.008	19655
822.149	19662
822.289	19719
822.429	19400
822.569	19289
822.709	19392
822.849	19225
822.99	19198
823.13	19187
823.27	19160
823.41	19084
823.55	18909
823.69	19012
823.83	18916
823.97	18943
824.11	18787
824.25	18677
824.389	18749
824.529	18795
824.669	18810
824.809	18829
824.949	18867
825.089	18620
825.228	18825
825.368	18684
825.508	18661
825.648	18589
825.787	18608
825.927	18597
826.067	18498
826.206	18506
826.346	18646
826.485	18578
826.625	18620
826.765	18658
826.904	18559
827.044	18410
827.183	18296
827.323	18300
827.462	18323
827.601	18228
827.741	18254
827.88	18155
828.02	18186
828.159	18285
828.298	18220
828.437	18281
828.577	18232
828.716	18380
828.855	18228
828.994	18041
829.134	18083
829.273	17969
829.412	18064
829.551	17939
829.69	17973
829.829	17999
829.968	18110
830.107	17996
830.246	17931
830.385	17832
830.524	17893
830.663	17821
830.802	17729
830.941	17676
831.08	17630
831.219	17687
831.357	17638
831.496	17870
831.635	17608
831.774	17490
831.913	17467
832.051	17524
832.19	17315
832.329	17398
832.467	17254
832.606	17261
832.744	17334
832.883	17315
833.022	17239
833.16	17349
833.299	17269
833.437	17337
833.576	17258
833.714	17368
833.852	17322
833.991	17376
834.129	17493
834.267	17398
834.406	17360
834.544	17368
834.682	17337
834.821	17414
834.959	17520
835.097	17334
835.235	17417
835.373	17303
835.511	17395
835.65	17269
835.788	17307
835.926	17105
836.064	17094
836.202	17109
836.34	17322
836.478	17296
836.615	17254
836.753	17235
836.891	17383
837.029	17246
837.167	17231
837.305	17235
837.443	17204
837.58	17064
837.718	17121
837.856	17121
837.993	17098
838.131	17041
838.269	17075
838.406	17117
838.544	17067
838.681	16843
838.819	16824
838.956	16634
839.094	16694
839.231	16774
839.369	16782
839.506	17037
839.643	16927
839.781	16622
839.918	16664
840.055	16649
840.193	16729
840.33	16634
840.467	16641
840.604	16725
840.742	16965
840.879	16462
841.016	16649
841.153	16542
841.29	16805
841.427	16630
841.564	16607
841.701	16687
841.838	16596
841.975	16577
842.112	16531
842.249	16470
842.385	16436
842.522	16550
842.659	16443
842.796	16398
842.933	16417
843.069	16443
843.206	16443
843.343	16546
843.479	16466
843.616	16447
843.752	16196
843.889	16242
844.025	16375
844.162	16139
844.298	16295
844.435	16295
844.571	16181
844.708	16314
844.844	16337
844.98	16489
845.117	16348
845.253	16230
845.389	16234
845.525	16337
845.661	16398
845.798	16417
845.934	16634
846.07	16702
846.206	16653
846.342	16603
846.478	16398
846.614	16055
846.75	15774
846.886	15781
847.022	15956
847.158	15865
847.294	15895
847.429	15804
847.565	15732
847.701	15972
847.837	15599
847.972	15549
848.108	15622
848.244	15492
848.379	15458
848.515	15412
848.65	15332
848.786	15359
848.921	15443
849.057	15462
849.192	15564
849.328	15466
849.463	15431
849.598	15283
849.734	15256
849.869	15207
850.004	15100
850.14	15260
850.275	15100
850.41	15028
850.545	15097
850.68	15108
850.815	15043
850.95	15127
851.085	15268
851.22	15146
851.355	15222
851.49	15112
851.625	15032
851.76	15104
851.895	14933
852.03	15024
852.165	15032
852.299	15108
852.434	15112
852.569	15138
852.703	15108
852.838	15207
852.973	15287
853.107	15218
853.242	15104
853.376	15024
853.511	14876
853.645	14994
853.78	15062
853.914	15009
854.048	15032
854.183	14967
854.317	14944
854.451	15135
854.585	15005
854.72	14952
854.854	15062
854.988	14830
855.122	14960
855.256	14842
855.39	14998
855.524	15039
855.658	15180
855.792	14990
855.926	14971
856.06	15093
856.194	15097
856.327	14937
856.461	15028
856.595	14956
856.729	14899
856.862	15055
856.996	15024
857.13	15066
857.263	15066
857.397	15100
857.53	15005
857.664	15051
857.797	15043
857.931	15142
858.064	14986
858.197	15093
858.331	14948
858.464	14838
858.597	14876
858.731	15005
858.864	14948
858.997	14921
859.13	15020
859.263	15017
859.396	15184
859.529	14918
859.662	14982
859.795	14895
859.928	15009
860.061	15154
860.194	15150
860.327	15093
860.46	14937
860.592	15146
860.725	15104
860.858	15028
860.99	14979
861.123	14880
861.256	14971
861.388	15123
861.521	15671
861.653	14823
861.786	14849
861.918	14960
862.05	14925
862.183	14986
862.315	14971
862.447	14967
862.58	14891
862.712	14697
862.844	14629
862.976	14823
863.108	14800
863.24	15199
863.372	14636
863.504	14731
863.636	14731
863.768	14765
863.9	14788
864.032	14693
864.164	14769
864.296	14727
864.428	14781
864.559	14781
864.691	14902
864.823	14777
864.954	14701
865.086	14815
865.217	14678
865.349	14697
865.48	14804
865.612	14785
865.743	14876
865.875	14739
866.006	14674
866.137	14773
866.269	14762
866.4	14678
866.531	14651
866.662	14568
866.793	14682
866.924	14663
867.055	14720
867.186	14682
867.317	14670
867.448	14594
867.579	14621
867.71	14629
867.841	14495
867.972	14811
868.103	14785
868.233	14648
868.364	14693
868.495	14804
868.625	14971
868.756	14994
868.886	14876
869.017	14891
869.147	15077
869.278	15077
869.408	15043
869.539	15013
869.669	15051
869.799	15036
869.929	15089
870.06	15043
870.19	15329
870.32	15279
870.45	15344
870.58	15355
870.71	15374
870.84	15469
870.97	15237
871.1	15306
871.23	15485
871.36	15545
871.489	15359
871.619	15572
871.749	15519
871.879	15538
872.008	15637
872.138	15549
872.267	15485
872.397	15378
872.526	15389
872.656	15374
872.785	15435
872.915	15481
873.044	15652
873.173	15549
873.303	15568
873.432	15701
873.561	15747
873.69	15622
873.819	15542
873.948	15587
874.077	15629
874.206	15564
874.335	15705
874.464	15747
874.593	15869
874.722	15835
874.851	16025
874.979	15895
875.108	15968
875.237	15899
875.365	15861
875.494	15922
875.623	16025
875.751	15911
875.88	15991
876.008	15972
876.136	16143
876.265	16367
876.393	16493
876.521	16432
876.65	16436
876.778	16352
876.906	16268
877.034	16299
877.162	16249
877.29	16333
877.418	16390
877.546	16440
877.674	16409
877.802	16299
877.93	16386
878.058	16337
878.185	16310
878.313	16428
878.441	16413
878.568	16124
878.696	16451
878.824	16398
878.951	16527
879.079	16668
879.206	16824
879.333	16759
879.461	16668
879.588	16733
879.715	16854
879.842	16847
879.97	16630
880.097	16402
880.224	16325
880.351	16261
880.478	16276
880.605	16253
880.732	16242
880.859	16481
880.986	16375
881.112	16188
881.239	16150
881.366	15941
881.493	15907
881.619	15960
881.746	16002
881.872	15888
881.999	15838
882.125	15892
882.252	15865
882.378	15941
882.505	16112
882.631	15899
882.757	15835
882.883	15888
883.01	15720
883.136	15736
883.262	15660
883.388	15538
883.514	15739
883.64	15762
883.766	15679
883.892	15591
884.018	15542
884.143	15743
884.269	15762
884.395	15496
884.52	15317
884.646	15473
884.772	15310
884.897	15287
885.023	15340
885.148	15496
885.274	15587
885.399	15584
885.524	15454
885.65	15367
885.775	15477
885.9	15439
886.025	15553
886.15	15530
886.275	15416
886.4	15287
886.525	15405
886.65	15378
886.775	15351
886.9	15428
887.025	15564
887.149	15454
887.274	15161
887.399	15192
887.523	15142
887.648	15150
887.773	15131
887.897	15329
888.021	15226
888.146	15119
888.27	15241
888.395	15264
888.519	15325
888.643	15332
888.767	15279
888.891	15180
889.015	15036
889.139	15081
889.263	15028
889.387	15100
889.511	15332
889.635	15135
889.759	15062
889.883	14975
890.006	15047
890.13	15252
890.254	14941
890.377	14933
890.501	14853
890.624	14754
890.748	14887
890.871	14788
890.995	14773
891.118	14682
891.241	14758
891.364	14746
891.488	14777
891.611	14762
891.734	14689
891.857	14880
891.98	14727
892.103	14750
892.226	14815
892.349	14705
892.471	14598
892.594	14724
892.717	14720
892.839	14762
892.962	14769
893.085	14769
893.207	14617
893.33	14541
893.452	14651
893.575	14758
893.697	14667
893.819	14906
893.941	14910
894.064	14758
894.186	14712
894.308	14625
894.43	14845
894.552	14921
894.674	14792
894.796	14636
894.918	14636
895.04	14663
895.161	14918
895.283	14876
895.405	14785
895.526	14819
895.648	14849
895.769	14849
895.891	14826
896.012	14906
896.134	14838
896.255	14792
896.376	14815
896.498	14796
896.619	14815
896.74	14895
896.861	14876
896.982	15249
897.103	15348
897.224	15028
897.345	15066
897.466	15097
897.587	15062
897.708	15218
897.828	15237
897.949	15161
898.07	14956
898.19	15138
898.311	15268
898.431	15119
898.552	15192
898.672	15340
898.792	15268
898.913	15256
899.033	15074
899.153	15036
899.273	14952
899.393	14982
899.513	14929
899.633	15024
899.753	15036
899.873	14925
899.993	15097
900.113	15135
900.232	14982
900.352	15039
900.472	14994
900.591	14895
900.711	14857
900.83	14853
900.95	14941
901.069	15089
901.189	14800
901.308	14705
901.427	14560
901.546	14541
901.665	14583
901.784	14556
901.904	14431
902.023	14328
902.141	14202
902.26	14111
902.379	14187
902.498	14168
902.617	14008
902.735	14149
902.854	14092
902.973	13997
903.091	13799
903.21	13864
903.328	13875
903.446	13826
903.565	13624
903.683	13719
903.801	13624
903.919	13613
904.038	13666
904.156	13468
904.274	13502
904.392	13449
904.51	13502
904.627	13510
904.745	13540
904.863	13571
904.981	13285
905.098	13091
905.216	13110
905.334	13266
905.451	13168
905.569	13114
905.686	13190
905.803	13255
905.921	13046
906.038	13004
906.155	13012
906.272	12932
906.389	12856
906.506	12768
906.623	12753
906.74	12753
906.857	12681
906.974	12627
907.091	12802
907.208	12825
907.324	12817
907.441	12604
907.557	12555
907.674	12547
907.79	12445
907.907	12384
908.023	12498
908.139	12467
908.256	12513
908.372	12456
908.488	12441
908.604	12247
908.72	12205
908.836	12251
908.952	12190
909.068	12277
909.184	12285
909.3	12197
909.415	12308
909.531	12262
909.647	12053
909.762	11988
909.878	11992
909.993	12022
910.108	11999
910.224	12060
910.339	12079
910.454	11866
910.57	11935
910.685	11775
910.8	12133
910.915	12034
911.03	11885
911.145	11729
911.259	11722
911.374	11661
911.489	11627
911.604	11558
911.718	11379
911.833	11524
911.947	11330
912.062	11288
912.176	11379
912.291	11376
912.405	11570
912.519	11703
912.633	11630
912.748	11535
912.862	11440
912.976	11292
913.09	11181
913.204	11220
913.318	11307
913.431	11459
913.545	11433
913.659	11364
913.772	11387
913.886	11170
914	11105
914.113	11261
914.226	11277
914.34	11250
914.453	11113
914.566	11284
914.68	11136
914.793	11117
914.906	10942
915.019	10953
915.132	10892
915.245	10961
915.358	10968
915.47	10972
915.583	10919
915.696	10976
915.809	11006
915.921	11029
916.034	10900
916.146	10858
916.259	10801
916.371	11025
916.483	10927
916.595	10850
916.708	10786
916.82	10835
916.932	10850
917.044	10831
917.156	10752
917.268	10683
917.38	10816
917.491	10786
917.603	10755
917.715	10843
917.826	10805
917.938	10774
918.049	10592
918.161	10740
918.272	10866
918.384	10919
918.495	10733
918.606	10569
918.717	10538
918.828	10645
918.939	10645
919.05	10474
919.161	10580
919.272	10436
919.383	10447
919.494	10729
919.604	10869
919.715	10588
919.826	10577
919.936	10599
920.047	10710
920.157	10691
920.267	10900
920.378	10630
920.488	10634
920.598	10900
920.708	10892
920.818	10809
920.928	10748
921.038	10942
921.148	10984
921.258	10599
921.368	10504
921.477	10421
921.587	10432
921.697	10253
921.806	10504
921.916	10409
922.025	10192
922.134	10082
922.244	10036
922.353	10249
922.462	10036
922.571	9975
922.68	9812
922.789	9869
922.898	9865
923.007	9816
923.116	9873
923.224	9953
923.333	9831
923.442	9770
923.55	9732
923.659	9717
923.767	9804
923.876	9732
923.984	9766
924.092	9675
924.201	9698
924.309	9663
924.417	9679
924.525	9545
924.633	9713
924.741	10607
924.849	9511
924.956	9701
925.064	9500
925.172	9386
925.279	9485
925.387	9462
925.494	9504
925.602	9660
925.709	9488
925.816	9405
925.924	9462
926.031	9545
926.138	9416
926.245	9557
926.352	9523
926.459	9511
926.566	9603
926.673	9492
926.779	9351
926.886	9332
926.993	9230
927.099	9154
927.206	9119
927.312	9165
927.419	9294
927.525	9157
927.631	9226
927.737	9119
927.843	9108
927.95	8883
928.056	9058
928.162	9085
928.267	9127
928.373	9667
928.479	9146
928.585	8948
928.69	9077
928.796	9146
928.901	9051
929.007	8853
929.112	9013
929.218	9009
929.323	8918
929.428	8899
929.533	9043
929.638	8857
929.743	8849
929.848	8925
929.953	8861
930.058	8826
930.163	8701
930.267	8651
930.372	8788
930.477	8610
930.581	8804
930.685	8743
930.79	8613
930.894	8686
930.998	8613
931.103	8754
931.207	8476
931.311	8389
931.415	8267
931.519	8115
931.623	8111
