Data from test_V78500241_1360.txt Node
Date: Fri Mar 25 14:43:11 CST 2022
User: usil
Spectrometer: V785-0024
Trigger mode: 0
Integration Time (sec): 4.000000E-1
Scans to average: 1
Nonlinearity correction enabled: false
Boxcar width: 0
Storing dark spectrum: false
XAxis mode: Wavelengths
Number of Pixels in Spectrum: 1024
>>>>>Begin Spectral Data<<<<<
801.071	22489
801.214	22333
801.356	22090
801.499	21838
801.641	21846
801.783	21823
801.926	21766
802.068	21660
802.211	21583
802.353	21580
802.496	21370
802.638	21195
802.78	21233
802.923	21108
803.065	21195
803.208	21001
803.35	21180
803.492	21207
803.635	21264
803.777	21252
803.919	21169
804.061	21389
804.204	21237
804.346	21074
804.488	20944
804.63	21058
804.773	21070
804.915	21096
805.057	21096
805.199	21184
805.341	21176
805.483	21283
805.626	21214
805.768	21066
805.91	21127
806.052	21093
806.194	20910
806.336	21108
806.478	21119
806.62	20963
806.762	21112
806.904	21272
807.046	21462
807.188	21454
807.33	21401
807.472	21401
807.614	21348
807.756	21317
807.898	21195
808.04	21241
808.182	21325
808.324	21348
808.465	21306
808.607	21549
808.749	21625
808.891	21888
809.033	21827
809.174	21819
809.316	21500
809.458	21606
809.6	21599
809.741	21523
809.883	21610
810.025	21648
810.166	21720
810.308	21625
810.45	21686
810.591	21530
810.733	21344
810.875	21237
811.016	21135
811.158	21173
811.299	21268
811.441	21412
811.582	21386
811.724	21294
811.865	21207
812.007	21218
812.148	21336
812.29	21310
812.431	21367
812.573	21397
812.714	21603
812.855	21595
812.997	21899
813.138	21869
813.279	21865
813.421	21739
813.562	21694
813.703	21500
813.845	21447
813.986	21036
814.127	20899
814.268	20944
814.41	20769
814.551	20785
814.692	20800
814.833	20724
814.974	20708
815.115	20739
815.256	20629
815.397	20476
815.539	20655
815.68	20636
815.821	20450
815.962	20556
816.103	20469
816.244	20256
816.385	20366
816.526	20267
816.666	20115
816.807	19932
816.948	20088
817.089	20111
817.23	19989
817.371	19887
817.512	20001
817.653	19913
817.793	19951
817.934	19951
818.075	20016
818.216	19890
818.356	19898
818.497	19734
818.638	19567
818.778	19620
818.919	19510
819.06	19738
819.2	19852
819.341	19818
819.481	19753
819.622	19894
819.762	20237
819.903	20077
820.043	19883
820.184	19936
820.324	19864
820.465	19955
820.605	19902
820.746	19986
820.886	19814
821.026	19769
821.167	19860
821.307	19921
821.447	19849
821.588	19658
821.728	19624
821.868	19480
822.008	19308
822.149	19236
822.289	19282
822.429	19004
822.569	19012
822.709	18947
822.849	18741
822.99	18856
823.13	18798
823.27	18749
823.41	18540
823.55	18547
823.69	18639
823.83	18681
823.97	18540
824.11	18361
824.25	18334
824.389	18353
824.529	18407
824.669	18445
824.809	18536
824.949	18391
825.089	18403
825.228	18365
825.368	18182
825.508	18152
825.648	18148
825.787	18239
825.927	18224
826.067	17996
826.206	18098
826.346	18190
826.485	18197
826.625	18155
826.765	18213
826.904	18239
827.044	17923
827.183	17882
827.323	17878
827.462	17874
827.601	17798
827.741	17901
827.88	17824
828.02	17703
828.159	17847
828.298	17912
828.437	17969
828.577	17840
828.716	17920
828.855	17794
828.994	17661
829.134	17589
829.273	17634
829.412	17604
829.551	17547
829.69	17539
829.829	17558
829.968	17771
830.107	17722
830.246	17642
830.385	17596
830.524	17478
830.663	17436
830.802	17261
830.941	17280
831.08	17147
831.219	17345
831.357	17315
831.496	17512
831.635	17155
831.774	17189
831.913	16987
832.051	17075
832.19	17086
832.329	17090
832.467	16900
832.606	16923
832.744	16953
832.883	16968
833.022	16915
833.16	17003
833.299	17048
833.437	17018
833.576	16991
833.714	16953
833.852	17022
833.991	17037
834.129	17132
834.267	17022
834.406	16976
834.544	17037
834.682	16965
834.821	16923
834.959	17159
835.097	16953
835.235	17022
835.373	17033
835.511	16999
835.65	16896
835.788	16942
835.926	16759
836.064	16599
836.202	16687
836.34	16942
836.478	16915
836.615	16896
836.753	16942
836.891	16923
837.029	16972
837.167	16812
837.305	16786
837.443	16805
837.58	16748
837.718	16801
837.856	16744
837.993	16694
838.131	16835
838.269	16615
838.406	16618
838.544	16588
838.681	16440
838.819	16455
838.956	16287
839.094	16303
839.231	16325
839.369	16306
839.506	16717
839.643	16523
839.781	16386
839.918	16238
840.055	16219
840.193	16318
840.33	16341
840.467	16287
840.604	16341
840.742	16535
840.879	16166
841.016	16249
841.153	16242
841.29	16348
841.427	16242
841.564	16291
841.701	16287
841.838	16348
841.975	16226
842.112	16257
842.249	16173
842.385	16147
842.522	16272
842.659	16071
842.796	16067
842.933	16112
843.069	16093
843.206	16109
843.343	16162
843.479	16162
843.616	16051
843.752	15922
843.889	15698
844.025	15934
844.162	15808
844.298	15956
844.435	15884
844.571	15812
844.708	15918
844.844	16044
844.98	15899
845.117	15960
845.253	15865
845.389	15698
845.525	15888
845.661	15880
845.798	15930
845.934	15926
846.07	15823
846.206	16032
846.342	16013
846.478	15827
846.614	15477
846.75	15389
846.886	15412
847.022	15504
847.158	15534
847.294	15416
847.429	15420
847.565	15355
847.701	15633
847.837	15154
847.972	15184
848.108	15306
848.244	15146
848.379	15089
848.515	15055
848.65	14956
848.786	14960
848.921	15085
849.057	15127
849.192	15184
849.328	15089
849.463	15032
849.598	14925
849.734	14933
849.869	14868
850.004	14659
850.14	14861
850.275	14830
850.41	14746
850.545	14724
850.68	14731
850.815	14933
850.95	14746
851.085	14937
851.22	14826
851.355	14762
851.49	14762
851.625	14674
851.76	14800
851.895	14667
852.03	14636
852.165	14769
852.299	14792
852.434	14876
852.569	14845
852.703	14777
852.838	14921
852.973	14952
853.107	14883
853.242	14724
853.376	14659
853.511	14473
853.645	14511
853.78	14720
853.914	14693
854.048	14648
854.183	14579
854.317	14663
854.451	14769
854.585	14575
854.72	14655
854.854	14693
854.988	14587
855.122	14594
855.256	14434
855.39	14640
855.524	14781
855.658	14743
855.792	14701
855.926	14716
856.06	14678
856.194	14705
856.327	14640
856.461	14602
856.595	14492
856.729	14629
856.862	14689
856.996	14674
857.13	14659
857.263	14823
857.397	14765
857.53	14781
857.664	14754
857.797	14708
857.931	14663
858.064	14689
858.197	14724
858.331	14762
858.464	14629
858.597	14499
858.731	14682
858.864	14689
858.997	14621
859.13	14708
859.263	14682
859.396	14686
859.529	14583
859.662	14545
859.795	14568
859.928	14667
860.061	14720
860.194	14807
860.327	14667
860.46	14587
860.592	14686
860.725	14765
860.858	14811
860.99	14564
861.123	14644
861.256	14499
861.388	14689
861.521	15325
861.653	14640
861.786	14415
861.918	14533
862.05	14602
862.183	14461
862.315	14518
862.447	14659
862.58	14545
862.712	14438
862.844	14366
862.976	14488
863.108	14545
863.24	14746
863.372	14336
863.504	14385
863.636	14320
863.768	14484
863.9	14400
864.032	14450
864.164	14358
864.296	14400
864.428	14473
864.559	14450
864.691	14454
864.823	14476
864.954	14400
865.086	14415
865.217	14396
865.349	14336
865.48	14377
865.612	14431
865.743	14533
865.875	14355
866.006	14412
866.137	14339
866.269	14412
866.4	14400
866.531	14229
866.662	14343
866.793	14374
866.924	14324
867.055	14389
867.186	14518
867.317	14370
867.448	14286
867.579	14324
867.71	14267
867.841	14282
867.972	14434
868.103	14343
868.233	14332
868.364	14362
868.495	14469
868.625	14651
868.756	14708
868.886	14552
869.017	14674
869.147	14705
869.278	14655
869.408	14648
869.539	14670
869.669	14678
869.799	14705
869.929	14697
870.06	14724
870.19	14986
870.32	14952
870.45	14868
870.58	15013
870.71	15150
870.84	15104
870.97	14952
871.1	15093
871.23	15226
871.36	15157
871.489	15062
871.619	15203
871.749	15116
871.879	15268
872.008	15424
872.138	15195
872.267	15264
872.397	15070
872.526	15013
872.656	15036
872.785	15028
872.915	15272
873.044	15382
873.173	15214
873.303	15283
873.432	15306
873.561	15291
873.69	15249
873.819	15283
873.948	15431
874.077	15363
874.206	15268
874.335	15268
874.464	15367
874.593	15584
874.722	15538
874.851	15629
874.979	15667
875.108	15755
875.237	15473
875.365	15485
875.494	15507
875.623	15739
875.751	15511
875.88	15526
876.008	15743
876.136	15857
876.265	15960
876.393	16135
876.521	16044
876.65	16067
876.778	15991
876.906	15953
877.034	15949
877.162	15972
877.29	16063
877.418	15987
877.546	16025
877.674	15956
877.802	15934
877.93	16032
878.058	16051
878.185	15827
878.313	15941
878.441	16040
878.568	15937
878.696	15998
878.824	16017
878.951	16055
879.079	16112
879.206	16344
879.333	16287
879.461	16162
879.588	16223
879.715	16363
879.842	16481
879.97	16120
880.097	15975
880.224	15907
880.351	15926
880.478	15979
880.605	15911
880.732	15812
880.859	16109
880.986	15888
881.112	15888
881.239	15743
881.366	15667
881.493	15599
881.619	15633
881.746	15610
881.872	15568
881.999	15504
882.125	15405
882.252	15450
882.378	15656
882.505	15644
882.631	15477
882.757	15329
882.883	15420
883.01	15405
883.136	15279
883.262	15245
883.388	15294
883.514	15424
883.64	15492
883.766	15283
883.892	15283
884.018	15108
884.143	15374
884.269	15424
884.395	15138
884.52	15104
884.646	15119
884.772	15001
884.897	14994
885.023	15047
885.148	15207
885.274	15275
885.399	15245
885.524	15093
885.65	15104
885.775	15070
885.9	15066
886.025	15135
886.15	15104
886.275	14975
886.4	14925
886.525	15077
886.65	15039
886.775	14963
886.9	15214
887.025	15275
887.149	15116
887.274	14937
887.399	14792
887.523	14948
887.648	14910
887.773	14708
887.897	14952
888.021	14990
888.146	14781
888.27	15009
888.395	14994
888.519	14921
888.643	14872
888.767	14887
888.891	14849
889.015	14670
889.139	14765
889.263	14735
889.387	14826
889.511	15077
889.635	14857
889.759	14648
889.883	14682
890.006	14724
890.13	14769
890.254	14689
890.377	14663
890.501	14549
890.624	14526
890.748	14552
890.871	14434
890.995	14404
891.118	14385
891.241	14450
891.364	14419
891.488	14514
891.611	14400
891.734	14389
891.857	14442
891.98	14442
892.103	14465
892.226	14526
892.349	14469
892.471	14294
892.594	14381
892.717	14396
892.839	14400
892.962	14412
893.085	14537
893.207	14438
893.33	14301
893.452	14313
893.575	14480
893.697	14332
893.819	14625
893.941	14552
894.064	14522
894.186	14358
894.308	14317
894.43	14503
894.552	14552
894.674	14545
894.796	14332
894.918	14351
895.04	14469
895.161	14495
895.283	14522
895.405	14381
895.526	14434
895.648	14556
895.769	14438
895.891	14541
896.012	14640
896.134	14632
896.255	14530
896.376	14427
896.498	14488
896.619	14602
896.74	14503
896.861	14522
896.982	14895
897.103	15058
897.224	14925
897.345	14693
897.466	14754
897.587	14777
897.708	14910
897.828	14933
897.949	14838
898.07	14769
898.19	14746
898.311	14975
898.431	14804
898.552	14921
898.672	15058
898.792	14975
898.913	14979
899.033	14861
899.153	14724
899.273	14727
899.393	14708
899.513	14727
899.633	14735
899.753	14716
899.873	14705
899.993	14834
900.113	14788
900.232	14689
900.352	14731
900.472	14689
900.591	14625
900.711	14621
900.83	14461
900.95	14811
901.069	14705
901.189	14583
901.308	14298
901.427	14218
901.546	14305
901.665	14282
901.784	14347
901.904	14107
902.023	14035
902.141	13967
902.26	13883
902.379	13909
902.498	13906
902.617	13849
902.735	13860
902.854	13807
902.973	13803
903.091	13636
903.21	13552
903.328	13624
903.446	13510
903.565	13377
903.683	13514
903.801	13278
903.919	13365
904.038	13384
904.156	13282
904.274	13255
904.392	13209
904.51	13206
904.627	13274
904.745	13289
904.863	13285
904.981	13091
905.098	12996
905.216	12901
905.334	12920
905.451	12939
905.569	12905
905.686	12932
905.803	12871
905.921	12757
906.038	12776
906.155	12749
906.272	12642
906.389	12673
906.506	12540
906.623	12494
906.74	12532
906.857	12357
906.974	12323
907.091	12502
907.208	12700
907.324	12506
907.441	12407
907.557	12197
907.674	12277
907.79	12213
907.907	12270
908.023	12251
908.139	12296
908.256	12262
908.372	12171
908.488	12136
908.604	12087
908.72	11935
908.836	12034
908.952	12019
909.068	12019
909.184	12098
909.3	11999
909.415	12083
909.531	12019
909.647	11855
909.762	11809
909.878	11649
909.993	11752
910.108	11684
910.224	11691
910.339	11657
910.454	11707
910.57	11592
910.685	11600
910.8	11840
910.915	11760
911.03	11592
911.145	11467
911.259	11486
911.374	11463
911.489	11360
911.604	11360
911.718	11212
911.833	11277
911.947	11151
912.062	10999
912.176	11258
912.291	11220
912.405	11239
912.519	11391
912.633	11478
912.748	11303
912.862	11250
912.976	11098
913.09	10984
913.204	11006
913.318	10991
913.431	11208
913.545	11231
913.659	11083
913.772	11117
913.886	11025
914	10938
914.113	11041
914.226	11064
914.34	10968
914.453	10934
914.566	11155
914.68	10965
914.793	10930
914.906	10763
915.019	10694
915.132	10622
915.245	10694
915.358	10687
915.47	10714
915.583	10679
915.696	10759
915.809	10869
915.921	10873
916.034	10683
916.146	10656
916.259	10679
916.371	10660
916.483	10740
916.595	10683
916.708	10660
916.82	10626
916.932	10615
917.044	10588
917.156	10573
917.268	10546
917.38	10512
917.491	10558
917.603	10527
917.715	10577
917.826	10675
917.938	10542
918.049	10451
918.161	10508
918.272	10721
918.384	10721
918.495	10573
918.606	10455
918.717	10356
918.828	10478
918.939	10424
919.05	10227
919.161	10398
919.272	10185
919.383	10303
919.494	10508
919.604	10702
919.715	10470
919.826	10398
919.936	10481
920.047	10508
920.157	10573
920.267	10641
920.378	10417
920.488	10481
920.598	10645
920.708	10809
920.818	10626
920.928	10512
921.038	10774
921.148	10675
921.258	10466
921.368	10303
921.477	10249
921.587	10284
921.697	10242
921.806	10238
921.916	10128
922.025	9983
922.134	9930
922.244	9865
922.353	10032
922.462	9846
922.571	9819
922.68	9644
922.789	9656
922.898	9751
923.007	9637
923.116	9694
923.224	9724
923.333	9599
923.442	9572
923.55	9568
923.659	9519
923.767	9614
923.876	9500
923.984	9595
924.092	9386
924.201	9545
924.309	9500
924.417	9477
924.525	9477
924.633	9450
924.741	10371
924.849	9367
924.956	9435
925.064	9272
925.172	9378
925.279	9230
925.387	9344
925.494	9359
925.602	9431
925.709	9363
925.816	9253
925.924	9306
926.031	9378
926.138	9313
926.245	9355
926.352	9233
926.459	9367
926.566	9370
926.673	9237
926.779	9165
926.886	9123
926.993	9062
927.099	9093
927.206	8986
927.312	8910
927.419	9058
927.525	9001
927.631	9020
927.737	8944
927.843	8845
927.95	8823
928.056	8906
928.162	8914
928.267	8986
928.373	9511
928.479	8998
928.585	8712
928.69	8956
928.796	8937
928.901	8872
929.007	8678
929.112	8853
929.218	8785
929.323	8750
929.428	8800
929.533	8880
929.638	8610
929.743	8674
929.848	8750
929.953	8746
930.058	8667
930.163	8476
930.267	8530
930.372	8644
930.477	8484
930.581	8651
930.685	8526
930.79	8381
930.894	8511
930.998	8385
931.103	8514
931.207	8183
931.311	8172
931.415	8157
931.519	7959
931.623	7913
