Data from test_V78500241_1904.txt Node
Date: Fri Mar 25 14:46:58 CST 2022
User: usil
Spectrometer: V785-0024
Trigger mode: 0
Integration Time (sec): 4.000000E-1
Scans to average: 1
Nonlinearity correction enabled: false
Boxcar width: 0
Storing dark spectrum: false
XAxis mode: Wavelengths
Number of Pixels in Spectrum: 1024
>>>>>Begin Spectral Data<<<<<
801.071	22063
801.214	21941
801.356	21755
801.499	21637
801.641	21511
801.783	21367
801.926	21587
802.068	21420
802.211	21298
802.353	21256
802.496	21024
802.638	20960
802.78	20956
802.923	20895
803.065	20785
803.208	20651
803.35	20902
803.492	21032
803.635	20948
803.777	20800
803.919	20910
804.061	21226
804.204	20864
804.346	20750
804.488	20705
804.63	20743
804.773	20636
804.915	20834
805.057	20765
805.199	20697
805.341	20739
805.483	20796
805.626	20769
805.768	20629
805.91	20788
806.052	20750
806.194	20697
806.336	20944
806.478	20644
806.62	20629
806.762	20800
806.904	20979
807.046	21142
807.188	21017
807.33	20998
807.472	21218
807.614	20975
807.756	20849
807.898	20796
808.04	20785
808.182	20895
808.324	20819
808.465	20952
808.607	21093
808.749	21150
808.891	21199
809.033	21256
809.174	21192
809.316	20998
809.458	21108
809.6	21161
809.741	21055
809.883	21192
810.025	21165
810.166	21192
810.308	21199
810.45	21161
810.591	21176
810.733	21070
810.875	20842
811.016	20804
811.158	20838
811.299	20918
811.441	20948
811.582	20887
811.724	20887
811.865	20982
812.007	20834
812.148	20921
812.29	20952
812.431	20960
812.573	21184
812.714	21344
812.855	21279
812.997	21370
813.138	21610
813.279	21450
813.421	21420
813.562	21310
813.703	21039
813.845	21055
813.986	20792
814.127	20598
814.268	20454
814.41	20473
814.551	20324
814.692	20488
814.833	20400
814.974	20248
815.115	20362
815.256	20320
815.397	20400
815.539	20248
815.68	20252
815.821	20130
815.962	20187
816.103	20008
816.244	20016
816.385	19811
816.526	19871
816.666	19803
816.807	19460
816.948	19700
817.089	19655
817.23	19605
817.371	19529
817.512	19559
817.653	19441
817.793	19453
817.934	19563
818.075	19502
818.216	19571
818.356	19514
818.497	19392
818.638	19225
818.778	19221
818.919	19236
819.06	19335
819.2	19327
819.341	19426
819.481	19369
819.622	19544
819.762	19670
819.903	19616
820.043	19685
820.184	19613
820.324	19563
820.465	19662
820.605	19563
820.746	19491
820.886	19430
821.026	19514
821.167	19597
821.307	19563
821.447	19476
821.588	19339
821.728	19255
821.868	19122
822.008	18939
822.149	18905
822.289	18814
822.429	18684
822.569	18597
822.709	18582
822.849	18372
822.99	18525
823.13	18479
823.27	18372
823.41	18258
823.55	18239
823.69	18277
823.83	18216
823.97	18114
824.11	18114
824.25	17954
824.389	18095
824.529	18167
824.669	17923
824.809	18136
824.949	18125
825.089	18140
825.228	18068
825.368	17901
825.508	17847
825.648	17828
825.787	17901
825.927	17885
826.067	17817
826.206	17729
826.346	17843
826.485	17783
826.625	17729
826.765	17847
826.904	17760
827.044	17596
827.183	17524
827.323	17535
827.462	17520
827.601	17474
827.741	17535
827.88	17543
828.02	17444
828.159	17433
828.298	17455
828.437	17539
828.577	17520
828.716	17581
828.855	17436
828.994	17303
829.134	17250
829.273	17235
829.412	17159
829.551	17181
829.69	17223
829.829	17216
829.968	17345
830.107	17318
830.246	17254
830.385	17178
830.524	17132
830.663	17025
830.802	17060
830.941	16885
831.08	16885
831.219	16965
831.357	16934
831.496	17090
831.635	16885
831.774	16763
831.913	16736
832.051	16702
832.19	16698
832.329	16801
832.467	16523
832.606	16531
832.744	16538
832.883	16455
833.022	16561
833.16	16569
833.299	16542
833.437	16519
833.576	16672
833.714	16698
833.852	16569
833.991	16603
834.129	16672
834.267	16767
834.406	16698
834.544	16664
834.682	16660
834.821	16546
834.959	16759
835.097	16588
835.235	16782
835.373	16752
835.511	16717
835.65	16645
835.788	16478
835.926	16344
836.064	16329
836.202	16344
836.34	16626
836.478	16683
836.615	16462
836.753	16497
836.891	16584
837.029	16603
837.167	16512
837.305	16497
837.443	16379
837.58	16405
837.718	16470
837.856	16440
837.993	16402
838.131	16462
838.269	16356
838.406	16299
838.544	16303
838.681	16131
838.819	16055
838.956	16002
839.094	15907
839.231	15987
839.369	16055
839.506	16325
839.643	16181
839.781	15975
839.918	15975
840.055	15930
840.193	16002
840.33	15918
840.467	15964
840.604	15953
840.742	16207
840.879	15842
841.016	15876
841.153	15785
841.29	16131
841.427	16074
841.564	15949
841.701	15907
841.838	15964
841.975	15846
842.112	15835
842.249	15793
842.385	15755
842.522	15937
842.659	15812
842.796	15633
842.933	15667
843.069	15667
843.206	15603
843.343	15873
843.479	15660
843.616	15808
843.752	15587
843.889	15519
844.025	15705
844.162	15538
844.298	15606
844.435	15458
844.571	15485
844.708	15637
844.844	15644
844.98	15774
845.117	15648
845.253	15530
845.389	15416
845.525	15545
845.661	15355
845.798	15298
845.934	15382
846.07	15260
846.206	15355
846.342	15412
846.478	15283
846.614	15188
846.75	15047
846.886	15081
847.022	15116
847.158	15127
847.294	15138
847.429	15062
847.565	15154
847.701	15321
847.837	14826
847.972	14800
848.108	14986
848.244	14979
848.379	14838
848.515	14674
848.65	14785
848.786	14678
848.921	14655
849.057	14838
849.192	14720
849.328	14705
849.463	14769
849.598	14655
849.734	14602
849.869	14537
850.004	14476
850.14	14492
850.275	14469
850.41	14374
850.545	14465
850.68	14408
850.815	14533
850.95	14385
851.085	14705
851.22	14617
851.355	14473
851.49	14465
851.625	14419
851.76	14457
851.895	14495
852.03	14358
852.165	14480
852.299	14450
852.434	14492
852.569	14499
852.703	14492
852.838	14522
852.973	14632
853.107	14610
853.242	14549
853.376	14305
853.511	14191
853.645	14434
853.78	14507
853.914	14362
854.048	14408
854.183	14400
854.317	14351
854.451	14552
854.585	14434
854.72	14317
854.854	14400
854.988	14278
855.122	14286
855.256	14324
855.39	14313
855.524	14545
855.658	14415
855.792	14286
855.926	14370
856.06	14396
856.194	14404
856.327	14400
856.461	14343
856.595	14301
856.729	14320
856.862	14484
856.996	14454
857.13	14408
857.263	14484
857.397	14469
857.53	14514
857.664	14514
857.797	14495
857.931	14571
858.064	14347
858.197	14518
858.331	14454
858.464	14355
858.597	14347
858.731	14271
858.864	14347
858.997	14317
859.13	14320
859.263	14328
859.396	14400
859.529	14366
859.662	14343
859.795	14317
859.928	14461
860.061	14560
860.194	14564
860.327	14328
860.46	14408
860.592	14412
860.725	14503
860.858	14419
860.99	14469
861.123	14290
861.256	14305
861.388	14362
861.521	15062
861.653	14328
861.786	14176
861.918	14172
862.05	14278
862.183	14381
862.315	14415
862.447	14366
862.58	14320
862.712	14202
862.844	14111
862.976	14282
863.108	14187
863.24	14396
863.372	14103
863.504	14115
863.636	14145
863.768	14259
863.9	14202
864.032	14123
864.164	14130
864.296	14168
864.428	14244
864.559	14138
864.691	14240
864.823	14313
864.954	14248
865.086	14275
865.217	14176
865.349	14012
865.48	14115
865.612	14301
865.743	14233
865.875	14103
866.006	14138
866.137	14046
866.269	14111
866.4	14145
866.531	14077
866.662	14065
866.793	14062
866.924	14081
867.055	14073
867.186	14123
867.317	14081
867.448	14065
867.579	14012
867.71	14039
867.841	14027
867.972	14084
868.103	14142
868.233	14168
868.364	14164
868.495	14271
868.625	14286
868.756	14419
868.886	14294
869.017	14313
869.147	14446
869.278	14473
869.408	14450
869.539	14377
869.669	14598
869.799	14473
869.929	14549
870.06	14415
870.19	14701
870.32	14701
870.45	14674
870.58	14845
870.71	14849
870.84	14842
870.97	14800
871.1	14743
871.23	14956
871.36	14902
871.489	14815
871.619	14845
871.749	14990
871.879	14956
872.008	15119
872.138	14918
872.267	14899
872.397	14811
872.526	14788
872.656	14830
872.785	14762
872.915	14986
873.044	15051
873.173	15047
873.303	14990
873.432	14979
873.561	15131
873.69	15043
873.819	14982
873.948	15142
874.077	15074
874.206	14990
874.335	15009
874.464	15207
874.593	15252
874.722	15222
874.851	15477
874.979	15382
875.108	15370
875.237	15428
875.365	15298
875.494	15336
875.623	15431
875.751	15268
875.88	15416
876.008	15515
876.136	15557
876.265	15679
876.393	15880
876.521	15892
876.65	15876
876.778	15819
876.906	15698
877.034	15698
877.162	15743
877.29	15701
877.418	15778
877.546	15656
877.674	15785
877.802	15717
877.93	15812
878.058	15766
878.185	15701
878.313	15728
878.441	15755
878.568	15599
878.696	15637
878.824	15698
878.951	15865
879.079	15956
879.206	16071
879.333	15888
879.461	15823
879.588	15827
879.715	15975
879.842	15964
879.97	15865
880.097	15595
880.224	15618
880.351	15614
880.478	15618
880.605	15629
880.732	15629
880.859	15755
880.986	15644
881.112	15625
881.239	15492
881.366	15378
881.493	15336
881.619	15214
881.746	15287
881.872	15272
881.999	15230
882.125	15199
882.252	15329
882.378	15279
882.505	15359
882.631	15161
882.757	15131
882.883	15127
883.01	14998
883.136	15051
883.262	14933
883.388	14952
883.514	15161
883.64	15233
883.766	15116
883.892	14906
884.018	14941
884.143	15112
884.269	15260
884.395	14826
884.52	14750
884.646	14796
884.772	14670
884.897	14579
885.023	14758
885.148	14975
885.274	14952
885.399	14899
885.524	14807
885.65	14826
885.775	14724
885.9	14804
886.025	14956
886.15	14868
886.275	14720
886.4	14659
886.525	14739
886.65	14731
886.775	14788
886.9	14804
887.025	15020
887.149	14708
887.274	14621
887.399	14632
887.523	14602
887.648	14503
887.773	14514
887.897	14632
888.021	14587
888.146	14606
888.27	14773
888.395	14781
888.519	14613
888.643	14667
888.767	14769
888.891	14530
889.015	14454
889.139	14499
889.263	14457
889.387	14590
889.511	14655
889.635	14701
889.759	14492
889.883	14400
890.006	14583
890.13	14587
890.254	14507
890.377	14385
890.501	14298
890.624	14244
890.748	14221
890.871	14267
890.995	14103
891.118	14123
891.241	14161
891.364	14157
891.488	14229
891.611	14233
891.734	14225
891.857	14218
891.98	14248
892.103	14199
892.226	14225
892.349	14065
892.471	14024
892.594	14130
892.717	14149
892.839	14172
892.962	14138
893.085	14218
893.207	14267
893.33	14039
893.452	14092
893.575	14221
893.697	14199
893.819	14358
893.941	14324
894.064	14328
894.186	14138
894.308	14088
894.43	14290
894.552	14362
894.674	14332
894.796	14100
894.918	14206
895.04	14195
895.161	14256
895.283	14282
895.405	14149
895.526	14267
895.648	14275
895.769	14164
895.891	14385
896.012	14298
896.134	14336
896.255	14256
896.376	14339
896.498	14313
896.619	14454
896.74	14480
896.861	14419
896.982	14705
897.103	14853
897.224	14606
897.345	14587
897.466	14568
897.587	14602
897.708	14610
897.828	14663
897.949	14644
898.07	14457
898.19	14640
898.311	14720
898.431	14636
898.552	14651
898.672	14796
898.792	14788
898.913	14716
899.033	14640
899.153	14511
899.273	14381
899.393	14492
899.513	14610
899.633	14549
899.753	14621
899.873	14556
899.993	14640
900.113	14518
900.232	14564
900.352	14450
900.472	14427
900.591	14434
900.711	14434
900.83	14419
900.95	14438
901.069	14473
901.189	14298
901.308	14111
901.427	14161
901.546	14111
901.665	14054
901.784	14035
901.904	13925
902.023	13879
902.141	13700
902.26	13616
902.379	13685
902.498	13632
902.617	13540
902.735	13734
902.854	13719
902.973	13582
903.091	13441
903.21	13415
903.328	13384
903.446	13270
903.565	13107
903.683	13190
903.801	13088
903.919	13285
904.038	13259
904.156	13012
904.274	13103
904.392	13103
904.51	13008
904.627	13065
904.745	13107
904.863	13084
904.981	12776
905.098	12726
905.216	12703
905.334	12738
905.451	12631
905.569	12623
905.686	12795
905.803	12760
905.921	12517
906.038	12635
906.155	12597
906.272	12403
906.389	12426
906.506	12311
906.623	12319
906.74	12304
906.857	12152
906.974	12292
907.091	12426
907.208	12391
907.324	12319
907.441	12262
907.557	12133
907.674	12091
907.79	12007
907.907	12068
908.023	12136
908.139	12019
908.256	11999
908.372	11882
908.488	11958
908.604	11847
908.72	11836
908.836	11733
908.952	11779
909.068	11843
909.184	11920
909.3	11764
909.415	11771
909.531	11840
909.647	11619
909.762	11520
909.878	11532
909.993	11608
910.108	11573
910.224	11554
910.339	11668
910.454	11554
910.57	11471
910.685	11471
910.8	11642
910.915	11493
911.03	11444
911.145	11284
911.259	11246
911.374	11296
911.489	11166
911.604	11140
911.718	11033
911.833	11052
911.947	11094
912.062	10847
912.176	11025
912.291	11079
912.405	11025
912.519	11181
912.633	11216
912.748	11113
912.862	11113
912.976	10961
913.09	10850
913.204	10881
913.318	10858
913.431	11010
913.545	10980
913.659	11086
913.772	10877
913.886	10744
914	10816
914.113	10866
914.226	10911
914.34	10896
914.453	10721
914.566	10828
914.68	10771
914.793	10622
914.906	10577
915.019	10565
915.132	10455
915.245	10535
915.358	10592
915.47	10451
915.583	10573
915.696	10615
915.809	10634
915.921	10744
916.034	10580
916.146	10550
916.259	10500
916.371	10596
916.483	10474
916.595	10538
916.708	10538
916.82	10424
916.932	10462
917.044	10478
917.156	10413
917.268	10352
917.38	10466
917.491	10375
917.603	10417
917.715	10451
917.826	10504
917.938	10322
918.049	10344
918.161	10356
918.272	10512
918.384	10481
918.495	10405
918.606	10238
918.717	10204
918.828	10306
918.939	10284
919.05	10166
919.161	10196
919.272	10044
919.383	10147
919.494	10303
919.604	10497
919.715	10329
919.826	10238
919.936	10253
920.047	10394
920.157	10341
920.267	10512
920.378	10356
920.488	10219
920.598	10493
920.708	10622
920.818	10440
920.928	10523
921.038	10664
921.148	10577
921.258	10284
921.368	10150
921.477	10196
921.587	10150
921.697	10078
921.806	10139
921.916	10044
922.025	9918
922.134	9857
922.244	9728
922.353	9869
922.462	9717
922.571	9717
922.68	9568
922.789	9439
922.898	9572
923.007	9553
923.116	9641
923.224	9504
923.333	9622
923.442	9462
923.55	9336
923.659	9420
923.767	9519
923.876	9340
923.984	9466
924.092	9416
924.201	9389
924.309	9439
924.417	9389
924.525	9340
924.633	9336
924.741	10344
924.849	9138
924.956	9268
925.064	9207
925.172	9062
925.279	9173
925.387	9237
925.494	9146
925.602	9313
925.709	9253
925.816	9169
925.924	9203
926.031	9268
926.138	9241
926.245	9260
926.352	9135
926.459	9233
926.566	9275
926.673	9119
926.779	9077
926.886	9074
926.993	8883
927.099	8910
927.206	8857
927.312	8876
927.419	8948
927.525	8963
927.631	9020
927.737	8830
927.843	8754
927.95	8670
928.056	8758
928.162	8739
928.267	8887
928.373	9466
928.479	8864
928.585	8667
928.69	8785
928.796	8769
928.901	8750
929.007	8560
929.112	8712
929.218	8693
929.323	8602
929.428	8625
929.533	8724
929.638	8556
929.743	8579
929.848	8625
929.953	8617
930.058	8537
930.163	8404
930.267	8465
930.372	8598
930.477	8294
930.581	8533
930.685	8507
930.79	8317
930.894	8301
930.998	8309
931.103	8450
931.207	8145
931.311	8050
931.415	8035
931.519	7871
931.623	7845
