Data from test_V78500241_1602.txt Node
Date: Fri Mar 25 14:44:52 CST 2022
User: usil
Spectrometer: V785-0024
Trigger mode: 0
Integration Time (sec): 4.000000E-1
Scans to average: 1
Nonlinearity correction enabled: false
Boxcar width: 0
Storing dark spectrum: false
XAxis mode: Wavelengths
Number of Pixels in Spectrum: 1024
>>>>>Begin Spectral Data<<<<<
801.071	22577
801.214	22325
801.356	21979
801.499	21903
801.641	21766
801.783	21701
801.926	21644
802.068	21785
802.211	21766
802.353	21580
802.496	21412
802.638	21192
802.78	21195
802.923	21195
803.065	21009
803.208	21070
803.35	20986
803.492	21207
803.635	21176
803.777	21112
803.919	21138
804.061	21428
804.204	21062
804.346	20990
804.488	21017
804.63	21104
804.773	20929
804.915	21047
805.057	21214
805.199	21020
805.341	21085
805.483	21184
805.626	21081
805.768	21047
805.91	20986
806.052	21108
806.194	20952
806.336	21135
806.478	21100
806.62	21024
806.762	21100
806.904	21169
807.046	21424
807.188	21329
807.33	21428
807.472	21428
807.614	21260
807.756	21260
807.898	21260
808.04	21112
808.182	21096
808.324	21199
808.465	21256
808.607	21367
808.749	21450
808.891	21545
809.033	21698
809.174	21709
809.316	21515
809.458	21462
809.6	21287
809.741	21386
809.883	21507
810.025	21603
810.166	21553
810.308	21450
810.45	21614
810.591	21435
810.733	21203
810.875	21093
811.016	21085
811.158	21150
811.299	21211
811.441	21310
811.582	21279
811.724	21260
811.865	21313
812.007	21237
812.148	21272
812.29	21298
812.431	21348
812.573	21545
812.714	21701
812.855	21709
812.997	21743
813.138	22017
813.279	21884
813.421	21606
813.562	21637
813.703	21466
813.845	21355
813.986	21123
814.127	20872
814.268	20868
814.41	20800
814.551	20693
814.692	20769
814.833	20636
814.974	20769
815.115	20758
815.256	20511
815.397	20621
815.539	20651
815.68	20514
815.821	20446
815.962	20412
816.103	20476
816.244	20214
816.385	20199
816.526	20328
816.666	20138
816.807	19822
816.948	19989
817.089	20005
817.23	19989
817.371	19803
817.512	19955
817.653	19826
817.793	19814
817.934	19719
818.075	19833
818.216	19894
818.356	19769
818.497	19719
818.638	19613
818.778	19609
818.919	19628
819.06	19575
819.2	19632
819.341	19750
819.481	19693
819.622	19849
819.762	20077
819.903	20020
820.043	19928
820.184	19875
820.324	19887
820.465	19944
820.605	19879
820.746	19925
820.886	19632
821.026	19837
821.167	19814
821.307	19913
821.447	19776
821.588	19655
821.728	19476
821.868	19396
822.008	19263
822.149	19168
822.289	19187
822.429	19015
822.569	18817
822.709	19008
822.849	18730
822.99	18684
823.13	18768
823.27	18745
823.41	18551
823.55	18544
823.69	18650
823.83	18521
823.97	18448
824.11	18403
824.25	18334
824.389	18319
824.529	18464
824.669	18395
824.809	18350
824.949	18422
825.089	18365
825.228	18330
825.368	17999
825.508	18205
825.648	18022
825.787	18148
825.927	18239
826.067	17954
826.206	18026
826.346	18205
826.485	18038
826.625	17992
826.765	18213
826.904	18152
827.044	17946
827.183	17786
827.323	17760
827.462	17847
827.601	17821
827.741	17790
827.88	17809
828.02	17646
828.159	17733
828.298	17798
828.437	17809
828.577	17722
828.716	17897
828.855	17790
828.994	17535
829.134	17493
829.273	17623
829.412	17634
829.551	17383
829.69	17478
829.829	17505
829.968	17604
830.107	17649
830.246	17512
830.385	17524
830.524	17486
830.663	17326
830.802	17261
830.941	17105
831.08	17162
831.219	17231
831.357	17136
831.496	17315
831.635	17102
831.774	17079
831.913	17090
832.051	16953
832.19	16911
832.329	16957
832.467	16816
832.606	16805
832.744	16820
832.883	16752
833.022	16729
833.16	16767
833.299	16790
833.437	16934
833.576	16854
833.714	16843
833.852	16896
833.991	16869
834.129	16923
834.267	16965
834.406	16847
834.544	16908
834.682	16809
834.821	17037
834.959	17071
835.097	16809
835.235	16946
835.373	16862
835.511	16858
835.65	16801
835.788	16592
835.926	16615
836.064	16455
836.202	16542
836.34	16752
836.478	16854
836.615	16759
836.753	16702
836.891	16809
837.029	16816
837.167	16721
837.305	16755
837.443	16653
837.58	16596
837.718	16812
837.856	16573
837.993	16656
838.131	16554
838.269	16493
838.406	16527
838.544	16493
838.681	16386
838.819	16306
838.956	16154
839.094	16204
839.231	16204
839.369	16367
839.506	16561
839.643	16322
839.781	16246
839.918	16086
840.055	16147
840.193	16265
840.33	16150
840.467	16200
840.604	16257
840.742	16379
840.879	16048
841.016	16147
841.153	15994
841.29	16371
841.427	16143
841.564	16219
841.701	16147
841.838	16150
841.975	16048
842.112	16086
842.249	15994
842.385	15934
842.522	16051
842.659	16036
842.796	15892
842.933	15968
843.069	15899
843.206	15895
843.343	15998
843.479	15968
843.616	15884
843.752	15759
843.889	15819
844.025	15941
844.162	15637
844.298	15857
844.435	15751
844.571	15690
844.708	15728
844.844	15842
844.98	15888
845.117	15880
845.253	15736
845.389	15618
845.525	15701
845.661	15671
845.798	15561
845.934	15652
846.07	15698
846.206	15656
846.342	15747
846.478	15622
846.614	15428
846.75	15332
846.886	15306
847.022	15450
847.158	15329
847.294	15302
847.429	15340
847.565	15317
847.701	15515
847.837	14952
847.972	14876
848.108	15226
848.244	15123
848.379	14906
848.515	14834
848.65	14853
848.786	14845
848.921	14956
849.057	15058
849.192	15043
849.328	14921
849.463	14845
849.598	14872
849.734	14792
849.869	14796
850.004	14606
850.14	14750
850.275	14644
850.41	14629
850.545	14663
850.68	14655
850.815	14727
850.95	14606
851.085	14785
851.22	14804
851.355	14644
851.49	14629
851.625	14663
851.76	14571
851.895	14488
852.03	14511
852.165	14568
852.299	14651
852.434	14708
852.569	14735
852.703	14655
852.838	14724
852.973	14815
853.107	14823
853.242	14667
853.376	14526
853.511	14408
853.645	14507
853.78	14648
853.914	14465
854.048	14537
854.183	14446
854.317	14545
854.451	14743
854.585	14492
854.72	14461
854.854	14564
854.988	14427
855.122	14461
855.256	14400
855.39	14552
855.524	14537
855.658	14469
855.792	14594
855.926	14590
856.06	14533
856.194	14552
856.327	14492
856.461	14408
856.595	14610
856.729	14469
856.862	14693
856.996	14590
857.13	14587
857.263	14644
857.397	14598
857.53	14545
857.664	14655
857.797	14640
857.931	14549
858.064	14625
858.197	14526
858.331	14511
858.464	14476
858.597	14442
858.731	14526
858.864	14507
858.997	14465
859.13	14518
859.263	14663
859.396	14629
859.529	14545
859.662	14495
859.795	14522
859.928	14522
860.061	14587
860.194	14625
860.327	14484
860.46	14454
860.592	14674
860.725	14575
860.858	14625
860.99	14590
861.123	14377
861.256	14484
861.388	14598
861.521	15310
861.653	14358
861.786	14290
861.918	14362
862.05	14552
862.183	14549
862.315	14419
862.447	14488
862.58	14480
862.712	14290
862.844	14244
862.976	14370
863.108	14358
863.24	14705
863.372	14214
863.504	14256
863.636	14263
863.768	14313
863.9	14168
864.032	14218
864.164	14278
864.296	14412
864.428	14374
864.559	14362
864.691	14343
864.823	14351
864.954	14355
865.086	14343
865.217	14309
865.349	14214
865.48	14290
865.612	14271
865.743	14355
865.875	14271
866.006	14187
866.137	14263
866.269	14275
866.4	14218
866.531	14271
866.662	14183
866.793	14332
866.924	14164
867.055	14233
867.186	14267
867.317	14149
867.448	14248
867.579	14149
867.71	14218
867.841	14119
867.972	14324
868.103	14229
868.233	14206
868.364	14256
868.495	14240
868.625	14541
868.756	14507
868.886	14412
869.017	14530
869.147	14621
869.278	14644
869.408	14522
869.539	14568
869.669	14613
869.799	14575
869.929	14644
870.06	14583
870.19	14830
870.32	14815
870.45	14887
870.58	14933
870.71	15097
870.84	15055
870.97	14918
871.1	14914
871.23	15123
871.36	15051
871.489	15036
871.619	15017
871.749	15077
871.879	15184
872.008	15230
872.138	15203
872.267	15077
872.397	15017
872.526	14944
872.656	14819
872.785	14956
872.915	15131
873.044	15230
873.173	15047
873.303	15268
873.432	15188
873.561	15184
873.69	15184
873.819	15222
873.948	15135
874.077	15116
874.206	15100
874.335	15146
874.464	15283
874.593	15424
874.722	15454
874.851	15393
874.979	15473
875.108	15492
875.237	15458
875.365	15359
875.494	15507
875.623	15485
875.751	15435
875.88	15435
876.008	15637
876.136	15694
876.265	15812
876.393	15991
876.521	15953
876.65	15930
876.778	15819
876.906	15762
877.034	15732
877.162	15873
877.29	15732
877.418	15953
877.546	15949
877.674	15972
877.802	15956
877.93	15793
878.058	15880
878.185	15762
878.313	15880
878.441	15884
878.568	15751
878.696	15861
878.824	15930
878.951	15911
879.079	16040
879.206	16230
879.333	16128
879.461	15907
879.588	16109
879.715	16029
879.842	16238
879.97	16013
880.097	15755
880.224	15694
880.351	15800
880.478	15762
880.605	15724
880.732	15671
880.859	15865
880.986	15732
881.112	15778
881.239	15549
881.366	15485
881.493	15420
881.619	15416
881.746	15317
881.872	15340
881.999	15287
882.125	15332
882.252	15538
882.378	15428
882.505	15622
882.631	15264
882.757	15157
882.883	15233
883.01	15199
883.136	15161
883.262	15093
883.388	15066
883.514	15131
883.64	15306
883.766	15131
883.892	14971
884.018	15005
884.143	15226
884.269	15249
884.395	14876
884.52	14921
884.646	14883
884.772	14887
884.897	14769
885.023	14807
885.148	14998
885.274	15070
885.399	15097
885.524	14914
885.65	14952
885.775	14899
885.9	14895
886.025	15032
886.15	15020
886.275	14815
886.4	14746
886.525	14842
886.65	14796
886.775	14750
886.9	15070
887.025	15062
887.149	14830
887.274	14792
887.399	14773
887.523	14693
887.648	14689
887.773	14689
887.897	14823
888.021	14826
888.146	14640
888.27	14853
888.395	14804
888.519	14746
888.643	14762
888.767	14754
888.891	14606
889.015	14571
889.139	14617
889.263	14518
889.387	14727
889.511	14796
889.635	14746
889.759	14606
889.883	14511
890.006	14598
890.13	14640
890.254	14511
890.377	14575
890.501	14457
890.624	14355
890.748	14434
890.871	14336
890.995	14332
891.118	14233
891.241	14225
891.364	14294
891.488	14385
891.611	14252
891.734	14278
891.857	14290
891.98	14305
892.103	14370
892.226	14332
892.349	14271
892.471	14107
892.594	14183
892.717	14332
892.839	14202
892.962	14221
893.085	14393
893.207	14267
893.33	14134
893.452	14225
893.575	14324
893.697	14332
893.819	14396
893.941	14389
894.064	14446
894.186	14221
894.308	14290
894.43	14488
894.552	14423
894.674	14358
894.796	14233
894.918	14305
895.04	14313
895.161	14454
895.283	14309
895.405	14298
895.526	14320
895.648	14320
895.769	14362
895.891	14442
896.012	14473
896.134	14518
896.255	14404
896.376	14415
896.498	14434
896.619	14461
896.74	14450
896.861	14518
896.982	14754
897.103	14906
897.224	14750
897.345	14693
897.466	14648
897.587	14693
897.708	14994
897.828	14739
897.949	14693
898.07	14575
898.19	14739
898.311	14887
898.431	14788
898.552	14823
898.672	14906
898.792	14956
898.913	14929
899.033	14807
899.153	14674
899.273	14537
899.393	14632
899.513	14625
899.633	14655
899.753	14724
899.873	14575
899.993	14632
900.113	14701
900.232	14705
900.352	14636
900.472	14511
900.591	14503
900.711	14617
900.83	14454
900.95	14712
901.069	14613
901.189	14484
901.308	14256
901.427	14134
901.546	14138
901.665	14275
901.784	14240
901.904	14119
902.023	13951
902.141	13868
902.26	13769
902.379	13818
902.498	13704
902.617	13784
902.735	13837
902.854	13769
902.973	13632
903.091	13529
903.21	13499
903.328	13510
903.446	13411
903.565	13297
903.683	13324
903.801	13308
903.919	13320
904.038	13297
904.156	13175
904.274	13175
904.392	13160
904.51	13213
904.627	13114
904.745	13206
904.863	13244
904.981	12932
905.098	12764
905.216	12791
905.334	12916
905.451	12783
905.569	12829
905.686	12821
905.803	12852
905.921	12650
906.038	12734
906.155	12593
906.272	12570
906.389	12616
906.506	12410
906.623	12471
906.74	12422
906.857	12327
906.974	12281
907.091	12445
907.208	12532
907.324	12372
907.441	12216
907.557	12117
907.674	12159
907.79	12133
907.907	12121
908.023	12190
908.139	12110
908.256	12136
908.372	12072
908.488	12064
908.604	11980
908.72	11824
908.836	11859
908.952	11866
909.068	11851
909.184	12026
909.3	11958
909.415	11980
909.531	11901
909.647	11630
909.762	11665
909.878	11627
909.993	11661
910.108	11577
910.224	11615
910.339	11699
910.454	11585
910.57	11608
910.685	11452
910.8	11718
910.915	11611
911.03	11486
911.145	11356
911.259	11273
911.374	11387
911.489	11341
911.604	11269
911.718	11155
911.833	11140
911.947	11041
912.062	10942
912.176	11166
912.291	11223
912.405	11117
912.519	11261
912.633	11349
912.748	11105
912.862	11136
912.976	10965
913.09	10862
913.204	10968
913.318	10900
913.431	11056
913.545	11140
913.659	11121
913.772	10972
913.886	10858
914	10946
914.113	11003
914.226	11022
914.34	11006
914.453	10805
914.566	10965
914.68	10797
914.793	10866
914.906	10634
915.019	10668
915.132	10497
915.245	10615
915.358	10717
915.47	10626
915.583	10672
915.696	10656
915.809	10748
915.921	10839
916.034	10603
916.146	10535
916.259	10565
916.371	10653
916.483	10683
916.595	10546
916.708	10550
916.82	10607
916.932	10580
917.044	10382
917.156	10561
917.268	10489
917.38	10405
917.491	10386
917.603	10504
917.715	10569
917.826	10516
917.938	10432
918.049	10291
918.161	10489
918.272	10611
918.384	10523
918.495	10489
918.606	10382
918.717	10227
918.828	10352
918.939	10390
919.05	10223
919.161	10310
919.272	10139
919.383	10173
919.494	10394
919.604	10596
919.715	10291
919.826	10272
919.936	10314
920.047	10375
920.157	10421
920.267	10508
920.378	10481
920.488	10398
920.598	10531
920.708	10637
920.818	10527
920.928	10516
921.038	10733
921.148	10687
921.258	10356
921.368	10352
921.477	10249
921.587	10074
921.697	10021
921.806	10211
921.916	10086
922.025	9926
922.134	9865
922.244	9842
922.353	9930
922.462	9762
922.571	9682
922.68	9572
922.789	9538
922.898	9652
923.007	9507
923.116	9629
923.224	9500
923.333	9553
923.442	9492
923.55	9397
923.659	9450
923.767	9568
923.876	9466
923.984	9500
924.092	9405
924.201	9431
924.309	9450
924.417	9488
924.525	9340
924.633	9412
924.741	10173
924.849	9275
924.956	9374
925.064	9332
925.172	9116
925.279	9154
925.387	9260
925.494	9260
925.602	9374
925.709	9291
925.816	9161
925.924	9188
926.031	9348
926.138	9264
926.245	9237
926.352	9142
926.459	9298
926.566	9386
926.673	9173
926.779	9112
926.886	9051
926.993	8906
927.099	8910
927.206	8990
927.312	8925
927.419	8975
927.525	8963
927.631	9013
927.737	8826
927.843	8842
927.95	8705
928.056	8804
928.162	8876
928.267	8925
928.373	9355
928.479	8868
928.585	8724
928.69	8804
928.796	8830
928.901	8720
929.007	8705
929.112	8823
929.218	8678
929.323	8678
929.428	8648
929.533	8811
929.638	8625
929.743	8629
929.848	8701
929.953	8644
930.058	8545
930.163	8438
930.267	8488
930.372	8659
930.477	8381
930.581	8640
930.685	8495
930.79	8343
930.894	8423
930.998	8381
931.103	8488
931.207	8145
931.311	8180
931.415	8081
931.519	7871
931.623	7814
