Data from test_V78500241_2851.txt Node
Date: Fri Mar 25 14:53:33 CST 2022
User: usil
Spectrometer: V785-0024
Trigger mode: 0
Integration Time (sec): 4.000000E-1
Scans to average: 1
Nonlinearity correction enabled: false
Boxcar width: 0
Storing dark spectrum: false
XAxis mode: Wavelengths
Number of Pixels in Spectrum: 1024
>>>>>Begin Spectral Data<<<<<
801.071	22078
801.214	21888
801.356	21682
801.499	21679
801.641	21477
801.783	21389
801.926	21507
802.068	21378
802.211	21355
802.353	21313
802.496	20963
802.638	20956
802.78	20982
802.923	20880
803.065	20697
803.208	20617
803.35	20804
803.492	20849
803.635	20811
803.777	20815
803.919	20746
804.061	21028
804.204	20788
804.346	20750
804.488	20609
804.63	20701
804.773	20720
804.915	20743
805.057	20796
805.199	20598
805.341	20667
805.483	20807
805.626	20697
805.768	20697
805.91	20769
806.052	20617
806.194	20682
806.336	20739
806.478	20705
806.62	20587
806.762	20788
806.904	20876
807.046	21096
807.188	20994
807.33	20941
807.472	21055
807.614	20941
807.756	21017
807.898	20861
808.04	20788
808.182	20883
808.324	20705
808.465	20804
808.607	20963
808.749	21161
808.891	21142
809.033	21218
809.174	21104
809.316	20982
809.458	21146
809.6	21009
809.741	21074
809.883	21085
810.025	21268
810.166	21249
810.308	21157
810.45	21138
810.591	21024
810.733	20910
810.875	20868
811.016	20705
811.158	20853
811.299	20933
811.441	20891
811.582	20849
811.724	20823
811.865	20746
812.007	20731
812.148	20731
812.29	20883
812.431	21085
812.573	21123
812.714	21222
812.855	21416
812.997	21469
813.138	21462
813.279	21408
813.421	21313
813.562	21241
813.703	20994
813.845	20887
813.986	20769
814.127	20609
814.268	20438
814.41	20465
814.551	20339
814.692	20454
814.833	20240
814.974	20419
815.115	20381
815.256	20214
815.397	20221
815.539	20157
815.68	20164
815.821	20012
815.962	20145
816.103	19970
816.244	19963
816.385	19830
816.526	19750
816.666	19613
816.807	19495
816.948	19597
817.089	19658
817.23	19518
817.371	19525
817.512	19480
817.653	19438
817.793	19407
817.934	19476
818.075	19491
818.216	19419
818.356	19510
818.497	19365
818.638	19168
818.778	19069
818.919	19141
819.06	19190
819.2	19304
819.341	19346
819.481	19422
819.622	19518
819.762	19529
819.903	19586
820.043	19521
820.184	19476
820.324	19445
820.465	19537
820.605	19502
820.746	19453
820.886	19247
821.026	19483
821.167	19362
821.307	19499
821.447	19400
821.588	19236
821.728	19110
821.868	19152
822.008	18859
822.149	18810
822.289	18745
822.429	18601
822.569	18574
822.709	18483
822.849	18346
822.99	18315
823.13	18289
823.27	18346
823.41	18220
823.55	18102
823.69	18117
823.83	18102
823.97	18041
824.11	17984
824.25	17882
824.389	17980
824.529	18038
824.669	17973
824.809	18030
824.949	18038
825.089	17996
825.228	17893
825.368	17775
825.508	17703
825.648	17729
825.787	17745
825.927	17786
826.067	17676
826.206	17771
826.346	17786
826.485	17794
826.625	17786
826.765	17843
826.904	17824
827.044	17528
827.183	17444
827.323	17356
827.462	17360
827.601	17551
827.741	17490
827.88	17410
828.02	17326
828.159	17425
828.298	17391
828.437	17501
828.577	17345
828.716	17436
828.855	17421
828.994	17155
829.134	17109
829.273	17109
829.412	17029
829.551	17083
829.69	17212
829.829	17235
829.968	17075
830.107	17239
830.246	17231
830.385	17064
830.524	17003
830.663	16896
830.802	16968
830.941	16790
831.08	16733
831.219	16835
831.357	16866
831.496	17010
831.635	16812
831.774	16679
831.913	16733
832.051	16497
832.19	16618
832.329	16615
832.467	16455
832.606	16409
832.744	16413
832.883	16405
833.022	16409
833.16	16367
833.299	16538
833.437	16489
833.576	16615
833.714	16436
833.852	16603
833.991	16573
834.129	16611
834.267	16611
834.406	16538
834.544	16603
834.682	16459
834.821	16508
834.959	16725
835.097	16394
835.235	16618
835.373	16470
835.511	16523
835.65	16382
835.788	16348
835.926	16314
836.064	16253
836.202	16135
836.34	16508
836.478	16481
836.615	16367
836.753	16409
836.891	16580
837.029	16470
837.167	16508
837.305	16310
837.443	16299
837.58	16322
837.718	16432
837.856	16257
837.993	16268
838.131	16303
838.269	16287
838.406	16268
838.544	16158
838.681	16051
838.819	15945
838.956	15785
839.094	15778
839.231	15915
839.369	15994
839.506	16124
839.643	16093
839.781	15865
839.918	15819
840.055	15835
840.193	15915
840.33	15823
840.467	15869
840.604	15911
840.742	15987
840.879	15793
841.016	15762
841.153	15808
841.29	15918
841.427	15884
841.564	15918
841.701	15823
841.838	15800
841.975	15648
842.112	15800
842.249	15644
842.385	15545
842.522	15926
842.659	15572
842.796	15561
842.933	15549
843.069	15542
843.206	15523
843.343	15800
843.479	15656
843.616	15675
843.752	15355
843.889	15397
844.025	15492
844.162	15374
844.298	15443
844.435	15477
844.571	15359
844.708	15450
844.844	15564
844.98	15599
845.117	15523
845.253	15439
845.389	15268
845.525	15374
845.661	15325
845.798	15214
845.934	15222
846.07	15203
846.206	15348
846.342	15405
846.478	15252
846.614	15055
846.75	14929
846.886	14849
847.022	15066
847.158	14971
847.294	14982
847.429	15020
847.565	14994
847.701	15161
847.837	14682
847.972	14598
848.108	14754
848.244	14773
848.379	14655
848.515	14533
848.65	14526
848.786	14499
848.921	14552
849.057	14632
849.192	14610
849.328	14655
849.463	14644
849.598	14530
849.734	14450
849.869	14362
850.004	14389
850.14	14339
850.275	14271
850.41	14305
850.545	14244
850.68	14339
850.815	14381
850.95	14271
851.085	14533
851.22	14495
851.355	14305
851.49	14389
851.625	14336
851.76	14294
851.895	14248
852.03	14202
852.165	14298
852.299	14408
852.434	14385
852.569	14431
852.703	14370
852.838	14415
852.973	14514
853.107	14469
853.242	14336
853.376	14180
853.511	14107
853.645	14202
853.78	14237
853.914	14172
854.048	14164
854.183	14191
854.317	14111
854.451	14404
854.585	14157
854.72	14187
854.854	14271
854.988	14153
855.122	14259
855.256	14065
855.39	14164
855.524	14225
855.658	14240
855.792	14218
855.926	14275
856.06	14366
856.194	14381
856.327	14229
856.461	14229
856.595	14123
856.729	14206
856.862	14381
856.996	14218
857.13	14191
857.263	14313
857.397	14385
857.53	14115
857.664	14244
857.797	14362
857.931	14275
858.064	14244
858.197	14259
858.331	14199
858.464	14256
858.597	14084
858.731	14176
858.864	14157
858.997	14168
859.13	14206
859.263	14199
859.396	14271
859.529	14199
859.662	14195
859.795	14157
859.928	14176
860.061	14446
860.194	14423
860.327	14256
860.46	14115
860.592	14377
860.725	14404
860.858	14332
860.99	14199
861.123	14161
861.256	14111
861.388	14237
861.521	14762
861.653	14168
861.786	13993
861.918	14043
862.05	14130
862.183	14183
862.315	14126
862.447	14240
862.58	14172
862.712	13967
862.844	13841
862.976	14001
863.108	14065
863.24	14473
863.372	13974
863.504	14012
863.636	13894
863.768	14092
863.9	14008
864.032	13898
864.164	13967
864.296	14103
864.428	14081
864.559	14062
864.691	14020
864.823	14027
864.954	14168
865.086	14065
865.217	13982
865.349	13974
865.48	13921
865.612	14031
865.743	14073
865.875	13944
866.006	13993
866.137	14005
866.269	13906
866.4	13909
866.531	13890
866.662	13967
866.793	13864
866.924	13955
867.055	13921
867.186	13913
867.317	13989
867.448	13841
867.579	13921
867.71	13868
867.841	13871
867.972	13951
868.103	13997
868.233	14024
868.364	13917
868.495	14088
868.625	14115
868.756	14305
868.886	14168
869.017	14278
869.147	14317
869.278	14313
869.408	14290
869.539	14317
869.669	14271
869.799	14225
869.929	14336
870.06	14309
870.19	14602
870.32	14552
870.45	14625
870.58	14533
870.71	14777
870.84	14765
870.97	14659
871.1	14636
871.23	14902
871.36	14777
871.489	14705
871.619	14762
871.749	14845
871.879	14830
872.008	14876
872.138	14811
872.267	14758
872.397	14712
872.526	14689
872.656	14610
872.785	14705
872.915	14826
873.044	14876
873.173	14834
873.303	14921
873.432	14906
873.561	14967
873.69	14876
873.819	14785
873.948	14899
874.077	14895
874.206	14762
874.335	14864
874.464	15039
874.593	15077
874.722	15142
874.851	15176
874.979	15302
875.108	15264
875.237	15104
875.365	15081
875.494	15173
875.623	15237
875.751	15123
875.88	15268
876.008	15260
876.136	15389
876.265	15580
876.393	15584
876.521	15652
876.65	15625
876.778	15686
876.906	15641
877.034	15610
877.162	15614
877.29	15511
877.418	15561
877.546	15557
877.674	15557
877.802	15564
877.93	15667
878.058	15549
878.185	15568
878.313	15561
878.441	15568
878.568	15462
878.696	15519
878.824	15614
878.951	15709
879.079	15728
879.206	15865
879.333	15724
879.461	15606
879.588	15663
879.715	15770
879.842	15991
879.97	15633
880.097	15382
880.224	15477
880.351	15523
880.478	15526
880.605	15458
880.732	15416
880.859	15717
880.986	15370
881.112	15466
881.239	15279
881.366	15306
881.493	15165
881.619	15013
881.746	15135
881.872	15074
881.999	15032
882.125	15138
882.252	15218
882.378	15146
882.505	15283
882.631	15028
882.757	14899
882.883	14998
883.01	14899
883.136	14861
883.262	14693
883.388	14773
883.514	14883
883.64	14952
883.766	14895
883.892	14743
884.018	14762
884.143	14971
884.269	15055
884.395	14712
884.52	14629
884.646	14686
884.772	14560
884.897	14541
885.023	14670
885.148	14807
885.274	14773
885.399	14705
885.524	14648
885.65	14617
885.775	14651
885.9	14579
886.025	14785
886.15	14693
886.275	14659
886.4	14522
886.525	14533
886.65	14590
886.775	14484
886.9	14815
887.025	14826
887.149	14629
887.274	14503
887.399	14393
887.523	14434
887.648	14320
887.773	14385
887.897	14560
888.021	14514
888.146	14419
888.27	14564
888.395	14552
888.519	14473
888.643	14587
888.767	14575
888.891	14415
889.015	14328
889.139	14404
889.263	14252
889.387	14492
889.511	14571
889.635	14560
889.759	14317
889.883	14298
890.006	14431
890.13	14514
890.254	14275
890.377	14317
890.501	13989
890.624	14103
890.748	14237
890.871	14157
890.995	14031
891.118	14001
891.241	14024
891.364	14005
891.488	14035
891.611	14027
891.734	14008
891.857	14069
891.98	14008
892.103	14126
892.226	14043
892.349	14050
892.471	13868
892.594	13967
892.717	14088
892.839	14096
892.962	13986
893.085	14069
893.207	14005
893.33	13894
893.452	13879
893.575	14069
893.697	13997
893.819	14164
893.941	14271
894.064	14164
894.186	14020
894.308	14043
894.43	14157
894.552	14248
894.674	14187
894.796	13898
894.918	14031
895.04	14081
895.161	14119
895.283	14168
895.405	14119
895.526	14126
895.648	14195
895.769	14180
895.891	14142
896.012	14240
896.134	14214
896.255	14275
896.376	14130
896.498	14145
896.619	14221
896.74	14301
896.861	14256
896.982	14473
897.103	14651
897.224	14526
897.345	14495
897.466	14362
897.587	14465
897.708	14484
897.828	14556
897.949	14545
898.07	14351
898.19	14503
898.311	14644
898.431	14507
898.552	14556
898.672	14617
898.792	14659
898.913	14522
899.033	14446
899.153	14434
899.273	14355
899.393	14423
899.513	14423
899.633	14454
899.753	14469
899.873	14355
899.993	14461
900.113	14366
900.232	14518
900.352	14446
900.472	14343
900.591	14275
900.711	14355
900.83	14229
900.95	14473
901.069	14317
901.189	14278
901.308	14005
901.427	13967
901.546	13909
901.665	14020
901.784	13997
901.904	13780
902.023	13712
902.141	13647
902.26	13632
902.379	13605
902.498	13609
902.617	13426
902.735	13563
902.854	13616
902.973	13453
903.091	13251
903.21	13240
903.328	13202
903.446	13141
903.565	13187
903.683	13095
903.801	12985
903.919	13072
904.038	13160
904.156	12852
904.274	13004
904.392	12894
904.51	12939
904.627	12863
904.745	12993
904.863	12939
904.981	12753
905.098	12570
905.216	12620
905.334	12646
905.451	12623
905.569	12620
905.686	12673
905.803	12627
905.921	12429
906.038	12464
906.155	12479
906.272	12346
906.389	12323
906.506	12197
906.623	12182
906.74	12220
906.857	12030
906.974	12068
907.091	12251
907.208	12296
907.324	12251
907.441	12106
907.557	11935
907.674	11992
907.79	11946
907.907	11920
908.023	11992
908.139	11946
908.256	11874
908.372	11904
908.488	11859
908.604	11733
908.72	11672
908.836	11619
908.952	11703
909.068	11661
909.184	11821
909.3	11695
909.415	11840
909.531	11695
909.647	11406
909.762	11410
909.878	11474
909.993	11592
910.108	11528
910.224	11395
910.339	11482
910.454	11326
910.57	11318
910.685	11311
910.8	11497
910.915	11429
911.03	11265
911.145	11136
911.259	11162
911.374	11197
911.489	11136
911.604	10984
911.718	10991
911.833	10938
911.947	10862
912.062	10759
912.176	10900
912.291	10987
912.405	10949
912.519	11143
912.633	11151
912.748	11022
912.862	10961
912.976	10812
913.09	10634
913.204	10767
913.318	10927
913.431	10930
913.545	10923
913.659	10927
913.772	10854
913.886	10740
914	10615
914.113	10748
914.226	10786
914.34	10812
914.453	10569
914.566	10771
914.68	10672
914.793	10611
914.906	10440
915.019	10363
915.132	10413
915.245	10500
915.358	10470
915.47	10504
915.583	10451
915.696	10478
915.809	10622
915.921	10645
916.034	10386
916.146	10424
916.259	10436
916.371	10535
916.483	10474
916.595	10333
916.708	10436
916.82	10402
916.932	10306
917.044	10356
917.156	10367
917.268	10109
917.38	10272
917.491	10162
917.603	10272
917.715	10348
917.826	10459
917.938	10280
918.049	10158
918.161	10268
918.272	10432
918.384	10443
918.495	10238
918.606	10120
918.717	10063
918.828	10112
918.939	10219
919.05	10128
919.161	10109
919.272	9918
919.383	10051
919.494	10124
919.604	10451
919.715	10162
919.826	10078
919.936	10196
920.047	10230
920.157	10162
920.267	10379
920.378	10188
920.488	10147
920.598	10352
920.708	10417
920.818	10310
920.928	10386
921.038	10489
921.148	10462
921.258	10185
921.368	10101
921.477	10112
921.587	10013
921.697	9945
921.806	9968
921.916	9892
922.025	9819
922.134	9701
922.244	9686
922.353	9774
922.462	9603
922.571	9462
922.68	9374
922.789	9389
922.898	9481
923.007	9351
923.116	9458
923.224	9393
923.333	9386
923.442	9287
923.55	9359
923.659	9389
923.767	9424
923.876	9294
923.984	9469
924.092	9302
924.201	9313
924.309	9264
924.417	9348
924.525	9260
924.633	9260
924.741	10158
924.849	9077
924.956	9146
925.064	9097
925.172	9001
925.279	9104
925.387	9127
925.494	9116
925.602	9203
925.709	9157
925.816	9055
925.924	9058
926.031	9127
926.138	9100
926.245	9116
926.352	9005
926.459	9138
926.566	9173
926.673	9020
926.779	8998
926.886	8941
926.993	8800
927.099	8800
927.206	8743
927.312	8766
927.419	8838
927.525	8826
927.631	8876
927.737	8739
927.843	8697
927.95	8587
928.056	8655
928.162	8689
928.267	8705
928.373	9264
928.479	8845
928.585	8503
928.69	8636
928.796	8758
928.901	8556
929.007	8412
929.112	8670
929.218	8530
929.323	8556
929.428	8541
929.533	8682
929.638	8480
929.743	8556
929.848	8583
929.953	8549
930.058	8370
930.163	8240
930.267	8351
930.372	8400
930.477	8240
930.581	8526
930.685	8366
930.79	8256
930.894	8229
930.998	8157
931.103	8298
931.207	8043
931.311	8005
931.415	7898
931.519	7662
931.623	7795
