Data from test_V78500241_576.txt Node
Date: Fri Mar 25 14:37:43 CST 2022
User: usil
Spectrometer: V785-0024
Trigger mode: 0
Integration Time (sec): 4.000000E-1
Scans to average: 1
Nonlinearity correction enabled: false
Boxcar width: 0
Storing dark spectrum: false
XAxis mode: Wavelengths
Number of Pixels in Spectrum: 1024
>>>>>Begin Spectral Data<<<<<
801.071	27781
801.214	27774
801.356	27466
801.499	27332
801.641	27199
801.783	27184
801.926	27237
802.068	27028
802.211	27131
802.353	26857
802.496	26781
802.638	26663
802.78	26823
802.923	26773
803.065	26552
803.208	26640
803.35	26629
803.492	26804
803.635	27070
803.777	26678
803.919	26762
804.061	27085
804.204	26746
804.346	26861
804.488	26754
804.63	26868
804.773	26735
804.915	26861
805.057	27013
805.199	26914
805.341	27085
805.483	27138
805.626	27165
805.768	27093
805.91	27108
806.052	27214
806.194	27260
806.336	27633
806.478	27420
806.62	27549
806.762	27819
806.904	28238
807.046	28596
807.188	28691
807.33	29044
807.472	29337
807.614	29509
807.756	30007
807.898	30798
808.04	31628
808.182	32640
808.324	34325
808.465	35973
808.607	38016
808.749	39534
808.891	40664
809.033	40592
809.174	39492
809.316	37628
809.458	35889
809.6	34010
809.741	32549
809.883	31327
810.025	30498
810.166	29859
810.308	29433
810.45	29102
810.591	28672
810.733	28363
810.875	28063
811.016	27888
811.158	27827
811.299	27785
811.441	27899
811.582	27918
811.724	27732
811.865	27378
812.007	27321
812.148	27355
812.29	27332
812.431	27469
812.573	27519
812.714	27564
812.855	27568
812.997	27736
813.138	28048
813.279	27717
813.421	27568
813.562	27633
813.703	27287
813.845	27135
813.986	26895
814.127	26716
814.268	26511
814.41	26640
814.551	26575
814.692	26644
814.833	26446
814.974	26389
815.115	26347
815.256	26271
815.397	26294
815.539	26362
815.68	26206
815.821	26062
815.962	26088
816.103	26134
816.244	25959
816.385	25928
816.526	25765
816.666	25712
816.807	25472
816.948	25548
817.089	25635
817.23	25552
817.371	25441
817.512	25388
817.653	25426
817.793	25274
817.934	25460
818.075	25346
818.216	25407
818.356	25369
818.497	25289
818.638	25091
818.778	25107
818.919	25129
819.06	25293
819.2	25251
819.341	25343
819.481	25373
819.622	25468
819.762	25571
819.903	25453
820.043	25495
820.184	25487
820.324	25449
820.465	25407
820.605	25411
820.746	25187
820.886	25152
821.026	25232
821.167	25289
821.307	25289
821.447	25175
821.588	25027
821.728	24856
821.868	24741
822.008	24612
822.149	24665
822.289	24681
822.429	24266
822.569	24372
822.709	24201
822.849	24114
822.99	24095
823.13	24018
823.27	24015
823.41	23817
823.55	23874
823.69	23961
823.83	23821
823.97	23767
824.11	23360
824.25	23646
824.389	23551
824.529	23539
824.669	23611
824.809	23756
824.949	23687
825.089	23627
825.228	23627
825.368	23410
825.508	23376
825.648	23341
825.787	23421
825.927	23425
826.067	23200
826.206	23334
826.346	23356
826.485	23231
826.625	23448
826.765	23467
826.904	23448
827.044	23109
827.183	23113
827.323	23113
827.462	23212
827.601	23090
827.741	22938
827.88	23018
828.02	22889
828.159	22915
828.298	23044
828.437	23121
828.577	22843
828.716	23246
828.855	22968
828.994	22733
829.134	22702
829.273	22710
829.412	22702
829.551	22660
829.69	22691
829.829	22721
829.968	22744
830.107	22755
830.246	22729
830.385	22626
830.524	22664
830.663	22455
830.802	22493
830.941	22329
831.08	22211
831.219	22390
831.357	22341
831.496	22531
831.635	22253
831.774	22265
831.913	22063
832.051	22154
832.19	22135
832.329	22154
832.467	22070
832.606	22097
832.744	22074
832.883	22032
833.022	22097
833.16	22169
833.299	22226
833.437	22226
833.576	22417
833.714	22409
833.852	22622
833.991	22656
834.129	22801
834.267	22713
834.406	22694
834.544	22645
834.682	22569
834.821	22386
834.959	22546
835.097	22265
835.235	22360
835.373	22185
835.511	22139
835.65	22139
835.788	21975
835.926	21812
836.064	21770
836.202	21751
836.34	21888
836.478	21949
836.615	21781
836.753	21812
836.891	21956
837.029	21778
837.167	21728
837.305	21728
837.443	21736
837.58	21652
837.718	21755
837.856	21671
837.993	21606
838.131	21641
838.269	21488
838.406	21564
838.544	21382
838.681	21306
838.819	21211
838.956	21112
839.094	20986
839.231	21062
839.369	21260
839.506	21424
839.643	21214
839.781	21093
839.918	20948
840.055	20956
840.193	21036
840.33	20891
840.467	20956
840.604	20986
840.742	21264
840.879	20941
841.016	20845
841.153	20971
841.29	21066
841.427	21020
841.564	20925
841.701	21032
841.838	20967
841.975	20868
842.112	20906
842.249	20754
842.385	20762
842.522	21077
842.659	20765
842.796	20819
842.933	20796
843.069	20743
843.206	20739
843.343	20769
843.479	20746
843.616	20743
843.752	20697
843.889	20701
844.025	20765
844.162	20663
844.298	20899
844.435	20823
844.571	20960
844.708	21150
844.844	21488
844.98	21717
845.117	22048
845.253	22318
845.389	23364
845.525	25362
845.661	28611
845.798	32336
845.934	35528
846.07	36859
846.206	35996
846.342	33542
846.478	29600
846.614	26050
846.75	23836
846.886	22485
847.022	21724
847.158	21252
847.294	20773
847.429	20541
847.565	20450
847.701	20659
847.837	20050
847.972	19898
848.108	19955
848.244	19864
848.379	19647
848.515	19643
848.65	19525
848.786	19731
848.921	19647
849.057	19670
849.192	19685
849.328	19609
849.463	19677
849.598	19510
849.734	19540
849.869	19457
850.004	19415
850.14	19270
850.275	19297
850.41	19240
850.545	19202
850.68	19358
850.815	19251
850.95	19145
851.085	19460
851.22	19373
851.355	19282
851.49	19324
851.625	19240
851.76	19183
851.895	19148
852.03	19084
852.165	19221
852.299	19274
852.434	19369
852.569	19304
852.703	19335
852.838	19472
852.973	19529
853.107	19518
853.242	19285
853.376	19228
853.511	19095
853.645	19187
853.78	19320
853.914	19316
854.048	19339
854.183	19308
854.317	19308
854.451	19434
854.585	19289
854.72	19289
854.854	19407
854.988	19152
855.122	19206
855.256	19175
855.39	19274
855.524	19278
855.658	19247
855.792	19244
855.926	19206
856.06	19251
856.194	19168
856.327	19152
856.461	19031
856.595	18962
856.729	19122
856.862	19129
856.996	19065
857.13	19164
857.263	19247
857.397	19270
857.53	19057
857.664	19061
857.797	19088
857.931	19133
858.064	19103
858.197	19240
858.331	18996
858.464	18920
858.597	18939
858.731	19084
858.864	18939
858.997	18844
859.13	18981
859.263	19004
859.396	19095
859.529	18993
859.662	18951
859.795	18806
859.928	19046
860.061	19069
860.194	19160
860.327	18951
860.46	18920
860.592	18973
860.725	19012
860.858	19023
860.99	18962
861.123	18882
861.256	18928
861.388	18935
861.521	19578
861.653	18875
861.786	18817
861.918	18875
862.05	18901
862.183	18894
862.315	18996
862.447	19107
862.58	18989
862.712	18776
862.844	18692
862.976	18863
863.108	18661
863.24	18958
863.372	18631
863.504	18642
863.636	18661
863.768	18768
863.9	18631
864.032	18623
864.164	18642
864.296	18654
864.428	18726
864.559	18673
864.691	18745
864.823	18642
864.954	18692
865.086	18654
865.217	18551
865.349	18578
865.48	18544
865.612	18502
865.743	18722
865.875	18574
866.006	18608
866.137	18551
866.269	18525
866.4	18604
866.531	18536
866.662	18604
866.793	18578
866.924	18563
867.055	18521
867.186	18563
867.317	18551
867.448	18353
867.579	18407
867.71	18517
867.841	18384
867.972	18547
868.103	18456
868.233	18616
868.364	18642
868.495	18620
868.625	18764
868.756	18848
868.886	18627
869.017	18783
869.147	18939
869.278	18935
869.408	18833
869.539	18814
869.669	18787
869.799	18787
869.929	18867
870.06	18954
870.19	19122
870.32	19076
870.45	19088
870.58	19164
870.71	19259
870.84	19251
870.97	19118
871.1	19122
871.23	19327
871.36	19480
871.489	19259
871.619	19327
871.749	19346
871.879	19460
872.008	19457
872.138	19434
872.267	19556
872.397	19312
872.526	19449
872.656	19266
872.785	19339
872.915	19483
873.044	19666
873.173	19559
873.303	19491
873.432	19620
873.561	19674
873.69	19666
873.819	19571
873.948	19734
874.077	19609
874.206	19689
874.335	19575
874.464	19791
874.593	19887
874.722	19833
874.851	20103
874.979	20073
875.108	20027
875.237	20069
875.365	19917
875.494	20149
875.623	20111
875.751	20065
875.88	20180
876.008	20324
876.136	20396
876.265	20655
876.393	20842
876.521	20731
876.65	20758
876.778	20769
876.906	20758
877.034	20708
877.162	20891
877.29	20853
877.418	20899
877.546	21112
877.674	21077
877.802	21070
877.93	21123
878.058	21252
878.185	21222
878.313	21534
878.441	21709
878.568	21835
878.696	22131
878.824	22736
878.951	23505
879.079	24372
879.206	25609
879.333	26731
879.461	27618
879.588	28367
879.715	28432
879.842	27903
879.97	26648
880.097	25403
880.224	24414
880.351	23707
880.478	23303
880.605	22934
880.732	22786
880.859	22782
880.986	22573
881.112	22379
881.239	22322
881.366	22150
881.493	22074
881.619	22021
881.746	22017
881.872	21953
881.999	21926
882.125	21915
882.252	22150
882.378	22070
882.505	22234
882.631	21979
882.757	22032
882.883	21895
883.01	22006
883.136	21816
883.262	21781
883.388	21622
883.514	21835
883.64	21915
883.766	21781
883.892	21686
884.018	21603
884.143	21800
884.269	21930
884.395	21660
884.52	21473
884.646	21652
884.772	21511
884.897	21526
885.023	21572
885.148	21747
885.274	21629
885.399	21599
885.524	21386
885.65	21462
885.775	21351
885.9	21233
886.025	21157
886.15	21093
886.275	20838
886.4	20762
886.525	20788
886.65	20667
886.775	20625
886.9	20739
887.025	20811
887.149	20389
887.274	20202
887.399	20199
887.523	20111
887.648	19917
887.773	20027
887.897	20088
888.021	20058
888.146	19898
888.27	20012
888.395	19978
888.519	19837
888.643	19864
888.767	19833
888.891	19620
889.015	19510
889.139	19662
889.263	19506
889.387	19590
889.511	19715
889.635	19525
889.759	19472
889.883	19434
890.006	19369
890.13	19487
890.254	19263
890.377	19270
890.501	19095
890.624	19076
890.748	19114
890.871	18962
890.995	18924
891.118	18814
891.241	18932
891.364	18852
891.488	18913
891.611	18795
891.734	18745
891.857	18840
891.98	18776
892.103	18875
892.226	18703
892.349	18677
892.471	18525
892.594	18589
892.717	18593
892.839	18544
892.962	18350
893.085	18528
893.207	18555
893.33	18513
893.452	18350
893.575	18578
893.697	18464
893.819	18528
893.941	18681
894.064	18608
894.186	18369
894.308	18361
894.43	18414
894.552	18513
894.674	18574
894.796	18330
894.918	18388
895.04	18323
895.161	18410
895.283	18311
895.405	18296
895.526	18380
895.648	18224
895.769	18266
895.891	18448
896.012	18292
896.134	18399
896.255	18372
896.376	18334
896.498	18300
896.619	18380
896.74	18281
896.861	18433
896.982	18612
897.103	18787
897.224	18665
897.345	18509
897.466	18437
897.587	18407
897.708	18612
897.828	18601
897.949	18517
898.07	18441
898.19	18338
898.311	18517
898.431	18376
898.552	18399
898.672	18578
898.792	18589
898.913	18490
899.033	18486
899.153	18300
899.273	18224
899.393	18194
899.513	18323
899.633	18243
899.753	18254
899.873	18277
899.993	18330
900.113	18171
900.232	18194
900.352	18266
900.472	18171
900.591	18083
900.711	18152
900.83	18022
900.95	18148
901.069	18201
901.189	17935
901.308	17726
901.427	17691
901.546	17775
901.665	17596
901.784	17661
901.904	17532
902.023	17402
902.141	17296
902.26	17143
902.379	17311
902.498	17159
902.617	17132
902.735	17143
902.854	17090
902.973	16991
903.091	16812
903.21	16771
903.328	16725
903.446	16710
903.565	16622
903.683	16691
903.801	16493
903.919	16577
904.038	16554
904.156	16382
904.274	16580
904.392	16295
904.51	16379
904.627	16371
904.745	16375
904.863	16371
904.981	16150
905.098	15987
905.216	15994
905.334	15945
905.451	16147
905.569	16044
905.686	16021
905.803	15975
905.921	15724
906.038	15759
906.155	15793
906.272	15679
906.389	15648
906.506	15637
906.623	15736
906.74	15504
906.857	15408
906.974	15496
907.091	15625
907.208	15663
907.324	15587
907.441	15424
907.557	15272
907.674	15298
907.79	15119
907.907	15199
908.023	15214
908.139	15241
908.256	15218
908.372	15089
908.488	15127
908.604	14925
908.72	14868
908.836	14925
908.952	14941
909.068	14941
909.184	15051
909.3	14933
909.415	14918
909.531	14979
909.647	14716
909.762	14777
909.878	14644
909.993	14655
910.108	14701
910.224	14632
910.339	14568
910.454	14564
910.57	14415
910.685	14309
910.8	14640
910.915	14621
911.03	14450
911.145	14427
911.259	14176
911.374	14294
911.489	14229
911.604	14138
911.718	14149
911.833	14092
911.947	13822
912.062	13928
912.176	13928
912.291	14054
912.405	14065
912.519	14218
912.633	14202
912.748	14172
912.862	13963
912.976	13818
913.09	13681
913.204	13814
913.318	13776
913.431	13989
913.545	13944
913.659	14069
913.772	13784
913.886	13833
914	13723
914.113	13814
914.226	13807
914.34	13788
914.453	13521
914.566	13769
914.68	13636
914.793	13544
914.906	13472
915.019	13396
915.132	13278
915.245	13384
915.358	13506
915.47	13468
915.583	13358
915.696	13396
915.809	13491
915.921	13510
916.034	13289
916.146	13392
916.259	13297
916.371	13373
916.483	13320
916.595	13247
916.708	13209
916.82	13285
916.932	13228
917.044	13221
917.156	13228
917.268	13175
917.38	13099
917.491	13103
917.603	13084
917.715	13187
917.826	13149
917.938	13069
918.049	12928
918.161	13103
918.272	13190
918.384	13183
918.495	13042
918.606	12905
918.717	12852
918.828	12821
918.939	12897
919.05	12810
919.161	12882
919.272	12654
919.383	12722
919.494	12848
919.604	13046
919.715	12825
919.826	12779
919.936	12730
920.047	12886
920.157	12859
920.267	13046
920.378	12901
920.488	12867
920.598	13008
920.708	13076
920.818	12985
920.928	12916
921.038	13126
921.148	13065
921.258	12829
921.368	12654
921.477	12627
921.587	12563
921.697	12479
921.806	12642
921.916	12441
922.025	12289
922.134	12186
922.244	12220
922.353	12296
922.462	12129
922.571	12121
922.68	11912
922.789	11882
922.898	11969
923.007	11855
923.116	11923
923.224	11946
923.333	11912
923.442	11752
923.55	11764
923.659	11790
923.767	11828
923.876	11707
923.984	11688
924.092	11676
924.201	11630
924.309	11718
924.417	11653
924.525	11615
924.633	11691
924.741	12388
924.849	11406
924.956	11596
925.064	11471
925.172	11372
925.279	11467
925.387	11406
925.494	11444
925.602	11547
925.709	11478
925.816	11265
925.924	11410
926.031	11429
926.138	11406
926.245	11478
926.352	11299
926.459	11459
926.566	11474
926.673	11212
926.779	11246
926.886	11204
926.993	11105
927.099	11121
927.206	10980
927.312	11006
927.419	11117
927.525	10968
927.631	11014
927.737	11048
927.843	10930
927.95	10793
928.056	10896
928.162	10892
928.267	10984
928.373	11337
928.479	10942
928.585	10748
928.69	10881
928.796	10889
928.901	10691
929.007	10584
929.112	10702
929.218	10752
929.323	10672
929.428	10664
929.533	10805
929.638	10546
929.743	10618
929.848	10736
929.953	10679
930.058	10588
930.163	10322
930.267	10390
930.372	10489
930.477	10333
930.581	10478
930.685	10436
930.79	10337
930.894	10306
930.998	10249
931.103	10405
931.207	10040
931.311	9998
931.415	9907
931.519	9724
931.623	9660
