Data from test_V78500241_2047.txt Node
Date: Fri Mar 25 14:47:58 CST 2022
User: usil
Spectrometer: V785-0024
Trigger mode: 0
Integration Time (sec): 4.000000E-1
Scans to average: 1
Nonlinearity correction enabled: false
Boxcar width: 0
Storing dark spectrum: false
XAxis mode: Wavelengths
Number of Pixels in Spectrum: 1024
>>>>>Begin Spectral Data<<<<<
801.071	22059
801.214	21960
801.356	21709
801.499	21564
801.641	21473
801.783	21519
801.926	21534
802.068	21336
802.211	21313
802.353	21161
802.496	21039
802.638	20963
802.78	20937
802.923	20720
803.065	20762
803.208	20735
803.35	20788
803.492	20705
803.635	20811
803.777	20743
803.919	20944
804.061	21096
804.204	20925
804.346	20811
804.488	20697
804.63	20826
804.773	20613
804.915	20762
805.057	20815
805.199	20655
805.341	20838
805.483	20876
805.626	20796
805.768	20644
805.91	20693
806.052	20807
806.194	20712
806.336	20823
806.478	20705
806.62	20655
806.762	20788
806.904	21005
807.046	21009
807.188	20941
807.33	21051
807.472	21146
807.614	20918
807.756	20975
807.898	20845
808.04	20754
808.182	20697
808.324	20804
808.465	20845
808.607	20998
808.749	21112
808.891	21089
809.033	21275
809.174	21119
809.316	21058
809.458	21165
809.6	21013
809.741	21207
809.883	21108
810.025	21272
810.166	21165
810.308	21279
810.45	21199
810.591	21043
810.733	20918
810.875	20864
811.016	20921
811.158	20804
811.299	20971
811.441	21024
811.582	21039
811.724	20796
811.865	20845
812.007	20853
812.148	20868
812.29	20960
812.431	21089
812.573	21119
812.714	21207
812.855	21515
812.997	21428
813.138	21443
813.279	21458
813.421	21424
813.562	21233
813.703	21161
813.845	21085
813.986	20705
814.127	20568
814.268	20537
814.41	20419
814.551	20389
814.692	20423
814.833	20370
814.974	20263
815.115	20450
815.256	20328
815.397	20263
815.539	20278
815.68	20206
815.821	20168
815.962	20100
816.103	20145
816.244	19940
816.385	19902
816.526	19864
816.666	19883
816.807	19563
816.948	19658
817.089	19715
817.23	19635
817.371	19571
817.512	19499
817.653	19411
817.793	19453
817.934	19544
818.075	19613
818.216	19666
818.356	19339
818.497	19297
818.638	19308
818.778	19225
818.919	19278
819.06	19282
819.2	19247
819.341	19422
819.481	19434
819.622	19483
819.762	19666
819.903	19655
820.043	19628
820.184	19552
820.324	19540
820.465	19601
820.605	19556
820.746	19563
820.886	19419
821.026	19514
821.167	19407
821.307	19483
821.447	19434
821.588	19327
821.728	19137
821.868	19084
822.008	19126
822.149	18901
822.289	18776
822.429	18631
822.569	18597
822.709	18658
822.849	18467
822.99	18391
823.13	18342
823.27	18384
823.41	18247
823.55	18182
823.69	18327
823.83	18224
823.97	18232
824.11	18030
824.25	18019
824.389	18038
824.529	18114
824.669	18072
824.809	18064
824.949	18041
825.089	18057
825.228	17996
825.368	17904
825.508	17764
825.648	17870
825.787	17897
825.927	17923
826.067	17760
826.206	17821
826.346	17851
826.485	17786
826.625	17745
826.765	17802
826.904	17786
827.044	17600
827.183	17577
827.323	17433
827.462	17543
827.601	17433
827.741	17501
827.88	17558
828.02	17391
828.159	17478
828.298	17490
828.437	17585
828.577	17421
828.716	17623
828.855	17520
828.994	17250
829.134	17242
829.273	17288
829.412	17124
829.551	17189
829.69	17185
829.829	17227
829.968	17303
830.107	17326
830.246	17280
830.385	17033
830.524	17166
830.663	17094
830.802	16892
830.941	16843
831.08	16885
831.219	16831
831.357	16820
831.496	17121
831.635	16919
831.774	16767
831.913	16755
832.051	16740
832.19	16527
832.329	16725
832.467	16447
832.606	16558
832.744	16516
832.883	16630
833.022	16436
833.16	16622
833.299	16569
833.437	16504
833.576	16531
833.714	16637
833.852	16565
833.991	16683
834.129	16573
834.267	16828
834.406	16546
834.544	16729
834.682	16588
834.821	16603
834.959	16740
835.097	16569
835.235	16797
835.373	16763
835.511	16649
835.65	16470
835.788	16512
835.926	16265
836.064	16276
836.202	16352
836.34	16573
836.478	16584
836.615	16500
836.753	16512
836.891	16531
837.029	16565
837.167	16527
837.305	16470
837.443	16394
837.58	16249
837.718	16561
837.856	16428
837.993	16333
838.131	16398
838.269	16303
838.406	16261
838.544	16268
838.681	16109
838.819	16021
838.956	15922
839.094	15876
839.231	16063
839.369	16048
839.506	16417
839.643	16120
839.781	16006
839.918	15941
840.055	16063
840.193	15918
840.33	15907
840.467	15956
840.604	15903
840.742	16048
840.879	15804
841.016	15850
841.153	15766
841.29	15968
841.427	16002
841.564	16006
841.701	16010
841.838	15907
841.975	15774
842.112	15797
842.249	15762
842.385	15728
842.522	15899
842.659	15660
842.796	15679
842.933	15751
843.069	15660
843.206	15637
843.343	15819
843.479	15766
843.616	15770
843.752	15568
843.889	15564
844.025	15660
844.162	15504
844.298	15671
844.435	15485
844.571	15507
844.708	15572
844.844	15663
844.98	15625
845.117	15591
845.253	15450
845.389	15340
845.525	15416
845.661	15488
845.798	15325
845.934	15401
846.07	15260
846.206	15367
846.342	15500
846.478	15389
846.614	15165
846.75	14963
846.886	15085
847.022	15112
847.158	15081
847.294	15077
847.429	15058
847.565	15093
847.701	15275
847.837	14906
847.972	14765
848.108	14887
848.244	14872
848.379	14716
848.515	14640
848.65	14750
848.786	14632
848.921	14712
849.057	14739
849.192	14731
849.328	14655
849.463	14773
849.598	14598
849.734	14674
849.869	14556
850.004	14427
850.14	14442
850.275	14484
850.41	14377
850.545	14446
850.68	14355
850.815	14495
850.95	14431
851.085	14640
851.22	14571
851.355	14476
851.49	14393
851.625	14358
851.76	14381
851.895	14225
852.03	14374
852.165	14374
852.299	14454
852.434	14507
852.569	14431
852.703	14442
852.838	14488
852.973	14617
853.107	14648
853.242	14374
853.376	14400
853.511	14210
853.645	14328
853.78	14446
853.914	14355
854.048	14381
854.183	14320
854.317	14206
854.451	14438
854.585	14313
854.72	14290
854.854	14377
854.988	14172
855.122	14248
855.256	14157
855.39	14278
855.524	14400
855.658	14454
855.792	14290
855.926	14320
856.06	14347
856.194	14473
856.327	14313
856.461	14237
856.595	14237
856.729	14332
856.862	14480
856.996	14366
857.13	14374
857.263	14396
857.397	14450
857.53	14374
857.664	14362
857.797	14366
857.931	14518
858.064	14332
858.197	14336
858.331	14347
858.464	14225
858.597	14259
858.731	14305
858.864	14385
858.997	14282
859.13	14355
859.263	14385
859.396	14389
859.529	14370
859.662	14343
859.795	14339
859.928	14343
860.061	14404
860.194	14492
860.327	14366
860.46	14225
860.592	14473
860.725	14530
860.858	14412
860.99	14305
861.123	14240
861.256	14214
861.388	14366
861.521	15028
861.653	14164
861.786	14180
861.918	14149
862.05	14294
862.183	14320
862.315	14263
862.447	14298
862.58	14248
862.712	14183
862.844	14062
862.976	14142
863.108	14191
863.24	14427
863.372	13993
863.504	14058
863.636	14123
863.768	14199
863.9	14126
864.032	14111
864.164	14031
864.296	14096
864.428	14233
864.559	14199
864.691	14168
864.823	14210
864.954	14157
865.086	14176
865.217	14134
865.349	13982
865.48	14126
865.612	14039
865.743	14248
865.875	14096
866.006	14107
866.137	14115
866.269	14027
866.4	14062
866.531	14058
866.662	14016
866.793	13959
866.924	14058
867.055	14065
867.186	14081
867.317	14008
867.448	14027
867.579	13982
867.71	14084
867.841	14020
867.972	14100
868.103	14031
868.233	14065
868.364	14142
868.495	14107
868.625	14358
868.756	14450
868.886	14202
869.017	14290
869.147	14377
869.278	14545
869.408	14305
869.539	14278
869.669	14332
869.799	14377
869.929	14396
870.06	14484
870.19	14682
870.32	14621
870.45	14754
870.58	14773
870.71	14807
870.84	14834
870.97	14651
871.1	14758
871.23	14876
871.36	14910
871.489	14929
871.619	14899
871.749	14918
871.879	14921
872.008	15123
872.138	14948
872.267	14986
872.397	14781
872.526	14689
872.656	14830
872.785	14697
872.915	15055
873.044	14967
873.173	14990
873.303	15001
873.432	15043
873.561	14967
873.69	14914
873.819	15001
873.948	15108
874.077	14979
874.206	14990
874.335	15017
874.464	15097
874.593	15218
874.722	15203
874.851	15317
874.979	15287
875.108	15264
875.237	15184
875.365	15272
875.494	15317
875.623	15401
875.751	15256
875.88	15321
876.008	15420
876.136	15428
876.265	15717
876.393	15797
876.521	15736
876.65	15770
876.778	15682
876.906	15625
877.034	15667
877.162	15679
877.29	15656
877.418	15789
877.546	15739
877.674	15641
877.802	15618
877.93	15641
878.058	15732
878.185	15606
878.313	15831
878.441	15770
878.568	15488
878.696	15755
878.824	15720
878.951	15808
879.079	15846
879.206	15956
879.333	15812
879.461	15838
879.588	15850
879.715	15934
879.842	16002
879.97	15797
880.097	15568
880.224	15622
880.351	15667
880.478	15576
880.605	15454
880.732	15663
880.859	15808
880.986	15485
881.112	15591
881.239	15545
881.366	15481
881.493	15287
881.619	15188
881.746	15287
881.872	15272
881.999	15233
882.125	15097
882.252	15252
882.378	15192
882.505	15447
882.631	15207
882.757	15005
882.883	15066
883.01	15024
883.136	14975
883.262	14925
883.388	14849
883.514	15138
883.64	15055
883.766	15024
883.892	14815
884.018	14785
884.143	15051
884.269	15081
884.395	14765
884.52	14785
884.646	14716
884.772	14655
884.897	14590
885.023	14750
885.148	14807
885.274	14876
885.399	14861
885.524	14697
885.65	14758
885.775	14743
885.9	14758
886.025	14944
886.15	14788
886.275	14781
886.4	14636
886.525	14815
886.65	14655
886.775	14636
886.9	14731
887.025	15009
887.149	14815
887.274	14632
887.399	14476
887.523	14549
887.648	14514
887.773	14423
887.897	14712
888.021	14648
888.146	14495
888.27	14670
888.395	14762
888.519	14625
888.643	14648
888.767	14674
888.891	14385
889.015	14324
889.139	14503
889.263	14415
889.387	14480
889.511	14644
889.635	14636
889.759	14381
889.883	14457
890.006	14514
890.13	14537
890.254	14393
890.377	14438
890.501	14244
890.624	14233
890.748	14252
890.871	14115
890.995	14012
891.118	14016
891.241	14088
891.364	14195
891.488	14256
891.611	14065
891.734	14206
891.857	14195
891.98	14050
892.103	14183
892.226	14221
892.349	14058
892.471	14058
892.594	14176
892.717	14149
892.839	14096
892.962	14016
893.085	14176
893.207	14168
893.33	14050
893.452	14081
893.575	14237
893.697	14092
893.819	14278
893.941	14328
894.064	14240
894.186	14100
894.308	14012
894.43	14183
894.552	14267
894.674	14282
894.796	14123
894.918	14145
895.04	14081
895.161	14237
895.283	14298
895.405	14229
895.526	14225
895.648	14221
895.769	14339
895.891	14275
896.012	14298
896.134	14294
896.255	14259
896.376	14267
896.498	14328
896.619	14374
896.74	14313
896.861	14309
896.982	14689
897.103	14754
897.224	14583
897.345	14549
897.466	14415
897.587	14549
897.708	14659
897.828	14587
897.949	14579
898.07	14385
898.19	14446
898.311	14739
898.431	14461
898.552	14682
898.672	14720
898.792	14750
898.913	14610
899.033	14507
899.153	14408
899.273	14412
899.393	14552
899.513	14454
899.633	14442
899.753	14450
899.873	14412
899.993	14526
900.113	14492
900.232	14419
900.352	14381
900.472	14454
900.591	14317
900.711	14370
900.83	14248
900.95	14332
901.069	14473
901.189	14328
901.308	14062
901.427	13944
901.546	13967
901.665	14115
901.784	13978
901.904	13940
902.023	13871
902.141	13734
902.26	13624
902.379	13723
902.498	13586
902.617	13540
902.735	13620
902.854	13601
902.973	13491
903.091	13422
903.21	13266
903.328	13255
903.446	13247
903.565	13171
903.683	13240
903.801	13012
903.919	13198
904.038	13095
904.156	12985
904.274	13042
904.392	13046
904.51	13012
904.627	12977
904.745	13091
904.863	12970
904.981	12791
905.098	12764
905.216	12760
905.334	12692
905.451	12662
905.569	12639
905.686	12642
905.803	12662
905.921	12513
906.038	12585
906.155	12593
906.272	12433
906.389	12433
906.506	12228
906.623	12327
906.74	12270
906.857	12201
906.974	12213
907.091	12365
907.208	12391
907.324	12338
907.441	12247
907.557	12049
907.674	12038
907.79	11920
907.907	11984
908.023	12064
908.139	11988
908.256	11958
908.372	11923
908.488	11931
908.604	11851
908.72	11786
908.836	11729
908.952	11710
909.068	11767
909.184	11901
909.3	11786
909.415	11836
909.531	11764
909.647	11562
909.762	11505
909.878	11497
909.993	11558
910.108	11577
910.224	11414
910.339	11524
910.454	11387
910.57	11436
910.685	11261
910.8	11596
910.915	11581
911.03	11410
911.145	11356
911.259	11296
911.374	11242
911.489	11178
911.604	11140
911.718	11064
911.833	11029
911.947	10949
912.062	10854
912.176	10934
912.291	11075
912.405	11010
912.519	11204
912.633	11212
912.748	11022
912.862	11018
912.976	10850
913.09	10752
913.204	10812
913.318	10889
913.431	10984
913.545	10854
913.659	11048
913.772	10976
913.886	10774
914	10694
914.113	10843
914.226	10885
914.34	10820
914.453	10694
914.566	10778
914.68	10687
914.793	10717
914.906	10641
915.019	10500
915.132	10478
915.245	10413
915.358	10554
915.47	10546
915.583	10455
915.696	10634
915.809	10592
915.921	10656
916.034	10516
916.146	10508
916.259	10409
916.371	10569
916.483	10561
916.595	10421
916.708	10474
916.82	10432
916.932	10348
917.044	10447
917.156	10386
917.268	10337
917.38	10360
917.491	10390
917.603	10382
917.715	10348
917.826	10440
917.938	10230
918.049	10303
918.161	10303
918.272	10500
918.384	10512
918.495	10352
918.606	10257
918.717	10116
918.828	10223
918.939	10162
919.05	10143
919.161	10215
919.272	9987
919.383	10082
919.494	10261
919.604	10432
919.715	10139
919.826	10150
919.936	10299
920.047	10337
920.157	10291
920.267	10451
920.378	10234
920.488	10272
920.598	10348
920.708	10611
920.818	10421
920.928	10455
921.038	10588
921.148	10558
921.258	10333
921.368	10143
921.477	10181
921.587	10032
921.697	9915
921.806	10177
921.916	10021
922.025	9785
922.134	9747
922.244	9732
922.353	9793
922.462	9629
922.571	9652
922.68	9530
922.789	9454
922.898	9481
923.007	9450
923.116	9443
923.224	9458
923.333	9454
923.442	9408
923.55	9348
923.659	9367
923.767	9492
923.876	9401
923.984	9393
924.092	9321
924.201	9393
924.309	9420
924.417	9363
924.525	9291
924.633	9340
924.741	10211
924.849	9135
924.956	9298
925.064	9207
925.172	9100
925.279	9123
925.387	9192
925.494	9154
925.602	9329
925.709	9272
925.816	9138
925.924	9127
926.031	9245
926.138	9218
926.245	9207
926.352	9142
926.459	9249
926.566	9298
926.673	9119
926.779	9058
926.886	9039
926.993	8937
927.099	8937
927.206	8849
927.312	8876
927.419	8990
927.525	8914
927.631	8944
927.737	8777
927.843	8781
927.95	8716
928.056	8720
928.162	8769
928.267	8819
928.373	9488
928.479	8883
928.585	8648
928.69	8796
928.796	8815
928.901	8712
929.007	8503
929.112	8766
929.218	8629
929.323	8568
929.428	8651
929.533	8735
929.638	8533
929.743	8541
929.848	8750
929.953	8594
930.058	8503
930.163	8389
930.267	8423
930.372	8583
930.477	8396
930.581	8613
930.685	8457
930.79	8267
930.894	8362
930.998	8317
931.103	8454
931.207	8103
931.311	8016
931.415	7967
931.519	7856
931.623	7776
