Data from test_V78500241_3201.txt Node
Date: Fri Mar 25 14:56:00 CST 2022
User: usil
Spectrometer: V785-0024
Trigger mode: 0
Integration Time (sec): 4.000000E-1
Scans to average: 1
Nonlinearity correction enabled: false
Boxcar width: 0
Storing dark spectrum: false
XAxis mode: Wavelengths
Number of Pixels in Spectrum: 1024
>>>>>Begin Spectral Data<<<<<
801.071	22097
801.214	21850
801.356	21682
801.499	21591
801.641	21340
801.783	21272
801.926	21302
802.068	21306
802.211	21165
802.353	21138
802.496	20937
802.638	20880
802.78	20918
802.923	20754
803.065	20636
803.208	20560
803.35	20754
803.492	20731
803.635	20819
803.777	20674
803.919	20792
804.061	21043
804.204	20895
804.346	20625
804.488	20434
804.63	20629
804.773	20587
804.915	20697
805.057	20682
805.199	20556
805.341	20678
805.483	20762
805.626	20689
805.768	20514
805.91	20670
806.052	20625
806.194	20438
806.336	20686
806.478	20674
806.62	20442
806.762	20678
806.904	20777
807.046	20948
807.188	20948
807.33	20864
807.472	20960
807.614	20891
807.756	20853
807.898	20670
808.04	20568
808.182	20663
808.324	20674
808.465	20735
808.607	20864
808.749	21013
808.891	21116
809.033	21116
809.174	20994
809.316	20979
809.458	20994
809.6	20941
809.741	21142
809.883	21032
810.025	21043
810.166	21173
810.308	21119
810.45	21104
810.591	21017
810.733	20754
810.875	20701
811.016	20678
811.158	20632
811.299	20800
811.441	20868
811.582	20815
811.724	20697
811.865	20632
812.007	20659
812.148	20731
812.29	20758
812.431	20914
812.573	21036
812.714	21135
812.855	21211
812.997	21306
813.138	21340
813.279	21412
813.421	21237
813.562	21058
813.703	20929
813.845	20864
813.986	20769
814.127	20431
814.268	20400
814.41	20362
814.551	20263
814.692	20431
814.833	20161
814.974	20252
815.115	20339
815.256	20081
815.397	20199
815.539	20149
815.68	20031
815.821	19986
815.962	20043
816.103	20050
816.244	19822
816.385	19658
816.526	19700
816.666	19518
816.807	19381
816.948	19597
817.089	19415
817.23	19506
817.371	19388
817.512	19453
817.653	19377
817.793	19365
817.934	19274
818.075	19384
818.216	19346
818.356	19346
818.497	19324
818.638	19103
818.778	19057
818.919	19015
819.06	19114
819.2	19164
819.341	19331
819.481	19346
819.622	19487
819.762	19635
819.903	19533
820.043	19396
820.184	19415
820.324	19301
820.465	19400
820.605	19403
820.746	19259
820.886	19179
821.026	19282
821.167	19221
821.307	19388
821.447	19251
821.588	19164
821.728	19057
821.868	18977
822.008	18833
822.149	18791
822.289	18772
822.429	18437
822.569	18544
822.709	18547
822.849	18292
822.99	18311
823.13	18262
823.27	18327
823.41	18098
823.55	17973
823.69	18076
823.83	18003
823.97	17965
824.11	17904
824.25	17813
824.389	17847
824.529	17908
824.669	17851
824.809	18007
824.949	17950
825.089	17916
825.228	17893
825.368	17729
825.508	17741
825.648	17642
825.787	17657
825.927	17722
826.067	17547
826.206	17528
826.346	17748
826.485	17608
826.625	17608
826.765	17714
826.904	17543
827.044	17429
827.183	17433
827.323	17288
827.462	17337
827.601	17280
827.741	17303
827.88	17330
828.02	17181
828.159	17353
828.298	17368
828.437	17429
828.577	17090
828.716	17421
828.855	17231
828.994	17071
829.134	17060
829.273	17124
829.412	17098
829.551	17170
829.69	17075
829.829	17174
829.968	17117
830.107	17212
830.246	17048
830.385	16911
830.524	17067
830.663	16976
830.802	16733
830.941	16584
831.08	16668
831.219	16786
831.357	16691
831.496	16976
831.635	16660
831.774	16664
831.913	16645
832.051	16558
832.19	16531
832.329	16615
832.467	16436
832.606	16382
832.744	16409
832.883	16413
833.022	16356
833.16	16367
833.299	16512
833.437	16417
833.576	16375
833.714	16352
833.852	16493
833.991	16379
834.129	16565
834.267	16459
834.406	16493
834.544	16577
834.682	16375
834.821	16421
834.959	16675
835.097	16352
835.235	16523
835.373	16443
835.511	16489
835.65	16310
835.788	16405
835.926	16196
836.064	16211
836.202	16147
836.34	16234
836.478	16466
836.615	16303
836.753	16402
836.891	16481
837.029	16333
837.167	16280
837.305	16322
837.443	16196
837.58	16188
837.718	16238
837.856	16177
837.993	16211
838.131	16169
838.269	16166
838.406	16207
838.544	16135
838.681	15983
838.819	15945
838.956	15778
839.094	15770
839.231	15797
839.369	15922
839.506	16147
839.643	15960
839.781	15945
839.918	15705
840.055	15766
840.193	15759
840.33	15766
840.467	15713
840.604	15759
840.742	16017
840.879	15671
841.016	15679
841.153	15751
841.29	15846
841.427	15800
841.564	15816
841.701	15812
841.838	15732
841.975	15732
842.112	15682
842.249	15523
842.385	15450
842.522	15766
842.659	15523
842.796	15519
842.933	15507
843.069	15477
843.206	15439
843.343	15591
843.479	15595
843.616	15542
843.752	15359
843.889	15275
844.025	15492
844.162	15256
844.298	15393
844.435	15279
844.571	15313
844.708	15485
844.844	15492
844.98	15542
845.117	15416
845.253	15351
845.389	15173
845.525	15214
845.661	15142
845.798	15032
845.934	15275
846.07	15146
846.206	15233
846.342	15188
846.478	15127
846.614	14979
846.75	14921
846.886	14910
847.022	15009
847.158	14902
847.294	14895
847.429	14941
847.565	14849
847.701	15214
847.837	14636
847.972	14610
848.108	14765
848.244	14644
848.379	14568
848.515	14480
848.65	14552
848.786	14537
848.921	14541
849.057	14598
849.192	14579
849.328	14522
849.463	14583
849.598	14556
849.734	14503
849.869	14267
850.004	14275
850.14	14263
850.275	14336
850.41	14183
850.545	14278
850.68	14286
850.815	14237
850.95	14313
851.085	14484
851.22	14339
851.355	14286
851.49	14275
851.625	14343
851.76	14240
851.895	14202
852.03	14119
852.165	14206
852.299	14389
852.434	14328
852.569	14324
852.703	14282
852.838	14408
852.973	14389
853.107	14343
853.242	14218
853.376	14153
853.511	14077
853.645	14096
853.78	14275
853.914	14161
854.048	14168
854.183	14050
854.317	14195
854.451	14343
854.585	14081
854.72	14081
854.854	14176
854.988	14005
855.122	14092
855.256	14043
855.39	14161
855.524	14294
855.658	14210
855.792	14164
855.926	14161
856.06	14161
856.194	14298
856.327	14126
856.461	14119
856.595	14005
856.729	14081
856.862	14290
856.996	14199
857.13	14252
857.263	14256
857.397	14339
857.53	14134
857.664	14244
857.797	14282
857.931	14301
858.064	14107
858.197	14263
858.331	14202
858.464	14202
858.597	14043
858.731	14157
858.864	14142
858.997	14081
859.13	14202
859.263	14214
859.396	14320
859.529	14119
859.662	14062
859.795	14138
859.928	14172
860.061	14328
860.194	14343
860.327	14195
860.46	14145
860.592	14275
860.725	14336
860.858	14332
860.99	14180
861.123	14027
861.256	14031
861.388	14214
861.521	14887
861.653	14001
861.786	14046
861.918	14016
862.05	14043
862.183	14084
862.315	14164
862.447	14180
862.58	14092
862.712	13940
862.844	13883
862.976	13993
863.108	13955
863.24	14358
863.372	13906
863.504	13940
863.636	13894
863.768	14001
863.9	13955
864.032	13871
864.164	13814
864.296	13940
864.428	14054
864.559	13970
864.691	14001
864.823	13902
864.954	13967
865.086	14024
865.217	13925
865.349	13841
865.48	13860
865.612	14008
865.743	13982
865.875	13826
866.006	13909
866.137	13921
866.269	14008
866.4	13902
866.531	13811
866.662	13837
866.793	13803
866.924	14012
867.055	13856
867.186	13989
867.317	13909
867.448	13757
867.579	13852
867.71	13746
867.841	13837
867.972	13963
868.103	13864
868.233	14001
868.364	13951
868.495	13944
868.625	14027
868.756	14221
868.886	14035
869.017	14183
869.147	14259
869.278	14237
869.408	14199
869.539	14199
869.669	14210
869.799	14172
869.929	14305
870.06	14214
870.19	14454
870.32	14473
870.45	14499
870.58	14564
870.71	14708
870.84	14716
870.97	14621
871.1	14579
871.23	14731
871.36	14807
871.489	14716
871.619	14758
871.749	14750
871.879	14918
872.008	14883
872.138	14708
872.267	14746
872.397	14590
872.526	14621
872.656	14590
872.785	14610
872.915	14800
873.044	14891
873.173	14819
873.303	14811
873.432	14872
873.561	14853
873.69	14834
873.819	14834
873.948	14864
874.077	14842
874.206	14773
874.335	14842
874.464	14960
874.593	15081
874.722	15047
874.851	15127
874.979	15089
875.108	15169
875.237	15028
875.365	14982
875.494	15039
875.623	15226
875.751	15138
875.88	15173
876.008	15287
876.136	15416
876.265	15519
876.393	15663
876.521	15580
876.65	15610
876.778	15584
876.906	15496
877.034	15488
877.162	15587
877.29	15450
877.418	15511
877.546	15580
877.674	15534
877.802	15603
877.93	15504
878.058	15431
878.185	15443
878.313	15530
878.441	15618
878.568	15348
878.696	15507
878.824	15530
878.951	15625
879.079	15675
879.206	15907
879.333	15717
879.461	15580
879.588	15717
879.715	15743
879.842	15823
879.97	15660
880.097	15412
880.224	15317
880.351	15462
880.478	15439
880.605	15378
880.732	15325
880.859	15599
880.986	15412
881.112	15405
881.239	15359
881.366	15188
881.493	15093
881.619	14929
881.746	15036
881.872	15116
881.999	15051
882.125	15013
882.252	15058
882.378	15077
882.505	15264
882.631	15020
882.757	14868
882.883	14929
883.01	14857
883.136	14849
883.262	14659
883.388	14674
883.514	14914
883.64	14914
883.766	14880
883.892	14640
884.018	14731
884.143	14933
884.269	15043
884.395	14663
884.52	14484
884.646	14686
884.772	14587
884.897	14499
885.023	14590
885.148	14663
885.274	14708
885.399	14724
885.524	14556
885.65	14537
885.775	14640
885.9	14602
886.025	14667
886.15	14655
886.275	14564
886.4	14480
886.525	14625
886.65	14454
886.775	14552
886.9	14610
887.025	14777
887.149	14606
887.274	14370
887.399	14442
887.523	14309
887.648	14317
887.773	14305
887.897	14552
888.021	14419
888.146	14419
888.27	14511
888.395	14625
888.519	14431
888.643	14495
888.767	14522
888.891	14419
889.015	14183
889.139	14396
889.263	14324
889.387	14328
889.511	14415
889.635	14385
889.759	14309
889.883	14244
890.006	14305
890.13	14423
890.254	14244
890.377	14199
890.501	14084
890.624	14024
890.748	14168
890.871	14016
890.995	13993
891.118	13921
891.241	14016
891.364	13967
891.488	14123
891.611	13906
891.734	13989
891.857	14092
891.98	13986
892.103	14100
892.226	14016
892.349	14100
892.471	13784
892.594	13906
892.717	14039
892.839	13940
892.962	14024
893.085	14008
893.207	14027
893.33	13845
893.452	13963
893.575	14050
893.697	13906
893.819	14168
893.941	14138
894.064	14168
894.186	14039
894.308	14016
894.43	14054
894.552	14119
894.674	14103
894.796	14016
894.918	14046
895.04	13970
895.161	14191
895.283	14130
895.405	14046
895.526	14126
895.648	14103
895.769	14126
895.891	14202
896.012	14294
896.134	14202
896.255	14142
896.376	14119
896.498	14096
896.619	14202
896.74	14126
896.861	14294
896.982	14511
897.103	14594
897.224	14495
897.345	14415
897.466	14370
897.587	14450
897.708	14606
897.828	14518
897.949	14404
898.07	14290
898.19	14492
898.311	14602
898.431	14396
898.552	14503
898.672	14663
898.792	14625
898.913	14488
899.033	14518
899.153	14374
899.273	14339
899.393	14339
899.513	14385
899.633	14400
899.753	14385
899.873	14419
899.993	14454
900.113	14415
900.232	14434
900.352	14362
900.472	14309
900.591	14339
900.711	14256
900.83	14252
900.95	14339
901.069	14385
901.189	14202
901.308	13963
901.427	13860
901.546	13871
901.665	14027
901.784	13959
901.904	13814
902.023	13738
902.141	13662
902.26	13571
902.379	13594
902.498	13445
902.617	13559
902.735	13525
902.854	13495
902.973	13529
903.091	13304
903.21	13232
903.328	13316
903.446	13240
903.565	13057
903.683	13114
903.801	13103
903.919	13072
904.038	13076
904.156	12909
904.274	12970
904.392	12867
904.51	12924
904.627	12958
904.745	12977
904.863	12958
904.981	12703
905.098	12566
905.216	12620
905.334	12589
905.451	12635
905.569	12570
905.686	12582
905.803	12620
905.921	12426
906.038	12460
906.155	12418
906.272	12319
906.389	12365
906.506	12213
906.623	12152
906.74	12148
906.857	12060
906.974	12114
907.091	12285
907.208	12376
907.324	12209
907.441	12129
907.557	11973
907.674	11901
907.79	11859
907.907	11961
908.023	11958
908.139	11893
908.256	11904
908.372	11790
908.488	11859
908.604	11684
908.72	11748
908.836	11668
908.952	11703
909.068	11722
909.184	11775
909.3	11695
909.415	11771
909.531	11745
909.647	11471
909.762	11520
909.878	11395
909.993	11543
910.108	11532
910.224	11463
910.339	11493
910.454	11398
910.57	11360
910.685	11197
910.8	11554
910.915	11478
911.03	11356
911.145	11174
911.259	11166
911.374	11185
911.489	11109
911.604	11029
911.718	10930
911.833	10900
911.947	10934
912.062	10740
912.176	10896
912.291	10877
912.405	10843
912.519	11090
912.633	11178
912.748	10919
912.862	10961
912.976	10831
913.09	10656
913.204	10736
913.318	10809
913.431	10911
913.545	10869
913.659	10927
913.772	10797
913.886	10729
914	10634
914.113	10831
914.226	10877
914.34	10759
914.453	10607
914.566	10744
914.68	10630
914.793	10512
914.906	10508
915.019	10394
915.132	10394
915.245	10333
915.358	10493
915.47	10405
915.583	10436
915.696	10500
915.809	10565
915.921	10573
916.034	10508
916.146	10371
916.259	10394
916.371	10535
916.483	10550
916.595	10348
916.708	10382
916.82	10428
916.932	10310
917.044	10379
917.156	10386
917.268	10257
917.38	10261
917.491	10207
917.603	10325
917.715	10363
917.826	10310
917.938	10242
918.049	10211
918.161	10253
918.272	10440
918.384	10413
918.495	10333
918.606	10166
918.717	10013
918.828	10135
918.939	10215
919.05	10051
919.161	10112
919.272	9899
919.383	10002
919.494	10173
919.604	10360
919.715	10230
919.826	10093
919.936	10071
920.047	10234
920.157	10265
920.267	10333
920.378	10192
920.488	10181
920.598	10417
920.708	10485
920.818	10303
920.928	10337
921.038	10500
921.148	10481
921.258	10227
921.368	10109
921.477	10078
921.587	10055
921.697	9892
921.806	10109
921.916	9941
922.025	9740
922.134	9816
922.244	9663
922.353	9823
922.462	9705
922.571	9633
922.68	9416
922.789	9447
922.898	9447
923.007	9386
923.116	9466
923.224	9397
923.333	9401
923.442	9298
923.55	9287
923.659	9332
923.767	9332
923.876	9264
923.984	9313
924.092	9256
924.201	9359
924.309	9256
924.417	9298
924.525	9184
924.633	9245
924.741	10181
924.849	9081
924.956	9253
925.064	9085
925.172	8998
925.279	9070
925.387	9077
925.494	9077
925.602	9230
925.709	9188
925.816	9074
925.924	9127
926.031	9142
926.138	9089
926.245	9074
926.352	9051
926.459	9138
926.566	9135
926.673	8990
926.779	8921
926.886	8979
926.993	8769
927.099	8716
927.206	8727
927.312	8739
927.419	8830
927.525	8849
927.631	8826
927.737	8739
927.843	8689
927.95	8621
928.056	8629
928.162	8648
928.267	8746
928.373	9408
928.479	8754
928.585	8590
928.69	8708
928.796	8758
928.901	8648
929.007	8469
929.112	8636
929.218	8556
929.323	8503
929.428	8503
929.533	8594
929.638	8480
929.743	8484
929.848	8594
929.953	8450
930.058	8347
930.163	8252
930.267	8393
930.372	8423
930.477	8263
930.581	8552
930.685	8343
930.79	8290
930.894	8229
930.998	8180
931.103	8351
931.207	8016
931.311	7982
931.415	7845
931.519	7731
931.623	7757
