Data from test_V78500241_359.txt Node
Date: Fri Mar 25 14:36:13 CST 2022
User: usil
Spectrometer: V785-0024
Trigger mode: 0
Integration Time (sec): 4.000000E-1
Scans to average: 1
Nonlinearity correction enabled: false
Boxcar width: 0
Storing dark spectrum: false
XAxis mode: Wavelengths
Number of Pixels in Spectrum: 1024
>>>>>Begin Spectral Data<<<<<
801.071	26845
801.214	26693
801.356	26507
801.499	26442
801.641	26263
801.783	26195
801.926	26240
802.068	26046
802.211	26027
802.353	26035
802.496	25974
802.638	25830
802.78	25822
802.923	25765
803.065	25852
803.208	25586
803.35	25795
803.492	25765
803.635	25989
803.777	25776
803.919	25974
804.061	26107
804.204	26027
804.346	25700
804.488	25708
804.63	25734
804.773	25632
804.915	25685
805.057	25830
805.199	25712
805.341	25837
805.483	25917
805.626	25677
805.768	25696
805.91	25814
806.052	25826
806.194	25708
806.336	25864
806.478	25818
806.62	25780
806.762	25860
806.904	25997
807.046	26161
807.188	26088
807.33	26103
807.472	26271
807.614	26115
807.756	26142
807.898	26069
808.04	26062
808.182	25894
808.324	25997
808.465	26035
808.607	26183
808.749	26210
808.891	26393
809.033	26522
809.174	26305
809.316	26347
809.458	26286
809.6	26252
809.741	26324
809.883	26347
810.025	26514
810.166	26606
810.308	26450
810.45	26317
810.591	26389
810.733	26252
810.875	26126
811.016	26157
811.158	26054
811.299	26130
811.441	26370
811.582	26229
811.724	26062
811.865	26065
812.007	26065
812.148	26130
812.29	26164
812.431	26278
812.573	26347
812.714	26522
812.855	26705
812.997	26754
813.138	26895
813.279	26769
813.421	26541
813.562	26568
813.703	26446
813.845	26355
813.986	25940
814.127	25868
814.268	25723
814.41	25700
814.551	25632
814.692	25723
814.833	25681
814.974	25731
815.115	25674
815.256	25502
815.397	25422
815.539	25407
815.68	25434
815.821	25502
815.962	25430
816.103	25403
816.244	25354
816.385	25088
816.526	25282
816.666	25000
816.807	24859
816.948	24817
817.089	25004
817.23	24913
817.371	24787
817.512	24825
817.653	24772
817.793	24913
817.934	24783
818.075	24738
818.216	24734
818.356	24852
818.497	24703
818.638	24467
818.778	24566
818.919	24536
819.06	24525
819.2	24608
819.341	24608
819.481	24665
819.622	24833
819.762	25110
819.903	24970
820.043	24837
820.184	24753
820.324	24859
820.465	24871
820.605	24787
820.746	24669
820.886	24650
821.026	24722
821.167	24760
821.307	24696
821.447	24730
821.588	24570
821.728	24544
821.868	24342
822.008	24239
822.149	24114
822.289	24041
822.429	23908
822.569	23790
822.709	23779
822.849	23592
822.99	23547
823.13	23585
823.27	23596
823.41	23433
823.55	23345
823.69	23414
823.83	23410
823.97	23349
824.11	23185
824.25	23117
824.389	23174
824.529	23322
824.669	23132
824.809	23280
824.949	23254
825.089	23337
825.228	23250
825.368	23064
825.508	22927
825.648	23052
825.787	23136
825.927	23052
826.067	22984
826.206	22900
826.346	22930
826.485	22896
826.625	22965
826.765	23018
826.904	22930
827.044	22668
827.183	22740
827.323	22577
827.462	22679
827.601	22637
827.741	22557
827.88	22793
828.02	22554
828.159	22622
828.298	22584
828.437	22694
828.577	22611
828.716	22721
828.855	22508
828.994	22379
829.134	22443
829.273	22440
829.412	22356
829.551	22204
829.69	22192
829.829	22325
829.968	22341
830.107	22318
830.246	22363
830.385	22226
830.524	22211
830.663	22097
830.802	22067
830.941	21827
831.08	21804
831.219	22029
831.357	22070
831.496	22051
831.635	21762
831.774	21797
831.913	21682
832.051	21660
832.19	21599
832.329	21618
832.467	21519
832.606	21568
832.744	21641
832.883	21496
833.022	21591
833.16	21534
833.299	21587
833.437	21557
833.576	21496
833.714	21576
833.852	21557
833.991	21610
834.129	21614
834.267	21622
834.406	21507
834.544	21652
834.682	21576
834.821	21488
834.959	21720
835.097	21488
835.235	21599
835.373	21591
835.511	21545
835.65	21454
835.788	21378
835.926	21237
836.064	21116
836.202	21233
836.34	21458
836.478	21515
836.615	21389
836.753	21469
836.891	21500
837.029	21443
837.167	21279
837.305	21272
837.443	21249
837.58	21176
837.718	21332
837.856	21279
837.993	21176
838.131	21237
838.269	21051
838.406	21135
838.544	21096
838.681	20921
838.819	20895
838.956	20746
839.094	20731
839.231	20754
839.369	20880
839.506	20979
839.643	20842
839.781	20716
839.918	20746
840.055	20598
840.193	20712
840.33	20629
840.467	20655
840.604	20648
840.742	20933
840.879	20389
841.016	20488
841.153	20461
841.29	20617
841.427	20522
841.564	20564
841.701	20594
841.838	20526
841.975	20438
842.112	20476
842.249	20446
842.385	20244
842.522	20541
842.659	20393
842.796	20404
842.933	20343
843.069	20225
843.206	20358
843.343	20442
843.479	20366
843.616	20396
843.752	20153
843.889	20157
844.025	20191
844.162	19967
844.298	20176
844.435	20142
844.571	20073
844.708	20248
844.844	20305
844.98	20233
845.117	20092
845.253	19967
845.389	19970
845.525	19989
845.661	20039
845.798	19772
845.934	20001
846.07	19864
846.206	19894
846.342	20107
846.478	19906
846.614	19620
846.75	19575
846.886	19647
847.022	19651
847.158	19628
847.294	19506
847.429	19613
847.565	19575
847.701	19727
847.837	19270
847.972	19217
848.108	19213
848.244	19384
848.379	19198
848.515	19171
848.65	19187
848.786	19129
848.921	19107
849.057	19221
849.192	19270
849.328	19209
849.463	19091
849.598	18985
849.734	19088
849.869	18977
850.004	18916
850.14	18924
850.275	18894
850.41	18726
850.545	18875
850.68	18837
850.815	18905
850.95	18711
851.085	18871
851.22	19019
851.355	18817
851.49	18726
851.625	18726
851.76	18646
851.895	18730
852.03	18688
852.165	18764
852.299	18890
852.434	18863
852.569	18779
852.703	18848
852.838	18916
852.973	18958
853.107	18875
853.242	18711
853.376	18661
853.511	18650
853.645	18566
853.78	18848
853.914	18639
854.048	18525
854.183	18669
854.317	18730
854.451	18798
854.585	18703
854.72	18612
854.854	18696
854.988	18608
855.122	18574
855.256	18559
855.39	18593
855.524	18772
855.658	18730
855.792	18635
855.926	18642
856.06	18810
856.194	18795
856.327	18669
856.461	18589
856.595	18608
856.729	18551
856.862	18856
856.996	18681
857.13	18734
857.263	18730
857.397	18844
857.53	18460
857.664	18589
857.797	18669
857.931	18715
858.064	18681
858.197	18700
858.331	18574
858.464	18528
858.597	18502
858.731	18646
858.864	18620
858.997	18601
859.13	18574
859.263	18547
859.396	18707
859.529	18551
859.662	18589
859.795	18483
859.928	18582
860.061	18703
860.194	18749
860.327	18692
860.46	18513
860.592	18684
860.725	18741
860.858	18566
860.99	18696
861.123	18441
861.256	18467
861.388	18616
861.521	19384
861.653	18582
861.786	18471
861.918	18509
862.05	18426
862.183	18597
862.315	18654
862.447	18692
862.58	18540
862.712	18384
862.844	18273
862.976	18399
863.108	18433
863.24	18707
863.372	18224
863.504	18388
863.636	18205
863.768	18289
863.9	18178
864.032	18300
864.164	18254
864.296	18315
864.428	18285
864.559	18323
864.691	18357
864.823	18342
864.954	18292
865.086	18311
865.217	18197
865.349	18152
865.48	18205
865.612	18213
865.743	18418
865.875	18216
866.006	18205
866.137	18216
866.269	18163
866.4	18140
866.531	18220
866.662	17999
866.793	18155
866.924	18178
867.055	18125
867.186	18194
867.317	18220
867.448	18171
867.579	18159
867.71	18152
867.841	18140
867.972	18262
868.103	18140
868.233	18239
868.364	18285
868.495	18369
868.625	18471
868.756	18464
868.886	18395
869.017	18365
869.147	18544
869.278	18350
869.408	18384
869.539	18350
869.669	18528
869.799	18460
869.929	18498
870.06	18486
870.19	18825
870.32	18707
870.45	18745
870.58	18814
870.71	18901
870.84	18939
870.97	18768
871.1	18859
871.23	19084
871.36	18977
871.489	18970
871.619	18935
871.749	19019
871.879	19069
872.008	19141
872.138	19084
872.267	18993
872.397	18916
872.526	18840
872.656	18700
872.785	18954
872.915	19042
873.044	19152
873.173	18989
873.303	19050
873.432	19103
873.561	19114
873.69	19072
873.819	19034
873.948	19099
874.077	19053
874.206	18932
874.335	19042
874.464	19217
874.593	19285
874.722	19278
874.851	19285
874.979	19289
875.108	19327
875.237	19270
875.365	19316
875.494	19183
875.623	19472
875.751	19289
875.88	19384
876.008	19613
876.136	19483
876.265	19700
876.393	19986
876.521	19635
876.65	19811
876.778	19731
876.906	19772
877.034	19613
877.162	19795
877.29	19620
877.418	19685
877.546	19746
877.674	19689
877.802	19765
877.93	19666
878.058	19594
878.185	19666
878.313	19700
878.441	19700
878.568	19540
878.696	19700
878.824	19727
878.951	19868
879.079	19974
879.206	20043
879.333	19940
879.461	19765
879.588	19898
879.715	19830
879.842	20065
879.97	19868
880.097	19578
880.224	19491
880.351	19601
880.478	19548
880.605	19613
880.732	19460
880.859	19727
880.986	19548
881.112	19609
881.239	19472
881.366	19331
881.493	19217
881.619	19240
881.746	19175
881.872	19247
881.999	19095
882.125	19099
882.252	19175
882.378	19164
882.505	19240
882.631	19061
882.757	19019
882.883	19095
883.01	18985
883.136	18901
883.262	18791
883.388	18837
883.514	18878
883.64	18958
883.766	18905
883.892	18738
884.018	18791
884.143	18901
884.269	19023
884.395	18677
884.52	18525
884.646	18791
884.772	18509
884.897	18498
885.023	18612
885.148	18840
885.274	18787
885.399	18681
885.524	18616
885.65	18601
885.775	18631
885.9	18578
886.025	18654
886.15	18650
886.275	18654
886.4	18517
886.525	18464
886.65	18525
886.775	18426
886.9	18692
887.025	18741
887.149	18506
887.274	18471
887.399	18380
887.523	18391
887.648	18285
887.773	18235
887.897	18357
888.021	18327
888.146	18216
888.27	18479
888.395	18429
888.519	18403
888.643	18418
888.767	18445
888.891	18239
889.015	18125
889.139	18243
889.263	18167
889.387	18304
889.511	18353
889.635	18201
889.759	18197
889.883	18060
890.006	18216
890.13	18167
890.254	18114
890.377	18045
890.501	17969
890.624	17855
890.748	18083
890.871	17893
890.995	17748
891.118	17745
891.241	17851
891.364	17737
891.488	17847
891.611	17771
891.734	17824
891.857	17874
891.98	17893
892.103	17882
892.226	17855
892.349	17710
892.471	17604
892.594	17691
892.717	17855
892.839	17783
892.962	17756
893.085	17794
893.207	17767
893.33	17661
893.452	17691
893.575	17764
893.697	17756
893.819	17821
893.941	18019
894.064	17817
894.186	17627
894.308	17657
894.43	17866
894.552	17882
894.674	17824
894.796	17642
894.918	17707
895.04	17653
895.161	17851
895.283	17611
895.405	17676
895.526	17630
895.648	17832
895.769	17783
895.891	17817
896.012	17802
896.134	17901
896.255	17855
896.376	17813
896.498	17794
896.619	17828
896.74	17794
896.861	17927
896.982	18152
897.103	18251
897.224	18205
897.345	18057
897.466	17973
897.587	17935
897.708	18152
897.828	18064
897.949	17946
898.07	17889
898.19	17999
898.311	18106
898.431	17961
898.552	17977
898.672	18076
898.792	18060
898.913	18060
899.033	17870
899.153	17855
899.273	17691
899.393	17756
899.513	17874
899.633	17802
899.753	17859
899.873	17703
899.993	17824
900.113	17866
900.232	17760
900.352	17714
900.472	17589
900.591	17726
900.711	17615
900.83	17573
900.95	17691
901.069	17722
901.189	17592
901.308	17292
901.427	17204
901.546	17151
901.665	17296
901.784	17258
901.904	17140
902.023	17010
902.141	16790
902.26	16869
902.379	16843
902.498	16786
902.617	16752
902.735	16782
902.854	16694
902.973	16694
903.091	16531
903.21	16440
903.328	16596
903.446	16363
903.565	16333
903.683	16242
903.801	16166
903.919	16204
904.038	16226
904.156	16128
904.274	16215
904.392	16059
904.51	16040
904.627	16048
904.745	16169
904.863	16139
904.981	15930
905.098	15743
905.216	15656
905.334	15861
905.451	15774
905.569	15644
905.686	15717
905.803	15663
905.921	15526
906.038	15637
906.155	15542
906.272	15389
906.389	15488
906.506	15306
906.623	15332
906.74	15268
906.857	15260
906.974	15218
907.091	15382
907.208	15359
907.324	15374
907.441	15241
907.557	15024
907.674	14952
907.79	14979
907.907	14975
908.023	15036
908.139	14979
908.256	14910
908.372	14880
908.488	14807
908.604	14826
908.72	14686
908.836	14720
908.952	14648
909.068	14693
909.184	14830
909.3	14682
909.415	14762
909.531	14678
909.647	14507
909.762	14412
909.878	14438
909.993	14469
910.108	14381
910.224	14374
910.339	14366
910.454	14282
910.57	14301
910.685	14240
910.8	14457
910.915	14343
911.03	14252
911.145	14008
911.259	14046
911.374	14016
911.489	13997
911.604	13936
911.718	13753
911.833	13913
911.947	13712
912.062	13609
912.176	13788
912.291	13700
912.405	13681
912.519	13967
912.633	13928
912.748	13879
912.862	13776
912.976	13639
913.09	13483
913.204	13624
913.318	13681
913.431	13685
913.545	13544
913.659	13833
913.772	13586
913.886	13533
914	13430
914.113	13457
914.226	13605
914.34	13533
914.453	13335
914.566	13533
914.68	13438
914.793	13301
914.906	13187
915.019	13137
915.132	13038
915.245	13099
915.358	13152
915.47	13126
915.583	13168
915.696	13149
915.809	13240
915.921	13346
916.034	13057
916.146	13050
916.259	13152
916.371	13160
916.483	13118
916.595	12928
916.708	12985
916.82	13031
916.932	12928
917.044	12943
917.156	12875
917.268	12867
917.38	12886
917.491	12779
917.603	12863
917.715	12943
917.826	12996
917.938	12840
918.049	12719
918.161	12787
918.272	12867
918.384	13031
918.495	12779
918.606	12654
918.717	12578
918.828	12650
918.939	12684
919.05	12566
919.161	12623
919.272	12433
919.383	12479
919.494	12700
919.604	12833
919.715	12734
919.826	12494
919.936	12486
920.047	12734
920.157	12620
920.267	12779
920.378	12620
920.488	12654
920.598	12768
920.708	12958
920.818	12665
920.928	12749
921.038	12886
921.148	12905
921.258	12559
921.368	12365
921.477	12426
921.587	12399
921.697	12243
921.806	12357
921.916	12247
922.025	12144
922.134	12034
922.244	11958
922.353	12114
922.462	11935
922.571	11920
922.68	11741
922.789	11688
922.898	11752
923.007	11585
923.116	11764
923.224	11691
923.333	11634
923.442	11570
923.55	11570
923.659	11554
923.767	11623
923.876	11474
923.984	11509
924.092	11455
924.201	11505
924.309	11509
924.417	11478
924.525	11444
924.633	11383
924.741	12129
924.849	11284
924.956	11345
925.064	11299
925.172	11204
925.279	11220
925.387	11227
925.494	11265
925.602	11391
925.709	11334
925.816	11140
925.924	11269
926.031	11356
926.138	11261
926.245	11197
926.352	11098
926.459	11250
926.566	11231
926.673	11170
926.779	11033
926.886	10999
926.993	10892
927.099	10828
927.206	10797
927.312	10748
927.419	10858
927.525	10831
927.631	10911
927.737	10801
927.843	10736
927.95	10630
928.056	10729
928.162	10729
928.267	10752
928.373	11383
928.479	10824
928.585	10584
928.69	10664
928.796	10668
928.901	10569
929.007	10516
929.112	10508
929.218	10584
929.323	10500
929.428	10409
929.533	10550
929.638	10447
929.743	10413
929.848	10428
929.953	10436
930.058	10329
930.163	10124
930.267	10177
930.372	10314
930.477	10116
930.581	10386
930.685	10166
930.79	10063
930.894	10029
930.998	10002
931.103	10128
931.207	9865
931.311	9816
931.415	9644
931.519	9561
931.623	9428
