Data from test_V78500241_1359.txt Node
Date: Fri Mar 25 14:43:10 CST 2022
User: usil
Spectrometer: V785-0024
Trigger mode: 0
Integration Time (sec): 4.000000E-1
Scans to average: 1
Nonlinearity correction enabled: false
Boxcar width: 0
Storing dark spectrum: false
XAxis mode: Wavelengths
Number of Pixels in Spectrum: 1024
>>>>>Begin Spectral Data<<<<<
801.071	22398
801.214	22299
801.356	21964
801.499	22017
801.641	21770
801.783	21698
801.926	21797
802.068	21629
802.211	21633
802.353	21526
802.496	21283
802.638	21268
802.78	21226
802.923	21199
803.065	21055
803.208	21058
803.35	21032
803.492	21310
803.635	21283
803.777	21036
803.919	21070
804.061	21466
804.204	21150
804.346	21055
804.488	20857
804.63	21070
804.773	21001
804.915	21077
805.057	21096
805.199	20921
805.341	21116
805.483	21077
805.626	21176
805.768	20994
805.91	21074
806.052	20963
806.194	20967
806.336	21192
806.478	21131
806.62	20956
806.762	21138
806.904	21241
807.046	21477
807.188	21340
807.33	21473
807.472	21466
807.614	21256
807.756	21389
807.898	21302
808.04	21256
808.182	21203
808.324	21256
808.465	21412
808.607	21717
808.749	21698
808.891	21724
809.033	21876
809.174	21736
809.316	21507
809.458	21709
809.6	21504
809.741	21637
809.883	21568
810.025	21747
810.166	21618
810.308	21660
810.45	21515
810.591	21530
810.733	21488
810.875	21214
811.016	21176
811.158	21165
811.299	21329
811.441	21329
811.582	21348
811.724	21230
811.865	21252
812.007	21218
812.148	21195
812.29	21306
812.431	21374
812.573	21553
812.714	21519
812.855	21705
812.997	21945
813.138	22040
813.279	21865
813.421	21800
813.562	21618
813.703	21553
813.845	21355
813.986	21104
814.127	20937
814.268	20838
814.41	20864
814.551	20773
814.692	20781
814.833	20670
814.974	20663
815.115	20750
815.256	20579
815.397	20571
815.539	20514
815.68	20438
815.821	20549
815.962	20564
816.103	20488
816.244	20320
816.385	20267
816.526	20301
816.666	20077
816.807	19906
816.948	19932
817.089	20073
817.23	20111
817.371	19898
817.512	19902
817.653	19856
817.793	19830
817.934	19947
818.075	19955
818.216	20024
818.356	19845
818.497	19700
818.638	19647
818.778	19575
818.919	19559
819.06	19734
819.2	19719
819.341	19776
819.481	19852
819.622	19925
819.762	20134
819.903	20062
820.043	19944
820.184	19913
820.324	19807
820.465	19879
820.605	19940
820.746	19860
820.886	19780
821.026	19875
821.167	19799
821.307	20031
821.447	19883
821.588	19772
821.728	19525
821.868	19506
822.008	19259
822.149	19301
822.289	19228
822.429	19061
822.569	18954
822.709	19053
822.849	18821
822.99	18894
823.13	18776
823.27	18665
823.41	18604
823.55	18578
823.69	18711
823.83	18616
823.97	18506
824.11	18376
824.25	18388
824.389	18369
824.529	18555
824.669	18460
824.809	18608
824.949	18414
825.089	18578
825.228	18433
825.368	18152
825.508	18209
825.648	18053
825.787	18205
825.927	18216
826.067	18186
826.206	18110
826.346	18270
826.485	18167
826.625	18201
826.765	18239
826.904	18152
827.044	17935
827.183	17851
827.323	17790
827.462	18019
827.601	17859
827.741	17908
827.88	17931
828.02	17847
828.159	17843
828.298	17882
828.437	17961
828.577	17923
828.716	17988
828.855	17817
828.994	17680
829.134	17649
829.273	17707
829.412	17474
829.551	17577
829.69	17627
829.829	17676
829.968	17741
830.107	17676
830.246	17699
830.385	17516
830.524	17535
830.663	17383
830.802	17299
830.941	17235
831.08	17147
831.219	17296
831.357	17326
831.496	17516
831.635	17197
831.774	17166
831.913	17109
832.051	17090
832.19	17018
832.329	17037
832.467	17037
832.606	16927
832.744	16938
832.883	16953
833.022	16942
833.16	17045
833.299	17033
833.437	17018
833.576	17136
833.714	17117
833.852	17041
833.991	16999
834.129	17025
834.267	17056
834.406	16976
834.544	16900
834.682	17037
834.821	16987
834.959	17220
835.097	16961
835.235	17029
835.373	17094
835.511	17041
835.65	16968
835.788	16942
835.926	16828
836.064	16702
836.202	16767
836.34	16934
836.478	16953
836.615	16877
836.753	16934
836.891	16927
837.029	16991
837.167	16847
837.305	16828
837.443	16771
837.58	16729
837.718	16740
837.856	16828
837.993	16702
838.131	16668
838.269	16683
838.406	16771
838.544	16561
838.681	16478
838.819	16523
838.956	16310
839.094	16257
839.231	16322
839.369	16417
839.506	16748
839.643	16561
839.781	16390
839.918	16249
840.055	16284
840.193	16333
840.33	16265
840.467	16291
840.604	16314
840.742	16596
840.879	16143
841.016	16257
841.153	16295
841.29	16504
841.427	16215
841.564	16402
841.701	16375
841.838	16204
841.975	16128
842.112	16177
842.249	16135
842.385	16029
842.522	16215
842.659	16101
842.796	16143
842.933	16135
843.069	16063
843.206	15949
843.343	16276
843.479	16158
843.616	16166
843.752	15888
843.889	15876
844.025	16048
844.162	15857
844.298	16017
844.435	15831
844.571	15850
844.708	15865
844.844	16071
844.98	16097
845.117	15960
845.253	15827
845.389	15808
845.525	15831
845.661	15831
845.798	15991
845.934	16143
846.07	15934
846.206	16044
846.342	16086
846.478	15884
846.614	15618
846.75	15450
846.886	15389
847.022	15580
847.158	15443
847.294	15500
847.429	15576
847.565	15332
847.701	15736
847.837	15154
847.972	15180
848.108	15214
848.244	15245
848.379	15097
848.515	15024
848.65	14986
848.786	14963
848.921	14967
849.057	15142
849.192	15218
849.328	15051
849.463	15024
849.598	14914
849.734	15020
849.869	14982
850.004	14807
850.14	14918
850.275	14765
850.41	14667
850.545	14880
850.68	14750
850.815	14819
850.95	14811
851.085	14971
851.22	14929
851.355	14830
851.49	14716
851.625	14826
851.76	14807
851.895	14708
852.03	14663
852.165	14701
852.299	14872
852.434	14769
852.569	14963
852.703	14891
852.838	14887
852.973	15013
853.107	14823
853.242	14762
853.376	14670
853.511	14575
853.645	14651
853.78	14887
853.914	14670
854.048	14678
854.183	14644
854.317	14731
854.451	14807
854.585	14549
854.72	14587
854.854	14644
854.988	14606
855.122	14613
855.256	14507
855.39	14701
855.524	14705
855.658	14678
855.792	14667
855.926	14697
856.06	14667
856.194	14746
856.327	14667
856.461	14590
856.595	14602
856.729	14606
856.862	14746
856.996	14697
857.13	14765
857.263	14781
857.397	14754
857.53	14552
857.664	14716
857.797	14765
857.931	14781
858.064	14697
858.197	14819
858.331	14674
858.464	14629
858.597	14537
858.731	14724
858.864	14640
858.997	14648
859.13	14716
859.263	14644
859.396	14739
859.529	14674
859.662	14545
859.795	14621
859.928	14765
860.061	14746
860.194	14864
860.327	14659
860.46	14648
860.592	14712
860.725	14830
860.858	14807
860.99	14682
861.123	14621
861.256	14492
861.388	14629
861.521	15256
861.653	14484
861.786	14419
861.918	14469
862.05	14594
862.183	14701
862.315	14613
862.447	14769
862.58	14579
862.712	14457
862.844	14328
862.976	14507
863.108	14465
863.24	14872
863.372	14355
863.504	14415
863.636	14427
863.768	14488
863.9	14408
864.032	14408
864.164	14473
864.296	14473
864.428	14587
864.559	14514
864.691	14507
864.823	14469
864.954	14396
865.086	14488
865.217	14492
865.349	14328
865.48	14313
865.612	14446
865.743	14552
865.875	14457
866.006	14362
866.137	14446
866.269	14442
866.4	14370
866.531	14320
866.662	14415
866.793	14328
866.924	14389
867.055	14404
867.186	14362
867.317	14389
867.448	14393
867.579	14419
867.71	14301
867.841	14393
867.972	14317
868.103	14434
868.233	14488
868.364	14385
868.495	14533
868.625	14613
868.756	14826
868.886	14583
869.017	14617
869.147	14701
869.278	14811
869.408	14708
869.539	14587
869.669	14693
869.799	14678
869.929	14823
870.06	14792
870.19	14963
870.32	15028
870.45	15013
870.58	15028
870.71	15161
870.84	15176
870.97	15039
871.1	15036
871.23	15237
871.36	15154
871.489	15169
871.619	15275
871.749	15260
871.879	15241
872.008	15348
872.138	15268
872.267	15283
872.397	15154
872.526	15112
872.656	15047
872.785	15097
872.915	15287
873.044	15348
873.173	15325
873.303	15378
873.432	15348
873.561	15405
873.69	15420
873.819	15340
873.948	15256
874.077	15344
874.206	15363
874.335	15302
874.464	15534
874.593	15614
874.722	15603
874.851	15606
874.979	15671
875.108	15648
875.237	15515
875.365	15568
875.494	15538
875.623	15671
875.751	15599
875.88	15705
876.008	15831
876.136	15888
876.265	16162
876.393	16173
876.521	16044
876.65	16074
876.778	16040
876.906	16032
877.034	16002
877.162	16078
877.29	16013
877.418	16074
877.546	16071
877.674	16143
877.802	16029
877.93	16090
878.058	15983
878.185	15854
878.313	16006
878.441	15983
878.568	15983
878.696	15968
878.824	16116
878.951	16166
879.079	16223
879.206	16382
879.333	16352
879.461	16306
879.588	16367
879.715	16299
879.842	16436
879.97	16284
880.097	15964
880.224	15994
880.351	15895
880.478	15911
880.605	15918
880.732	15876
880.859	16192
880.986	15918
881.112	15960
881.239	15819
881.366	15804
881.493	15629
881.619	15545
881.746	15614
881.872	15492
881.999	15587
882.125	15542
882.252	15641
882.378	15545
882.505	15732
882.631	15511
882.757	15329
882.883	15439
883.01	15370
883.136	15329
883.262	15260
883.388	15363
883.514	15329
883.64	15408
883.766	15317
883.892	15260
884.018	15283
884.143	15294
884.269	15397
884.395	15214
884.52	15081
884.646	15089
884.772	15020
884.897	15043
885.023	15066
885.148	15135
885.274	15211
885.399	15188
885.524	15150
885.65	15070
885.775	15138
885.9	15131
886.025	15291
886.15	15077
886.275	15039
886.4	14998
886.525	15020
886.65	14967
886.775	14986
886.9	15222
887.025	15313
887.149	15085
887.274	14838
887.399	14853
887.523	14739
887.648	14800
887.773	14842
887.897	14975
888.021	14914
888.146	14819
888.27	14921
888.395	14979
888.519	14998
888.643	14925
888.767	15032
888.891	14823
889.015	14727
889.139	14807
889.263	14663
889.387	14788
889.511	14948
889.635	14895
889.759	14629
889.883	14689
890.006	14743
890.13	14754
890.254	14632
890.377	14659
890.501	14541
890.624	14526
890.748	14705
890.871	14488
890.995	14385
891.118	14347
891.241	14374
891.364	14423
891.488	14552
891.611	14454
891.734	14457
891.857	14507
891.98	14400
892.103	14381
892.226	14522
892.349	14396
892.471	14366
892.594	14454
892.717	14423
892.839	14221
892.962	14434
893.085	14454
893.207	14461
893.33	14263
893.452	14381
893.575	14377
893.697	14431
893.819	14488
893.941	14587
894.064	14488
894.186	14351
894.308	14385
894.43	14537
894.552	14617
894.674	14560
894.796	14404
894.918	14598
895.04	14393
895.161	14560
895.283	14530
895.405	14476
895.526	14469
895.648	14461
895.769	14560
895.891	14507
896.012	14640
896.134	14636
896.255	14587
896.376	14480
896.498	14537
896.619	14648
896.74	14533
896.861	14731
896.982	14971
897.103	15055
897.224	14910
897.345	14880
897.466	14811
897.587	14887
897.708	15009
897.828	14960
897.949	14804
898.07	14659
898.19	14838
898.311	14979
898.431	14792
898.552	14887
898.672	14971
898.792	15032
898.913	15024
899.033	14864
899.153	14804
899.273	14720
899.393	14735
899.513	14769
899.633	14765
899.753	14720
899.873	14667
899.993	14773
900.113	14777
900.232	14788
900.352	14754
900.472	14705
900.591	14613
900.711	14659
900.83	14587
900.95	14617
901.069	14724
901.189	14594
901.308	14271
901.427	14237
901.546	14324
901.665	14381
901.784	14320
901.904	14115
902.023	14081
902.141	13986
902.26	13894
902.379	14031
902.498	13883
902.617	13845
902.735	13940
902.854	13932
902.973	13795
903.091	13533
903.21	13544
903.328	13624
903.446	13571
903.565	13373
903.683	13491
903.801	13266
903.919	13324
904.038	13460
904.156	13072
904.274	13350
904.392	13259
904.51	13168
904.627	13190
904.745	13324
904.863	13373
904.981	13107
905.098	12924
905.216	12913
905.334	12989
905.451	12981
905.569	12886
905.686	13027
905.803	12928
905.921	12844
906.038	12844
906.155	12787
906.272	12658
906.389	12597
906.506	12551
906.623	12612
906.74	12407
906.857	12429
906.974	12399
907.091	12513
907.208	12559
907.324	12517
907.441	12384
907.557	12247
907.674	12266
907.79	12205
907.907	12205
908.023	12254
908.139	12254
908.256	12175
908.372	12175
908.488	12213
908.604	12007
908.72	12053
908.836	12015
908.952	12041
909.068	12026
909.184	12098
909.3	12019
909.415	12053
909.531	12034
909.647	11786
909.762	11779
909.878	11783
909.993	11980
910.108	11874
910.224	11707
910.339	11764
910.454	11707
910.57	11646
910.685	11566
910.8	11843
910.915	11805
911.03	11729
911.145	11509
911.259	11429
911.374	11364
911.489	11429
911.604	11353
911.718	11303
911.833	11292
911.947	11227
912.062	11056
912.176	11067
912.291	11292
912.405	11216
912.519	11417
912.633	11486
912.748	11307
912.862	11261
912.976	11083
913.09	10991
913.204	10980
913.318	11162
913.431	11254
913.545	11193
913.659	11246
913.772	11128
913.886	10934
914	11003
914.113	11140
914.226	11067
914.34	11060
914.453	10862
914.566	11098
914.68	10923
914.793	10915
914.906	10782
915.019	10668
915.132	10588
915.245	10793
915.358	10801
915.47	10744
915.583	10782
915.696	10744
915.809	10835
915.921	10831
916.034	10706
916.146	10637
916.259	10660
916.371	10854
916.483	10729
916.595	10592
916.708	10668
916.82	10660
916.932	10675
917.044	10573
917.156	10630
917.268	10489
917.38	10527
917.491	10516
917.603	10618
917.715	10656
917.826	10691
917.938	10538
918.049	10523
918.161	10538
918.272	10771
918.384	10592
918.495	10592
918.606	10413
918.717	10402
918.828	10455
918.939	10542
919.05	10344
919.161	10371
919.272	10215
919.383	10287
919.494	10440
919.604	10561
919.715	10508
919.826	10310
919.936	10440
920.047	10440
920.157	10500
920.267	10634
920.378	10584
920.488	10405
920.598	10649
920.708	10805
920.818	10618
920.928	10592
921.038	10763
921.148	10778
921.258	10462
921.368	10382
921.477	10272
921.587	10276
921.697	10211
921.806	10242
921.916	10128
922.025	10036
922.134	10017
922.244	9941
922.353	10044
922.462	9812
922.571	9869
922.68	9682
922.789	9694
922.898	9667
923.007	9663
923.116	9694
923.224	9679
923.333	9618
923.442	9553
923.55	9584
923.659	9553
923.767	9690
923.876	9500
923.984	9629
924.092	9443
924.201	9530
924.309	9553
924.417	9519
924.525	9481
924.633	9466
924.741	10462
924.849	9268
924.956	9435
925.064	9332
925.172	9256
925.279	9237
925.387	9294
925.494	9275
925.602	9473
925.709	9298
925.816	9329
925.924	9283
926.031	9405
926.138	9317
926.245	9348
926.352	9260
926.459	9332
926.566	9477
926.673	9211
926.779	9203
926.886	9230
926.993	9074
927.099	8937
927.206	8941
927.312	8952
927.419	9051
927.525	8967
927.631	8994
927.737	8914
927.843	8876
927.95	8788
928.056	8944
928.162	8902
928.267	8876
928.373	9591
928.479	8967
928.585	8758
928.69	8910
928.796	8979
928.901	8796
929.007	8689
929.112	8807
929.218	8762
929.323	8792
929.428	8701
929.533	8925
929.638	8697
929.743	8655
929.848	8754
929.953	8731
930.058	8571
930.163	8419
930.267	8549
930.372	8636
930.477	8511
930.581	8712
930.685	8575
930.79	8446
930.894	8446
930.998	8454
931.103	8568
931.207	8229
931.311	8164
931.415	8111
931.519	7913
931.623	7947
