Data from test_V78500241_2032.txt Node
Date: Fri Mar 25 14:47:51 CST 2022
User: usil
Spectrometer: V785-0024
Trigger mode: 0
Integration Time (sec): 4.000000E-1
Scans to average: 1
Nonlinearity correction enabled: false
Boxcar width: 0
Storing dark spectrum: false
XAxis mode: Wavelengths
Number of Pixels in Spectrum: 1024
>>>>>Begin Spectral Data<<<<<
801.071	22120
801.214	22078
801.356	21762
801.499	21671
801.641	21526
801.783	21526
801.926	21450
802.068	21416
802.211	21344
802.353	21279
802.496	21020
802.638	20880
802.78	20941
802.923	20956
803.065	20689
803.208	20781
803.35	20876
803.492	20834
803.635	20918
803.777	20800
803.919	20807
804.061	21199
804.204	20815
804.346	20731
804.488	20678
804.63	20746
804.773	20648
804.915	20712
805.057	20701
805.199	20754
805.341	20750
805.483	20823
805.626	20716
805.768	20678
805.91	20746
806.052	20796
806.194	20667
806.336	20834
806.478	20693
806.62	20678
806.762	20887
806.904	20948
807.046	21142
807.188	21112
807.33	21001
807.472	21047
807.614	20918
807.756	20937
807.898	20861
808.04	20727
808.182	20670
808.324	20853
808.465	20819
808.607	20990
808.749	21142
808.891	21230
809.033	21329
809.174	21165
809.316	21005
809.458	21108
809.6	21169
809.741	21154
809.883	21188
810.025	21298
810.166	21294
810.308	21214
810.45	21329
810.591	21146
810.733	20982
810.875	20967
811.016	20777
811.158	20727
811.299	20941
811.441	21005
811.582	20941
811.724	20880
811.865	20876
812.007	20807
812.148	20899
812.29	20986
812.431	21020
812.573	21131
812.714	21287
812.855	21401
812.997	21553
813.138	21561
813.279	21458
813.421	21348
813.562	21332
813.703	21123
813.845	21036
813.986	20914
814.127	20533
814.268	20389
814.41	20473
814.551	20450
814.692	20571
814.833	20309
814.974	20419
815.115	20419
815.256	20218
815.397	20218
815.539	20358
815.68	20187
815.821	20107
815.962	20233
816.103	20069
816.244	19989
816.385	19959
816.526	19830
816.666	19677
816.807	19605
816.948	19616
817.089	19689
817.23	19518
817.371	19529
817.512	19533
817.653	19499
817.793	19559
817.934	19533
818.075	19586
818.216	19601
818.356	19491
818.497	19297
818.638	19148
818.778	19324
818.919	19282
819.06	19263
819.2	19331
819.341	19491
819.481	19449
819.622	19582
819.762	19677
819.903	19662
820.043	19662
820.184	19597
820.324	19548
820.465	19632
820.605	19605
820.746	19510
820.886	19270
821.026	19400
821.167	19480
821.307	19476
821.447	19449
821.588	19285
821.728	19263
821.868	19069
822.008	18970
822.149	19023
822.289	18943
822.429	18642
822.569	18627
822.709	18593
822.849	18483
822.99	18464
823.13	18555
823.27	18429
823.41	18380
823.55	18121
823.69	18254
823.83	18270
823.97	18152
824.11	18011
824.25	17923
824.389	17939
824.529	18098
824.669	18049
824.809	18163
824.949	18136
825.089	18136
825.228	18083
825.368	17843
825.508	17779
825.648	17775
825.787	17923
825.927	17821
826.067	17676
826.206	17707
826.346	17809
826.485	17817
826.625	17767
826.765	17950
826.904	17760
827.044	17585
827.183	17532
827.323	17482
827.462	17512
827.601	17524
827.741	17497
827.88	17573
828.02	17284
828.159	17493
828.298	17573
828.437	17528
828.577	17421
828.716	17547
828.855	17414
828.994	17353
829.134	17368
829.273	17258
829.412	17181
829.551	17220
829.69	17132
829.829	17265
829.968	17337
830.107	17277
830.246	17181
830.385	17155
830.524	17048
830.663	17117
830.802	16957
830.941	16881
831.08	16725
831.219	16911
831.357	16801
831.496	16946
831.635	16881
831.774	16790
831.913	16721
832.051	16672
832.19	16687
832.329	16653
832.467	16660
832.606	16508
832.744	16489
832.883	16558
833.022	16554
833.16	16550
833.299	16546
833.437	16554
833.576	16634
833.714	16523
833.852	16713
833.991	16774
834.129	16713
834.267	16691
834.406	16653
834.544	16725
834.682	16577
834.821	16759
834.959	16740
835.097	16546
835.235	16710
835.373	16599
835.511	16672
835.65	16569
835.788	16451
835.926	16375
836.064	16257
836.202	16341
836.34	16561
836.478	16660
836.615	16474
836.753	16538
836.891	16542
837.029	16394
837.167	16417
837.305	16337
837.443	16413
837.58	16375
837.718	16440
837.856	16421
837.993	16291
838.131	16398
838.269	16276
838.406	16390
838.544	16215
838.681	16147
838.819	15972
838.956	15949
839.094	15998
839.231	15907
839.369	16093
839.506	16348
839.643	16211
839.781	15960
839.918	15842
840.055	15994
840.193	15922
840.33	15926
840.467	15956
840.604	15972
840.742	16135
840.879	15808
841.016	15865
841.153	15797
841.29	15975
841.427	15964
841.564	15934
841.701	15953
841.838	15808
841.975	15869
842.112	15854
842.249	15755
842.385	15644
842.522	15850
842.659	15671
842.796	15682
842.933	15694
843.069	15618
843.206	15648
843.343	15797
843.479	15641
843.616	15766
843.752	15511
843.889	15504
844.025	15561
844.162	15416
844.298	15561
844.435	15496
844.571	15492
844.708	15629
844.844	15739
844.98	15720
845.117	15637
845.253	15378
845.389	15530
845.525	15428
845.661	15401
845.798	15306
845.934	15420
846.07	15302
846.206	15378
846.342	15401
846.478	15275
846.614	15165
846.75	15135
846.886	15081
847.022	15195
847.158	15074
847.294	14990
847.429	15017
847.565	15055
847.701	15317
847.837	14887
847.972	14773
848.108	14910
848.244	14975
848.379	14697
848.515	14674
848.65	14598
848.786	14640
848.921	14610
849.057	14815
849.192	14788
849.328	14750
849.463	14743
849.598	14682
849.734	14629
849.869	14571
850.004	14480
850.14	14358
850.275	14480
850.41	14408
850.545	14465
850.68	14358
850.815	14404
850.95	14400
851.085	14648
851.22	14568
851.355	14457
851.49	14450
851.625	14332
851.76	14446
851.895	14377
852.03	14347
852.165	14423
852.299	14454
852.434	14602
852.569	14476
852.703	14480
852.838	14476
852.973	14636
853.107	14476
853.242	14362
853.376	14434
853.511	14176
853.645	14339
853.78	14423
853.914	14355
854.048	14309
854.183	14278
854.317	14324
854.451	14450
854.585	14324
854.72	14259
854.854	14347
854.988	14218
855.122	14309
855.256	14275
855.39	14278
855.524	14423
855.658	14343
855.792	14332
855.926	14457
856.06	14317
856.194	14332
856.327	14271
856.461	14271
856.595	14305
856.729	14282
856.862	14415
856.996	14374
857.13	14465
857.263	14332
857.397	14355
857.53	14267
857.664	14393
857.797	14419
857.931	14473
858.064	14400
858.197	14309
858.331	14355
858.464	14286
858.597	14240
858.731	14404
858.864	14244
858.997	14305
859.13	14343
859.263	14324
859.396	14385
859.529	14221
859.662	14324
859.795	14309
859.928	14225
860.061	14396
860.194	14423
860.327	14351
860.46	14377
860.592	14434
860.725	14480
860.858	14377
860.99	14332
861.123	14191
861.256	14202
861.388	14336
861.521	14979
861.653	14142
861.786	14172
861.918	14130
862.05	14290
862.183	14206
862.315	14290
862.447	14309
862.58	14233
862.712	14111
862.844	14088
862.976	14172
863.108	14123
863.24	14450
863.372	14027
863.504	14103
863.636	13959
863.768	14153
863.9	14050
864.032	14050
864.164	14043
864.296	14073
864.428	14187
864.559	14149
864.691	14149
864.823	14206
864.954	14157
865.086	14130
865.217	14050
865.349	13989
865.48	14115
865.612	14084
865.743	14172
865.875	14069
866.006	13978
866.137	14107
866.269	14134
866.4	14096
866.531	14016
866.662	14024
866.793	13982
866.924	14054
867.055	14031
867.186	14031
867.317	14031
867.448	14054
867.579	14088
867.71	14043
867.841	14084
867.972	14001
868.103	14138
868.233	14130
868.364	14100
868.495	14168
868.625	14336
868.756	14412
868.886	14187
869.017	14332
869.147	14457
869.278	14415
869.408	14389
869.539	14320
869.669	14412
869.799	14385
869.929	14465
870.06	14480
870.19	14689
870.32	14579
870.45	14727
870.58	14670
870.71	14811
870.84	14804
870.97	14758
871.1	14758
871.23	14872
871.36	14876
871.489	14853
871.619	14849
871.749	14872
871.879	14963
872.008	15154
872.138	14902
872.267	14948
872.397	14830
872.526	14792
872.656	14663
872.785	14708
872.915	14929
873.044	15097
873.173	15005
873.303	14994
873.432	15043
873.561	15150
873.69	14925
873.819	14933
873.948	15055
874.077	15043
874.206	14963
874.335	14975
874.464	15157
874.593	15298
874.722	15260
874.851	15310
874.979	15317
875.108	15329
875.237	15260
875.365	15260
875.494	15241
875.623	15313
875.751	15233
875.88	15287
876.008	15485
876.136	15557
876.265	15652
876.393	15774
876.521	15789
876.65	15747
876.778	15679
876.906	15633
877.034	15663
877.162	15694
877.29	15656
877.418	15717
877.546	15743
877.674	15622
877.802	15633
877.93	15705
878.058	15584
878.185	15553
878.313	15625
878.441	15705
878.568	15564
878.696	15637
878.824	15751
878.951	15724
879.079	15903
879.206	16059
879.333	15907
879.461	15781
879.588	15816
879.715	15884
879.842	16036
879.97	15759
880.097	15656
880.224	15564
880.351	15629
880.478	15462
880.605	15488
880.732	15629
880.859	15819
880.986	15629
881.112	15530
881.239	15473
881.366	15214
881.493	15275
881.619	15218
881.746	15245
881.872	15260
881.999	15207
882.125	15131
882.252	15218
882.378	15222
882.505	15408
882.631	15222
882.757	15081
882.883	15112
883.01	15032
883.136	14902
883.262	14914
883.388	14804
883.514	15043
883.64	15028
883.766	14975
883.892	14899
884.018	14925
884.143	15047
884.269	15127
884.395	14807
884.52	14693
884.646	14735
884.772	14629
884.897	14682
885.023	14697
885.148	14807
885.274	14887
885.399	14895
885.524	14716
885.65	14640
885.775	14724
885.9	14807
886.025	14944
886.15	14765
886.275	14769
886.4	14613
886.525	14621
886.65	14693
886.775	14735
886.9	14849
887.025	15009
887.149	14811
887.274	14610
887.399	14514
887.523	14610
887.648	14461
887.773	14377
887.897	14594
888.021	14579
888.146	14446
888.27	14632
888.395	14708
888.519	14648
888.643	14541
888.767	14617
888.891	14530
889.015	14484
889.139	14400
889.263	14427
889.387	14473
889.511	14583
889.635	14556
889.759	14343
889.883	14461
890.006	14431
890.13	14438
890.254	14408
890.377	14339
890.501	14256
890.624	14183
890.748	14206
890.871	14149
890.995	14096
891.118	14065
891.241	14088
891.364	14107
891.488	14145
891.611	14123
891.734	14199
891.857	14103
891.98	14195
892.103	14263
892.226	14187
892.349	14043
892.471	13947
892.594	14103
892.717	14130
892.839	14153
892.962	14134
893.085	14218
893.207	14111
893.33	14092
893.452	14024
893.575	14161
893.697	14149
893.819	14305
893.941	14336
894.064	14214
894.186	14100
894.308	14115
894.43	14256
894.552	14336
894.674	14332
894.796	14107
894.918	14161
895.04	14073
895.161	14278
895.283	14248
895.405	14092
895.526	14176
895.648	14313
895.769	14218
895.891	14298
896.012	14320
896.134	14343
896.255	14309
896.376	14332
896.498	14275
896.619	14324
896.74	14381
896.861	14374
896.982	14594
897.103	14781
897.224	14549
897.345	14571
897.466	14374
897.587	14590
897.708	14724
897.828	14674
897.949	14507
898.07	14415
898.19	14568
898.311	14644
898.431	14514
898.552	14571
898.672	14701
898.792	14701
898.913	14705
899.033	14518
899.153	14514
899.273	14438
899.393	14412
899.513	14484
899.633	14480
899.753	14533
899.873	14473
899.993	14568
900.113	14396
900.232	14514
900.352	14533
900.472	14396
900.591	14324
900.711	14374
900.83	14271
900.95	14503
901.069	14358
901.189	14324
901.308	14157
901.427	14088
901.546	14081
901.665	14020
901.784	13986
901.904	14020
902.023	13791
902.141	13704
902.26	13601
902.379	13757
902.498	13601
902.617	13521
902.735	13658
902.854	13636
902.973	13510
903.091	13259
903.21	13308
903.328	13289
903.446	13297
903.565	13141
903.683	13164
903.801	13019
903.919	13088
904.038	13129
904.156	12970
904.274	13110
904.392	13061
904.51	12977
904.627	12916
904.745	12996
904.863	13080
904.981	12783
905.098	12738
905.216	12776
905.334	12700
905.451	12688
905.569	12642
905.686	12730
905.803	12700
905.921	12441
906.038	12585
906.155	12547
906.272	12380
906.389	12410
906.506	12285
906.623	12330
906.74	12327
906.857	12167
906.974	12106
907.091	12353
907.208	12399
907.324	12277
907.441	12114
907.557	11999
907.674	11946
907.79	11954
907.907	11988
908.023	12026
908.139	12076
908.256	11954
908.372	11904
908.488	12007
908.604	11779
908.72	11760
908.836	11771
908.952	11760
909.068	11786
909.184	11904
909.3	11745
909.415	11874
909.531	11813
909.647	11566
909.762	11570
909.878	11520
909.993	11570
910.108	11539
910.224	11532
910.339	11490
910.454	11467
910.57	11455
910.685	11284
910.8	11634
910.915	11623
911.03	11398
911.145	11280
911.259	11368
911.374	11254
911.489	11212
911.604	11121
911.718	10991
911.833	11033
911.947	10908
912.062	10820
912.176	11033
912.291	10961
912.405	10995
912.519	11242
912.633	11246
912.748	11090
912.862	11014
912.976	10904
913.09	10790
913.204	10782
913.318	10927
913.431	10961
913.545	10900
913.659	11010
913.772	10889
913.886	10816
914	10797
914.113	10869
914.226	10900
914.34	10820
914.453	10710
914.566	10858
914.68	10664
914.793	10626
914.906	10558
915.019	10485
915.132	10432
915.245	10535
915.358	10542
915.47	10512
915.583	10538
915.696	10565
915.809	10637
915.921	10717
916.034	10474
916.146	10512
916.259	10390
916.371	10527
916.483	10489
916.595	10337
916.708	10538
916.82	10443
916.932	10459
917.044	10424
917.156	10478
917.268	10303
917.38	10306
917.491	10322
917.603	10363
917.715	10371
917.826	10519
917.938	10356
918.049	10215
918.161	10382
918.272	10451
918.384	10497
918.495	10443
918.606	10230
918.717	10120
918.828	10227
918.939	10268
919.05	10150
919.161	10192
919.272	10044
919.383	10105
919.494	10238
919.604	10390
919.715	10246
919.826	10105
919.936	10215
920.047	10249
920.157	10287
920.267	10367
920.378	10322
920.488	10219
920.598	10398
920.708	10500
920.818	10554
920.928	10424
921.038	10637
921.148	10592
921.258	10299
921.368	10188
921.477	10013
921.587	10013
921.697	9987
921.806	10032
921.916	9918
922.025	9812
922.134	9774
922.244	9827
922.353	9743
922.462	9709
922.571	9660
922.68	9492
922.789	9431
922.898	9545
923.007	9443
923.116	9584
923.224	9473
923.333	9477
923.442	9401
923.55	9310
923.659	9408
923.767	9447
923.876	9321
923.984	9439
924.092	9329
924.201	9367
924.309	9317
924.417	9359
924.525	9329
924.633	9264
924.741	10242
924.849	9169
924.956	9268
925.064	9123
925.172	9066
925.279	9039
925.387	9142
925.494	9173
925.602	9253
925.709	9199
925.816	9131
925.924	9184
926.031	9226
926.138	9135
926.245	9165
926.352	9013
926.459	9184
926.566	9199
926.673	9173
926.779	9001
926.886	8902
926.993	8838
927.099	8823
927.206	8883
927.312	8796
927.419	8876
927.525	8941
927.631	8902
927.737	8842
927.843	8739
927.95	8640
928.056	8731
928.162	8769
928.267	8800
928.373	9462
928.479	8887
928.585	8613
928.69	8750
928.796	8777
928.901	8712
929.007	8571
929.112	8682
929.218	8655
929.323	8610
929.428	8545
929.533	8724
929.638	8499
929.743	8602
929.848	8560
929.953	8549
930.058	8533
930.163	8423
930.267	8355
930.372	8469
930.477	8301
930.581	8507
930.685	8419
930.79	8279
930.894	8290
930.998	8210
931.103	8343
931.207	8096
931.311	8035
931.415	8016
931.519	7807
931.623	7795
