Data from test_V78500241_1460.txt Node
Date: Fri Mar 25 14:43:52 CST 2022
User: usil
Spectrometer: V785-0024
Trigger mode: 0
Integration Time (sec): 4.000000E-1
Scans to average: 1
Nonlinearity correction enabled: false
Boxcar width: 0
Storing dark spectrum: false
XAxis mode: Wavelengths
Number of Pixels in Spectrum: 1024
>>>>>Begin Spectral Data<<<<<
801.071	22424
801.214	22402
801.356	22162
801.499	21983
801.641	21884
801.783	21743
801.926	21785
802.068	21793
802.211	21679
802.353	21511
802.496	21389
802.638	21428
802.78	21298
802.923	21192
803.065	21100
803.208	21161
803.35	21184
803.492	21252
803.635	21226
803.777	21089
803.919	21237
804.061	21523
804.204	21150
804.346	21180
804.488	20941
804.63	20998
804.773	20963
804.915	21188
805.057	21180
805.199	21195
805.341	21024
805.483	21214
805.626	21157
805.768	21013
805.91	21005
806.052	21074
806.194	20986
806.336	21241
806.478	21135
806.62	21116
806.762	21112
806.904	21249
807.046	21534
807.188	21466
807.33	21435
807.472	21526
807.614	21420
807.756	21332
807.898	21283
808.04	21203
808.182	21363
808.324	21272
808.465	21359
808.607	21500
808.749	21774
808.891	21793
809.033	21869
809.174	21675
809.316	21625
809.458	21701
809.6	21542
809.741	21599
809.883	21751
810.025	21846
810.166	21759
810.308	21633
810.45	21660
810.591	21485
810.733	21291
810.875	21382
811.016	21226
811.158	21192
811.299	21287
811.441	21424
811.582	21340
811.724	21408
811.865	21104
812.007	21142
812.148	21176
812.29	21306
812.431	21348
812.573	21568
812.714	21606
812.855	21717
812.997	21808
813.138	21876
813.279	21789
813.421	21686
813.562	21747
813.703	21538
813.845	21481
813.986	21123
814.127	20887
814.268	20883
814.41	20899
814.551	20773
814.692	20914
814.833	20773
814.974	20659
815.115	20697
815.256	20750
815.397	20549
815.539	20594
815.68	20575
815.821	20484
815.962	20450
816.103	20427
816.244	20259
816.385	20313
816.526	20396
816.666	20088
816.807	19936
816.948	20039
817.089	20001
817.23	19947
817.371	19913
817.512	19890
817.653	20054
817.793	19841
817.934	19944
818.075	19947
818.216	19890
818.356	19913
818.497	19746
818.638	19556
818.778	19499
818.919	19540
819.06	19658
819.2	19738
819.341	19822
819.481	19826
819.622	19963
819.762	20103
819.903	20161
820.043	19928
820.184	19742
820.324	19871
820.465	20111
820.605	19928
820.746	19864
820.886	19868
821.026	19909
821.167	19887
821.307	19906
821.447	19860
821.588	19662
821.728	19620
821.868	19457
822.008	19377
822.149	19373
822.289	19202
822.429	19038
822.569	19050
822.709	18966
822.849	18768
822.99	18760
823.13	18646
823.27	18684
823.41	18734
823.55	18517
823.69	18646
823.83	18646
823.97	18574
824.11	18315
824.25	18407
824.389	18388
824.529	18460
824.669	18414
824.809	18513
824.949	18551
825.089	18479
825.228	18456
825.368	18201
825.508	18197
825.648	18186
825.787	18243
825.927	18133
826.067	18079
826.206	18247
826.346	18216
826.485	18243
826.625	18159
826.765	18285
826.904	18213
827.044	17878
827.183	17882
827.323	17748
827.462	17908
827.601	17840
827.741	17809
827.88	17916
828.02	17783
828.159	17771
828.298	17912
828.437	17923
828.577	17874
828.716	17965
828.855	17843
828.994	17642
829.134	17619
829.273	17684
829.412	17634
829.551	17414
829.69	17532
829.829	17600
829.968	17764
830.107	17699
830.246	17714
830.385	17589
830.524	17505
830.663	17395
830.802	17356
830.941	17216
831.08	17265
831.219	17242
831.357	17239
831.496	17429
831.635	17090
831.774	17094
831.913	17181
832.051	17033
832.19	16927
832.329	17022
832.467	16995
832.606	16812
832.744	16892
832.883	16900
833.022	16923
833.16	16953
833.299	17010
833.437	17041
833.576	17022
833.714	16881
833.852	16934
833.991	17037
834.129	17166
834.267	16911
834.406	16976
834.544	17041
834.682	17010
834.821	16904
834.959	17105
835.097	16835
835.235	16965
835.373	16972
835.511	17037
835.65	16847
835.788	16824
835.926	16702
836.064	16691
836.202	16675
836.34	16839
836.478	16919
836.615	16740
836.753	16858
836.891	16908
837.029	16938
837.167	16797
837.305	16835
837.443	16778
837.58	16805
837.718	16744
837.856	16740
837.993	16721
838.131	16641
838.269	16710
838.406	16725
838.544	16668
838.681	16390
838.819	16405
838.956	16295
839.094	16253
839.231	16371
839.369	16337
839.506	16630
839.643	16512
839.781	16261
839.918	16147
840.055	16310
840.193	16291
840.33	16181
840.467	16234
840.604	16249
840.742	16478
840.879	16090
841.016	16185
841.153	16128
841.29	16280
841.427	16246
841.564	16158
841.701	16226
841.838	16166
841.975	16112
842.112	16166
842.249	16055
842.385	16124
842.522	16215
842.659	15964
842.796	16010
842.933	16128
843.069	15949
843.206	16105
843.343	16074
843.479	16021
843.616	16044
843.752	15785
843.889	15850
844.025	15922
844.162	15793
844.298	15934
844.435	15831
844.571	15724
844.708	15869
844.844	15945
844.98	15895
845.117	15873
845.253	15743
845.389	15759
845.525	15793
845.661	15823
845.798	15743
845.934	15861
846.07	15835
846.206	15975
846.342	15956
846.478	15842
846.614	15538
846.75	15435
846.886	15363
847.022	15500
847.158	15481
847.294	15321
847.429	15416
847.565	15393
847.701	15492
847.837	15165
847.972	15005
848.108	15291
848.244	15131
848.379	15024
848.515	15017
848.65	14937
848.786	15001
848.921	14944
849.057	15108
849.192	15020
849.328	15009
849.463	14956
849.598	14963
849.734	14895
849.869	14842
850.004	14838
850.14	14781
850.275	14868
850.41	14701
850.545	14640
850.68	14743
850.815	14750
850.95	14746
851.085	14902
851.22	14971
851.355	14769
851.49	14708
851.625	14735
851.76	14724
851.895	14625
852.03	14667
852.165	14727
852.299	14762
852.434	14804
852.569	14819
852.703	14769
852.838	14823
852.973	14838
853.107	14750
853.242	14739
853.376	14594
853.511	14514
853.645	14571
853.78	14731
853.914	14636
854.048	14644
854.183	14613
854.317	14606
854.451	14758
854.585	14625
854.72	14571
854.854	14682
854.988	14621
855.122	14571
855.256	14461
855.39	14659
855.524	14579
855.658	14648
855.792	14632
855.926	14697
856.06	14648
856.194	14716
856.327	14606
856.461	14545
856.595	14648
856.729	14571
856.862	14743
856.996	14606
857.13	14663
857.263	14663
857.397	14746
857.53	14598
857.664	14705
857.797	14716
857.931	14724
858.064	14667
858.197	14697
858.331	14590
858.464	14590
858.597	14503
858.731	14689
858.864	14625
858.997	14541
859.13	14678
859.263	14682
859.396	14693
859.529	14575
859.662	14541
859.795	14507
859.928	14663
860.061	14796
860.194	14769
860.327	14655
860.46	14514
860.592	14587
860.725	14678
860.858	14678
860.99	14552
861.123	14480
861.256	14537
861.388	14617
861.521	15287
861.653	14503
861.786	14495
861.918	14514
862.05	14552
862.183	14499
862.315	14579
862.447	14613
862.58	14712
862.712	14412
862.844	14347
862.976	14476
863.108	14415
863.24	14811
863.372	14248
863.504	14362
863.636	14393
863.768	14434
863.9	14427
864.032	14396
864.164	14385
864.296	14431
864.428	14404
864.559	14457
864.691	14396
864.823	14362
864.954	14400
865.086	14389
865.217	14400
865.349	14290
865.48	14320
865.612	14385
865.743	14499
865.875	14419
866.006	14317
866.137	14256
866.269	14339
866.4	14374
866.531	14275
866.662	14298
866.793	14282
866.924	14286
867.055	14362
867.186	14442
867.317	14248
867.448	14252
867.579	14389
867.71	14214
867.841	14313
867.972	14385
868.103	14370
868.233	14339
868.364	14355
868.495	14412
868.625	14640
868.756	14613
868.886	14522
869.017	14636
869.147	14743
869.278	14689
869.408	14583
869.539	14476
869.669	14689
869.799	14587
869.929	14659
870.06	14712
870.19	14948
870.32	14807
870.45	14944
870.58	14998
870.71	15081
870.84	15188
870.97	14982
871.1	14921
871.23	15154
871.36	15203
871.489	15195
871.619	15138
871.749	15199
871.879	15180
872.008	15283
872.138	15245
872.267	15157
872.397	15104
872.526	15047
872.656	15066
872.785	15039
872.915	15233
873.044	15302
873.173	15230
873.303	15302
873.432	15260
873.561	15306
873.69	15245
873.819	15252
873.948	15332
874.077	15218
874.206	15230
874.335	15306
874.464	15443
874.593	15553
874.722	15450
874.851	15519
874.979	15538
875.108	15561
875.237	15469
875.365	15431
875.494	15443
875.623	15584
875.751	15488
875.88	15534
876.008	15698
876.136	15743
876.265	15975
876.393	16147
876.521	16044
876.65	16093
876.778	16010
876.906	15934
877.034	15861
877.162	16025
877.29	15888
877.418	16010
877.546	15975
877.674	15998
877.802	15880
877.93	16006
878.058	15994
878.185	15861
878.313	15941
878.441	16013
878.568	15759
878.696	15975
878.824	16010
878.951	16032
879.079	16173
879.206	16367
879.333	16234
879.461	16192
879.588	16196
879.715	16333
879.842	16417
879.97	16204
880.097	15930
880.224	15736
880.351	15983
880.478	15918
880.605	15915
880.732	15865
880.859	16112
880.986	15937
881.112	15888
881.239	15671
881.366	15603
881.493	15610
881.619	15542
881.746	15504
881.872	15450
881.999	15325
882.125	15469
882.252	15568
882.378	15599
882.505	15671
882.631	15447
882.757	15408
882.883	15363
883.01	15325
883.136	15211
883.262	15283
883.388	15184
883.514	15302
883.64	15367
883.766	15321
883.892	15138
884.018	15142
884.143	15321
884.269	15340
884.395	15058
884.52	15074
884.646	15074
884.772	14925
884.897	14933
885.023	15020
885.148	15123
885.274	15203
885.399	15108
885.524	14998
885.65	15024
885.775	14986
885.9	15104
886.025	15138
886.15	15070
886.275	14883
886.4	14914
886.525	14975
886.65	14971
886.775	14990
886.9	15108
887.025	15195
887.149	15020
887.274	14868
887.399	14769
887.523	14796
887.648	14701
887.773	14773
887.897	14948
888.021	14872
888.146	14807
888.27	14880
888.395	14952
888.519	14899
888.643	15005
888.767	14929
888.891	14731
889.015	14777
889.139	14686
889.263	14629
889.387	14746
889.511	14838
889.635	14819
889.759	14670
889.883	14670
890.006	14716
890.13	14792
890.254	14648
890.377	14697
890.501	14518
890.624	14366
890.748	14560
890.871	14465
890.995	14336
891.118	14362
891.241	14419
891.364	14309
891.488	14514
891.611	14343
891.734	14396
891.857	14492
891.98	14381
892.103	14434
892.226	14408
892.349	14339
892.471	14301
892.594	14381
892.717	14461
892.839	14336
892.962	14381
893.085	14396
893.207	14370
893.33	14248
893.452	14309
893.575	14415
893.697	14347
893.819	14446
893.941	14568
894.064	14587
894.186	14221
894.308	14286
894.43	14518
894.552	14492
894.674	14503
894.796	14320
894.918	14332
895.04	14355
895.161	14530
895.283	14526
895.405	14389
895.526	14454
895.648	14442
895.769	14427
895.891	14526
896.012	14693
896.134	14545
896.255	14541
896.376	14503
896.498	14526
896.619	14610
896.74	14568
896.861	14598
896.982	14804
897.103	15051
897.224	14765
897.345	14720
897.466	14712
897.587	14872
897.708	14883
897.828	14807
897.949	14804
898.07	14739
898.19	14731
898.311	14979
898.431	14807
898.552	14861
898.672	14921
898.792	14902
898.913	14910
899.033	14705
899.153	14750
899.273	14613
899.393	14670
899.513	14788
899.633	14834
899.753	14773
899.873	14686
899.993	14731
900.113	14796
900.232	14788
900.352	14788
900.472	14602
900.591	14632
900.711	14552
900.83	14518
900.95	14777
901.069	14705
901.189	14484
901.308	14358
901.427	14317
901.546	14229
901.665	14324
901.784	14309
901.904	14107
902.023	14027
902.141	13887
902.26	13841
902.379	13864
902.498	13849
902.617	13875
902.735	13830
902.854	13849
902.973	13769
903.091	13616
903.21	13499
903.328	13533
903.446	13487
903.565	13438
903.683	13449
903.801	13324
903.919	13445
904.038	13335
904.156	13228
904.274	13251
904.392	13156
904.51	13228
904.627	13263
904.745	13362
904.863	13228
904.981	12954
905.098	12924
905.216	12844
905.334	12875
905.451	12886
905.569	12837
905.686	12985
905.803	12798
905.921	12738
906.038	12760
906.155	12757
906.272	12658
906.389	12525
906.506	12517
906.623	12429
906.74	12486
906.857	12429
906.974	12376
907.091	12566
907.208	12627
907.324	12517
907.441	12441
907.557	12346
907.674	12285
907.79	12258
907.907	12095
908.023	12254
908.139	12262
908.256	12144
908.372	12190
908.488	12106
908.604	12045
908.72	11946
908.836	12003
908.952	11916
909.068	11984
909.184	12140
909.3	11977
909.415	11908
909.531	12045
909.647	11790
909.762	11790
909.878	11748
909.993	11752
910.108	11726
910.224	11703
910.339	11695
910.454	11661
910.57	11665
910.685	11433
910.8	11771
910.915	11699
911.03	11634
911.145	11395
911.259	11471
911.374	11490
911.489	11436
911.604	11280
911.718	11261
911.833	11185
911.947	11052
912.062	11006
912.176	11250
912.291	11140
912.405	11174
912.519	11368
912.633	11307
912.748	11280
912.862	11201
912.976	11098
913.09	10995
913.204	10976
913.318	11079
913.431	11185
913.545	11185
913.659	11212
913.772	11064
913.886	10862
914	10889
914.113	11022
914.226	11105
914.34	10987
914.453	10892
914.566	11025
914.68	10862
914.793	10866
914.906	10717
915.019	10725
915.132	10538
915.245	10694
915.358	10622
915.47	10717
915.583	10759
915.696	10843
915.809	10831
915.921	10942
916.034	10702
916.146	10561
916.259	10558
916.371	10656
916.483	10702
916.595	10607
916.708	10592
916.82	10664
916.932	10592
917.044	10603
917.156	10592
917.268	10569
917.38	10542
917.491	10451
917.603	10527
917.715	10523
917.826	10596
917.938	10466
918.049	10371
918.161	10459
918.272	10615
918.384	10641
918.495	10519
918.606	10367
918.717	10314
918.828	10386
918.939	10470
919.05	10306
919.161	10421
919.272	10200
919.383	10306
919.494	10459
919.604	10649
919.715	10436
919.826	10329
919.936	10417
920.047	10497
920.157	10462
920.267	10683
920.378	10443
920.488	10367
920.598	10653
920.708	10812
920.818	10535
920.928	10580
921.038	10801
921.148	10706
921.258	10432
921.368	10348
921.477	10181
921.587	10337
921.697	10219
921.806	10207
921.916	10131
922.025	9956
922.134	9937
922.244	9861
922.353	9960
922.462	9895
922.571	9751
922.68	9701
922.789	9633
922.898	9690
923.007	9606
923.116	9690
923.224	9610
923.333	9618
923.442	9507
923.55	9492
923.659	9587
923.767	9652
923.876	9504
923.984	9553
924.092	9462
924.201	9553
924.309	9462
924.417	9534
924.525	9370
924.633	9416
924.741	10413
924.849	9256
924.956	9504
925.064	9264
925.172	9211
925.279	9287
925.387	9370
925.494	9245
925.602	9424
925.709	9416
925.816	9329
925.924	9294
926.031	9424
926.138	9245
926.245	9351
926.352	9214
926.459	9367
926.566	9412
926.673	9165
926.779	9157
926.886	9157
926.993	9058
927.099	8986
927.206	8914
927.312	9005
927.419	8994
927.525	9055
927.631	9104
927.737	8960
927.843	8910
927.95	8811
928.056	8876
928.162	8876
928.267	8937
928.373	9595
928.479	8971
928.585	8781
928.69	8899
928.796	8906
928.901	8769
929.007	8705
929.112	8792
929.218	8743
929.323	8689
929.428	8640
929.533	8842
929.638	8613
929.743	8758
929.848	8716
929.953	8667
930.058	8579
930.163	8514
930.267	8526
930.372	8549
930.477	8446
930.581	8708
930.685	8564
930.79	8385
930.894	8374
930.998	8385
931.103	8560
931.207	8202
931.311	8157
931.415	8069
931.519	7868
931.623	7887
