Data from test_V78500241_1104.txt Node
Date: Fri Mar 25 14:41:24 CST 2022
User: usil
Spectrometer: V785-0024
Trigger mode: 0
Integration Time (sec): 4.000000E-1
Scans to average: 1
Nonlinearity correction enabled: false
Boxcar width: 0
Storing dark spectrum: false
XAxis mode: Wavelengths
Number of Pixels in Spectrum: 1024
>>>>>Begin Spectral Data<<<<<
801.071	22675
801.214	22706
801.356	22291
801.499	22105
801.641	22112
801.783	22048
801.926	22097
802.068	21873
802.211	21736
802.353	21823
802.496	21580
802.638	21450
802.78	21458
802.923	21420
803.065	21393
803.208	21393
803.35	21378
803.492	21435
803.635	21466
803.777	21294
803.919	21412
804.061	21690
804.204	21469
804.346	21317
804.488	21249
804.63	21355
804.773	21188
804.915	21321
805.057	21336
805.199	21363
805.341	21401
805.483	21454
805.626	21310
805.768	21199
805.91	21340
806.052	21370
806.194	21199
806.336	21443
806.478	21348
806.62	21241
806.762	21401
806.904	21515
807.046	21823
807.188	21751
807.33	21675
807.472	21759
807.614	21675
807.756	21580
807.898	21530
808.04	21538
808.182	21523
808.324	21542
808.465	21549
808.607	21838
808.749	21979
808.891	22253
809.033	22185
809.174	22090
809.316	21918
809.458	21854
809.6	21892
809.741	21827
809.883	21808
810.025	22044
810.166	21979
810.308	21915
810.45	21876
810.591	21732
810.733	21663
810.875	21576
811.016	21549
811.158	21416
811.299	21625
811.441	21633
811.582	21663
811.724	21515
811.865	21443
812.007	21439
812.148	21359
812.29	21561
812.431	21789
812.573	21789
812.714	21808
812.855	21918
812.997	22192
813.138	22185
813.279	22181
813.421	21960
813.562	21968
813.703	21755
813.845	21690
813.986	21367
814.127	21195
814.268	21047
814.41	21058
814.551	21081
814.692	21047
814.833	21074
814.974	20971
815.115	20910
815.256	20921
815.397	20830
815.539	20941
815.68	20682
815.821	20686
815.962	20765
816.103	20845
816.244	20712
816.385	20507
816.526	20587
816.666	20286
816.807	20218
816.948	20324
817.089	20336
817.23	20237
817.371	20202
817.512	20180
817.653	20225
817.793	20111
817.934	20130
818.075	20199
818.216	20161
818.356	20084
818.497	20035
818.638	19875
818.778	19845
818.919	19986
819.06	19928
819.2	19967
819.341	20027
819.481	20077
819.622	20191
819.762	20339
819.903	20358
820.043	20187
820.184	20138
820.324	20183
820.465	20100
820.605	20259
820.746	20119
820.886	19967
821.026	20065
821.167	20134
821.307	20237
821.447	20107
821.588	19959
821.728	19925
821.868	19715
822.008	19540
822.149	19518
822.289	19552
822.429	19331
822.569	19236
822.709	19209
822.849	19088
822.99	19137
823.13	19008
823.27	19050
823.41	18783
823.55	18806
823.69	18897
823.83	18894
823.97	18810
824.11	18745
824.25	18608
824.389	18627
824.529	18741
824.669	18604
824.809	18692
824.949	18684
825.089	18707
825.228	18677
825.368	18448
825.508	18502
825.648	18471
825.787	18464
825.927	18460
826.067	18330
826.206	18407
826.346	18384
826.485	18410
826.625	18391
826.765	18532
826.904	18388
827.044	18247
827.183	18148
827.323	18110
827.462	18129
827.601	18125
827.741	18034
827.88	18235
828.02	18007
828.159	18045
828.298	18186
828.437	18125
828.577	18133
828.716	18232
828.855	18190
828.994	17923
829.134	17802
829.273	17931
829.412	17817
829.551	17851
829.69	17802
829.829	17893
829.968	17969
830.107	17893
830.246	17802
830.385	17767
830.524	17836
830.663	17668
830.802	17680
830.941	17490
831.08	17455
831.219	17581
831.357	17543
831.496	17676
831.635	17383
831.774	17402
831.913	17296
832.051	17235
832.19	17258
832.329	17246
832.467	17265
832.606	17170
832.744	17143
832.883	17159
833.022	17170
833.16	17330
833.299	17223
833.437	17250
833.576	17159
833.714	17242
833.852	17364
833.991	17231
834.129	17349
834.267	17322
834.406	17261
834.544	17258
834.682	17280
834.821	17083
834.959	17318
835.097	17174
835.235	17353
835.373	17296
835.511	17299
835.65	17140
835.788	17151
835.926	17060
836.064	16923
836.202	17052
836.34	17193
836.478	17147
836.615	17174
836.753	17128
836.891	17208
837.029	17136
837.167	17079
837.305	17067
837.443	16995
837.58	16889
837.718	17083
837.856	16892
837.993	17071
838.131	17064
838.269	16816
838.406	16980
838.544	16942
838.681	16713
838.819	16649
838.956	16546
839.094	16447
839.231	16588
839.369	16725
839.506	17025
839.643	16717
839.781	16523
839.918	16561
840.055	16653
840.193	16489
840.33	16504
840.467	16485
840.604	16516
840.742	16748
840.879	16409
841.016	16512
841.153	16341
841.29	16675
841.427	16558
841.564	16512
841.701	16546
841.838	16485
841.975	16432
842.112	16497
842.249	16341
842.385	16329
842.522	16546
842.659	16485
842.796	16390
842.933	16303
843.069	16398
843.206	16329
843.343	16341
843.479	16360
843.616	16344
843.752	16105
843.889	16185
844.025	16310
844.162	16135
844.298	16344
844.435	16055
844.571	16215
844.708	16207
844.844	16276
844.98	16249
845.117	16200
845.253	16131
845.389	16204
845.525	16116
845.661	16196
845.798	16215
845.934	16261
846.07	16363
846.206	16295
846.342	16402
846.478	16139
846.614	15907
846.75	15698
846.886	15671
847.022	15800
847.158	15705
847.294	15690
847.429	15679
847.565	15694
847.701	15922
847.837	15412
847.972	15386
848.108	15450
848.244	15500
848.379	15329
848.515	15283
848.65	15146
848.786	15306
848.921	15294
849.057	15393
849.192	15393
849.328	15332
849.463	15252
849.598	15184
849.734	15218
849.869	15173
850.004	14979
850.14	15077
850.275	15039
850.41	14998
850.545	14941
850.68	14994
850.815	15055
850.95	14967
851.085	15214
851.22	15085
851.355	15097
851.49	14998
851.625	14975
851.76	14971
851.895	14952
852.03	14861
852.165	14994
852.299	15058
852.434	15093
852.569	15089
852.703	15100
852.838	15097
852.973	15116
853.107	15142
853.242	14921
853.376	14933
853.511	14716
853.645	14849
853.78	15024
853.914	14914
854.048	14838
854.183	14883
854.317	14929
854.451	15058
854.585	14929
854.72	14735
854.854	14971
854.988	14842
855.122	14853
855.256	14823
855.39	14845
855.524	14975
855.658	14963
855.792	14933
855.926	14910
856.06	15020
856.194	14933
856.327	14902
856.461	14815
856.595	14838
856.729	14785
856.862	14975
856.996	14975
857.13	14963
857.263	15039
857.397	14971
857.53	14880
857.664	14921
857.797	14963
857.931	15032
858.064	14933
858.197	14990
858.331	14880
858.464	14746
858.597	14693
858.731	14967
858.864	14948
858.997	14838
859.13	14899
859.263	14834
859.396	14990
859.529	14868
859.662	14762
859.795	14872
859.928	14937
860.061	15028
860.194	15089
860.327	14891
860.46	14895
860.592	14933
860.725	14990
860.858	15066
860.99	14861
861.123	14785
861.256	14906
861.388	14990
861.521	15580
861.653	14830
861.786	14720
861.918	14765
862.05	14731
862.183	14826
862.315	14823
862.447	14861
862.58	14838
862.712	14625
862.844	14636
862.976	14765
863.108	14674
863.24	15123
863.372	14602
863.504	14606
863.636	14629
863.768	14724
863.9	14667
864.032	14564
864.164	14587
864.296	14613
864.428	14686
864.559	14724
864.691	14705
864.823	14811
864.954	14674
865.086	14610
865.217	14602
865.349	14560
865.48	14663
865.612	14708
865.743	14853
865.875	14602
866.006	14583
866.137	14686
866.269	14644
866.4	14663
866.531	14575
866.662	14484
866.793	14583
866.924	14617
867.055	14644
867.186	14632
867.317	14579
867.448	14499
867.579	14518
867.71	14530
867.841	14476
867.972	14659
868.103	14495
868.233	14636
868.364	14686
868.495	14693
868.625	14811
868.756	14918
868.886	14849
869.017	14765
869.147	15066
869.278	14944
869.408	14918
869.539	14887
869.669	14982
869.799	14914
869.929	15036
870.06	15104
870.19	15222
870.32	15245
870.45	15184
870.58	15237
870.71	15450
870.84	15412
870.97	15233
871.1	15336
871.23	15469
871.36	15485
871.489	15329
871.619	15431
871.749	15447
871.879	15466
872.008	15572
872.138	15443
872.267	15374
872.397	15450
872.526	15294
872.656	15252
872.785	15245
872.915	15458
873.044	15644
873.173	15492
873.303	15603
873.432	15584
873.561	15526
873.69	15530
873.819	15595
873.948	15572
874.077	15591
874.206	15424
874.335	15466
874.464	15660
874.593	15747
874.722	15759
874.851	15812
874.979	15869
875.108	15926
875.237	15800
875.365	15812
875.494	15751
875.623	15926
875.751	15797
875.88	15907
876.008	15991
876.136	16128
876.265	16211
876.393	16299
876.521	16451
876.65	16310
876.778	16291
876.906	16265
877.034	16166
877.162	16238
877.29	16177
877.418	16242
877.546	16287
877.674	16196
877.802	16325
877.93	16337
878.058	16295
878.185	16234
878.313	16211
878.441	16284
878.568	16131
878.696	16147
878.824	16314
878.951	16386
879.079	16573
879.206	16573
879.333	16596
879.461	16565
879.588	16523
879.715	16645
879.842	16759
879.97	16504
880.097	16192
880.224	16173
880.351	16265
880.478	16185
880.605	16097
880.732	16207
880.859	16371
880.986	16124
881.112	16242
881.239	16074
881.366	15949
881.493	15888
881.619	15747
881.746	15778
881.872	15835
881.999	15755
882.125	15728
882.252	15762
882.378	15888
882.505	15998
882.631	15682
882.757	15671
882.883	15603
883.01	15584
883.136	15439
883.262	15435
883.388	15431
883.514	15663
883.64	15625
883.766	15500
883.892	15370
884.018	15336
884.143	15542
884.269	15656
884.395	15386
884.52	15199
884.646	15340
884.772	15310
884.897	15207
885.023	15283
885.148	15431
885.274	15526
885.399	15382
885.524	15203
885.65	15306
885.775	15264
885.9	15287
886.025	15473
886.15	15397
886.275	15332
886.4	15169
886.525	15264
886.65	15245
886.775	15157
886.9	15386
887.025	15473
887.149	15268
887.274	15199
887.399	15066
887.523	14998
887.648	15009
887.773	15112
887.897	15275
888.021	15211
888.146	15028
888.27	15264
888.395	15279
888.519	15135
888.643	15207
888.767	15142
888.891	15032
889.015	14838
889.139	14952
889.263	14933
889.387	14990
889.511	15157
889.635	15138
889.759	14975
889.883	14982
890.006	14979
890.13	15047
890.254	14883
890.377	14910
890.501	14674
890.624	14796
890.748	14895
890.871	14796
890.995	14644
891.118	14503
891.241	14587
891.364	14636
891.488	14754
891.611	14571
891.734	14610
891.857	14842
891.98	14670
892.103	14705
892.226	14678
892.349	14648
892.471	14526
892.594	14606
892.717	14583
892.839	14575
892.962	14674
893.085	14648
893.207	14564
893.33	14552
893.452	14522
893.575	14674
893.697	14537
893.819	14765
893.941	14819
894.064	14727
894.186	14530
894.308	14629
894.43	14727
894.552	14731
894.674	14762
894.796	14594
894.918	14640
895.04	14564
895.161	14815
895.283	14834
895.405	14659
895.526	14689
895.648	14708
895.769	14731
895.891	14796
896.012	14819
896.134	14712
896.255	14800
896.376	14674
896.498	14823
896.619	14769
896.74	14712
896.861	14762
896.982	15161
897.103	15264
897.224	15058
897.345	14952
897.466	14914
897.587	15074
897.708	15283
897.828	15112
897.949	15043
898.07	14899
898.19	15119
898.311	15165
898.431	15024
898.552	15116
898.672	15119
898.792	15241
898.913	15222
899.033	15017
899.153	14906
899.273	14849
899.393	14929
899.513	15005
899.633	14971
899.753	14906
899.873	14990
899.993	15131
900.113	14952
900.232	14944
900.352	14933
900.472	14826
900.591	14754
900.711	14815
900.83	14834
900.95	15062
901.069	14883
901.189	14705
901.308	14590
901.427	14442
901.546	14507
901.665	14415
901.784	14507
901.904	14454
902.023	14290
902.141	14096
902.26	14046
902.379	14050
902.498	14069
902.617	13967
902.735	14123
902.854	14031
902.973	13955
903.091	13772
903.21	13693
903.328	13807
903.446	13734
903.565	13693
903.683	13548
903.801	13521
903.919	13464
904.038	13525
904.156	13358
904.274	13487
904.392	13422
904.51	13434
904.627	13358
904.745	13419
904.863	13415
904.981	13206
905.098	13065
905.216	13244
905.334	13152
905.451	13160
905.569	13103
905.686	13107
905.803	13008
905.921	12817
906.038	12996
906.155	12916
906.272	12837
906.389	12867
906.506	12722
906.623	12673
906.74	12688
906.857	12517
906.974	12646
907.091	12681
907.208	12913
907.324	12711
907.441	12642
907.557	12342
907.674	12376
907.79	12281
907.907	12437
908.023	12498
908.139	12391
908.256	12403
908.372	12266
908.488	12327
908.604	12243
908.72	12186
908.836	12136
908.952	12114
909.068	12285
909.184	12266
909.3	12186
909.415	12182
909.531	12106
909.647	12072
909.762	11927
909.878	11916
909.993	12034
910.108	11946
910.224	11969
910.339	11939
910.454	11843
910.57	11836
910.685	11729
910.8	12049
910.915	11901
911.03	11771
911.145	11608
911.259	11661
911.374	11630
911.489	11532
911.604	11467
911.718	11402
911.833	11368
911.947	11292
912.062	11208
912.176	11376
912.291	11414
912.405	11398
912.519	11532
912.633	11653
912.748	11493
912.862	11433
912.976	11379
913.09	11140
913.204	11273
913.318	11185
913.431	11280
913.545	11307
913.659	11448
913.772	11235
913.886	11102
914	11102
914.113	11220
914.226	11235
914.34	11212
914.453	11067
914.566	11151
914.68	11075
914.793	11102
914.906	10911
915.019	10805
915.132	10755
915.245	10885
915.358	10881
915.47	10831
915.583	10873
915.696	10953
915.809	10980
915.921	10984
916.034	10877
916.146	10881
916.259	10854
916.371	10904
916.483	10892
916.595	10774
916.708	10854
916.82	10752
916.932	10793
917.044	10744
917.156	10763
917.268	10645
917.38	10653
917.491	10675
917.603	10702
917.715	10744
917.826	10866
917.938	10611
918.049	10565
918.161	10721
918.272	10767
918.384	10866
918.495	10706
918.606	10569
918.717	10459
918.828	10554
918.939	10607
919.05	10447
919.161	10478
919.272	10367
919.383	10375
919.494	10653
919.604	10828
919.715	10573
919.826	10485
919.936	10538
920.047	10702
920.157	10577
920.267	10778
920.378	10577
920.488	10565
920.598	10824
920.708	10915
920.818	10710
920.928	10736
921.038	10984
921.148	10900
921.258	10660
921.368	10500
921.477	10413
921.587	10428
921.697	10306
921.806	10382
921.916	10325
922.025	10181
922.134	10093
922.244	10154
922.353	10173
922.462	10055
922.571	9937
922.68	9865
922.789	9747
922.898	9797
923.007	9732
923.116	9774
923.224	9778
923.333	9717
923.442	9740
923.55	9652
923.659	9648
923.767	9743
923.876	9599
923.984	9778
924.092	9644
924.201	9679
924.309	9610
924.417	9633
924.525	9557
924.633	9526
924.741	10603
924.849	9439
924.956	9526
925.064	9488
925.172	9363
925.279	9447
925.387	9526
925.494	9389
925.602	9534
925.709	9496
925.816	9355
925.924	9405
926.031	9587
926.138	9450
926.245	9492
926.352	9344
926.459	9500
926.566	9496
926.673	9439
926.779	9359
926.886	9313
926.993	9165
927.099	9100
927.206	9043
927.312	9104
927.419	9146
927.525	9195
927.631	9272
927.737	9070
927.843	8967
927.95	8918
928.056	9005
928.162	9020
928.267	9138
928.373	9705
928.479	9017
928.585	8918
928.69	9024
928.796	9039
928.901	8971
929.007	8815
929.112	9009
929.218	8975
929.323	8925
929.428	8838
929.533	8979
929.638	8807
929.743	8769
929.848	8845
929.953	8933
930.058	8762
930.163	8549
930.267	8568
930.372	8682
930.477	8590
930.581	8777
930.685	8667
930.79	8488
930.894	8594
930.998	8533
931.103	8625
931.207	8339
931.311	8279
931.415	8210
931.519	8069
931.623	8035
