Data from test_V78500241_546.txt Node
Date: Fri Mar 25 14:37:31 CST 2022
User: usil
Spectrometer: V785-0024
Trigger mode: 0
Integration Time (sec): 4.000000E-1
Scans to average: 1
Nonlinearity correction enabled: false
Boxcar width: 0
Storing dark spectrum: false
XAxis mode: Wavelengths
Number of Pixels in Spectrum: 1024
>>>>>Begin Spectral Data<<<<<
801.071	27496
801.214	27500
801.356	27096
801.499	27165
801.641	26849
801.783	26826
801.926	27020
802.068	26853
802.211	26731
802.353	26693
802.496	26590
802.638	26492
802.78	26415
802.923	26381
803.065	26164
803.208	26423
803.35	26434
803.492	26488
803.635	26609
803.777	26393
803.919	26590
804.061	26902
804.204	26556
804.346	26552
804.488	26484
804.63	26499
804.773	26301
804.915	26625
805.057	26644
805.199	26530
805.341	26705
805.483	26754
805.626	26678
805.768	26693
805.91	26777
806.052	26762
806.194	26769
806.336	27009
806.478	27116
806.62	27081
806.762	27188
806.904	27667
807.046	27945
807.188	27930
807.33	28090
807.472	28409
807.614	28497
807.756	28904
807.898	29375
808.04	29817
808.182	30601
808.324	31822
808.465	32948
808.607	34287
808.749	35547
808.891	36277
809.033	36315
809.174	35478
809.316	34150
809.458	33123
809.6	31514
809.741	30547
809.883	29707
810.025	29239
810.166	28892
810.308	28596
810.45	28268
810.591	28067
810.733	27808
810.875	27583
811.016	27195
811.158	27313
811.299	27321
811.441	27386
811.582	27386
811.724	26990
811.865	27024
812.007	27077
812.148	27100
812.29	27001
812.431	27074
812.573	27207
812.714	27256
812.855	27439
812.997	27450
813.138	27698
813.279	27473
813.421	27310
813.562	27058
813.703	27138
813.845	27020
813.986	26682
814.127	26469
814.268	26332
814.41	26298
814.551	26157
814.692	26351
814.833	26317
814.974	26111
815.115	26290
815.256	26046
815.397	26039
815.539	26065
815.68	26008
815.821	25826
815.962	25902
816.103	25822
816.244	25746
816.385	25510
816.526	25518
816.666	25411
816.807	25293
816.948	25396
817.089	25415
817.23	25221
817.371	25137
817.512	25221
817.653	25251
817.793	25141
817.934	25190
818.075	25179
818.216	25190
818.356	25031
818.497	25156
818.638	24863
818.778	24897
818.919	24890
819.06	24875
819.2	25099
819.341	25008
819.481	25069
819.622	25225
819.762	25449
819.903	25392
820.043	25187
820.184	25209
820.324	25164
820.465	25088
820.605	25266
820.746	25187
820.886	25091
821.026	25076
821.167	24985
821.307	25129
821.447	25088
821.588	24814
821.728	24658
821.868	24612
822.008	24395
822.149	24471
822.289	24308
822.429	24045
822.569	24026
822.709	24129
822.849	23939
822.99	23927
823.13	23805
823.27	23855
823.41	23596
823.55	23668
823.69	23745
823.83	23634
823.97	23554
824.11	23414
824.25	23303
824.389	23455
824.529	23478
824.669	23406
824.809	23478
824.949	23562
825.089	23547
825.228	23436
825.368	23258
825.508	23132
825.648	23315
825.787	23235
825.927	23303
826.067	23170
826.206	23079
826.346	23246
826.485	23322
826.625	23212
826.765	23261
826.904	23117
827.044	23056
827.183	22949
827.323	22862
827.462	22896
827.601	22866
827.741	22797
827.88	22850
828.02	22782
828.159	22805
828.298	22843
828.437	22877
828.577	22866
828.716	23018
828.855	22634
828.994	22615
829.134	22550
829.273	22664
829.412	22554
829.551	22398
829.69	22493
829.829	22611
829.968	22596
830.107	22512
830.246	22455
830.385	22409
830.524	22382
830.663	22287
830.802	22249
830.941	22040
831.08	22051
831.219	22169
831.357	22131
831.496	22310
831.635	22078
831.774	22067
831.913	21956
832.051	21812
832.19	21918
832.329	21907
832.467	21835
832.606	21850
832.744	21812
832.883	21903
833.022	21823
833.16	21850
833.299	22006
833.437	22021
833.576	22158
833.714	22139
833.852	22344
833.991	22185
834.129	22447
834.267	22185
834.406	22166
834.544	22306
834.682	22177
834.821	22173
834.959	22162
835.097	21994
835.235	22040
835.373	21991
835.511	21918
835.65	21698
835.788	21857
835.926	21648
836.064	21481
836.202	21420
836.34	21606
836.478	21717
836.615	21595
836.753	21698
836.891	21827
837.029	21660
837.167	21614
837.305	21488
837.443	21469
837.58	21359
837.718	21389
837.856	21515
837.993	21382
838.131	21500
838.269	21321
838.406	21378
838.544	21199
838.681	21123
838.819	21077
838.956	20876
839.094	20796
839.231	20842
839.369	20971
839.506	21291
839.643	21154
839.781	20845
839.918	20849
840.055	20914
840.193	20773
840.33	20796
840.467	20739
840.604	20746
840.742	20952
840.879	20575
841.016	20739
841.153	20609
841.29	20842
841.427	20663
841.564	20906
841.701	20769
841.838	20670
841.975	20609
842.112	20807
842.249	20556
842.385	20537
842.522	20811
842.659	20609
842.796	20583
842.933	20537
843.069	20507
843.206	20518
843.343	20613
843.479	20522
843.616	20575
843.752	20381
843.889	20446
844.025	20552
844.162	20438
844.298	20617
844.435	20537
844.571	20575
844.708	20781
844.844	21058
844.98	21070
845.117	21332
845.253	21583
845.389	22219
845.525	23482
845.661	25670
845.798	28257
845.934	30479
846.07	31426
846.206	31095
846.342	29497
846.478	26746
846.614	24232
846.75	22455
846.886	21538
847.022	21058
847.158	20613
847.294	20218
847.429	20313
847.565	19982
847.701	20248
847.837	19700
847.972	19647
848.108	19677
848.244	19681
848.379	19605
848.515	19403
848.65	19407
848.786	19457
848.921	19384
849.057	19441
849.192	19480
849.328	19354
849.463	19308
849.598	19373
849.734	19324
849.869	19065
850.004	19050
850.14	19206
850.275	19133
850.41	19057
850.545	18916
850.68	18985
850.815	19015
850.95	19164
851.085	19270
851.22	19168
851.355	18947
851.49	18993
851.625	18996
851.76	18958
851.895	19004
852.03	18966
852.165	19038
852.299	19110
852.434	19069
852.569	19118
852.703	19038
852.838	19084
852.973	19225
853.107	19217
853.242	19103
853.376	18947
853.511	18833
853.645	18970
853.78	19061
853.914	19069
854.048	19084
854.183	19053
854.317	19034
854.451	19202
854.585	19065
854.72	19015
854.854	19053
854.988	18882
855.122	19107
855.256	18890
855.39	18924
855.524	19004
855.658	19004
855.792	18905
855.926	18909
856.06	18958
856.194	18989
856.327	18856
856.461	18814
856.595	18764
856.729	18859
856.862	18958
856.996	18848
857.13	18962
857.263	18920
857.397	18951
857.53	18863
857.664	19004
857.797	18920
857.931	18954
858.064	19012
858.197	18859
858.331	18867
858.464	18776
858.597	18688
858.731	18787
858.864	18798
858.997	18829
859.13	18837
859.263	18749
859.396	18905
859.529	18985
859.662	18658
859.795	18791
859.928	18810
860.061	18871
860.194	18989
860.327	18760
860.46	18703
860.592	18932
860.725	18897
860.858	18802
860.99	18764
861.123	18684
861.256	18650
861.388	18806
861.521	19537
861.653	18612
861.786	18563
861.918	18616
862.05	18688
862.183	18703
862.315	18787
862.447	18863
862.58	18703
862.712	18555
862.844	18433
862.976	18525
863.108	18616
863.24	18688
863.372	18525
863.504	18471
863.636	18323
863.768	18445
863.9	18456
864.032	18372
864.164	18452
864.296	18528
864.428	18623
864.559	18578
864.691	18486
864.823	18429
864.954	18376
865.086	18414
865.217	18407
865.349	18273
865.48	18247
865.612	18315
865.743	18380
865.875	18342
866.006	18372
866.137	18464
866.269	18342
866.4	18433
866.531	18232
866.662	18323
866.793	18327
866.924	18258
867.055	18399
867.186	18323
867.317	18281
867.448	18418
867.579	18308
867.71	18289
867.841	18311
867.972	18361
868.103	18338
868.233	18289
868.364	18353
868.495	18346
868.625	18551
868.756	18612
868.886	18479
869.017	18578
869.147	18612
869.278	18677
869.408	18642
869.539	18574
869.669	18612
869.799	18772
869.929	18688
870.06	18582
870.19	18848
870.32	18920
870.45	18935
870.58	18939
870.71	19008
870.84	19031
870.97	18932
871.1	19057
871.23	19148
871.36	19194
871.489	19278
871.619	19156
871.749	19156
871.879	19251
872.008	19297
872.138	19251
872.267	19221
872.397	19194
872.526	19053
872.656	19042
872.785	19107
872.915	19228
873.044	19324
873.173	19255
873.303	19187
873.432	19251
873.561	19365
873.69	19384
873.819	19377
873.948	19331
874.077	19388
874.206	19316
874.335	19381
874.464	19506
874.593	19677
874.722	19586
874.851	19689
874.979	19616
875.108	19742
875.237	19693
875.365	19651
875.494	19761
875.623	19868
875.751	19776
875.88	19887
876.008	19993
876.136	20138
876.265	20320
876.393	20587
876.521	20320
876.65	20389
876.778	20271
876.906	20351
877.034	20278
877.162	20427
877.29	20332
877.418	20473
877.546	20560
877.674	20663
877.802	20556
877.93	20682
878.058	20663
878.185	20629
878.313	20849
878.441	21119
878.568	21032
878.696	21386
878.824	21648
878.951	22223
879.079	22972
879.206	23745
879.333	24505
879.461	25110
879.588	25670
879.715	25731
879.842	25445
879.97	24627
880.097	23417
880.224	22831
880.351	22436
880.478	22063
880.605	21717
880.732	21648
880.859	21781
880.986	21370
881.112	21447
881.239	21211
881.366	21283
881.493	21039
881.619	20872
881.746	21096
881.872	20982
881.999	21062
882.125	21112
882.252	21081
882.378	21066
882.505	21176
882.631	20979
882.757	20849
882.883	20941
883.01	20944
883.136	20864
883.262	20807
883.388	20693
883.514	20941
883.64	20906
883.766	20872
883.892	20712
884.018	20686
884.143	20880
884.269	21028
884.395	20526
884.52	20465
884.646	20640
884.772	20549
884.897	20442
885.023	20579
885.148	20495
885.274	20625
885.399	20590
885.524	20423
885.65	20381
885.775	20282
885.9	20290
886.025	20343
886.15	20248
886.275	20035
886.4	19986
886.525	20054
886.65	19856
886.775	19868
886.9	19989
887.025	20084
887.149	19955
887.274	19620
887.399	19407
887.523	19525
887.648	19422
887.773	19354
887.897	19529
888.021	19476
888.146	19255
888.27	19388
888.395	19411
888.519	19411
888.643	19331
888.767	19343
888.891	19217
889.015	19046
889.139	19057
889.263	18996
889.387	19171
889.511	19316
889.635	19088
889.759	18897
889.883	18871
890.006	19046
890.13	19084
890.254	18837
890.377	18833
890.501	18661
890.624	18673
890.748	18627
890.871	18502
890.995	18395
891.118	18353
891.241	18513
891.364	18403
891.488	18502
891.611	18437
891.734	18391
891.857	18448
891.98	18414
892.103	18414
892.226	18490
892.349	18273
892.471	18155
892.594	18209
892.717	18350
892.839	18270
892.962	18285
893.085	18220
893.207	18186
893.33	18190
893.452	18140
893.575	18251
893.697	18106
893.819	18334
893.941	18235
894.064	18285
894.186	18041
894.308	18022
894.43	18197
894.552	18136
894.674	18224
894.796	18079
894.918	18072
895.04	18136
895.161	18178
895.283	18167
895.405	18079
895.526	17988
895.648	18133
895.769	18114
895.891	18110
896.012	18186
896.134	18079
896.255	18136
896.376	17992
896.498	18083
896.619	18190
896.74	18019
896.861	18182
896.982	18456
897.103	18593
897.224	18342
897.345	18391
897.466	18197
897.587	18319
897.708	18471
897.828	18311
897.949	18228
898.07	18186
898.19	18251
898.311	18437
898.431	18178
898.552	18232
898.672	18388
898.792	18334
898.913	18357
899.033	18148
899.153	18129
899.273	18079
899.393	18152
899.513	18079
899.633	18110
899.753	18167
899.873	18049
899.993	18133
900.113	18083
900.232	18140
900.352	18034
900.472	17885
900.591	17897
900.711	17980
900.83	17942
900.95	17996
901.069	18053
901.189	17874
901.308	17634
901.427	17471
901.546	17577
901.665	17551
901.784	17558
901.904	17330
902.023	17277
902.141	17094
902.26	17086
902.379	17064
902.498	17018
902.617	17041
902.735	16976
902.854	16889
902.973	16915
903.091	16630
903.21	16687
903.328	16687
903.446	16634
903.565	16436
903.683	16531
903.801	16360
903.919	16485
904.038	16405
904.156	16215
904.274	16246
904.392	16162
904.51	16162
904.627	16162
904.745	16200
904.863	16246
904.981	16082
905.098	15934
905.216	15869
905.334	15842
905.451	15838
905.569	15842
905.686	15838
905.803	15724
905.921	15644
906.038	15618
906.155	15614
906.272	15519
906.389	15549
906.506	15428
906.623	15340
906.74	15393
906.857	15252
906.974	15370
907.091	15363
907.208	15485
907.324	15428
907.441	15287
907.557	15047
907.674	15207
907.79	15005
907.907	15047
908.023	15093
908.139	15112
908.256	15013
908.372	15001
908.488	15024
908.604	14777
908.72	14731
908.836	14743
908.952	14773
909.068	14731
909.184	14880
909.3	14697
909.415	14773
909.531	14811
909.647	14571
909.762	14583
909.878	14450
909.993	14571
910.108	14488
910.224	14465
910.339	14473
910.454	14434
910.57	14351
910.685	14294
910.8	14473
910.915	14446
911.03	14332
911.145	14126
911.259	14077
911.374	14069
911.489	14077
911.604	13993
911.718	13944
911.833	13864
911.947	13704
912.062	13712
912.176	13860
912.291	13894
912.405	13940
912.519	13947
912.633	14054
912.748	13925
912.862	13814
912.976	13708
913.09	13609
913.204	13609
913.318	13674
913.431	13795
913.545	13856
913.659	13772
913.772	13662
913.886	13518
914	13563
914.113	13624
914.226	13620
914.34	13674
914.453	13499
914.566	13582
914.68	13544
914.793	13457
914.906	13270
915.019	13175
915.132	13179
915.245	13183
915.358	13175
915.47	13331
915.583	13183
915.696	13240
915.809	13343
915.921	13388
916.034	13187
916.146	13046
916.259	13194
916.371	13259
916.483	13152
916.595	13061
916.708	13141
916.82	13122
916.932	13095
917.044	13103
917.156	12954
917.268	12947
917.38	12962
917.491	13012
917.603	12928
917.715	13019
917.826	13072
917.938	12920
918.049	12726
918.161	12886
918.272	13042
918.384	13042
918.495	12924
918.606	12760
918.717	12787
918.828	12715
918.939	12798
919.05	12681
919.161	12692
919.272	12593
919.383	12612
919.494	12779
919.604	12916
919.715	12646
919.826	12627
919.936	12673
920.047	12776
920.157	12745
920.267	12859
920.378	12730
920.488	12654
920.598	12890
920.708	13050
920.818	12798
920.928	12875
921.038	13015
921.148	12996
921.258	12783
921.368	12669
921.477	12563
921.587	12551
921.697	12410
921.806	12513
921.916	12418
922.025	12148
922.134	12194
922.244	12125
922.353	12152
922.462	12102
922.571	11931
922.68	11798
922.789	11832
922.898	11866
923.007	11760
923.116	11809
923.224	11802
923.333	11764
923.442	11676
923.55	11699
923.659	11695
923.767	11691
923.876	11600
923.984	11634
924.092	11581
924.201	11688
924.309	11589
924.417	11684
924.525	11524
924.633	11577
924.741	12308
924.849	11356
924.956	11425
925.064	11398
925.172	11201
925.279	11258
925.387	11364
925.494	11356
925.602	11376
925.709	11410
925.816	11212
925.924	11250
926.031	11299
926.138	11318
926.245	11341
926.352	11231
926.459	11273
926.566	11326
926.673	11231
926.779	11140
926.886	11090
926.993	10942
927.099	11022
927.206	10923
927.312	10911
927.419	11010
927.525	10923
927.631	11014
927.737	10839
927.843	10869
927.95	10721
928.056	10801
928.162	10892
928.267	10805
928.373	11391
928.479	10889
928.585	10653
928.69	10774
928.796	10889
928.901	10710
929.007	10481
929.112	10664
929.218	10752
929.323	10535
929.428	10592
929.533	10744
929.638	10554
929.743	10443
929.848	10565
929.953	10500
930.058	10421
930.163	10276
930.267	10341
930.372	10413
930.477	10257
930.581	10554
930.685	10344
930.79	10215
930.894	10143
930.998	10143
931.103	10306
931.207	9926
931.311	9972
931.415	9812
931.519	9663
931.623	9553
