Data from test_V78500241_3564.txt Node
Date: Fri Mar 25 14:58:32 CST 2022
User: usil
Spectrometer: V785-0024
Trigger mode: 0
Integration Time (sec): 4.000000E-1
Scans to average: 1
Nonlinearity correction enabled: false
Boxcar width: 0
Storing dark spectrum: false
XAxis mode: Wavelengths
Number of Pixels in Spectrum: 1024
>>>>>Begin Spectral Data<<<<<
801.071	21926
801.214	21808
801.356	21561
801.499	21420
801.641	21161
801.783	21119
801.926	21218
802.068	21188
802.211	21028
802.353	21028
802.496	20804
802.638	20792
802.78	20663
802.923	20571
803.065	20522
803.208	20450
803.35	20632
803.492	20606
803.635	20705
803.777	20598
803.919	20598
804.061	20902
804.204	20571
804.346	20507
804.488	20446
804.63	20533
804.773	20431
804.915	20408
805.057	20670
805.199	20396
805.341	20499
805.483	20537
805.626	20537
805.768	20499
805.91	20457
806.052	20522
806.194	20389
806.336	20568
806.478	20434
806.62	20469
806.762	20514
806.904	20670
807.046	20845
807.188	20792
807.33	20998
807.472	20804
807.614	20701
807.756	20697
807.898	20537
808.04	20492
808.182	20541
808.324	20495
808.465	20598
808.607	20765
808.749	20819
808.891	20883
809.033	20948
809.174	20849
809.316	20914
809.458	20796
809.6	20758
809.741	20876
809.883	20811
810.025	20986
810.166	20902
810.308	20979
810.45	21058
810.591	20967
810.733	20636
810.875	20708
811.016	20575
811.158	20473
811.299	20663
811.441	20811
811.582	20686
811.724	20613
811.865	20590
812.007	20564
812.148	20537
812.29	20514
812.431	20724
812.573	20895
812.714	21013
812.855	21100
812.997	21214
813.138	21367
813.279	21176
813.421	21070
813.562	21062
813.703	20842
813.845	20762
813.986	20332
814.127	20294
814.268	20134
814.41	20130
814.551	20149
814.692	20180
814.833	20058
814.974	20145
815.115	20073
815.256	19974
815.397	20008
815.539	19986
815.68	19887
815.821	19788
815.962	19925
816.103	19795
816.244	19727
816.385	19643
816.526	19662
816.666	19339
816.807	19285
816.948	19350
817.089	19350
817.23	19373
817.371	19282
817.512	19236
817.653	19156
817.793	19225
817.934	19293
818.075	19297
818.216	19251
818.356	19114
818.497	19099
818.638	18951
818.778	18897
818.919	18871
819.06	18981
819.2	19110
819.341	19038
819.481	19164
819.622	19255
819.762	19499
819.903	19369
820.043	19301
820.184	19129
820.324	19289
820.465	19312
820.605	19228
820.746	19236
820.886	18958
821.026	19263
821.167	19156
821.307	19350
821.447	19046
821.588	19027
821.728	18985
821.868	18844
822.008	18711
822.149	18684
822.289	18661
822.429	18365
822.569	18251
822.709	18338
822.849	18098
822.99	18163
823.13	18110
823.27	18049
823.41	18022
823.55	17916
823.69	18022
823.83	17870
823.97	17893
824.11	17756
824.25	17832
824.389	17764
824.529	17813
824.669	17771
824.809	17786
824.949	17756
825.089	17802
825.228	17737
825.368	17509
825.508	17615
825.648	17573
825.787	17627
825.927	17699
826.067	17410
826.206	17455
826.346	17577
826.485	17467
826.625	17463
826.765	17592
826.904	17543
827.044	17383
827.183	17330
827.323	17109
827.462	17242
827.601	17200
827.741	17166
827.88	17239
828.02	17185
828.159	17128
828.298	17136
828.437	17288
828.577	17048
828.716	17311
828.855	17098
828.994	17033
829.134	16942
829.273	16946
829.412	16839
829.551	16984
829.69	16976
829.829	16923
829.968	17041
830.107	17056
830.246	17018
830.385	16854
830.524	16850
830.663	16877
830.802	16752
830.941	16607
831.08	16558
831.219	16645
831.357	16694
831.496	16763
831.635	16497
831.774	16546
831.913	16531
832.051	16314
832.19	16421
832.329	16459
832.467	16318
832.606	16185
832.744	16211
832.883	16371
833.022	16257
833.16	16196
833.299	16257
833.437	16371
833.576	16325
833.714	16265
833.852	16363
833.991	16322
834.129	16386
834.267	16405
834.406	16337
834.544	16356
834.682	16413
834.821	16242
834.959	16485
835.097	16265
835.235	16470
835.373	16424
835.511	16325
835.65	16219
835.788	16299
835.926	16204
836.064	16105
836.202	16105
836.34	16329
836.478	16249
836.615	16211
836.753	16287
836.891	16379
837.029	16291
837.167	16223
837.305	16128
837.443	16207
837.58	16090
837.718	16196
837.856	16109
837.993	16090
838.131	16086
838.269	16128
838.406	16139
838.544	15960
838.681	15819
838.819	15888
838.956	15663
839.094	15679
839.231	15720
839.369	15861
839.506	16124
839.643	15857
839.781	15747
839.918	15641
840.055	15709
840.193	15633
840.33	15713
840.467	15675
840.604	15682
840.742	15937
840.879	15591
841.016	15587
841.153	15686
841.29	15739
841.427	15774
841.564	15743
841.701	15671
841.838	15694
841.975	15732
842.112	15713
842.249	15542
842.385	15504
842.522	15610
842.659	15500
842.796	15416
842.933	15458
843.069	15507
843.206	15466
843.343	15549
843.479	15603
843.616	15492
843.752	15412
843.889	15408
844.025	15435
844.162	15302
844.298	15439
844.435	15298
844.571	15317
844.708	15386
844.844	15538
844.98	15542
845.117	15431
845.253	15310
845.389	15214
845.525	15199
845.661	15264
845.798	15013
845.934	15047
846.07	15028
846.206	15127
846.342	15207
846.478	15100
846.614	15013
846.75	14826
846.886	14861
847.022	15028
847.158	14876
847.294	14842
847.429	14948
847.565	14834
847.701	15142
847.837	14739
847.972	14606
848.108	14800
848.244	14815
848.379	14590
848.515	14594
848.65	14434
848.786	14457
848.921	14533
849.057	14606
849.192	14579
849.328	14568
849.463	14594
849.598	14332
849.734	14495
849.869	14442
850.004	14248
850.14	14252
850.275	14252
850.41	14328
850.545	14248
850.68	14275
850.815	14221
850.95	14275
851.085	14404
851.22	14381
851.355	14336
851.49	14320
851.625	14263
851.76	14202
851.895	14138
852.03	14130
852.165	14317
852.299	14343
852.434	14332
852.569	14332
852.703	14218
852.838	14336
852.973	14457
853.107	14370
853.242	14187
853.376	14168
853.511	14020
853.645	14187
853.78	14214
853.914	14218
854.048	14073
854.183	14043
854.317	14206
854.451	14336
854.585	14153
854.72	14111
854.854	14191
854.988	14024
855.122	14164
855.256	14016
855.39	14263
855.524	14244
855.658	14187
855.792	14161
855.926	14233
856.06	14168
856.194	14237
856.327	14187
856.461	14046
856.595	14107
856.729	14115
856.862	14244
856.996	14153
857.13	14176
857.263	14294
857.397	14317
857.53	14130
857.664	14237
857.797	14263
857.931	14183
858.064	14195
858.197	14225
858.331	14123
858.464	14062
858.597	14126
858.731	14088
858.864	14183
858.997	14225
859.13	14126
859.263	14202
859.396	14195
859.529	14096
859.662	14031
859.795	14130
859.928	14282
860.061	14305
860.194	14286
860.327	14210
860.46	14115
860.592	14259
860.725	14229
860.858	14115
860.99	14092
861.123	14088
861.256	13970
861.388	14142
861.521	14849
861.653	13997
861.786	14012
861.918	13997
862.05	14096
862.183	14092
862.315	14092
862.447	14229
862.58	14130
862.712	13852
862.844	13959
862.976	13978
863.108	13947
863.24	14282
863.372	13822
863.504	13856
863.636	13909
863.768	13940
863.9	13947
864.032	13727
864.164	13902
864.296	13894
864.428	13951
864.559	14043
864.691	14088
864.823	13947
864.954	13883
865.086	13902
865.217	13826
865.349	13826
865.48	13909
865.612	13959
865.743	14088
865.875	13887
866.006	13890
866.137	13947
866.269	13940
866.4	13883
866.531	13852
866.662	13963
866.793	13917
866.924	13883
867.055	13887
867.186	13932
867.317	13864
867.448	13879
867.579	13818
867.71	13833
867.841	13822
867.972	13925
868.103	13944
868.233	13875
868.364	14046
868.495	14016
868.625	14180
868.756	14263
868.886	14119
869.017	14172
869.147	14309
869.278	14237
869.408	14145
869.539	14134
869.669	14301
869.799	14225
869.929	14237
870.06	14206
870.19	14461
870.32	14560
870.45	14457
870.58	14583
870.71	14667
870.84	14716
870.97	14590
871.1	14583
871.23	14697
871.36	14712
871.489	14571
871.619	14636
871.749	14804
871.879	14765
872.008	14918
872.138	14773
872.267	14689
872.397	14659
872.526	14537
872.656	14518
872.785	14667
872.915	14758
873.044	14937
873.173	14727
873.303	14819
873.432	14834
873.561	14876
873.69	14891
873.819	14819
873.948	14925
874.077	14899
874.206	14792
874.335	14758
874.464	15009
874.593	15108
874.722	15116
874.851	15150
874.979	15062
875.108	15157
875.237	15097
875.365	15028
875.494	15203
875.623	15214
875.751	15085
875.88	15062
876.008	15230
876.136	15336
876.265	15515
876.393	15656
876.521	15553
876.65	15622
876.778	15511
876.906	15477
877.034	15408
877.162	15553
877.29	15469
877.418	15568
877.546	15542
877.674	15542
877.802	15530
877.93	15564
878.058	15511
878.185	15386
878.313	15439
878.441	15496
878.568	15454
878.696	15367
878.824	15481
878.951	15618
879.079	15701
879.206	15766
879.333	15637
879.461	15580
879.588	15732
879.715	15774
879.842	15739
879.97	15545
880.097	15477
880.224	15348
880.351	15382
880.478	15386
880.605	15321
880.732	15435
880.859	15743
880.986	15401
881.112	15447
881.239	15218
881.366	15222
881.493	15043
881.619	14963
881.746	15032
881.872	15070
881.999	15020
882.125	14971
882.252	15097
882.378	15051
882.505	15272
882.631	15074
882.757	14826
882.883	14899
883.01	14746
883.136	14857
883.262	14819
883.388	14701
883.514	14853
883.64	14788
883.766	14807
883.892	14705
884.018	14693
884.143	14845
884.269	14891
884.395	14617
884.52	14655
884.646	14617
884.772	14610
884.897	14507
885.023	14617
885.148	14678
885.274	14739
885.399	14537
885.524	14507
885.65	14651
885.775	14606
885.9	14537
886.025	14663
886.15	14697
886.275	14522
886.4	14499
886.525	14518
886.65	14434
886.775	14503
886.9	14651
887.025	14686
887.149	14598
887.274	14434
887.399	14427
887.523	14377
887.648	14343
887.773	14362
887.897	14568
888.021	14461
888.146	14355
888.27	14408
888.395	14556
888.519	14408
888.643	14537
888.767	14526
888.891	14351
889.015	14263
889.139	14301
889.263	14267
889.387	14400
889.511	14419
889.635	14461
889.759	14195
889.883	14195
890.006	14336
890.13	14355
890.254	14237
890.377	14225
890.501	14039
890.624	14031
890.748	14065
890.871	13932
890.995	13909
891.118	13898
891.241	14069
891.364	14027
891.488	14069
891.611	13955
891.734	13917
891.857	14024
891.98	13898
892.103	14077
892.226	14077
892.349	13982
892.471	13849
892.594	13894
892.717	14008
892.839	13967
892.962	13978
893.085	14100
893.207	14005
893.33	13837
893.452	13894
893.575	14031
893.697	13909
893.819	14180
893.941	14123
894.064	14145
894.186	13928
894.308	13947
894.43	14202
894.552	14183
894.674	14187
894.796	13978
894.918	13978
895.04	14046
895.161	14039
895.283	14153
895.405	14088
895.526	14088
895.648	14020
895.769	14172
895.891	14077
896.012	14206
896.134	14202
896.255	14107
896.376	14180
896.498	14168
896.619	14187
896.74	14210
896.861	14237
896.982	14484
897.103	14621
897.224	14549
897.345	14339
897.466	14370
897.587	14446
897.708	14568
897.828	14492
897.949	14370
898.07	14248
898.19	14377
898.311	14503
898.431	14419
898.552	14522
898.672	14602
898.792	14602
898.913	14499
899.033	14389
899.153	14320
899.273	14294
899.393	14362
899.513	14339
899.633	14351
899.753	14317
899.873	14290
899.993	14320
900.113	14404
900.232	14351
900.352	14267
900.472	14221
900.591	14164
900.711	14324
900.83	14107
900.95	14351
901.069	14336
901.189	14119
901.308	13921
901.427	13875
901.546	13917
901.665	13925
901.784	13883
901.904	13666
902.023	13719
902.141	13499
902.26	13449
902.379	13464
902.498	13457
902.617	13449
902.735	13525
902.854	13445
902.973	13384
903.091	13168
903.21	13149
903.328	13244
903.446	13118
903.565	13065
903.683	13065
903.801	12871
903.919	13122
904.038	12996
904.156	12871
904.274	12958
904.392	12798
904.51	12753
904.627	12814
904.745	12859
904.863	12909
904.981	12635
905.098	12494
905.216	12467
905.334	12544
905.451	12578
905.569	12445
905.686	12521
905.803	12563
905.921	12304
906.038	12422
906.155	12441
906.272	12266
906.389	12232
906.506	12152
906.623	12091
906.74	12117
906.857	12083
906.974	12083
907.091	12163
907.208	12197
907.324	12110
907.441	12125
907.557	11920
907.674	11984
907.79	11748
907.907	11908
908.023	11878
908.139	11874
908.256	11889
908.372	11824
908.488	11707
908.604	11707
908.72	11638
908.836	11684
908.952	11638
909.068	11661
909.184	11775
909.3	11649
909.415	11764
909.531	11745
909.647	11478
909.762	11425
909.878	11353
909.993	11364
910.108	11398
910.224	11402
910.339	11372
910.454	11406
910.57	11296
910.685	11170
910.8	11421
910.915	11448
911.03	11326
911.145	11079
911.259	11094
911.374	11113
911.489	11025
911.604	10957
911.718	10873
911.833	10869
911.947	10812
912.062	10691
912.176	10824
912.291	10892
912.405	10828
912.519	11121
912.633	11075
912.748	10980
912.862	10911
912.976	10790
913.09	10649
913.204	10615
913.318	10717
913.431	10862
913.545	10892
913.659	10839
913.772	10752
913.886	10691
914	10668
914.113	10793
914.226	10790
914.34	10816
914.453	10656
914.566	10664
914.68	10565
914.793	10542
914.906	10440
915.019	10382
915.132	10360
915.245	10325
915.358	10390
915.47	10382
915.583	10402
915.696	10466
915.809	10546
915.921	10565
916.034	10432
916.146	10386
916.259	10322
916.371	10599
916.483	10440
916.595	10276
916.708	10371
916.82	10398
916.932	10382
917.044	10367
917.156	10367
917.268	10150
917.38	10230
917.491	10257
917.603	10333
917.715	10379
917.826	10375
917.938	10253
918.049	10105
918.161	10280
918.272	10413
918.384	10436
918.495	10253
918.606	10139
918.717	10078
918.828	10162
918.939	10204
919.05	10036
919.161	10242
919.272	9926
919.383	9968
919.494	10188
919.604	10386
919.715	10169
919.826	10032
919.936	10120
920.047	10280
920.157	10112
920.267	10352
920.378	10207
920.488	10135
920.598	10303
920.708	10531
920.818	10306
920.928	10402
921.038	10561
921.148	10462
921.258	10268
921.368	10150
921.477	10021
921.587	10021
921.697	9850
921.806	10078
921.916	9899
922.025	9816
922.134	9759
922.244	9724
922.353	9755
922.462	9564
922.571	9618
922.68	9348
922.789	9405
922.898	9386
923.007	9351
923.116	9412
923.224	9443
923.333	9393
923.442	9302
923.55	9230
923.659	9291
923.767	9359
923.876	9222
923.984	9310
924.092	9173
924.201	9306
924.309	9272
924.417	9370
924.525	9268
924.633	9256
924.741	9934
924.849	9081
924.956	9245
925.064	9062
925.172	9062
925.279	8998
925.387	9169
925.494	9081
925.602	9211
925.709	9104
925.816	8994
925.924	9085
926.031	9173
926.138	9131
926.245	9070
926.352	9020
926.459	9108
926.566	9161
926.673	9051
926.779	8914
926.886	8956
926.993	8864
927.099	8781
927.206	8746
927.312	8766
927.419	8849
927.525	8731
927.631	8853
927.737	8674
927.843	8731
927.95	8625
928.056	8682
928.162	8712
928.267	8769
928.373	9264
928.479	8830
928.585	8499
928.69	8754
928.796	8750
928.901	8632
929.007	8450
929.112	8636
929.218	8571
929.323	8533
929.428	8465
929.533	8598
929.638	8431
929.743	8499
929.848	8499
929.953	8465
930.058	8404
930.163	8271
930.267	8324
930.372	8396
930.477	8206
930.581	8530
930.685	8389
930.79	8286
930.894	8324
930.998	8214
931.103	8313
931.207	7997
931.311	7978
931.415	7841
931.519	7715
931.623	7734
