Data from test_V78500241_2610.txt Node
Date: Fri Mar 25 14:51:53 CST 2022
User: usil
Spectrometer: V785-0024
Trigger mode: 0
Integration Time (sec): 4.000000E-1
Scans to average: 1
Nonlinearity correction enabled: false
Boxcar width: 0
Storing dark spectrum: false
XAxis mode: Wavelengths
Number of Pixels in Spectrum: 1024
>>>>>Begin Spectral Data<<<<<
801.071	22051
801.214	21880
801.356	21622
801.499	21583
801.641	21348
801.783	21374
801.926	21447
802.068	21256
802.211	21233
802.353	21131
802.496	21066
802.638	20842
802.78	20788
802.923	20735
803.065	20792
803.208	20598
803.35	20697
803.492	20705
803.635	20819
803.777	20697
803.919	20743
804.061	20994
804.204	20758
804.346	20621
804.488	20590
804.63	20651
804.773	20697
804.915	20682
805.057	20697
805.199	20579
805.341	20609
805.483	20819
805.626	20663
805.768	20579
805.91	20606
806.052	20720
806.194	20476
806.336	20765
806.478	20587
806.62	20560
806.762	20705
806.904	20842
807.046	21028
807.188	20864
807.33	20804
807.472	20986
807.614	20853
807.756	20765
807.898	20800
808.04	20640
808.182	20579
808.324	20712
808.465	20636
808.607	20861
808.749	21074
808.891	21100
809.033	21112
809.174	21055
809.316	20941
809.458	20956
809.6	20868
809.741	21070
809.883	21096
810.025	21192
810.166	21093
810.308	21096
810.45	21104
810.591	21005
810.733	20845
810.875	20743
811.016	20590
811.158	20625
811.299	20689
811.441	20887
811.582	20883
811.724	20762
811.865	20678
812.007	20716
812.148	20686
812.29	20781
812.431	20910
812.573	21001
812.714	21077
812.855	21154
812.997	21351
813.138	21401
813.279	21416
813.421	21230
813.562	21165
813.703	20960
813.845	20902
813.986	20590
814.127	20473
814.268	20343
814.41	20377
814.551	20328
814.692	20317
814.833	20157
814.974	20176
815.115	20221
815.256	20225
815.397	20180
815.539	20134
815.68	19970
815.821	19887
815.962	19982
816.103	19974
816.244	19845
816.385	19750
816.526	19666
816.666	19525
816.807	19499
816.948	19556
817.089	19506
817.23	19487
817.371	19362
817.512	19384
817.653	19434
817.793	19331
817.934	19460
818.075	19506
818.216	19415
818.356	19293
818.497	19171
818.638	19034
818.778	19202
818.919	19099
819.06	19084
819.2	19247
819.341	19312
819.481	19263
819.622	19460
819.762	19704
819.903	19544
820.043	19483
820.184	19346
820.324	19354
820.465	19472
820.605	19422
820.746	19331
820.886	19373
821.026	19369
821.167	19362
821.307	19419
821.447	19358
821.588	19240
821.728	19088
821.868	18894
822.008	18859
822.149	18722
822.289	18749
822.429	18460
822.569	18479
822.709	18471
822.849	18296
822.99	18338
823.13	18239
823.27	18323
823.41	18152
823.55	17996
823.69	18064
823.83	18095
823.97	18022
824.11	17954
824.25	17817
824.389	17935
824.529	17904
824.669	17885
824.809	18019
824.949	17996
825.089	17939
825.228	17863
825.368	17714
825.508	17695
825.648	17779
825.787	17707
825.927	17707
826.067	17547
826.206	17535
826.346	17619
826.485	17627
826.625	17714
826.765	17687
826.904	17608
827.044	17360
827.183	17425
827.323	17330
827.462	17486
827.601	17250
827.741	17368
827.88	17341
828.02	17197
828.159	17296
828.298	17372
828.437	17482
828.577	17277
828.716	17425
828.855	17212
828.994	17216
829.134	17048
829.273	17193
829.412	17151
829.551	16999
829.69	17083
829.829	17136
829.968	17216
830.107	17185
830.246	17193
830.385	17045
830.524	16965
830.663	16869
830.802	16862
830.941	16740
831.08	16767
831.219	16835
831.357	16683
831.496	16934
831.635	16713
831.774	16679
831.913	16694
832.051	16542
832.19	16500
832.329	16531
832.467	16531
832.606	16390
832.744	16478
832.883	16440
833.022	16341
833.16	16371
833.299	16470
833.437	16462
833.576	16523
833.714	16538
833.852	16500
833.991	16481
834.129	16561
834.267	16470
834.406	16500
834.544	16485
834.682	16538
834.821	16459
834.959	16713
835.097	16500
835.235	16653
835.373	16424
835.511	16470
835.65	16375
835.788	16398
835.926	16188
836.064	16131
836.202	16196
836.34	16417
836.478	16451
836.615	16265
836.753	16432
836.891	16424
837.029	16363
837.167	16329
837.305	16325
837.443	16295
837.58	16226
837.718	16367
837.856	16322
837.993	16173
838.131	16337
838.269	16200
838.406	16211
838.544	16204
838.681	15953
838.819	15934
838.956	15797
839.094	15831
839.231	15857
839.369	15949
839.506	16276
839.643	16017
839.781	15778
839.918	15751
840.055	15880
840.193	15812
840.33	15850
840.467	15823
840.604	15903
840.742	16063
840.879	15770
841.016	15698
841.153	15682
841.29	15949
841.427	15823
841.564	15922
841.701	15880
841.838	15895
841.975	15694
842.112	15797
842.249	15728
842.385	15584
842.522	15720
842.659	15606
842.796	15576
842.933	15648
843.069	15629
843.206	15614
843.343	15709
843.479	15614
843.616	15637
843.752	15408
843.889	15447
844.025	15572
844.162	15408
844.298	15485
844.435	15313
844.571	15329
844.708	15530
844.844	15450
844.98	15561
845.117	15530
845.253	15363
845.389	15176
845.525	15313
845.661	15214
845.798	15154
845.934	15157
846.07	15077
846.206	15256
846.342	15344
846.478	15142
846.614	14971
846.75	14918
846.886	14967
847.022	15043
847.158	15020
847.294	14986
847.429	15005
847.565	15009
847.701	15252
847.837	14739
847.972	14686
848.108	14834
848.244	14750
848.379	14556
848.515	14610
848.65	14541
848.786	14556
848.921	14590
849.057	14720
849.192	14724
849.328	14594
849.463	14495
849.598	14492
849.734	14552
849.869	14393
850.004	14347
850.14	14450
850.275	14358
850.41	14370
850.545	14278
850.68	14339
850.815	14343
850.95	14313
851.085	14583
851.22	14404
851.355	14393
851.49	14248
851.625	14347
851.76	14328
851.895	14233
852.03	14187
852.165	14324
852.299	14317
852.434	14389
852.569	14301
852.703	14320
852.838	14339
852.973	14522
853.107	14412
853.242	14313
853.376	14244
853.511	14161
853.645	14180
853.78	14339
853.914	14244
854.048	14183
854.183	14157
854.317	14206
854.451	14355
854.585	14221
854.72	14103
854.854	14286
854.988	14134
855.122	14180
855.256	14134
855.39	14183
855.524	14259
855.658	14324
855.792	14229
855.926	14225
856.06	14214
856.194	14412
856.327	14282
856.461	14088
856.595	14180
856.729	14157
856.862	14317
856.996	14259
857.13	14298
857.263	14351
857.397	14328
857.53	14248
857.664	14161
857.797	14298
857.931	14320
858.064	14195
858.197	14358
858.331	14183
858.464	14123
858.597	14081
858.731	14199
858.864	14107
858.997	14214
859.13	14229
859.263	14259
859.396	14362
859.529	14214
859.662	14176
859.795	14069
859.928	14214
860.061	14347
860.194	14385
860.327	14199
860.46	14202
860.592	14233
860.725	14446
860.858	14332
860.99	14134
861.123	14164
861.256	14218
861.388	14218
861.521	14864
861.653	14111
861.786	13959
861.918	14138
862.05	14107
862.183	14176
862.315	14161
862.447	14153
862.58	14187
862.712	14062
862.844	13978
862.976	14073
863.108	14062
863.24	14393
863.372	13898
863.504	14027
863.636	13947
863.768	14031
863.9	13967
864.032	13947
864.164	14058
864.296	14001
864.428	14065
864.559	14161
864.691	14020
864.823	14050
864.954	14046
865.086	14054
865.217	13875
865.349	13947
865.48	13989
865.612	13925
865.743	14081
865.875	14069
866.006	13925
866.137	14005
866.269	13921
866.4	13921
866.531	13890
866.662	13928
866.793	13860
866.924	13921
867.055	13944
867.186	13959
867.317	13894
867.448	13856
867.579	13955
867.71	13871
867.841	13936
867.972	13986
868.103	14008
868.233	14035
868.364	13997
868.495	14065
868.625	14191
868.756	14317
868.886	14138
869.017	14123
869.147	14347
869.278	14336
869.408	14221
869.539	14195
869.669	14301
869.799	14317
869.929	14431
870.06	14355
870.19	14469
870.32	14533
870.45	14579
870.58	14648
870.71	14743
870.84	14693
870.97	14549
871.1	14632
871.23	14655
871.36	14746
871.489	14777
871.619	14765
871.749	14804
871.879	14830
872.008	14861
872.138	14845
872.267	14819
872.397	14731
872.526	14667
872.656	14594
872.785	14731
872.915	14838
873.044	14948
873.173	14891
873.303	14891
873.432	14941
873.561	14937
873.69	14853
873.819	14971
873.948	15005
874.077	14845
874.206	14921
874.335	14891
874.464	14933
874.593	15077
874.722	15176
874.851	15195
874.979	15199
875.108	15211
875.237	15112
875.365	15116
875.494	15214
875.623	15321
875.751	15085
875.88	15351
876.008	15321
876.136	15408
876.265	15587
876.393	15751
876.521	15778
876.65	15667
876.778	15656
876.906	15557
877.034	15603
877.162	15564
877.29	15538
877.418	15568
877.546	15656
877.674	15622
877.802	15564
877.93	15644
878.058	15606
878.185	15530
878.313	15625
878.441	15667
878.568	15496
878.696	15538
878.824	15595
878.951	15679
879.079	15705
879.206	15774
879.333	15846
879.461	15656
879.588	15694
879.715	15747
879.842	15865
879.97	15637
880.097	15473
880.224	15488
880.351	15412
880.478	15511
880.605	15477
880.732	15450
880.859	15679
880.986	15587
881.112	15492
881.239	15405
881.366	15279
881.493	15127
881.619	15188
881.746	15142
881.872	15131
881.999	15043
882.125	15135
882.252	15180
882.378	15039
882.505	15306
882.631	15089
882.757	15017
882.883	14990
883.01	14960
883.136	14982
883.262	14769
883.388	14823
883.514	14994
883.64	14914
883.766	14849
883.892	14773
884.018	14743
884.143	14941
884.269	15009
884.395	14819
884.52	14648
884.646	14598
884.772	14492
884.897	14625
885.023	14754
885.148	14724
885.274	14834
885.399	14682
885.524	14674
885.65	14606
885.775	14674
885.9	14640
886.025	14712
886.15	14693
886.275	14670
886.4	14541
886.525	14537
886.65	14590
886.775	14621
886.9	14762
887.025	14815
887.149	14663
887.274	14537
887.399	14511
887.523	14408
887.648	14492
887.773	14358
887.897	14469
888.021	14461
888.146	14473
888.27	14522
888.395	14587
888.519	14495
888.643	14526
888.767	14590
888.891	14366
889.015	14343
889.139	14275
889.263	14259
889.387	14503
889.511	14518
889.635	14465
889.759	14282
889.883	14294
890.006	14370
890.13	14415
890.254	14336
890.377	14332
890.501	14214
890.624	14153
890.748	14244
890.871	14062
890.995	14001
891.118	13906
891.241	14073
891.364	14084
891.488	14134
891.611	14008
891.734	14001
891.857	14081
891.98	14065
892.103	14202
892.226	14138
892.349	14073
892.471	13856
892.594	13909
892.717	14024
892.839	13986
892.962	14008
893.085	14191
893.207	14062
893.33	13928
893.452	13940
893.575	14073
893.697	13944
893.819	14168
893.941	14290
894.064	14180
894.186	14050
894.308	13963
894.43	14233
894.552	14267
894.674	14240
894.796	14092
894.918	14035
895.04	14081
895.161	14157
895.283	14210
895.405	14077
895.526	14157
895.648	14180
895.769	14210
895.891	14180
896.012	14259
896.134	14275
896.255	14256
896.376	14202
896.498	14278
896.619	14324
896.74	14183
896.861	14252
896.982	14514
897.103	14712
897.224	14530
897.345	14358
897.466	14377
897.587	14492
897.708	14663
897.828	14484
897.949	14427
898.07	14324
898.19	14495
898.311	14610
898.431	14507
898.552	14495
898.672	14720
898.792	14598
898.913	14552
899.033	14518
899.153	14396
899.273	14252
899.393	14358
899.513	14412
899.633	14339
899.753	14476
899.873	14396
899.993	14408
900.113	14366
900.232	14423
900.352	14480
900.472	14358
900.591	14305
900.711	14252
900.83	14210
900.95	14355
901.069	14309
901.189	14275
901.308	14069
901.427	13894
901.546	13967
901.665	13944
901.784	14062
901.904	13879
902.023	13761
902.141	13514
902.26	13476
902.379	13533
902.498	13552
902.617	13468
902.735	13445
902.854	13521
902.973	13552
903.091	13312
903.21	13232
903.328	13217
903.446	13156
903.565	13023
903.683	13168
903.801	13000
903.919	13069
904.038	13042
904.156	12825
904.274	13008
904.392	12924
904.51	12837
904.627	12966
904.745	12932
904.863	12970
904.981	12703
905.098	12707
905.216	12585
905.334	12684
905.451	12635
905.569	12528
905.686	12753
905.803	12662
905.921	12456
906.038	12410
906.155	12361
906.272	12380
906.389	12350
906.506	12300
906.623	12232
906.74	12197
906.857	12129
906.974	12098
907.091	12270
907.208	12285
907.324	12175
907.441	12194
907.557	12026
907.674	11904
907.79	11878
907.907	11885
908.023	11999
908.139	11935
908.256	11942
908.372	11863
908.488	11843
908.604	11741
908.72	11718
908.836	11707
908.952	11703
909.068	11668
909.184	11733
909.3	11688
909.415	11722
909.531	11703
909.647	11493
909.762	11493
909.878	11387
909.993	11509
910.108	11490
910.224	11455
910.339	11455
910.454	11383
910.57	11341
910.685	11315
910.8	11471
910.915	11493
911.03	11402
911.145	11170
911.259	11140
911.374	11181
911.489	11117
911.604	10980
911.718	10904
911.833	11003
911.947	10854
912.062	10649
912.176	10927
912.291	10892
912.405	10984
912.519	11124
912.633	11102
912.748	11025
912.862	11014
912.976	10835
913.09	10702
913.204	10862
913.318	10816
913.431	10942
913.545	10911
913.659	10965
913.772	10839
913.886	10733
914	10721
914.113	10755
914.226	10801
914.34	10767
914.453	10645
914.566	10854
914.68	10630
914.793	10656
914.906	10478
915.019	10424
915.132	10394
915.245	10413
915.358	10504
915.47	10432
915.583	10500
915.696	10436
915.809	10546
915.921	10596
916.034	10421
916.146	10379
916.259	10344
916.371	10481
916.483	10424
916.595	10451
916.708	10455
916.82	10314
916.932	10436
917.044	10333
917.156	10402
917.268	10306
917.38	10310
917.491	10230
917.603	10367
917.715	10402
917.826	10459
917.938	10322
918.049	10249
918.161	10341
918.272	10394
918.384	10348
918.495	10329
918.606	10147
918.717	10051
918.828	10181
918.939	10246
919.05	10040
919.161	10173
919.272	9972
919.383	10067
919.494	10276
919.604	10348
919.715	10192
919.826	10017
919.936	10044
920.047	10265
920.157	10158
920.267	10443
920.378	10188
920.488	10131
920.598	10341
920.708	10489
920.818	10371
920.928	10371
921.038	10504
921.148	10462
921.258	10188
921.368	10143
921.477	10059
921.587	10017
921.697	9922
921.806	10029
921.916	9918
922.025	9728
922.134	9663
922.244	9690
922.353	9778
922.462	9660
922.571	9572
922.68	9412
922.789	9382
922.898	9420
923.007	9386
923.116	9454
923.224	9443
923.333	9420
923.442	9260
923.55	9344
923.659	9340
923.767	9386
923.876	9294
923.984	9389
924.092	9249
924.201	9382
924.309	9294
924.417	9294
924.525	9142
924.633	9272
924.741	10040
924.849	9009
924.956	9237
925.064	9077
925.172	9005
925.279	9017
925.387	9135
925.494	9089
925.602	9131
925.709	9214
925.816	9047
925.924	9047
926.031	9207
926.138	9085
926.245	9154
926.352	9070
926.459	9161
926.566	9230
926.673	9032
926.779	8963
926.886	9013
926.993	8796
927.099	8811
927.206	8716
927.312	8689
927.419	8826
927.525	8796
927.631	8853
927.737	8735
927.843	8667
927.95	8579
928.056	8648
928.162	8743
928.267	8686
928.373	9367
928.479	8819
928.585	8552
928.69	8697
928.796	8708
928.901	8613
929.007	8495
929.112	8590
929.218	8613
929.323	8602
929.428	8495
929.533	8697
929.638	8492
929.743	8488
929.848	8507
929.953	8495
930.058	8476
930.163	8282
930.267	8290
930.372	8362
930.477	8252
930.581	8579
930.685	8351
930.79	8187
930.894	8267
930.998	8187
931.103	8374
931.207	8062
931.311	7963
931.415	7917
931.519	7750
931.623	7700
