Data from test_V78500241_563.txt Node
Date: Fri Mar 25 14:37:38 CST 2022
User: usil
Spectrometer: V785-0024
Trigger mode: 0
Integration Time (sec): 4.000000E-1
Scans to average: 1
Nonlinearity correction enabled: false
Boxcar width: 0
Storing dark spectrum: false
XAxis mode: Wavelengths
Number of Pixels in Spectrum: 1024
>>>>>Begin Spectral Data<<<<<
801.071	27717
801.214	27515
801.356	27351
801.499	27325
801.641	27180
801.783	27119
801.926	27169
802.068	27005
802.211	26864
802.353	26785
802.496	26583
802.638	26663
802.78	26583
802.923	26526
803.065	26473
803.208	26495
803.35	26575
803.492	26655
803.635	26716
803.777	26686
803.919	26575
804.061	26982
804.204	26655
804.346	26697
804.488	26602
804.63	26602
804.773	26590
804.915	26632
805.057	26857
805.199	26933
805.341	26785
805.483	26891
805.626	27039
805.768	26838
805.91	27043
806.052	26956
806.194	27047
806.336	27344
806.478	27332
806.62	27389
806.762	27641
806.904	27914
807.046	28379
807.188	28375
807.33	28523
807.472	29037
807.614	29353
807.756	29577
807.898	30182
808.04	30954
808.182	32130
808.324	33336
808.465	35041
808.607	36673
808.749	37963
808.891	38937
809.033	38960
809.174	38005
809.316	36513
809.458	34809
809.6	33070
809.741	31784
809.883	30722
810.025	30053
810.166	29573
810.308	29090
810.45	28790
810.591	28493
810.733	28105
810.875	27914
811.016	27751
811.158	27663
811.299	27755
811.441	27728
811.582	27572
811.724	27462
811.865	27275
812.007	27279
812.148	27173
812.29	27260
812.431	27287
812.573	27329
812.714	27515
812.855	27587
812.997	27690
813.138	27728
813.279	27603
813.421	27306
813.562	27450
813.703	27230
813.845	26975
813.986	26674
814.127	26621
814.268	26366
814.41	26457
814.551	26381
814.692	26530
814.833	26347
814.974	26256
815.115	26362
815.256	26172
815.397	26199
815.539	26233
815.68	26187
815.821	26103
815.962	26115
816.103	25944
816.244	25814
816.385	25746
816.526	25750
816.666	25613
816.807	25575
816.948	25419
817.089	25525
817.23	25396
817.371	25244
817.512	25339
817.653	25278
817.793	25274
817.934	25400
818.075	25312
818.216	25244
818.356	25190
818.497	25183
818.638	24966
818.778	25057
818.919	25042
819.06	24962
819.2	25061
819.341	25244
819.481	25251
819.622	25285
819.762	25499
819.903	25365
820.043	25350
820.184	25255
820.324	25316
820.465	25449
820.605	25183
820.746	25312
820.886	25091
821.026	25217
821.167	25221
821.307	25247
821.447	25145
821.588	24928
821.728	24802
821.868	24814
822.008	24429
822.149	24372
822.289	24502
822.429	24281
822.569	24167
822.709	24159
822.849	23973
822.99	23904
823.13	23931
823.27	23817
823.41	23745
823.55	23718
823.69	23722
823.83	23771
823.97	23676
824.11	23497
824.25	23425
824.389	23448
824.529	23627
824.669	23440
824.809	23520
824.949	23520
825.089	23459
825.228	23653
825.368	23220
825.508	23410
825.648	23440
825.787	23406
825.927	23379
826.067	23299
826.206	23303
826.346	23471
826.485	23197
826.625	23132
826.765	23387
826.904	23452
827.044	23075
827.183	22984
827.323	22968
827.462	23033
827.601	22999
827.741	22946
827.88	22965
828.02	22820
828.159	22854
828.298	22862
828.437	22980
828.577	22877
828.716	22976
828.855	22759
828.994	22584
829.134	22622
829.273	22694
829.412	22630
829.551	22481
829.69	22649
829.829	22512
829.968	22706
830.107	22653
830.246	22478
830.385	22523
830.524	22660
830.663	22466
830.802	22348
830.941	22055
831.08	22219
831.219	22371
831.357	22147
831.496	22360
831.635	22207
831.774	22040
831.913	22093
832.051	22051
832.19	22013
832.329	21983
832.467	21918
832.606	21873
832.744	21998
832.883	22044
833.022	21937
833.16	22067
833.299	22196
833.437	22116
833.576	22318
833.714	22356
833.852	22417
833.991	22519
834.129	22500
834.267	22500
834.406	22405
834.544	22341
834.682	22375
834.821	22394
834.959	22386
835.097	22192
835.235	22101
835.373	22074
835.511	22086
835.65	21915
835.788	21895
835.926	21652
836.064	21591
836.202	21587
836.34	21762
836.478	21816
836.615	21739
836.753	21675
836.891	21854
837.029	21751
837.167	21686
837.305	21492
837.443	21492
837.58	21504
837.718	21633
837.856	21553
837.993	21424
838.131	21515
838.269	21382
838.406	21450
838.544	21310
838.681	21329
838.819	21203
838.956	20937
839.094	20960
839.231	20982
839.369	21074
839.506	21195
839.643	21154
839.781	20925
839.918	20880
840.055	20925
840.193	20887
840.33	20876
840.467	20880
840.604	20872
840.742	21066
840.879	20838
841.016	20724
841.153	20743
841.29	20979
841.427	20773
841.564	20876
841.701	20838
841.838	20899
841.975	20693
842.112	20682
842.249	20636
842.385	20530
842.522	20727
842.659	20659
842.796	20579
842.933	20667
843.069	20530
843.206	20579
843.343	20644
843.479	20686
843.616	20773
843.752	20438
843.889	20556
844.025	20693
844.162	20625
844.298	20823
844.435	20621
844.571	20845
844.708	20826
844.844	21393
844.98	21488
845.117	21850
845.253	22150
845.389	22915
845.525	24623
845.661	27481
845.798	30840
845.934	33679
846.07	34793
846.206	34219
846.342	32005
846.478	28493
846.614	25419
846.75	23261
846.886	22120
847.022	21408
847.158	20925
847.294	20560
847.429	20324
847.565	20237
847.701	20457
847.837	19925
847.972	19818
848.108	19803
848.244	19856
848.379	19624
848.515	19594
848.65	19506
848.786	19620
848.921	19586
849.057	19632
849.192	19677
849.328	19601
849.463	19476
849.598	19426
849.734	19278
849.869	19312
850.004	19148
850.14	19263
850.275	19293
850.41	18996
850.545	19088
850.68	19069
850.815	19175
850.95	19072
851.085	19411
851.22	19266
851.355	19148
851.49	19072
851.625	19080
851.76	19053
851.895	19015
852.03	18977
852.165	19042
852.299	19080
852.434	19217
852.569	19236
852.703	19190
852.838	19263
852.973	19168
853.107	19426
853.242	19088
853.376	19141
853.511	18989
853.645	19126
853.78	19274
853.914	19236
854.048	19076
854.183	19183
854.317	19129
854.451	19285
854.585	19076
854.72	19122
854.854	19160
854.988	19088
855.122	19114
855.256	18939
855.39	19069
855.524	19103
855.658	19080
855.792	19065
855.926	19000
856.06	19034
856.194	19126
856.327	18886
856.461	18962
856.595	19004
856.729	18856
856.862	19008
856.996	19000
857.13	19031
857.263	19084
857.397	19114
857.53	18932
857.664	18981
857.797	18970
857.931	19065
858.064	18833
858.197	18996
858.331	18916
858.464	18745
858.597	18837
858.731	18814
858.864	18840
858.997	18863
859.13	18802
859.263	18909
859.396	19107
859.529	18787
859.662	18738
859.795	18913
859.928	18897
860.061	18993
860.194	18977
860.327	18924
860.46	18852
860.592	18920
860.725	18996
860.858	18958
860.99	18837
861.123	18764
861.256	18810
861.388	18859
861.521	19483
861.653	18597
861.786	18635
861.918	18677
862.05	18787
862.183	18734
862.315	18890
862.447	18878
862.58	18806
862.712	18639
862.844	18467
862.976	18544
863.108	18696
863.24	18905
863.372	18563
863.504	18563
863.636	18525
863.768	18525
863.9	18593
864.032	18422
864.164	18414
864.296	18547
864.428	18722
864.559	18650
864.691	18494
864.823	18585
864.954	18513
865.086	18486
865.217	18460
865.349	18498
865.48	18399
865.612	18475
865.743	18547
865.875	18483
866.006	18433
866.137	18525
866.269	18407
866.4	18464
866.531	18521
866.662	18433
866.793	18369
866.924	18346
867.055	18452
867.186	18426
867.317	18448
867.448	18300
867.579	18353
867.71	18258
867.841	18304
867.972	18338
868.103	18426
868.233	18388
868.364	18418
868.495	18486
868.625	18570
868.756	18791
868.886	18566
869.017	18696
869.147	18745
869.278	18806
869.408	18620
869.539	18734
869.669	18741
869.799	18658
869.929	18798
870.06	18783
870.19	18970
870.32	18924
870.45	18970
870.58	19114
870.71	19263
870.84	19152
870.97	19187
871.1	19084
871.23	19236
871.36	19365
871.489	19122
871.619	19198
871.749	19297
871.879	19278
872.008	19350
872.138	19335
872.267	19388
872.397	19426
872.526	19164
872.656	19289
872.785	19240
872.915	19460
873.044	19438
873.173	19403
873.303	19434
873.432	19476
873.561	19548
873.69	19495
873.819	19476
873.948	19559
874.077	19468
874.206	19499
874.335	19575
874.464	19647
874.593	19864
874.722	19807
874.851	19864
874.979	19887
875.108	19868
875.237	19830
875.365	19871
875.494	19879
875.623	20046
875.751	19947
875.88	20084
876.008	20225
876.136	20214
876.265	20423
876.393	20488
876.521	20560
876.65	20762
876.778	20606
876.906	20606
877.034	20663
877.162	20598
877.29	20602
877.418	20583
877.546	20823
877.674	20834
877.802	20842
877.93	20902
878.058	20994
878.185	21108
878.313	21256
878.441	21477
878.568	21469
878.696	21778
878.824	22185
878.951	22892
879.079	23786
879.206	24719
879.333	25928
879.461	26743
879.588	27313
879.715	27351
879.842	27028
879.97	25921
880.097	24631
880.224	23668
880.351	23227
880.478	22729
880.605	22413
880.732	22234
880.859	22398
880.986	22063
881.112	21975
881.239	21865
881.366	21751
881.493	21576
881.619	21583
881.746	21698
881.872	21603
881.999	21644
882.125	21667
882.252	21637
882.378	21694
882.505	21701
882.631	21603
882.757	21561
882.883	21591
883.01	21431
883.136	21450
883.262	21428
883.388	21310
883.514	21416
883.64	21526
883.766	21401
883.892	21283
884.018	21222
884.143	21397
884.269	21587
884.395	21131
884.52	21165
884.646	21112
884.772	21192
884.897	21100
885.023	21150
885.148	21195
885.274	21184
885.399	21199
885.524	20994
885.65	21093
885.775	20979
885.9	20792
886.025	20933
886.15	20785
886.275	20522
886.4	20415
886.525	20469
886.65	20415
886.775	20294
886.9	20473
887.025	20412
887.149	20073
887.274	19909
887.399	19997
887.523	19879
887.648	19700
887.773	19689
887.897	19841
888.021	19685
888.146	19651
888.27	19780
888.395	19769
888.519	19674
888.643	19662
888.767	19624
888.891	19460
889.015	19354
889.139	19381
889.263	19183
889.387	19304
889.511	19354
889.635	19396
889.759	19209
889.883	19179
890.006	19289
890.13	19369
890.254	19000
890.377	19031
890.501	18905
890.624	18776
890.748	18947
890.871	18905
890.995	18688
891.118	18669
891.241	18654
891.364	18726
891.488	18623
891.611	18673
891.734	18620
891.857	18589
891.98	18528
892.103	18677
892.226	18532
892.349	18616
892.471	18338
892.594	18388
892.717	18483
892.839	18437
892.962	18509
893.085	18460
893.207	18414
893.33	18216
893.452	18296
893.575	18289
893.697	18433
893.819	18528
893.941	18513
894.064	18388
894.186	18201
894.308	18216
894.43	18448
894.552	18429
894.674	18471
894.796	18060
894.918	18338
895.04	18213
895.161	18296
895.283	18228
895.405	18174
895.526	18174
895.648	18171
895.769	18178
895.891	18258
896.012	18258
896.134	18319
896.255	18232
896.376	18220
896.498	18155
896.619	18422
896.74	18140
896.861	18376
896.982	18551
897.103	18669
897.224	18494
897.345	18422
897.466	18281
897.587	18471
897.708	18566
897.828	18471
897.949	18399
898.07	18330
898.19	18376
898.311	18517
898.431	18365
898.552	18483
898.672	18490
898.792	18559
898.913	18350
899.033	18369
899.153	18213
899.273	18007
899.393	18353
899.513	18209
899.633	18197
899.753	18270
899.873	18144
899.993	18315
900.113	18155
900.232	18235
900.352	18076
900.472	18026
900.591	17931
900.711	18015
900.83	17931
900.95	18060
901.069	18095
901.189	18007
901.308	17707
901.427	17509
901.546	17585
901.665	17699
901.784	17687
901.904	17474
902.023	17345
902.141	17117
902.26	17151
902.379	17189
902.498	17041
902.617	16946
902.735	17090
902.854	17064
902.973	16858
903.091	16744
903.21	16660
903.328	16687
903.446	16603
903.565	16485
903.683	16607
903.801	16512
903.919	16474
904.038	16447
904.156	16314
904.274	16421
904.392	16375
904.51	16303
904.627	16280
904.745	16322
904.863	16310
904.981	16128
905.098	15960
905.216	15892
905.334	15960
905.451	15888
905.569	15888
905.686	16025
905.803	15964
905.921	15682
906.038	15876
906.155	15739
906.272	15739
906.389	15705
906.506	15568
906.623	15610
906.74	15526
906.857	15340
906.974	15374
907.091	15504
907.208	15599
907.324	15485
907.441	15367
907.557	15154
907.674	15119
907.79	15123
907.907	15150
908.023	15119
908.139	15173
908.256	14986
908.372	15024
908.488	15074
908.604	14853
908.72	14941
908.836	14811
908.952	14811
909.068	14845
909.184	14956
909.3	14891
909.415	14746
909.531	14861
909.647	14640
909.762	14606
909.878	14583
909.993	14533
910.108	14617
910.224	14514
910.339	14511
910.454	14412
910.57	14278
910.685	14294
910.8	14602
910.915	14526
911.03	14431
911.145	14275
911.259	14267
911.374	14145
911.489	14050
911.604	14050
911.718	13951
911.833	13970
911.947	13864
912.062	13742
912.176	13898
912.291	13982
912.405	13860
912.519	14111
912.633	14077
912.748	13928
912.862	13864
912.976	13803
913.09	13609
913.204	13693
913.318	13814
913.431	13928
913.545	13826
913.659	13883
913.772	13750
913.886	13563
914	13563
914.113	13776
914.226	13700
914.34	13723
914.453	13563
914.566	13537
914.68	13480
914.793	13510
914.906	13388
915.019	13282
915.132	13183
915.245	13354
915.358	13225
915.47	13240
915.583	13396
915.696	13327
915.809	13411
915.921	13403
916.034	13225
916.146	13110
916.259	13221
916.371	13274
916.483	13278
916.595	13168
916.708	13190
916.82	13175
916.932	13209
917.044	13099
917.156	13114
917.268	13076
917.38	13038
917.491	12970
917.603	13012
917.715	13145
917.826	13053
917.938	12935
918.049	12859
918.161	12993
918.272	13084
918.384	13065
918.495	12916
918.606	12814
918.717	12734
918.828	12814
918.939	12814
919.05	12703
919.161	12722
919.272	12593
919.383	12593
919.494	12787
919.604	13004
919.715	12715
919.826	12677
919.936	12738
920.047	12783
920.157	12791
920.267	13034
920.378	12730
920.488	12696
920.598	12878
920.708	12993
920.818	12996
920.928	12958
921.038	13080
921.148	13012
921.258	12627
921.368	12650
921.477	12429
921.587	12551
921.697	12384
921.806	12547
921.916	12490
922.025	12277
922.134	12205
922.244	12175
922.353	12102
922.462	12095
922.571	11988
922.68	11836
922.789	11851
922.898	11741
923.007	11718
923.116	11847
923.224	11802
923.333	11809
923.442	11684
923.55	11726
923.659	11630
923.767	11733
923.876	11581
923.984	11649
924.092	11604
924.201	11699
924.309	11672
924.417	11676
924.525	11543
924.633	11467
924.741	12285
924.849	11402
924.956	11554
925.064	11414
925.172	11258
925.279	11311
925.387	11414
925.494	11246
925.602	11376
925.709	11360
925.816	11254
925.924	11239
926.031	11512
926.138	11311
926.245	11337
926.352	11239
926.459	11444
926.566	11315
926.673	11269
926.779	11166
926.886	11060
926.993	10984
927.099	10946
927.206	10991
927.312	10869
927.419	11037
927.525	10927
927.631	10999
927.737	10847
927.843	10782
927.95	10725
928.056	10778
928.162	10778
928.267	10843
928.373	11440
928.479	10797
928.585	10656
928.69	10839
928.796	10828
928.901	10729
929.007	10546
929.112	10702
929.218	10672
929.323	10561
929.428	10634
929.533	10675
929.638	10527
929.743	10531
929.848	10500
929.953	10516
930.058	10451
930.163	10280
930.267	10341
930.372	10436
930.477	10177
930.581	10523
930.685	10314
930.79	10211
930.894	10227
930.998	10192
931.103	10375
931.207	9842
931.311	9888
931.415	9835
931.519	9667
931.623	9564
