Data from test_V78500241_1755.txt Node
Date: Fri Mar 25 14:45:56 CST 2022
User: usil
Spectrometer: V785-0024
Trigger mode: 0
Integration Time (sec): 4.000000E-1
Scans to average: 1
Nonlinearity correction enabled: false
Boxcar width: 0
Storing dark spectrum: false
XAxis mode: Wavelengths
Number of Pixels in Spectrum: 1024
>>>>>Begin Spectral Data<<<<<
801.071	22128
801.214	22131
801.356	21953
801.499	21652
801.641	21572
801.783	21534
801.926	21595
802.068	21561
802.211	21428
802.353	21363
802.496	21123
802.638	21123
802.78	21043
802.923	20986
803.065	21001
803.208	20864
803.35	20864
803.492	20925
803.635	21058
803.777	21001
803.919	20994
804.061	21363
804.204	20967
804.346	20902
804.488	20773
804.63	20921
804.773	20807
804.915	20868
805.057	20921
805.199	20826
805.341	20891
805.483	20956
805.626	20899
805.768	20864
805.91	20800
806.052	20948
806.194	20750
806.336	20956
806.478	20845
806.62	20861
806.762	20792
806.904	21047
807.046	21218
807.188	21184
807.33	21207
807.472	21230
807.614	21131
807.756	21074
807.898	21028
808.04	20914
808.182	21017
808.324	20963
808.465	21036
808.607	21150
808.749	21241
808.891	21458
809.033	21428
809.174	21431
809.316	21241
809.458	21302
809.6	21252
809.741	21325
809.883	21313
810.025	21469
810.166	21519
810.308	21370
810.45	21329
810.591	21332
810.733	21081
810.875	21028
811.016	20921
811.158	20971
811.299	21116
811.441	21116
811.582	21135
811.724	21093
811.865	21055
812.007	21028
812.148	20952
812.29	20975
812.431	21351
812.573	21313
812.714	21542
812.855	21526
812.997	21606
813.138	21663
813.279	21542
813.421	21523
813.562	21557
813.703	21283
813.845	21176
813.986	20918
814.127	20674
814.268	20651
814.41	20617
814.551	20629
814.692	20632
814.833	20476
814.974	20465
815.115	20560
815.256	20347
815.397	20457
815.539	20404
815.68	20275
815.821	20305
815.962	20362
816.103	20263
816.244	20183
816.385	20069
816.526	20027
816.666	19947
816.807	19750
816.948	19742
817.089	19932
817.23	19875
817.371	19712
817.512	19613
817.653	19674
817.793	19658
817.934	19746
818.075	19738
818.216	19791
818.356	19616
818.497	19476
818.638	19419
818.778	19339
818.919	19369
819.06	19407
819.2	19605
819.341	19540
819.481	19559
819.622	19704
819.762	19811
819.903	19860
820.043	19788
820.184	19670
820.324	19677
820.465	19712
820.605	19616
820.746	19761
820.886	19533
821.026	19613
821.167	19567
821.307	19674
821.447	19620
821.588	19525
821.728	19460
821.868	19251
822.008	19076
822.149	19065
822.289	19012
822.429	18871
822.569	18768
822.709	18795
822.849	18631
822.99	18669
823.13	18540
823.27	18551
823.41	18380
823.55	18296
823.69	18380
823.83	18361
823.97	18315
824.11	18194
824.25	18129
824.389	18125
824.529	18190
824.669	18197
824.809	18266
824.949	18224
825.089	18273
825.228	18148
825.368	18072
825.508	17973
825.648	17901
825.787	17946
825.927	18007
826.067	17923
826.206	17847
826.346	18022
826.485	17961
826.625	17992
826.765	18125
826.904	17931
827.044	17786
827.183	17722
827.323	17646
827.462	17726
827.601	17615
827.741	17684
827.88	17691
828.02	17486
828.159	17638
828.298	17600
828.437	17741
828.577	17509
828.716	17752
828.855	17543
828.994	17395
829.134	17429
829.273	17414
829.412	17368
829.551	17372
829.69	17360
829.829	17414
829.968	17349
830.107	17433
830.246	17444
830.385	17250
830.524	17250
830.663	17178
830.802	17094
830.941	17071
831.08	16896
831.219	17067
831.357	17071
831.496	17307
831.635	16980
831.774	16961
831.913	16809
832.051	16797
832.19	16740
832.329	16866
832.467	16679
832.606	16660
832.744	16664
832.883	16592
833.022	16706
833.16	16672
833.299	16729
833.437	16759
833.576	16717
833.714	16733
833.852	16679
833.991	16881
834.129	16706
834.267	16759
834.406	16740
834.544	16755
834.682	16786
834.821	16774
834.959	16980
835.097	16698
835.235	16797
835.373	16748
835.511	16721
835.65	16634
835.788	16618
835.926	16459
836.064	16462
836.202	16405
836.34	16649
836.478	16691
836.615	16565
836.753	16672
836.891	16668
837.029	16752
837.167	16538
837.305	16622
837.443	16569
837.58	16489
837.718	16641
837.856	16569
837.993	16489
838.131	16565
838.269	16478
838.406	16432
838.544	16451
838.681	16318
838.819	16230
838.956	16101
839.094	16040
839.231	16082
839.369	16162
839.506	16443
839.643	16402
839.781	16067
839.918	16082
840.055	16059
840.193	16017
840.33	16036
840.467	16044
840.604	16200
840.742	16371
840.879	15895
841.016	15983
841.153	15956
841.29	16181
841.427	16120
841.564	16063
841.701	16166
841.838	15968
841.975	15903
842.112	15998
842.249	15941
842.385	15808
842.522	16101
842.659	15869
842.796	15785
842.933	15918
843.069	15789
843.206	15808
843.343	15911
843.479	15785
843.616	15911
843.752	15614
843.889	15610
844.025	15705
844.162	15606
844.298	15800
844.435	15603
844.571	15584
844.708	15652
844.844	15838
844.98	15789
845.117	15709
845.253	15523
845.389	15431
845.525	15526
845.661	15542
845.798	15454
845.934	15496
846.07	15424
846.206	15526
846.342	15614
846.478	15424
846.614	15161
846.75	15195
846.886	15081
847.022	15313
847.158	15184
847.294	15195
847.429	15176
847.565	15222
847.701	15401
847.837	14967
847.972	14891
848.108	15077
848.244	15032
848.379	14785
848.515	14727
848.65	14735
848.786	14811
848.921	14918
849.057	14902
849.192	14990
849.328	14834
849.463	14895
849.598	14746
849.734	14792
849.869	14644
850.004	14530
850.14	14598
850.275	14594
850.41	14571
850.545	14560
850.68	14480
850.815	14564
850.95	14511
851.085	14769
851.22	14663
851.355	14514
851.49	14537
851.625	14545
851.76	14530
851.895	14492
852.03	14400
852.165	14514
852.299	14613
852.434	14583
852.569	14606
852.703	14610
852.838	14632
852.973	14667
853.107	14705
853.242	14454
853.376	14461
853.511	14336
853.645	14377
853.78	14438
853.914	14415
854.048	14324
854.183	14431
854.317	14469
854.451	14617
854.585	14454
854.72	14530
854.854	14393
854.988	14370
855.122	14381
855.256	14183
855.39	14385
855.524	14552
855.658	14442
855.792	14434
855.926	14533
856.06	14469
856.194	14461
856.327	14415
856.461	14393
856.595	14415
856.729	14404
856.862	14419
856.996	14450
857.13	14423
857.263	14503
857.397	14590
857.53	14419
857.664	14465
857.797	14484
857.931	14560
858.064	14400
858.197	14575
858.331	14454
858.464	14286
858.597	14355
858.731	14377
858.864	14446
858.997	14343
859.13	14522
859.263	14438
859.396	14473
859.529	14404
859.662	14374
859.795	14446
859.928	14404
860.061	14560
860.194	14446
860.327	14431
860.46	14476
860.592	14575
860.725	14492
860.858	14518
860.99	14358
861.123	14412
861.256	14358
861.388	14450
861.521	15093
861.653	14282
861.786	14218
861.918	14339
862.05	14282
862.183	14434
862.315	14351
862.447	14457
862.58	14240
862.712	14237
862.844	14092
862.976	14202
863.108	14286
863.24	14476
863.372	14016
863.504	14244
863.636	14229
863.768	14278
863.9	14233
864.032	14142
864.164	14069
864.296	14343
864.428	14328
864.559	14286
864.691	14301
864.823	14351
864.954	14240
865.086	14237
865.217	14210
865.349	14062
865.48	14191
865.612	14221
865.743	14355
865.875	14195
866.006	14176
866.137	14237
866.269	14111
866.4	14244
866.531	14145
866.662	14164
866.793	14168
866.924	14138
867.055	14252
867.186	14164
867.317	14157
867.448	14054
867.579	14115
867.71	14187
867.841	14157
867.972	14237
868.103	14176
868.233	14267
868.364	14172
868.495	14286
868.625	14434
868.756	14545
868.886	14339
869.017	14431
869.147	14488
869.278	14598
869.408	14419
869.539	14396
869.669	14568
869.799	14522
869.929	14583
870.06	14518
870.19	14735
870.32	14735
870.45	14785
870.58	14750
870.71	14982
870.84	14883
870.97	14876
871.1	14914
871.23	15009
871.36	15070
871.489	14952
871.619	14994
871.749	15173
871.879	15077
872.008	15100
872.138	15005
872.267	15047
872.397	14979
872.526	14857
872.656	14800
872.785	14853
872.915	15017
873.044	15081
873.173	15131
873.303	15032
873.432	15093
873.561	15131
873.69	15127
873.819	14952
873.948	15203
874.077	15013
874.206	15001
874.335	15131
874.464	15218
874.593	15374
874.722	15298
874.851	15393
874.979	15496
875.108	15428
875.237	15268
875.365	15310
875.494	15454
875.623	15435
875.751	15283
875.88	15386
876.008	15519
876.136	15728
876.265	15648
876.393	15922
876.521	15846
876.65	15930
876.778	15781
876.906	15812
877.034	15732
877.162	15842
877.29	15667
877.418	15778
877.546	15888
877.674	15831
877.802	15850
877.93	15816
878.058	15720
878.185	15675
878.313	15785
878.441	15797
878.568	15679
878.696	15827
878.824	15941
878.951	15899
879.079	16032
879.206	16071
879.333	15968
879.461	15838
879.588	15926
879.715	16032
879.842	16139
879.97	15918
880.097	15762
880.224	15625
880.351	15526
880.478	15720
880.605	15751
880.732	15584
880.859	15911
880.986	15705
881.112	15633
881.239	15561
881.366	15473
881.493	15431
881.619	15336
881.746	15351
881.872	15317
881.999	15245
882.125	15321
882.252	15389
882.378	15275
882.505	15557
882.631	15218
882.757	15062
882.883	15264
883.01	15207
883.136	15047
883.262	14990
883.388	15017
883.514	15211
883.64	15188
883.766	15157
883.892	14929
884.018	15070
884.143	15199
884.269	15264
884.395	14895
884.52	14845
884.646	14948
884.772	14864
884.897	14773
885.023	14872
885.148	14979
885.274	14975
885.399	15032
885.524	14876
885.65	14941
885.775	14781
885.9	14823
886.025	14918
886.15	14868
886.275	14830
886.4	14735
886.525	14773
886.65	14750
886.775	14716
886.9	15028
887.025	15028
887.149	14956
887.274	14739
887.399	14594
887.523	14678
887.648	14537
887.773	14556
887.897	14686
888.021	14777
888.146	14655
888.27	14796
888.395	14762
888.519	14701
888.643	14785
888.767	14693
888.891	14606
889.015	14613
889.139	14636
889.263	14533
889.387	14674
889.511	14678
889.635	14640
889.759	14495
889.883	14499
890.006	14560
890.13	14583
890.254	14400
890.377	14511
890.501	14358
890.624	14347
890.748	14412
890.871	14343
890.995	14206
891.118	14294
891.241	14305
891.364	14347
891.488	14404
891.611	14161
891.734	14229
891.857	14381
891.98	14237
892.103	14313
892.226	14248
892.349	14168
892.471	14077
892.594	14218
892.717	14225
892.839	14157
892.962	14195
893.085	14259
893.207	14275
893.33	14081
893.452	14153
893.575	14332
893.697	14305
893.819	14351
893.941	14400
894.064	14415
894.186	14214
894.308	14206
894.43	14389
894.552	14465
894.674	14438
894.796	14214
894.918	14195
895.04	14294
895.161	14427
895.283	14366
895.405	14221
895.526	14324
895.648	14339
895.769	14370
895.891	14412
896.012	14427
896.134	14385
896.255	14290
896.376	14404
896.498	14320
896.619	14511
896.74	14427
896.861	14480
896.982	14788
897.103	14933
897.224	14659
897.345	14678
897.466	14556
897.587	14629
897.708	14792
897.828	14807
897.949	14587
898.07	14476
898.19	14590
898.311	14743
898.431	14746
898.552	14792
898.672	14895
898.792	14762
898.913	14842
899.033	14602
899.153	14632
899.273	14575
899.393	14659
899.513	14651
899.633	14678
899.753	14613
899.873	14579
899.993	14640
900.113	14610
900.232	14594
900.352	14526
900.472	14541
900.591	14431
900.711	14484
900.83	14408
900.95	14587
901.069	14560
901.189	14408
901.308	14271
901.427	14084
901.546	14062
901.665	14168
901.784	14210
901.904	14016
902.023	13921
902.141	13750
902.26	13753
902.379	13746
902.498	13685
902.617	13647
902.735	13761
902.854	13738
902.973	13647
903.091	13460
903.21	13559
903.328	13377
903.446	13373
903.565	13301
903.683	13285
903.801	13217
903.919	13312
904.038	13282
904.156	13103
904.274	13301
904.392	13015
904.51	13065
904.627	13129
904.745	13164
904.863	13164
904.981	13012
905.098	12749
905.216	12875
905.334	12821
905.451	12867
905.569	12749
905.686	12741
905.803	12753
905.921	12540
906.038	12722
906.155	12623
906.272	12475
906.389	12559
906.506	12357
906.623	12311
906.74	12365
906.857	12220
906.974	12254
907.091	12414
907.208	12464
907.324	12426
907.441	12258
907.557	12171
907.674	12152
907.79	12003
907.907	12053
908.023	12152
908.139	12091
908.256	12015
908.372	11996
908.488	11958
908.604	11961
908.72	11843
908.836	11805
908.952	11794
909.068	11836
909.184	11942
909.3	11813
909.415	11855
909.531	11878
909.647	11665
909.762	11665
909.878	11539
909.993	11627
910.108	11623
910.224	11604
910.339	11665
910.454	11558
910.57	11482
910.685	11421
910.8	11756
910.915	11657
911.03	11402
911.145	11417
911.259	11341
911.374	11395
911.489	11318
911.604	11227
911.718	11140
911.833	11162
911.947	11006
912.062	11018
912.176	11132
912.291	11071
912.405	11102
912.519	11204
912.633	11315
912.748	11216
912.862	11185
912.976	10927
913.09	10869
913.204	10896
913.318	11064
913.431	11048
913.545	11147
913.659	11132
913.772	10930
913.886	10809
914	10786
914.113	10911
914.226	11010
914.34	10923
914.453	10786
914.566	10930
914.68	10839
914.793	10809
914.906	10596
915.019	10660
915.132	10504
915.245	10565
915.358	10561
915.47	10531
915.583	10683
915.696	10558
915.809	10729
915.921	10664
916.034	10584
916.146	10554
916.259	10508
916.371	10710
916.483	10573
916.595	10508
916.708	10481
916.82	10535
916.932	10554
917.044	10504
917.156	10611
917.268	10409
917.38	10478
917.491	10382
917.603	10474
917.715	10508
917.826	10516
917.938	10462
918.049	10280
918.161	10436
918.272	10519
918.384	10573
918.495	10440
918.606	10356
918.717	10306
918.828	10382
918.939	10371
919.05	10223
919.161	10284
919.272	10112
919.383	10128
919.494	10360
919.604	10561
919.715	10325
919.826	10192
919.936	10329
920.047	10375
920.157	10390
920.267	10565
920.378	10337
920.488	10344
920.598	10500
920.708	10592
920.818	10470
920.928	10554
921.038	10645
921.148	10596
921.258	10348
921.368	10230
921.477	10158
921.587	10173
921.697	10025
921.806	10192
921.916	9987
922.025	9956
922.134	9892
922.244	9819
922.353	9888
922.462	9732
922.571	9682
922.68	9485
922.789	9564
922.898	9606
923.007	9481
923.116	9603
923.224	9580
923.333	9580
923.442	9424
923.55	9294
923.659	9462
923.767	9473
923.876	9408
923.984	9447
924.092	9268
924.201	9469
924.309	9462
924.417	9420
924.525	9313
924.633	9420
924.741	10405
924.849	9222
924.956	9340
925.064	9260
925.172	9108
925.279	9165
925.387	9195
925.494	9222
925.602	9355
925.709	9279
925.816	9112
925.924	9192
926.031	9268
926.138	9211
926.245	9180
926.352	9142
926.459	9306
926.566	9374
926.673	9123
926.779	9116
926.886	9077
926.993	8986
927.099	8887
927.206	8929
927.312	8891
927.419	8975
927.525	8941
927.631	9028
927.737	8872
927.843	8735
927.95	8762
928.056	8861
928.162	8857
928.267	8834
928.373	9435
928.479	8967
928.585	8731
928.69	8861
928.796	8823
928.901	8743
929.007	8613
929.112	8724
929.218	8644
929.323	8659
929.428	8648
929.533	8746
929.638	8571
929.743	8594
929.848	8686
929.953	8579
930.058	8533
930.163	8446
930.267	8358
930.372	8552
930.477	8324
930.581	8640
930.685	8442
930.79	8366
930.894	8328
930.998	8317
931.103	8427
931.207	8168
931.311	8035
931.415	8012
931.519	7818
931.623	7852
