Data from test_V78500241_1981.txt Node
Date: Fri Mar 25 14:47:30 CST 2022
User: usil
Spectrometer: V785-0024
Trigger mode: 0
Integration Time (sec): 4.000000E-1
Scans to average: 1
Nonlinearity correction enabled: false
Boxcar width: 0
Storing dark spectrum: false
XAxis mode: Wavelengths
Number of Pixels in Spectrum: 1024
>>>>>Begin Spectral Data<<<<<
801.071	22025
801.214	21968
801.356	21762
801.499	21736
801.641	21511
801.783	21511
801.926	21576
802.068	21363
802.211	21336
802.353	21256
802.496	21058
802.638	21013
802.78	20773
802.923	20739
803.065	20746
803.208	20823
803.35	20739
803.492	20948
803.635	20887
803.777	20845
803.919	20750
804.061	21127
804.204	20826
804.346	20853
804.488	20754
804.63	20731
804.773	20674
804.915	20674
805.057	20849
805.199	20682
805.341	20838
805.483	20887
805.626	20800
805.768	20659
805.91	20682
806.052	20708
806.194	20689
806.336	20826
806.478	20765
806.62	20720
806.762	20804
806.904	20937
807.046	21146
807.188	21017
807.33	21081
807.472	21180
807.614	20918
807.756	20899
807.898	20788
808.04	20754
808.182	20788
808.324	20731
808.465	20762
808.607	21013
808.749	21123
808.891	21279
809.033	21188
809.174	21062
809.316	21119
809.458	21074
809.6	20979
809.741	21108
809.883	21077
810.025	21298
810.166	21450
810.308	21218
810.45	21233
810.591	21089
810.733	20975
810.875	20868
811.016	20765
811.158	20762
811.299	20937
811.441	21119
811.582	20895
811.724	20826
811.865	20743
812.007	20788
812.148	20834
812.29	20868
812.431	21104
812.573	21100
812.714	21218
812.855	21321
812.997	21408
813.138	21545
813.279	21408
813.421	21382
813.562	21294
813.703	21207
813.845	21047
813.986	20640
814.127	20499
814.268	20454
814.41	20492
814.551	20461
814.692	20492
814.833	20332
814.974	20396
815.115	20320
815.256	20336
815.397	20305
815.539	20298
815.68	20107
815.821	20027
815.962	20058
816.103	20157
816.244	19871
816.385	19997
816.526	19784
816.666	19818
816.807	19597
816.948	19609
817.089	19571
817.23	19544
817.371	19647
817.512	19597
817.653	19502
817.793	19609
817.934	19578
818.075	19597
818.216	19597
818.356	19476
818.497	19422
818.638	19221
818.778	19107
818.919	19198
819.06	19282
819.2	19354
819.341	19343
819.481	19453
819.622	19643
819.762	19833
819.903	19700
820.043	19582
820.184	19521
820.324	19567
820.465	19624
820.605	19491
820.746	19487
820.886	19358
821.026	19483
821.167	19407
821.307	19533
821.447	19491
821.588	19270
821.728	19179
821.868	19099
822.008	18973
822.149	19004
822.289	18924
822.429	18768
822.569	18570
822.709	18654
822.849	18426
822.99	18456
823.13	18365
823.27	18315
823.41	18220
823.55	18117
823.69	18281
823.83	18254
823.97	18186
824.11	18049
824.25	17897
824.389	18034
824.529	18045
824.669	18026
824.809	18091
824.949	18178
825.089	18106
825.228	17935
825.368	17798
825.508	17752
825.648	17809
825.787	17741
825.927	17866
826.067	17775
826.206	17741
826.346	17885
826.485	17840
826.625	17760
826.765	17767
826.904	17798
827.044	17611
827.183	17512
827.323	17459
827.462	17516
827.601	17372
827.741	17398
827.88	17566
828.02	17379
828.159	17421
828.298	17478
828.437	17535
828.577	17493
828.716	17642
828.855	17433
828.994	17345
829.134	17208
829.273	17189
829.412	17197
829.551	17178
829.69	17162
829.829	17220
829.968	17337
830.107	17326
830.246	17254
830.385	17143
830.524	17132
830.663	17041
830.802	16953
830.941	16889
831.08	16752
831.219	16919
831.357	16881
831.496	17029
831.635	16839
831.774	16759
831.913	16683
832.051	16717
832.19	16573
832.329	16710
832.467	16611
832.606	16523
832.744	16607
832.883	16634
833.022	16478
833.16	16603
833.299	16554
833.437	16535
833.576	16649
833.714	16725
833.852	16675
833.991	16603
834.129	16653
834.267	16622
834.406	16500
834.544	16603
834.682	16577
834.821	16641
834.959	16748
835.097	16550
835.235	16740
835.373	16607
835.511	16668
835.65	16485
835.788	16386
835.926	16356
836.064	16352
836.202	16379
836.34	16489
836.478	16649
836.615	16630
836.753	16592
836.891	16512
837.029	16599
837.167	16474
837.305	16390
837.443	16356
837.58	16390
837.718	16447
837.856	16421
837.993	16242
838.131	16481
838.269	16299
838.406	16306
838.544	16261
838.681	16074
838.819	16040
838.956	15975
839.094	15945
839.231	15953
839.369	16112
839.506	16348
839.643	16185
839.781	16002
839.918	15941
840.055	16025
840.193	15964
840.33	15903
840.467	15892
840.604	16017
840.742	16276
840.879	15895
841.016	15869
841.153	15816
841.29	16040
841.427	15937
841.564	16013
841.701	16055
841.838	15926
841.975	15774
842.112	15865
842.249	15679
842.385	15671
842.522	15884
842.659	15835
842.796	15766
842.933	15686
843.069	15709
843.206	15736
843.343	15880
843.479	15869
843.616	15671
843.752	15587
843.889	15576
844.025	15709
844.162	15469
844.298	15534
844.435	15553
844.571	15523
844.708	15519
844.844	15610
844.98	15622
845.117	15576
845.253	15473
845.389	15359
845.525	15458
845.661	15386
845.798	15291
845.934	15378
846.07	15283
846.206	15435
846.342	15336
846.478	15260
846.614	15165
846.75	15112
846.886	15043
847.022	15154
847.158	15066
847.294	15043
847.429	15195
847.565	15028
847.701	15291
847.837	14826
847.972	14739
848.108	15028
848.244	14902
848.379	14830
848.515	14727
848.65	14625
848.786	14708
848.921	14644
849.057	14811
849.192	14739
849.328	14659
849.463	14693
849.598	14659
849.734	14602
849.869	14537
850.004	14442
850.14	14419
850.275	14442
850.41	14385
850.545	14480
850.68	14423
850.815	14575
850.95	14381
851.085	14636
851.22	14518
851.355	14412
851.49	14412
851.625	14427
851.76	14568
851.895	14324
852.03	14374
852.165	14404
852.299	14503
852.434	14537
852.569	14457
852.703	14476
852.838	14545
852.973	14518
853.107	14571
853.242	14549
853.376	14332
853.511	14214
853.645	14282
853.78	14488
853.914	14370
854.048	14252
854.183	14305
854.317	14332
854.451	14537
854.585	14298
854.72	14225
854.854	14423
854.988	14149
855.122	14244
855.256	14172
855.39	14347
855.524	14400
855.658	14396
855.792	14412
855.926	14404
856.06	14355
856.194	14454
856.327	14339
856.461	14301
856.595	14313
856.729	14328
856.862	14419
856.996	14309
857.13	14362
857.263	14465
857.397	14396
857.53	14393
857.664	14374
857.797	14400
857.931	14408
858.064	14351
858.197	14480
858.331	14298
858.464	14343
858.597	14202
858.731	14191
858.864	14298
858.997	14317
859.13	14366
859.263	14339
859.396	14347
859.529	14469
859.662	14229
859.795	14328
859.928	14328
860.061	14507
860.194	14514
860.327	14415
860.46	14256
860.592	14419
860.725	14461
860.858	14393
860.99	14256
861.123	14286
861.256	14290
861.388	14294
861.521	14838
861.653	14202
861.786	14130
861.918	14164
862.05	14286
862.183	14214
862.315	14313
862.447	14412
862.58	14183
862.712	14126
862.844	14096
862.976	14240
863.108	14084
863.24	14476
863.372	14077
863.504	14119
863.636	14100
863.768	14134
863.9	14187
864.032	14046
864.164	13997
864.296	14126
864.428	14195
864.559	14145
864.691	14172
864.823	14218
864.954	14115
865.086	14039
865.217	14153
865.349	13997
865.48	13970
865.612	14103
865.743	14271
865.875	14115
866.006	14096
866.137	14081
866.269	14191
866.4	14107
866.531	14046
866.662	14039
866.793	14043
866.924	13993
867.055	14073
867.186	13967
867.317	14024
867.448	13967
867.579	14100
867.71	14062
867.841	13898
867.972	14123
868.103	14020
868.233	14054
868.364	14027
868.495	14161
868.625	14313
868.756	14473
868.886	14237
869.017	14282
869.147	14503
869.278	14400
869.408	14374
869.539	14294
869.669	14518
869.799	14317
869.929	14442
870.06	14434
870.19	14769
870.32	14598
870.45	14667
870.58	14689
870.71	14872
870.84	14887
870.97	14705
871.1	14667
871.23	14872
871.36	14948
871.489	14819
871.619	14921
871.749	15047
871.879	15036
872.008	15077
872.138	14933
872.267	14971
872.397	14861
872.526	14777
872.656	14720
872.785	14651
872.915	14937
873.044	14948
873.173	14914
873.303	14982
873.432	15001
873.561	15013
873.69	14963
873.819	14990
873.948	15028
874.077	14960
874.206	14883
874.335	15009
874.464	15066
874.593	15317
874.722	15169
874.851	15256
874.979	15374
875.108	15306
875.237	15203
875.365	15173
875.494	15272
875.623	15439
875.751	15241
875.88	15329
876.008	15477
876.136	15439
876.265	15629
876.393	15827
876.521	15747
876.65	15739
876.778	15682
876.906	15705
877.034	15644
877.162	15694
877.29	15656
877.418	15800
877.546	15713
877.674	15679
877.802	15637
877.93	15755
878.058	15679
878.185	15576
878.313	15724
878.441	15629
878.568	15534
878.696	15648
878.824	15682
878.951	15709
879.079	15899
879.206	15953
879.333	15804
879.461	15739
879.588	15892
879.715	15873
879.842	15953
879.97	15743
880.097	15633
880.224	15519
880.351	15564
880.478	15603
880.605	15473
880.732	15553
880.859	15671
880.986	15637
881.112	15580
881.239	15477
881.366	15355
881.493	15283
881.619	15260
881.746	15291
881.872	15188
881.999	15123
882.125	15188
882.252	15188
882.378	15188
882.505	15374
882.631	15211
882.757	15108
882.883	15066
883.01	15047
883.136	14952
883.262	14910
883.388	14918
883.514	15036
883.64	15116
883.766	14929
883.892	14849
884.018	14914
884.143	15009
884.269	15047
884.395	14826
884.52	14712
884.646	14800
884.772	14743
884.897	14560
885.023	14701
885.148	14807
885.274	14921
885.399	14785
885.524	14804
885.65	14735
885.775	14777
885.9	14712
886.025	14857
886.15	14754
886.275	14701
886.4	14651
886.525	14724
886.65	14689
886.775	14632
886.9	14819
887.025	15017
887.149	14758
887.274	14556
887.399	14533
887.523	14457
887.648	14552
887.773	14450
887.897	14632
888.021	14663
888.146	14511
888.27	14629
888.395	14689
888.519	14571
888.643	14629
888.767	14659
888.891	14518
889.015	14381
889.139	14503
889.263	14473
889.387	14613
889.511	14640
889.635	14682
889.759	14408
889.883	14419
890.006	14446
890.13	14560
890.254	14336
890.377	14347
890.501	14263
890.624	14134
890.748	14240
890.871	14153
890.995	14153
891.118	14092
891.241	14202
891.364	14088
891.488	14275
891.611	14153
891.734	14145
891.857	14149
891.98	14271
892.103	14252
892.226	14050
892.349	14100
892.471	14008
892.594	14027
892.717	14225
892.839	14054
892.962	14073
893.085	14157
893.207	14180
893.33	14035
893.452	14172
893.575	14237
893.697	14153
893.819	14309
893.941	14355
894.064	14248
894.186	14107
894.308	14126
894.43	14256
894.552	14351
894.674	14259
894.796	14145
894.918	14107
895.04	14123
895.161	14172
895.283	14286
895.405	14119
895.526	14233
895.648	14191
895.769	14187
895.891	14362
896.012	14339
896.134	14294
896.255	14298
896.376	14267
896.498	14347
896.619	14377
896.74	14366
896.861	14381
896.982	14594
897.103	14777
897.224	14644
897.345	14556
897.466	14480
897.587	14537
897.708	14705
897.828	14598
897.949	14556
898.07	14389
898.19	14511
898.311	14594
898.431	14541
898.552	14667
898.672	14689
898.792	14765
898.913	14682
899.033	14556
899.153	14522
899.273	14427
899.393	14457
899.513	14522
899.633	14465
899.753	14583
899.873	14507
899.993	14431
900.113	14492
900.232	14526
900.352	14377
900.472	14442
900.591	14309
900.711	14427
900.83	14271
900.95	14381
901.069	14457
901.189	14313
901.308	14103
901.427	13967
901.546	14100
901.665	14081
901.784	14005
901.904	13913
902.023	13864
902.141	13700
902.26	13605
902.379	13662
902.498	13643
902.617	13464
902.735	13655
902.854	13521
902.973	13533
903.091	13346
903.21	13324
903.328	13346
903.446	13255
903.565	13274
903.683	13156
903.801	13088
903.919	13190
904.038	13160
904.156	12928
904.274	13042
904.392	12989
904.51	13023
904.627	13031
904.745	12966
904.863	12977
904.981	12833
905.098	12616
905.216	12696
905.334	12711
905.451	12623
905.569	12757
905.686	12726
905.803	12608
905.921	12582
906.038	12726
906.155	12437
906.272	12353
906.389	12395
906.506	12285
906.623	12281
906.74	12247
906.857	12175
906.974	12251
907.091	12369
907.208	12311
907.324	12296
907.441	12136
907.557	11988
907.674	11969
907.79	11988
907.907	11961
908.023	11992
908.139	12019
908.256	12022
908.372	11950
908.488	11923
908.604	11771
908.72	11802
908.836	11767
908.952	11699
909.068	11836
909.184	11859
909.3	11741
909.415	11786
909.531	11805
909.647	11543
909.762	11611
909.878	11532
909.993	11592
910.108	11547
910.224	11459
910.339	11554
910.454	11391
910.57	11395
910.685	11280
910.8	11615
910.915	11516
911.03	11532
911.145	11227
911.259	11273
911.374	11284
911.489	11174
911.604	11162
911.718	10980
911.833	11083
911.947	10946
912.062	10885
912.176	10995
912.291	11010
912.405	10987
912.519	11212
912.633	11288
912.748	11079
912.862	11014
912.976	10923
913.09	10782
913.204	10900
913.318	10854
913.431	11037
913.545	11025
913.659	11022
913.772	10968
913.886	10816
914	10793
914.113	10972
914.226	10869
914.34	10877
914.453	10778
914.566	10896
914.68	10714
914.793	10790
914.906	10603
915.019	10523
915.132	10459
915.245	10512
915.358	10615
915.47	10569
915.583	10565
915.696	10653
915.809	10721
915.921	10706
916.034	10588
916.146	10478
916.259	10550
916.371	10660
916.483	10607
916.595	10447
916.708	10459
916.82	10424
916.932	10451
917.044	10535
917.156	10398
917.268	10470
917.38	10432
917.491	10356
917.603	10421
917.715	10466
917.826	10413
917.938	10306
918.049	10405
918.161	10310
918.272	10535
918.384	10508
918.495	10390
918.606	10329
918.717	10246
918.828	10246
918.939	10295
919.05	10158
919.161	10280
919.272	10021
919.383	10177
919.494	10280
919.604	10542
919.715	10265
919.826	10265
919.936	10249
920.047	10325
920.157	10276
920.267	10535
920.378	10287
920.488	10207
920.598	10470
920.708	10558
920.818	10436
920.928	10508
921.038	10744
921.148	10592
921.258	10382
921.368	10211
921.477	10150
921.587	10124
921.697	10006
921.806	10166
921.916	10006
922.025	9831
922.134	9785
922.244	9842
922.353	9884
922.462	9713
922.571	9713
922.68	9599
922.789	9538
922.898	9538
923.007	9416
923.116	9507
923.224	9443
923.333	9587
923.442	9412
923.55	9264
923.659	9492
923.767	9447
923.876	9348
923.984	9496
924.092	9279
924.201	9374
924.309	9454
924.417	9317
924.525	9363
924.633	9359
924.741	10295
924.849	9203
924.956	9264
925.064	9154
925.172	9093
925.279	9154
925.387	9150
925.494	9138
925.602	9336
925.709	9207
925.816	9165
925.924	9169
926.031	9249
926.138	9165
926.245	9176
926.352	9127
926.459	9230
926.566	9264
926.673	9097
926.779	9020
926.886	9024
926.993	8921
927.099	8952
927.206	8899
927.312	8826
927.419	8929
927.525	8914
927.631	8990
927.737	8754
927.843	8883
927.95	8651
928.056	8739
928.162	8785
928.267	8853
928.373	9393
928.479	8910
928.585	8693
928.69	8754
928.796	8834
928.901	8678
929.007	8575
929.112	8766
929.218	8705
929.323	8636
929.428	8541
929.533	8758
929.638	8549
929.743	8632
929.848	8590
929.953	8598
930.058	8545
930.163	8377
930.267	8343
930.372	8537
930.477	8324
930.581	8575
930.685	8423
930.79	8317
930.894	8332
930.998	8259
931.103	8480
931.207	8142
931.311	8111
931.415	8005
931.519	7795
931.623	7784
