Data from test_V78500241_1943.txt Node
Date: Fri Mar 25 14:47:14 CST 2022
User: usil
Spectrometer: V785-0024
Trigger mode: 0
Integration Time (sec): 4.000000E-1
Scans to average: 1
Nonlinearity correction enabled: false
Boxcar width: 0
Storing dark spectrum: false
XAxis mode: Wavelengths
Number of Pixels in Spectrum: 1024
>>>>>Begin Spectral Data<<<<<
801.071	22017
801.214	21945
801.356	21679
801.499	21774
801.641	21519
801.783	21306
801.926	21405
802.068	21348
802.211	21386
802.353	21188
802.496	21001
802.638	20902
802.78	20918
802.923	20792
803.065	20792
803.208	20785
803.35	20785
803.492	20800
803.635	20868
803.777	20777
803.919	20880
804.061	21039
804.204	20716
804.346	20792
804.488	20777
804.63	20807
804.773	20705
804.915	20640
805.057	20781
805.199	20648
805.341	20765
805.483	20689
805.626	20735
805.768	20598
805.91	20693
806.052	20705
806.194	20689
806.336	20910
806.478	20625
806.62	20625
806.762	20834
806.904	20815
807.046	21085
807.188	20963
807.33	20994
807.472	21131
807.614	20739
807.756	20910
807.898	20807
808.04	20735
808.182	20731
808.324	20701
808.465	20769
808.607	20998
808.749	21131
808.891	21146
809.033	21218
809.174	21085
809.316	21043
809.458	21093
809.6	21020
809.741	21081
809.883	21093
810.025	21332
810.166	21127
810.308	21203
810.45	21264
810.591	21104
810.733	20906
810.875	20861
811.016	20735
811.158	20697
811.299	20876
811.441	20937
811.582	20880
811.724	20910
811.865	20800
812.007	20716
812.148	20838
812.29	20838
812.431	20914
812.573	21070
812.714	21237
812.855	21245
812.997	21469
813.138	21526
813.279	21481
813.421	21279
813.562	21294
813.703	21077
813.845	21013
813.986	20651
814.127	20587
814.268	20461
814.41	20434
814.551	20248
814.692	20400
814.833	20286
814.974	20282
815.115	20259
815.256	20138
815.397	20176
815.539	20191
815.68	20161
815.821	20126
815.962	20172
816.103	20191
816.244	19928
816.385	19849
816.526	19753
816.666	19662
816.807	19506
816.948	19540
817.089	19685
817.23	19540
817.371	19533
817.512	19529
817.653	19616
817.793	19495
817.934	19544
818.075	19556
818.216	19620
818.356	19388
818.497	19331
818.638	19209
818.778	19187
818.919	19232
819.06	19388
819.2	19293
819.341	19540
819.481	19430
819.622	19567
819.762	19704
819.903	19628
820.043	19506
820.184	19415
820.324	19525
820.465	19571
820.605	19422
820.746	19434
820.886	19320
821.026	19392
821.167	19411
821.307	19548
821.447	19430
821.588	19308
821.728	19194
821.868	19156
822.008	18951
822.149	18947
822.289	18825
822.429	18700
822.569	18601
822.709	18506
822.849	18441
822.99	18376
823.13	18361
823.27	18285
823.41	18281
823.55	18201
823.69	18205
823.83	18239
823.97	18155
824.11	18026
824.25	17931
824.389	17927
824.529	18129
824.669	17939
824.809	18060
824.949	18038
825.089	18003
825.228	17984
825.368	17786
825.508	17775
825.648	17878
825.787	17840
825.927	17893
826.067	17642
826.206	17836
826.346	17733
826.485	17840
826.625	17638
826.765	17870
826.904	17794
827.044	17535
827.183	17532
827.323	17478
827.462	17467
827.601	17402
827.741	17395
827.88	17482
828.02	17288
828.159	17471
828.298	17448
828.437	17528
828.577	17455
828.716	17547
828.855	17372
828.994	17280
829.134	17292
829.273	17353
829.412	17280
829.551	17170
829.69	17231
829.829	17155
829.968	17242
830.107	17284
830.246	17254
830.385	17261
830.524	17151
830.663	17060
830.802	16980
830.941	16831
831.08	16831
831.219	16850
831.357	16919
831.496	17086
831.635	16862
831.774	16744
831.913	16725
832.051	16706
832.19	16618
832.329	16668
832.467	16535
832.606	16459
832.744	16573
832.883	16508
833.022	16493
833.16	16607
833.299	16660
833.437	16592
833.576	16599
833.714	16523
833.852	16516
833.991	16577
834.129	16611
834.267	16687
834.406	16573
834.544	16660
834.682	16569
834.821	16565
834.959	16675
835.097	16577
835.235	16626
835.373	16740
835.511	16527
835.65	16569
835.788	16504
835.926	16344
836.064	16306
836.202	16268
836.34	16592
836.478	16569
836.615	16447
836.753	16519
836.891	16603
837.029	16550
837.167	16451
837.305	16447
837.443	16474
837.58	16394
837.718	16398
837.856	16478
837.993	16325
838.131	16367
838.269	16310
838.406	16329
838.544	16261
838.681	16093
838.819	16097
838.956	15816
839.094	15930
839.231	15991
839.369	16112
839.506	16306
839.643	16154
839.781	15899
839.918	15922
840.055	15922
840.193	15922
840.33	15899
840.467	15911
840.604	15930
840.742	16185
840.879	15766
841.016	15907
841.153	15808
841.29	16093
841.427	15960
841.564	15998
841.701	15994
841.838	15895
841.975	15888
842.112	15911
842.249	15774
842.385	15667
842.522	15907
842.659	15743
842.796	15622
842.933	15724
843.069	15622
843.206	15625
843.343	15781
843.479	15652
843.616	15709
843.752	15450
843.889	15504
844.025	15584
844.162	15435
844.298	15599
844.435	15526
844.571	15447
844.708	15580
844.844	15656
844.98	15679
845.117	15648
845.253	15447
845.389	15416
845.525	15450
845.661	15450
845.798	15348
845.934	15298
846.07	15245
846.206	15317
846.342	15481
846.478	15272
846.614	15036
846.75	15135
846.886	15013
847.022	15211
847.158	15146
847.294	15039
847.429	15081
847.565	15028
847.701	15287
847.837	14826
847.972	14781
848.108	14941
848.244	14876
848.379	14727
848.515	14701
848.65	14678
848.786	14648
848.921	14720
849.057	14861
849.192	14781
849.328	14708
849.463	14678
849.598	14621
849.734	14655
849.869	14507
850.004	14473
850.14	14492
850.275	14492
850.41	14438
850.545	14320
850.68	14381
850.815	14415
850.95	14514
851.085	14716
851.22	14659
851.355	14473
851.49	14434
851.625	14389
851.76	14389
851.895	14389
852.03	14298
852.165	14355
852.299	14522
852.434	14594
852.569	14541
852.703	14438
852.838	14454
852.973	14686
853.107	14575
853.242	14385
853.376	14252
853.511	14298
853.645	14229
853.78	14480
853.914	14389
854.048	14240
854.183	14305
854.317	14434
854.451	14446
854.585	14301
854.72	14229
854.854	14339
854.988	14233
855.122	14286
855.256	14210
855.39	14351
855.524	14396
855.658	14366
855.792	14396
855.926	14370
856.06	14366
856.194	14484
856.327	14400
856.461	14252
856.595	14339
856.729	14374
856.862	14514
856.996	14351
857.13	14541
857.263	14465
857.397	14480
857.53	14358
857.664	14396
857.797	14446
857.931	14522
858.064	14362
858.197	14396
858.331	14313
858.464	14282
858.597	14248
858.731	14355
858.864	14347
858.997	14221
859.13	14385
859.263	14412
859.396	14465
859.529	14263
859.662	14320
859.795	14320
859.928	14415
860.061	14518
860.194	14484
860.327	14351
860.46	14252
860.592	14507
860.725	14541
860.858	14438
860.99	14385
861.123	14225
861.256	14358
861.388	14419
861.521	15154
861.653	14271
861.786	14286
861.918	14248
862.05	14362
862.183	14271
862.315	14374
862.447	14438
862.58	14275
862.712	14134
862.844	14100
862.976	14195
863.108	14191
863.24	14488
863.372	14084
863.504	14176
863.636	14123
863.768	14073
863.9	14115
864.032	14065
864.164	14142
864.296	14130
864.428	14233
864.559	14263
864.691	14233
864.823	14195
864.954	14214
865.086	14115
865.217	14088
865.349	14084
865.48	14107
865.612	14092
865.743	14240
865.875	14100
866.006	14111
866.137	14103
866.269	14157
866.4	14164
866.531	14073
866.662	14005
866.793	14069
866.924	14046
867.055	14100
867.186	14134
867.317	14046
867.448	14069
867.579	14039
867.71	14043
867.841	14035
867.972	14100
868.103	14157
868.233	14088
868.364	14123
868.495	14157
868.625	14461
868.756	14423
868.886	14267
869.017	14419
869.147	14507
869.278	14480
869.408	14408
869.539	14389
869.669	14560
869.799	14377
869.929	14450
870.06	14446
870.19	14720
870.32	14689
870.45	14735
870.58	14746
870.71	14960
870.84	14807
870.97	14712
871.1	14674
871.23	14941
871.36	14944
871.489	14792
871.619	14906
871.749	14921
871.879	15001
872.008	15127
872.138	15036
872.267	14956
872.397	14872
872.526	14826
872.656	14845
872.785	14933
872.915	14960
873.044	15043
873.173	14994
873.303	15108
873.432	15028
873.561	15055
873.69	15077
873.819	15039
873.948	15097
874.077	14971
874.206	14933
874.335	15066
874.464	15131
874.593	15389
874.722	15275
874.851	15359
874.979	15412
875.108	15408
875.237	15359
875.365	15222
875.494	15298
875.623	15492
875.751	15382
875.88	15431
876.008	15435
876.136	15519
876.265	15732
876.393	15892
876.521	15854
876.65	15728
876.778	15770
876.906	15675
877.034	15690
877.162	15720
877.29	15622
877.418	15705
877.546	15690
877.674	15785
877.802	15724
877.93	15709
878.058	15720
878.185	15553
878.313	15656
878.441	15720
878.568	15526
878.696	15698
878.824	15766
878.951	15937
879.079	15998
879.206	16010
879.333	15964
879.461	15690
879.588	15873
879.715	15873
879.842	16017
879.97	15812
880.097	15633
880.224	15530
880.351	15599
880.478	15519
880.605	15656
880.732	15542
880.859	15819
880.986	15667
881.112	15610
881.239	15386
881.366	15382
881.493	15397
881.619	15336
881.746	15241
881.872	15291
881.999	15230
882.125	15313
882.252	15161
882.378	15207
882.505	15363
882.631	15119
882.757	15009
882.883	15150
883.01	15070
883.136	14990
883.262	14929
883.388	14883
883.514	15039
883.64	15214
883.766	14998
883.892	14838
884.018	14883
884.143	15001
884.269	15154
884.395	14830
884.52	14762
884.646	14708
884.772	14773
884.897	14583
885.023	14811
885.148	14941
885.274	14876
885.399	14899
885.524	14712
885.65	14765
885.775	14819
885.9	14807
886.025	14902
886.15	14834
886.275	14693
886.4	14602
886.525	14697
886.65	14648
886.775	14735
886.9	14891
887.025	14948
887.149	14712
887.274	14602
887.399	14568
887.523	14484
887.648	14488
887.773	14537
887.897	14743
888.021	14705
888.146	14518
888.27	14682
888.395	14689
888.519	14792
888.643	14655
888.767	14720
888.891	14575
889.015	14415
889.139	14533
889.263	14408
889.387	14610
889.511	14655
889.635	14587
889.759	14396
889.883	14480
890.006	14442
890.13	14530
890.254	14412
890.377	14355
890.501	14256
890.624	14275
890.748	14275
890.871	14214
890.995	14168
891.118	14043
891.241	14130
891.364	14206
891.488	14164
891.611	14176
891.734	14164
891.857	14244
891.98	14153
892.103	14301
892.226	14195
892.349	14138
892.471	14012
892.594	14210
892.717	14206
892.839	14164
892.962	14157
893.085	14225
893.207	14134
893.33	13925
893.452	14096
893.575	14183
893.697	14100
893.819	14336
893.941	14370
894.064	14313
894.186	14191
894.308	14229
894.43	14305
894.552	14377
894.674	14347
894.796	14161
894.918	14202
895.04	14210
895.161	14244
895.283	14187
895.405	14275
895.526	14248
895.648	14256
895.769	14221
895.891	14381
896.012	14385
896.134	14237
896.255	14362
896.376	14278
896.498	14324
896.619	14385
896.74	14377
896.861	14415
896.982	14636
897.103	14781
897.224	14648
897.345	14663
897.466	14545
897.587	14549
897.708	14670
897.828	14556
897.949	14579
898.07	14343
898.19	14594
898.311	14735
898.431	14552
898.552	14659
898.672	14758
898.792	14762
898.913	14800
899.033	14720
899.153	14488
899.273	14522
899.393	14511
899.513	14556
899.633	14507
899.753	14434
899.873	14480
899.993	14632
900.113	14461
900.232	14514
900.352	14488
900.472	14514
900.591	14336
900.711	14476
900.83	14263
900.95	14511
901.069	14522
901.189	14377
901.308	14119
901.427	13989
901.546	14050
901.665	14046
901.784	14123
901.904	14005
902.023	13826
902.141	13708
902.26	13715
902.379	13628
902.498	13616
902.617	13487
902.735	13624
902.854	13609
902.973	13548
903.091	13453
903.21	13285
903.328	13285
903.446	13354
903.565	13263
903.683	13190
903.801	13027
903.919	13122
904.038	13190
904.156	13019
904.274	13050
904.392	13057
904.51	13038
904.627	12954
904.745	13080
904.863	13110
904.981	12825
905.098	12730
905.216	12719
905.334	12677
905.451	12764
905.569	12639
905.686	12772
905.803	12658
905.921	12521
906.038	12631
906.155	12601
906.272	12460
906.389	12388
906.506	12338
906.623	12289
906.74	12292
906.857	12171
906.974	12201
907.091	12429
907.208	12490
907.324	12365
907.441	12171
907.557	12007
907.674	11984
907.79	11999
907.907	12038
908.023	12125
908.139	12060
908.256	12041
908.372	11958
908.488	12022
908.604	11828
908.72	11771
908.836	11809
908.952	11817
909.068	11855
909.184	11904
909.3	11790
909.415	11802
909.531	11836
909.647	11566
909.762	11589
909.878	11497
909.993	11600
910.108	11570
910.224	11486
910.339	11573
910.454	11425
910.57	11467
910.685	11444
910.8	11703
910.915	11570
911.03	11471
911.145	11250
911.259	11273
911.374	11288
911.489	11239
911.604	11159
911.718	10984
911.833	11098
911.947	10873
912.062	10911
912.176	11071
912.291	11113
912.405	11006
912.519	11220
912.633	11170
912.748	11067
912.862	11033
912.976	10934
913.09	10797
913.204	10911
913.318	10847
913.431	10984
913.545	10995
913.659	10987
913.772	10869
913.886	10793
914	10729
914.113	10877
914.226	10930
914.34	10812
914.453	10725
914.566	10812
914.68	10717
914.793	10786
914.906	10516
915.019	10535
915.132	10462
915.245	10588
915.358	10516
915.47	10554
915.583	10584
915.696	10565
915.809	10637
915.921	10664
916.034	10565
916.146	10489
916.259	10432
916.371	10561
916.483	10504
916.595	10440
916.708	10421
916.82	10443
916.932	10417
917.044	10386
917.156	10421
917.268	10337
917.38	10390
917.491	10295
917.603	10333
917.715	10485
917.826	10451
917.938	10318
918.049	10230
918.161	10291
918.272	10421
918.384	10546
918.495	10367
918.606	10211
918.717	10154
918.828	10257
918.939	10211
919.05	10169
919.161	10185
919.272	10051
919.383	10097
919.494	10268
919.604	10485
919.715	10249
919.826	10124
919.936	10242
920.047	10287
920.157	10272
920.267	10481
920.378	10363
920.488	10280
920.598	10432
920.708	10592
920.818	10470
920.928	10390
921.038	10611
921.148	10603
921.258	10390
921.368	10158
921.477	10128
921.587	10177
921.697	10078
921.806	10128
921.916	10017
922.025	9854
922.134	9823
922.244	9823
922.353	9876
922.462	9713
922.571	9690
922.68	9610
922.789	9549
922.898	9485
923.007	9538
923.116	9534
923.224	9538
923.333	9568
923.442	9500
923.55	9435
923.659	9473
923.767	9549
923.876	9401
923.984	9481
924.092	9336
924.201	9428
924.309	9496
924.417	9408
924.525	9264
924.633	9370
924.741	10265
924.849	9218
924.956	9332
925.064	9253
925.172	9062
925.279	9108
925.387	9169
925.494	9138
925.602	9367
925.709	9256
925.816	9150
925.924	9211
926.031	9241
926.138	9165
926.245	9188
926.352	9108
926.459	9195
926.566	9260
926.673	9123
926.779	9077
926.886	9058
926.993	8899
927.099	8880
927.206	8830
927.312	8811
927.419	9036
927.525	8952
927.631	8948
927.737	8785
927.843	8880
927.95	8739
928.056	8769
928.162	8834
928.267	8857
928.373	9382
928.479	8948
928.585	8678
928.69	8834
928.796	8804
928.901	8720
929.007	8537
929.112	8716
929.218	8705
929.323	8598
929.428	8655
929.533	8773
929.638	8579
929.743	8602
929.848	8682
929.953	8598
930.058	8537
930.163	8385
930.267	8442
930.372	8518
930.477	8347
930.581	8651
930.685	8438
930.79	8324
930.894	8450
930.998	8332
931.103	8507
931.207	8157
931.311	8088
931.415	8001
931.519	7917
931.623	7780
