Data from test_V78500241_2318.txt Node
Date: Fri Mar 25 14:49:51 CST 2022
User: usil
Spectrometer: V785-0024
Trigger mode: 0
Integration Time (sec): 4.000000E-1
Scans to average: 1
Nonlinearity correction enabled: false
Boxcar width: 0
Storing dark spectrum: false
XAxis mode: Wavelengths
Number of Pixels in Spectrum: 1024
>>>>>Begin Spectral Data<<<<<
801.071	22097
801.214	22002
801.356	21793
801.499	21701
801.641	21583
801.783	21496
801.926	21622
802.068	21454
802.211	21310
802.353	21310
802.496	21127
802.638	20952
802.78	20990
802.923	21055
803.065	20785
803.208	20864
803.35	20883
803.492	20979
803.635	20960
803.777	20834
803.919	21028
804.061	21100
804.204	20944
804.346	20872
804.488	20807
804.63	20823
804.773	20682
804.915	20849
805.057	20876
805.199	20796
805.341	20921
805.483	20857
805.626	20864
805.768	20910
805.91	20838
806.052	20921
806.194	20792
806.336	20826
806.478	20697
806.62	20762
806.762	20804
806.904	20960
807.046	21211
807.188	21123
807.33	21089
807.472	21226
807.614	21020
807.756	21138
807.898	20918
808.04	20765
808.182	20773
808.324	20861
808.465	20933
808.607	21142
808.749	21294
808.891	21359
809.033	21363
809.174	21233
809.316	21074
809.458	21165
809.6	21116
809.741	21241
809.883	21291
810.025	21386
810.166	21370
810.308	21230
810.45	21321
810.591	21237
810.733	20986
810.875	20994
811.016	20937
811.158	20708
811.299	20944
811.441	21028
811.582	21062
811.724	20986
811.865	20910
812.007	20849
812.148	20952
812.29	20937
812.431	21214
812.573	21287
812.714	21310
812.855	21488
812.997	21469
813.138	21641
813.279	21591
813.421	21637
813.562	21351
813.703	21100
813.845	21089
813.986	20785
814.127	20674
814.268	20598
814.41	20560
814.551	20530
814.692	20590
814.833	20606
814.974	20362
815.115	20514
815.256	20412
815.397	20347
815.539	20385
815.68	20259
815.821	20088
815.962	20206
816.103	20320
816.244	20008
816.385	20012
816.526	19947
816.666	19830
816.807	19601
816.948	19609
817.089	19761
817.23	19757
817.371	19639
817.512	19655
817.653	19620
817.793	19685
817.934	19594
818.075	19540
818.216	19639
818.356	19597
818.497	19438
818.638	19346
818.778	19225
818.919	19251
819.06	19422
819.2	19369
819.341	19483
819.481	19552
819.622	19586
819.762	19795
819.903	19799
820.043	19795
820.184	19624
820.324	19666
820.465	19715
820.605	19635
820.746	19685
820.886	19502
821.026	19537
821.167	19506
821.307	19616
821.447	19525
821.588	19506
821.728	19297
821.868	19095
822.008	19027
822.149	18954
822.289	18935
822.429	18768
822.569	18612
822.709	18661
822.849	18517
822.99	18540
823.13	18448
823.27	18403
823.41	18376
823.55	18216
823.69	18380
823.83	18129
823.97	18243
824.11	18197
824.25	18106
824.389	18034
824.529	18190
824.669	18060
824.809	18114
824.949	18053
825.089	18133
825.228	18022
825.368	17843
825.508	17882
825.648	17874
825.787	17859
825.927	17847
826.067	17684
826.206	17840
826.346	17916
826.485	17832
826.625	17813
826.765	17946
826.904	17870
827.044	17638
827.183	17524
827.323	17524
827.462	17543
827.601	17558
827.741	17410
827.88	17516
828.02	17372
828.159	17512
828.298	17570
828.437	17566
828.577	17505
828.716	17638
828.855	17551
828.994	17322
829.134	17231
829.273	17322
829.412	17151
829.551	17208
829.69	17273
829.829	17242
829.968	17318
830.107	17311
830.246	17364
830.385	17258
830.524	17147
830.663	17124
830.802	16915
830.941	16877
831.08	16847
831.219	16904
831.357	16889
831.496	17045
831.635	16927
831.774	16786
831.913	16717
832.051	16694
832.19	16634
832.329	16717
832.467	16573
832.606	16512
832.744	16599
832.883	16637
833.022	16546
833.16	16519
833.299	16599
833.437	16569
833.576	16698
833.714	16573
833.852	16577
833.991	16527
834.129	16630
834.267	16626
834.406	16592
834.544	16660
834.682	16573
834.821	16660
834.959	16839
835.097	16565
835.235	16618
835.373	16683
835.511	16577
835.65	16550
835.788	16341
835.926	16322
836.064	16348
836.202	16402
836.34	16500
836.478	16508
836.615	16481
836.753	16535
836.891	16683
837.029	16558
837.167	16535
837.305	16481
837.443	16447
837.58	16356
837.718	16489
837.856	16337
837.993	16299
838.131	16306
838.269	16329
838.406	16284
838.544	16196
838.681	16154
838.819	16078
838.956	15934
839.094	15892
839.231	15857
839.369	16090
839.506	16379
839.643	16185
839.781	15915
839.918	15892
840.055	15953
840.193	15865
840.33	15918
840.467	15895
840.604	15934
840.742	16112
840.879	15770
841.016	15819
841.153	15816
841.29	15972
841.427	15934
841.564	15937
841.701	16010
841.838	15854
841.975	15816
842.112	15876
842.249	15762
842.385	15679
842.522	15785
842.659	15781
842.796	15667
842.933	15667
843.069	15637
843.206	15587
843.343	15663
843.479	15671
843.616	15682
843.752	15504
843.889	15382
844.025	15686
844.162	15629
844.298	15591
844.435	15408
844.571	15454
844.708	15492
844.844	15549
844.98	15587
845.117	15614
845.253	15382
845.389	15291
845.525	15439
845.661	15431
845.798	15192
845.934	15264
846.07	15264
846.206	15355
846.342	15355
846.478	15291
846.614	15077
846.75	15039
846.886	14967
847.022	15085
847.158	15043
847.294	15062
847.429	15161
847.565	14921
847.701	15313
847.837	14788
847.972	14781
848.108	14830
848.244	14880
848.379	14720
848.515	14621
848.65	14571
848.786	14545
848.921	14678
849.057	14735
849.192	14724
849.328	14655
849.463	14762
849.598	14648
849.734	14541
849.869	14450
850.004	14454
850.14	14389
850.275	14446
850.41	14408
850.545	14298
850.68	14355
850.815	14385
850.95	14370
851.085	14446
851.22	14533
851.355	14446
851.49	14488
851.625	14358
851.76	14423
851.895	14214
852.03	14218
852.165	14358
852.299	14434
852.434	14530
852.569	14473
852.703	14499
852.838	14556
852.973	14560
853.107	14602
853.242	14282
853.376	14328
853.511	14183
853.645	14282
853.78	14450
853.914	14275
854.048	14294
854.183	14176
854.317	14309
854.451	14442
854.585	14324
854.72	14218
854.854	14396
854.988	14210
855.122	14320
855.256	14176
855.39	14206
855.524	14404
855.658	14294
855.792	14244
855.926	14320
856.06	14324
856.194	14343
856.327	14183
856.461	14252
856.595	14237
856.729	14157
856.862	14393
856.996	14278
857.13	14389
857.263	14412
857.397	14396
857.53	14244
857.664	14317
857.797	14339
857.931	14404
858.064	14320
858.197	14313
858.331	14244
858.464	14214
858.597	14252
858.731	14286
858.864	14244
858.997	14252
859.13	14336
859.263	14320
859.396	14465
859.529	14126
859.662	14180
859.795	14206
859.928	14362
860.061	14362
860.194	14514
860.327	14225
860.46	14176
860.592	14320
860.725	14469
860.858	14377
860.99	14294
861.123	14157
861.256	14248
861.388	14240
861.521	14819
861.653	14134
861.786	14157
861.918	14210
862.05	14248
862.183	14290
862.315	14362
862.447	14275
862.58	14278
862.712	14065
862.844	13944
862.976	14035
863.108	14111
863.24	14473
863.372	13936
863.504	14096
863.636	14062
863.768	14084
863.9	14046
864.032	14062
864.164	14046
864.296	14183
864.428	14206
864.559	14199
864.691	14161
864.823	14199
864.954	14111
865.086	14046
865.217	14123
865.349	14027
865.48	14031
865.612	14107
865.743	14172
865.875	14107
866.006	14031
866.137	14035
866.269	14043
866.4	14016
866.531	14001
866.662	13989
866.793	14043
866.924	14054
867.055	14058
867.186	14123
867.317	14069
867.448	14100
867.579	14027
867.71	13947
867.841	13898
867.972	14161
868.103	14081
868.233	14031
868.364	14050
868.495	14202
868.625	14240
868.756	14415
868.886	14248
869.017	14298
869.147	14461
869.278	14408
869.408	14347
869.539	14347
869.669	14404
869.799	14389
869.929	14427
870.06	14324
870.19	14682
870.32	14640
870.45	14640
870.58	14727
870.71	14781
870.84	14777
870.97	14689
871.1	14804
871.23	14781
871.36	14811
871.489	14857
871.619	14921
871.749	14880
871.879	14994
872.008	15062
872.138	14887
872.267	14868
872.397	14735
872.526	14716
872.656	14735
872.785	14769
872.915	14925
873.044	15009
873.173	14967
873.303	15013
873.432	14880
873.561	15024
873.69	15032
873.819	14979
873.948	15024
874.077	14960
874.206	14963
874.335	14941
874.464	15036
874.593	15264
874.722	15230
874.851	15279
874.979	15344
875.108	15264
875.237	15195
875.365	15199
875.494	15272
875.623	15374
875.751	15192
875.88	15405
876.008	15530
876.136	15625
876.265	15686
876.393	15743
876.521	15743
876.65	15835
876.778	15770
876.906	15663
877.034	15587
877.162	15633
877.29	15526
877.418	15641
877.546	15637
877.674	15690
877.802	15690
877.93	15595
878.058	15679
878.185	15568
878.313	15591
878.441	15698
878.568	15504
878.696	15652
878.824	15713
878.951	15759
879.079	15915
879.206	15994
879.333	15926
879.461	15709
879.588	15808
879.715	15842
879.842	15956
879.97	15800
880.097	15538
880.224	15473
880.351	15618
880.478	15568
880.605	15397
880.732	15606
880.859	15724
880.986	15538
881.112	15618
881.239	15435
881.366	15325
881.493	15313
881.619	15233
881.746	15173
881.872	15176
881.999	15150
882.125	15241
882.252	15264
882.378	15245
882.505	15317
882.631	15108
882.757	15093
882.883	15047
883.01	15074
883.136	14925
883.262	14906
883.388	14845
883.514	15020
883.64	15070
883.766	14937
883.892	14785
884.018	14819
884.143	14971
884.269	15138
884.395	14796
884.52	14712
884.646	14659
884.772	14674
884.897	14644
885.023	14743
885.148	14849
885.274	14918
885.399	14796
885.524	14785
885.65	14769
885.775	14762
885.9	14712
886.025	14845
886.15	14746
886.275	14636
886.4	14625
886.525	14739
886.65	14594
886.775	14682
886.9	14948
887.025	14998
887.149	14746
887.274	14602
887.399	14564
887.523	14625
887.648	14480
887.773	14442
887.897	14625
888.021	14632
888.146	14499
888.27	14629
888.395	14648
888.519	14640
888.643	14625
888.767	14613
888.891	14484
889.015	14408
889.139	14358
889.263	14328
889.387	14461
889.511	14617
889.635	14518
889.759	14355
889.883	14385
890.006	14461
890.13	14533
890.254	14362
890.377	14442
890.501	14172
890.624	14256
890.748	14328
890.871	14225
890.995	13993
891.118	13989
891.241	14119
891.364	14103
891.488	14210
891.611	14161
891.734	14172
891.857	14206
891.98	14126
892.103	14161
892.226	14142
892.349	14145
892.471	13959
892.594	14138
892.717	14153
892.839	14073
892.962	14054
893.085	14130
893.207	14084
893.33	13940
893.452	13993
893.575	14119
893.697	14073
893.819	14328
893.941	14301
894.064	14195
894.186	14115
894.308	14092
894.43	14214
894.552	14317
894.674	14225
894.796	14008
894.918	14123
895.04	14164
895.161	14271
895.283	14206
895.405	14088
895.526	14252
895.648	14271
895.769	14248
895.891	14317
896.012	14324
896.134	14347
896.255	14351
896.376	14313
896.498	14374
896.619	14275
896.74	14301
896.861	14358
896.982	14594
897.103	14765
897.224	14530
897.345	14522
897.466	14495
897.587	14400
897.708	14686
897.828	14640
897.949	14552
898.07	14434
898.19	14541
898.311	14762
898.431	14556
898.552	14587
898.672	14705
898.792	14762
898.913	14674
899.033	14621
899.153	14484
899.273	14351
899.393	14442
899.513	14617
899.633	14469
899.753	14537
899.873	14480
899.993	14511
900.113	14530
900.232	14492
900.352	14480
900.472	14461
900.591	14180
900.711	14381
900.83	14309
900.95	14511
901.069	14507
901.189	14324
901.308	14058
901.427	14046
901.546	14050
901.665	14054
901.784	14008
901.904	13909
902.023	13837
902.141	13696
902.26	13586
902.379	13723
902.498	13544
902.617	13636
902.735	13674
902.854	13525
902.973	13537
903.091	13331
903.21	13263
903.328	13350
903.446	13278
903.565	13057
903.683	13236
903.801	13149
903.919	13149
904.038	13190
904.156	13038
904.274	13107
904.392	12939
904.51	12913
904.627	12989
904.745	13080
904.863	13069
904.981	12795
905.098	12688
905.216	12665
905.334	12703
905.451	12745
905.569	12570
905.686	12768
905.803	12700
905.921	12498
906.038	12570
906.155	12540
906.272	12338
906.389	12296
906.506	12338
906.623	12216
906.74	12342
906.857	12213
906.974	12228
907.091	12330
907.208	12486
907.324	12277
907.441	12220
907.557	12007
907.674	12068
907.79	11965
907.907	11920
908.023	12102
908.139	11961
908.256	12026
908.372	11908
908.488	11980
908.604	11760
908.72	11726
908.836	11767
908.952	11718
909.068	11756
909.184	11843
909.3	11813
909.415	11771
909.531	11733
909.647	11554
909.762	11566
909.878	11589
909.993	11543
910.108	11459
910.224	11547
910.339	11543
910.454	11387
910.57	11402
910.685	11261
910.8	11570
910.915	11577
911.03	11337
911.145	11299
911.259	11280
911.374	11178
911.489	11155
911.604	11064
911.718	10972
911.833	11006
911.947	10927
912.062	10828
912.176	10987
912.291	10938
912.405	11014
912.519	11166
912.633	11166
912.748	11010
912.862	11025
912.976	10854
913.09	10790
913.204	10847
913.318	10854
913.431	10953
913.545	11045
913.659	11006
913.772	10847
913.886	10866
914	10793
914.113	10793
914.226	10873
914.34	10881
914.453	10729
914.566	10824
914.68	10774
914.793	10714
914.906	10504
915.019	10428
915.132	10432
915.245	10481
915.358	10531
915.47	10516
915.583	10535
915.696	10531
915.809	10683
915.921	10584
916.034	10474
916.146	10417
916.259	10440
916.371	10519
916.483	10497
916.595	10394
916.708	10348
916.82	10405
916.932	10519
917.044	10424
917.156	10375
917.268	10249
917.38	10299
917.491	10337
917.603	10390
917.715	10402
917.826	10417
917.938	10344
918.049	10360
918.161	10325
918.272	10500
918.384	10497
918.495	10390
918.606	10253
918.717	10067
918.828	10272
918.939	10242
919.05	10173
919.161	10131
919.272	9926
919.383	10128
919.494	10303
919.604	10417
919.715	10318
919.826	10112
919.936	10207
920.047	10204
920.157	10249
920.267	10379
920.378	10341
920.488	10242
920.598	10394
920.708	10603
920.818	10402
920.928	10375
921.038	10607
921.148	10516
921.258	10295
921.368	10188
921.477	10040
921.587	10071
921.697	9972
921.806	10124
921.916	10044
922.025	9831
922.134	9880
922.244	9713
922.353	9720
922.462	9667
922.571	9610
922.68	9485
922.789	9473
922.898	9488
923.007	9450
923.116	9561
923.224	9477
923.333	9485
923.442	9355
923.55	9279
923.659	9348
923.767	9393
923.876	9378
923.984	9389
924.092	9317
924.201	9329
924.309	9272
924.417	9389
924.525	9260
924.633	9291
924.741	10215
924.849	9081
924.956	9226
925.064	9104
925.172	9112
925.279	9036
925.387	9135
925.494	9150
925.602	9237
925.709	9173
925.816	9123
925.924	9112
926.031	9226
926.138	9146
926.245	9203
926.352	9028
926.459	9146
926.566	9233
926.673	9055
926.779	9032
926.886	8998
926.993	8868
927.099	8864
927.206	8785
927.312	8792
927.419	8891
927.525	8891
927.631	8864
927.737	8777
927.843	8644
927.95	8621
928.056	8746
928.162	8705
928.267	8769
928.373	9340
928.479	8815
928.585	8632
928.69	8724
928.796	8754
928.901	8712
929.007	8518
929.112	8743
929.218	8705
929.323	8598
929.428	8518
929.533	8712
929.638	8518
929.743	8526
929.848	8625
929.953	8610
930.058	8461
930.163	8389
930.267	8313
930.372	8473
930.477	8317
930.581	8575
930.685	8427
930.79	8263
930.894	8400
930.998	8351
931.103	8400
931.207	8142
931.311	8065
931.415	7932
931.519	7841
931.623	7792
