Data from test_V78500241_604.txt Node
Date: Fri Mar 25 14:37:55 CST 2022
User: usil
Spectrometer: V785-0024
Trigger mode: 0
Integration Time (sec): 4.000000E-1
Scans to average: 1
Nonlinearity correction enabled: false
Boxcar width: 0
Storing dark spectrum: false
XAxis mode: Wavelengths
Number of Pixels in Spectrum: 1024
>>>>>Begin Spectral Data<<<<<
801.071	27876
801.214	27819
801.356	27599
801.499	27629
801.641	27439
801.783	27530
801.926	27485
802.068	27329
802.211	27104
802.353	27036
802.496	26998
802.638	26929
802.78	26823
802.923	26781
803.065	26758
803.208	26830
803.35	27043
803.492	26998
803.635	26998
803.777	26982
803.919	27058
804.061	27378
804.204	27005
804.346	26929
804.488	26914
804.63	27074
804.773	26842
804.915	27112
805.057	27359
805.199	27203
805.341	27340
805.483	27370
805.626	27553
805.768	27393
805.91	27397
806.052	27583
806.194	27599
806.336	28036
806.478	27941
806.62	28147
806.762	28253
806.904	28546
807.046	29189
807.188	29204
807.33	29577
807.472	29942
807.614	30235
807.756	31008
807.898	31731
808.04	32811
808.182	34223
808.324	35935
808.465	38149
808.607	40200
808.749	42395
808.891	43666
809.033	43556
809.174	42582
809.316	40363
809.458	38043
809.6	35619
809.741	33899
809.883	32389
810.025	31483
810.166	30563
810.308	30258
810.45	29646
810.591	29353
810.733	28873
810.875	28637
811.016	28287
811.158	28204
811.299	28318
811.441	28131
811.582	27998
811.724	27895
811.865	27667
812.007	27800
812.148	27644
812.29	27663
812.431	27732
812.573	27747
812.714	27785
812.855	27964
812.997	27823
813.138	28166
813.279	27880
813.421	27819
813.562	27713
813.703	27519
813.845	27424
813.986	26979
814.127	26914
814.268	26762
814.41	26807
814.551	26686
814.692	26663
814.833	26609
814.974	26526
815.115	26663
815.256	26579
815.397	26438
815.539	26507
815.68	26412
815.821	26240
815.962	26294
816.103	26267
816.244	26111
816.385	25936
816.526	25959
816.666	25833
816.807	25674
816.948	25742
817.089	25830
817.23	25776
817.371	25571
817.512	25540
817.653	25601
817.793	25487
817.934	25518
818.075	25411
818.216	25438
818.356	25460
818.497	25327
818.638	25179
818.778	25156
818.919	25175
819.06	25255
819.2	25400
819.341	25392
819.481	25434
819.622	25540
819.762	25845
819.903	25605
820.043	25544
820.184	25502
820.324	25445
820.465	25472
820.605	25510
820.746	25529
820.886	25179
821.026	25293
821.167	25324
821.307	25251
821.447	25278
821.588	25084
821.728	25050
821.868	24760
822.008	24787
822.149	24646
822.289	24547
822.429	24433
822.569	24289
822.709	24376
822.849	24167
822.99	24155
823.13	24030
823.27	24049
823.41	23908
823.55	23874
823.69	23901
823.83	23870
823.97	23863
824.11	23707
824.25	23596
824.389	23756
824.529	23630
824.669	23714
824.809	23809
824.949	23847
825.089	23718
825.228	23802
825.368	23474
825.508	23444
825.648	23490
825.787	23505
825.927	23478
826.067	23360
826.206	23334
826.346	23459
826.485	23516
826.625	23341
826.765	23512
826.904	23391
827.044	23170
827.183	23136
827.323	23143
827.462	23178
827.601	23174
827.741	23037
827.88	23079
828.02	22942
828.159	23067
828.298	23037
828.437	23056
828.577	22999
828.716	23181
828.855	22957
828.994	22755
829.134	22843
829.273	22839
829.412	22668
829.551	22721
829.69	22801
829.829	22889
829.968	22877
830.107	22725
830.246	22793
830.385	22607
830.524	22618
830.663	22500
830.802	22542
830.941	22390
831.08	22207
831.219	22470
831.357	22451
831.496	22474
831.635	22390
831.774	22322
831.913	22215
832.051	22158
832.19	22166
832.329	22238
832.467	22139
832.606	22284
832.744	22139
832.883	22215
833.022	22265
833.16	22234
833.299	22440
833.437	22504
833.576	22481
833.714	22516
833.852	22805
833.991	22850
834.129	23003
834.267	22915
834.406	22782
834.544	22972
834.682	22740
834.821	22649
834.959	22710
835.097	22367
835.235	22599
835.373	22333
835.511	22325
835.65	22128
835.788	22116
835.926	21827
836.064	21747
836.202	21797
836.34	21915
836.478	22025
836.615	21884
836.753	21911
836.891	22010
837.029	21907
837.167	21682
837.305	21789
837.443	21637
837.58	21686
837.718	21667
837.856	21713
837.993	21660
838.131	21686
838.269	21564
838.406	21656
838.544	21568
838.681	21275
838.819	21279
838.956	21146
839.094	21112
839.231	21291
839.369	21260
839.506	21424
839.643	21313
839.781	21112
839.918	20986
840.055	21093
840.193	21017
840.33	20906
840.467	21138
840.604	21138
840.742	21264
840.879	20906
841.016	21020
841.153	20891
841.29	21039
841.427	20914
841.564	21074
841.701	20929
841.838	20937
841.975	20861
842.112	20868
842.249	20712
842.385	20708
842.522	21036
842.659	21017
842.796	20792
842.933	20708
843.069	20804
843.206	20807
843.343	20906
843.479	20853
843.616	20937
843.752	20678
843.889	20777
844.025	20830
844.162	20849
844.298	21047
844.435	20990
844.571	21066
844.708	21401
844.844	21705
844.98	21884
845.117	22360
845.253	22984
845.389	24072
845.525	26545
845.661	30437
845.798	35216
845.934	38804
846.07	40398
846.206	39576
846.342	36502
846.478	31559
846.614	27431
846.75	24642
846.886	23037
847.022	22074
847.158	21507
847.294	21024
847.429	20800
847.565	20617
847.701	20731
847.837	20096
847.972	20062
848.108	20122
848.244	20142
848.379	19837
848.515	19757
848.65	19609
848.786	19727
848.921	19731
849.057	19833
849.192	19807
849.328	19784
849.463	19753
849.598	19578
849.734	19578
849.869	19521
850.004	19339
850.14	19354
850.275	19396
850.41	19297
850.545	19457
850.68	19320
850.815	19365
850.95	19400
851.085	19552
851.22	19422
851.355	19270
851.49	19228
851.625	19365
851.76	19354
851.895	19236
852.03	19160
852.165	19377
852.299	19232
852.434	19495
852.569	19400
852.703	19369
852.838	19514
852.973	19525
853.107	19624
853.242	19369
853.376	19278
853.511	19145
853.645	19274
853.78	19514
853.914	19510
854.048	19430
854.183	19510
854.317	19510
854.451	19559
854.585	19403
854.72	19468
854.854	19548
854.988	19308
855.122	19324
855.256	19266
855.39	19247
855.524	19400
855.658	19304
855.792	19110
855.926	19354
856.06	19369
856.194	19255
856.327	19141
856.461	19133
856.595	19069
856.729	19160
856.862	19240
856.996	19175
857.13	19217
857.263	19228
857.397	19324
857.53	19095
857.664	19213
857.797	19244
857.931	19228
858.064	19152
858.197	19088
858.331	19015
858.464	18993
858.597	18932
858.731	19114
858.864	19046
858.997	19027
859.13	19008
859.263	19031
859.396	19148
859.529	18863
859.662	19012
859.795	18951
859.928	19053
860.061	19110
860.194	19171
860.327	19103
860.46	18924
860.592	19171
860.725	18985
860.858	19107
860.99	18954
861.123	18867
861.256	19046
861.388	19031
861.521	19609
861.653	18943
861.786	18825
861.918	18791
862.05	18913
862.183	19046
862.315	19038
862.447	19065
862.58	18977
862.712	18810
862.844	18650
862.976	18791
863.108	18795
863.24	19114
863.372	18604
863.504	18783
863.636	18677
863.768	18692
863.9	18700
864.032	18597
864.164	18741
864.296	18658
864.428	18897
864.559	18730
864.691	18837
864.823	18620
864.954	18768
865.086	18688
865.217	18730
865.349	18601
865.48	18521
865.612	18585
865.743	18798
865.875	18719
866.006	18506
866.137	18506
866.269	18661
866.4	18547
866.531	18559
866.662	18570
866.793	18623
866.924	18570
867.055	18696
867.186	18616
867.317	18585
867.448	18490
867.579	18597
867.71	18395
867.841	18464
867.972	18555
868.103	18570
868.233	18627
868.364	18650
868.495	18673
868.625	18726
868.756	18856
868.886	18631
869.017	18852
869.147	18932
869.278	18989
869.408	18882
869.539	18798
869.669	18863
869.799	18894
869.929	18989
870.06	18939
870.19	19194
870.32	19152
870.45	19171
870.58	19183
870.71	19320
870.84	19521
870.97	19251
871.1	19255
871.23	19476
871.36	19457
871.489	19563
871.619	19354
871.749	19464
871.879	19422
872.008	19635
872.138	19499
872.267	19487
872.397	19430
872.526	19392
872.656	19518
872.785	19480
872.915	19685
873.044	19696
873.173	19628
873.303	19506
873.432	19567
873.561	19765
873.69	19700
873.819	19727
873.948	19879
874.077	19776
874.206	19715
874.335	19784
874.464	19887
874.593	19989
874.722	20027
874.851	20202
874.979	20176
875.108	20214
875.237	20259
875.365	20088
875.494	20176
875.623	20324
875.751	20301
875.88	20324
876.008	20526
876.136	20530
876.265	20830
876.393	21036
876.521	21036
876.65	20994
876.778	21058
876.906	20982
877.034	21043
877.162	20990
877.29	21119
877.418	21104
877.546	21294
877.674	21325
877.802	21294
877.93	21538
878.058	21549
878.185	21622
878.313	21838
878.441	22002
878.568	22135
878.696	22767
878.824	23307
878.951	24163
879.079	25274
879.206	26617
879.333	28154
879.461	29303
879.588	30174
879.715	30148
879.842	29539
879.97	28299
880.097	26533
880.224	25449
880.351	24665
880.478	24171
880.605	23474
880.732	23376
880.859	23516
880.986	23117
881.112	23048
881.239	22820
881.366	22790
881.493	22557
881.619	22592
881.746	22519
881.872	22569
881.999	22512
882.125	22649
882.252	22630
882.378	22763
882.505	22812
882.631	22679
882.757	22573
882.883	22607
883.01	22523
883.136	22398
883.262	22382
883.388	22246
883.514	22443
883.64	22527
883.766	22295
883.892	22280
884.018	22329
884.143	22287
884.269	22504
884.395	22200
884.52	22105
884.646	22246
884.772	22230
884.897	22093
885.023	22177
885.148	22265
885.274	22158
885.399	22063
885.524	22002
885.65	21895
885.775	21937
885.9	21637
886.025	21705
886.15	21648
886.275	21401
886.4	21199
886.525	21260
886.65	21062
886.775	20921
886.9	21207
887.025	21142
887.149	20823
887.274	20632
887.399	20537
887.523	20419
887.648	20419
887.773	20313
887.897	20438
888.021	20271
888.146	20240
888.27	20298
888.395	20267
888.519	20214
888.643	20237
888.767	20107
888.891	19913
889.015	19784
889.139	19772
889.263	19746
889.387	19883
889.511	19959
889.635	19849
889.759	19685
889.883	19681
890.006	19651
890.13	19727
890.254	19639
890.377	19476
890.501	19362
890.624	19293
890.748	19316
890.871	19206
890.995	19179
891.118	18996
891.241	19072
891.364	19095
891.488	19145
891.611	18989
891.734	19061
891.857	19065
891.98	18932
892.103	19046
892.226	18943
892.349	18875
892.471	18620
892.594	18745
892.717	18871
892.839	18817
892.962	18715
893.085	18696
893.207	18661
893.33	18612
893.452	18551
893.575	18711
893.697	18661
893.819	18863
893.941	18745
894.064	18658
894.186	18395
894.308	18448
894.43	18498
894.552	18639
894.674	18536
894.796	18479
894.918	18544
895.04	18483
895.161	18623
895.283	18574
895.405	18418
895.526	18395
895.648	18441
895.769	18467
895.891	18502
896.012	18551
896.134	18464
896.255	18448
896.376	18448
896.498	18486
896.619	18384
896.74	18464
896.861	18532
896.982	18886
897.103	18856
897.224	18745
897.345	18715
897.466	18559
897.587	18608
897.708	18703
897.828	18608
897.949	18547
898.07	18365
898.19	18521
898.311	18795
898.431	18582
898.552	18639
898.672	18726
898.792	18757
898.913	18631
899.033	18445
899.153	18448
899.273	18296
899.393	18433
899.513	18399
899.633	18414
899.753	18391
899.873	18407
899.993	18437
900.113	18308
900.232	18315
900.352	18323
900.472	18296
900.591	18117
900.711	18220
900.83	18167
900.95	18289
901.069	18167
901.189	17931
901.308	17897
901.427	17672
901.546	17809
901.665	17764
901.784	17760
901.904	17642
902.023	17520
902.141	17265
902.26	17235
902.379	17368
902.498	17212
902.617	17208
902.735	17204
902.854	17254
902.973	17136
903.091	16995
903.21	16873
903.328	16801
903.446	16786
903.565	16653
903.683	16725
903.801	16622
903.919	16702
904.038	16577
904.156	16451
904.274	16550
904.392	16489
904.51	16405
904.627	16409
904.745	16508
904.863	16413
904.981	16284
905.098	16093
905.216	16078
905.334	16181
905.451	16071
905.569	16128
905.686	16120
905.803	16036
905.921	15835
906.038	15918
906.155	15804
906.272	15804
906.389	15793
906.506	15644
906.623	15538
906.74	15595
906.857	15401
906.974	15561
907.091	15614
907.208	15770
907.324	15584
907.441	15492
907.557	15389
907.674	15294
907.79	15302
907.907	15222
908.023	15260
908.139	15306
908.256	15203
908.372	15157
908.488	15055
908.604	15028
908.72	14982
908.836	15043
908.952	15017
909.068	14998
909.184	15154
909.3	14998
909.415	15085
909.531	14967
909.647	14659
909.762	14621
909.878	14693
909.993	14678
910.108	14705
910.224	14697
910.339	14636
910.454	14629
910.57	14495
910.685	14549
910.8	14758
910.915	14686
911.03	14522
911.145	14408
911.259	14366
911.374	14343
911.489	14313
911.604	14225
911.718	14065
911.833	14088
911.947	13982
912.062	13845
912.176	14138
912.291	13997
912.405	13883
912.519	14256
912.633	14286
912.748	14020
912.862	14046
912.976	13841
913.09	13902
913.204	13814
913.318	13963
913.431	13997
913.545	13993
913.659	13982
913.772	13868
913.886	13849
914	13655
914.113	13856
914.226	13833
914.34	13803
914.453	13632
914.566	13761
914.68	13723
914.793	13670
914.906	13521
915.019	13392
915.132	13373
915.245	13362
915.358	13441
915.47	13403
915.583	13457
915.696	13514
915.809	13499
915.921	13552
916.034	13377
916.146	13247
916.259	13354
916.371	13422
916.483	13529
916.595	13350
916.708	13312
916.82	13331
916.932	13240
917.044	13282
917.156	13259
917.268	13076
917.38	13255
917.491	13137
917.603	13179
917.715	13164
917.826	13282
917.938	13129
918.049	13023
918.161	13057
918.272	13263
918.384	13259
918.495	12993
918.606	12897
918.717	12913
918.828	12928
918.939	12981
919.05	12757
919.161	12935
919.272	12650
919.383	12715
919.494	12989
919.604	13031
919.715	12863
919.826	12783
919.936	12848
920.047	12939
920.157	12935
920.267	13069
920.378	12875
920.488	12810
920.598	13012
920.708	13160
920.818	13050
920.928	12996
921.038	13236
921.148	13065
921.258	12825
921.368	12654
921.477	12593
921.587	12608
921.697	12460
921.806	12593
921.916	12464
922.025	12330
922.134	12285
922.244	12319
922.353	12327
922.462	12197
922.571	12083
922.68	12034
922.789	11999
922.898	12003
923.007	11882
923.116	12011
923.224	11908
923.333	11931
923.442	11817
923.55	11726
923.659	11828
923.767	11794
923.876	11760
923.984	11889
924.092	11691
924.201	11710
924.309	11722
924.417	11718
924.525	11718
924.633	11676
924.741	12464
924.849	11414
924.956	11551
925.064	11471
925.172	11444
925.279	11429
925.387	11497
925.494	11444
925.602	11566
925.709	11501
925.816	11341
925.924	11425
926.031	11455
926.138	11455
926.245	11478
926.352	11326
926.459	11410
926.566	11433
926.673	11337
926.779	11246
926.886	11307
926.993	11064
927.099	11128
927.206	11060
927.312	11025
927.419	11220
927.525	11029
927.631	11071
927.737	11006
927.843	10957
927.95	10873
928.056	10873
928.162	10946
928.267	10942
928.373	11467
928.479	11048
928.585	10778
928.69	10812
928.796	10927
928.901	10801
929.007	10675
929.112	10816
929.218	10736
929.323	10729
929.428	10592
929.533	10782
929.638	10550
929.743	10660
929.848	10683
929.953	10664
930.058	10500
930.163	10443
930.267	10405
930.372	10535
930.477	10341
930.581	10607
930.685	10386
930.79	10371
930.894	10299
930.998	10230
931.103	10421
931.207	10097
931.311	10025
931.415	9934
931.519	9694
931.623	9705
