Data from test_V78500241_3657.txt Node
Date: Fri Mar 25 14:59:10 CST 2022
User: usil
Spectrometer: V785-0024
Trigger mode: 0
Integration Time (sec): 4.000000E-1
Scans to average: 1
Nonlinearity correction enabled: false
Boxcar width: 0
Storing dark spectrum: false
XAxis mode: Wavelengths
Number of Pixels in Spectrum: 1024
>>>>>Begin Spectral Data<<<<<
801.071	21994
801.214	21797
801.356	21500
801.499	21526
801.641	21416
801.783	21317
801.926	21279
802.068	21150
802.211	21150
802.353	21005
802.496	20849
802.638	20788
802.78	20765
802.923	20686
803.065	20564
803.208	20549
803.35	20682
803.492	20674
803.635	20746
803.777	20602
803.919	20705
804.061	21028
804.204	20667
804.346	20514
804.488	20507
804.63	20705
804.773	20651
804.915	20526
805.057	20617
805.199	20499
805.341	20537
805.483	20663
805.626	20537
805.768	20442
805.91	20560
806.052	20400
806.194	20412
806.336	20629
806.478	20389
806.62	20370
806.762	20514
806.904	20670
807.046	20864
807.188	20804
807.33	20788
807.472	20853
807.614	20826
807.756	20785
807.898	20549
808.04	20511
808.182	20594
808.324	20530
808.465	20552
808.607	20697
808.749	20883
808.891	21058
809.033	21028
809.174	20967
809.316	20781
809.458	20868
809.6	20804
809.741	21013
809.883	20986
810.025	21013
810.166	20994
810.308	20941
810.45	20861
810.591	20788
810.733	20735
810.875	20651
811.016	20556
811.158	20469
811.299	20492
811.441	20785
811.582	20750
811.724	20651
811.865	20644
812.007	20682
812.148	20629
812.29	20663
812.431	20686
812.573	20811
812.714	21051
812.855	21154
812.997	21135
813.138	21291
813.279	21207
813.421	21154
813.562	21001
813.703	20925
813.845	20724
813.986	20526
814.127	20408
814.268	20119
814.41	20210
814.551	20168
814.692	20145
814.833	20058
814.974	19982
815.115	20122
815.256	19947
815.397	20024
815.539	19986
815.68	19940
815.821	19826
815.962	19875
816.103	19791
816.244	19727
816.385	19590
816.526	19666
816.666	19434
816.807	19422
816.948	19335
817.089	19369
817.23	19312
817.371	19301
817.512	19274
817.653	19304
817.793	19247
817.934	19339
818.075	19358
818.216	19194
818.356	19316
818.497	19133
818.638	18977
818.778	18802
818.919	19015
819.06	18871
819.2	18977
819.341	19107
819.481	19194
819.622	19403
819.762	19464
819.903	19396
820.043	19327
820.184	19259
820.324	19202
820.465	19320
820.605	19304
820.746	19251
820.886	19225
821.026	19107
821.167	19247
821.307	19324
821.447	19209
821.588	19183
821.728	18958
821.868	18787
822.008	18681
822.149	18604
822.289	18574
822.429	18365
822.569	18292
822.709	18342
822.849	18186
822.99	18174
823.13	18155
823.27	18171
823.41	17984
823.55	17980
823.69	18015
823.83	18022
823.97	17847
824.11	17729
824.25	17661
824.389	17726
824.529	17870
824.669	17870
824.809	17863
824.949	17790
825.089	17794
825.228	17733
825.368	17581
825.508	17478
825.648	17543
825.787	17634
825.927	17600
826.067	17501
826.206	17486
826.346	17619
826.485	17497
826.625	17402
826.765	17554
826.904	17452
827.044	17261
827.183	17277
827.323	17170
827.462	17261
827.601	17181
827.741	17189
827.88	17322
828.02	17105
828.159	17299
828.298	17277
828.437	17227
828.577	17128
828.716	17398
828.855	17178
828.994	17041
829.134	16961
829.273	17079
829.412	17010
829.551	16915
829.69	16961
829.829	16991
829.968	17064
830.107	17079
830.246	16953
830.385	16957
830.524	16786
830.663	16862
830.802	16641
830.941	16649
831.08	16634
831.219	16748
831.357	16717
831.496	16748
831.635	16653
831.774	16538
831.913	16516
832.051	16382
832.19	16443
832.329	16402
832.467	16318
832.606	16211
832.744	16230
832.883	16226
833.022	16249
833.16	16215
833.299	16363
833.437	16287
833.576	16405
833.714	16398
833.852	16375
833.991	16428
834.129	16535
834.267	16382
834.406	16363
834.544	16344
834.682	16386
834.821	16276
834.959	16546
835.097	16356
835.235	16409
835.373	16421
835.511	16443
835.65	16238
835.788	16261
835.926	16013
836.064	16063
836.202	16204
836.34	16249
836.478	16322
836.615	16310
836.753	16291
836.891	16352
837.029	16367
837.167	16204
837.305	16303
837.443	16211
837.58	16131
837.718	16284
837.856	16135
837.993	16048
838.131	16173
838.269	16135
838.406	16086
838.544	15991
838.681	15831
838.819	15934
838.956	15682
839.094	15770
839.231	15907
839.369	15876
839.506	16128
839.643	15934
839.781	15762
839.918	15584
840.055	15770
840.193	15637
840.33	15705
840.467	15686
840.604	15652
840.742	16071
840.879	15595
841.016	15587
841.153	15534
841.29	15854
841.427	15751
841.564	15736
841.701	15778
841.838	15629
841.975	15709
842.112	15682
842.249	15523
842.385	15504
842.522	15713
842.659	15572
842.796	15469
842.933	15416
843.069	15447
843.206	15443
843.343	15553
843.479	15462
843.616	15477
843.752	15408
843.889	15336
844.025	15469
844.162	15252
844.298	15431
844.435	15264
844.571	15336
844.708	15332
844.844	15435
844.98	15450
845.117	15485
845.253	15344
845.389	15195
845.525	15199
845.661	15237
845.798	15017
845.934	15066
846.07	15074
846.206	15165
846.342	15249
846.478	15154
846.614	14918
846.75	14830
846.886	14895
847.022	14937
847.158	14864
847.294	14838
847.429	14933
847.565	14826
847.701	15070
847.837	14613
847.972	14461
848.108	14724
848.244	14655
848.379	14412
848.515	14431
848.65	14385
848.786	14415
848.921	14427
849.057	14636
849.192	14514
849.328	14530
849.463	14454
849.598	14461
849.734	14320
849.869	14317
850.004	14271
850.14	14267
850.275	14267
850.41	14123
850.545	14172
850.68	14183
850.815	14214
850.95	14244
851.085	14400
851.22	14336
851.355	14290
851.49	14221
851.625	14138
851.76	14263
851.895	14103
852.03	14111
852.165	14256
852.299	14168
852.434	14275
852.569	14286
852.703	14362
852.838	14290
852.973	14370
853.107	14309
853.242	14100
853.376	14191
853.511	14001
853.645	14107
853.78	14275
853.914	14115
854.048	14054
854.183	14084
854.317	14035
854.451	14275
854.585	14065
854.72	14100
854.854	14237
854.988	13955
855.122	14134
855.256	13947
855.39	14157
855.524	14115
855.658	14134
855.792	14092
855.926	14168
856.06	14149
856.194	14263
856.327	14043
856.461	14020
856.595	13997
856.729	14142
856.862	14282
856.996	14256
857.13	14187
857.263	14366
857.397	14282
857.53	14149
857.664	14172
857.797	14286
857.931	14202
858.064	14130
858.197	14214
858.331	14069
858.464	14142
858.597	14039
858.731	14107
858.864	14043
858.997	14069
859.13	14142
859.263	14123
859.396	14210
859.529	14123
859.662	14096
859.795	14142
859.928	14096
860.061	14278
860.194	14214
860.327	14081
860.46	14050
860.592	14187
860.725	14206
860.858	14218
860.99	14084
861.123	14031
861.256	14088
861.388	14149
861.521	14788
861.653	13921
861.786	13913
861.918	13978
862.05	14081
862.183	13970
862.315	14050
862.447	14138
862.58	14084
862.712	13909
862.844	13795
862.976	13951
863.108	13875
863.24	14248
863.372	13818
863.504	13833
863.636	13837
863.768	13917
863.9	13860
864.032	13757
864.164	13814
864.296	13982
864.428	13967
864.559	14050
864.691	14001
864.823	13921
864.954	13894
865.086	13894
865.217	13898
865.349	13769
865.48	13898
865.612	13951
865.743	14031
865.875	13871
866.006	13902
866.137	13940
866.269	13826
866.4	13776
866.531	13856
866.662	13811
866.793	13849
866.924	13807
867.055	13841
867.186	13894
867.317	13799
867.448	13833
867.579	13772
867.71	13776
867.841	13811
867.972	13906
868.103	13879
868.233	13894
868.364	13849
868.495	14001
868.625	14119
868.756	14218
868.886	14024
869.017	14069
869.147	14301
869.278	14332
869.408	14077
869.539	14172
869.669	14126
869.799	14138
869.929	14305
870.06	14267
870.19	14408
870.32	14442
870.45	14461
870.58	14495
870.71	14705
870.84	14549
870.97	14488
871.1	14583
871.23	14724
871.36	14743
871.489	14644
871.619	14716
871.749	14674
871.879	14769
872.008	14842
872.138	14712
872.267	14610
872.397	14606
872.526	14598
872.656	14530
872.785	14545
872.915	14693
873.044	14777
873.173	14811
873.303	14750
873.432	14834
873.561	14830
873.69	14815
873.819	14792
873.948	14807
874.077	14716
874.206	14720
874.335	14762
874.464	14857
874.593	15112
874.722	15009
874.851	15123
874.979	15017
875.108	15123
875.237	15032
875.365	14994
875.494	15108
875.623	15207
875.751	15089
875.88	15077
876.008	15283
876.136	15386
876.265	15515
876.393	15663
876.521	15682
876.65	15538
876.778	15500
876.906	15610
877.034	15367
877.162	15348
877.29	15485
877.418	15424
877.546	15496
877.674	15564
877.802	15526
877.93	15492
878.058	15515
878.185	15477
878.313	15511
878.441	15477
878.568	15313
878.696	15450
878.824	15538
878.951	15576
879.079	15622
879.206	15854
879.333	15732
879.461	15549
879.588	15572
879.715	15652
879.842	15724
879.97	15557
880.097	15340
880.224	15313
880.351	15412
880.478	15344
880.605	15435
880.732	15374
880.859	15622
880.986	15389
881.112	15458
881.239	15268
881.366	15138
881.493	15077
881.619	15020
881.746	15077
881.872	15039
881.999	14967
882.125	15051
882.252	15062
882.378	15013
882.505	15161
882.631	15032
882.757	14838
882.883	14952
883.01	14895
883.136	14872
883.262	14670
883.388	14674
883.514	14823
883.64	14807
883.766	14743
883.892	14617
884.018	14686
884.143	14979
884.269	14986
884.395	14629
884.52	14511
884.646	14518
884.772	14457
884.897	14450
885.023	14537
885.148	14678
885.274	14743
885.399	14625
885.524	14545
885.65	14552
885.775	14522
885.9	14602
886.025	14613
886.15	14522
886.275	14522
886.4	14495
886.525	14522
886.65	14499
886.775	14473
886.9	14682
887.025	14765
887.149	14454
887.274	14362
887.399	14415
887.523	14408
887.648	14324
887.773	14210
887.897	14339
888.021	14415
888.146	14275
888.27	14461
888.395	14511
888.519	14480
888.643	14404
888.767	14560
888.891	14317
889.015	14275
889.139	14286
889.263	14263
889.387	14396
889.511	14465
889.635	14423
889.759	14275
889.883	14248
890.006	14271
890.13	14370
890.254	14088
890.377	14244
890.501	14103
890.624	14016
890.748	14027
890.871	14088
890.995	13814
891.118	13788
891.241	13932
891.364	14005
891.488	13974
891.611	13925
891.734	13963
891.857	13944
891.98	13963
892.103	14115
892.226	14027
892.349	13986
892.471	13738
892.594	13986
892.717	14035
892.839	13818
892.962	13970
893.085	14103
893.207	13890
893.33	13879
893.452	13852
893.575	14054
893.697	13944
893.819	14065
893.941	14134
894.064	14050
894.186	13913
894.308	14012
894.43	14062
894.552	14134
894.674	14130
894.796	13955
894.918	14035
895.04	13963
895.161	14069
895.283	14103
895.405	14084
895.526	14016
895.648	14043
895.769	14096
895.891	14153
896.012	14168
896.134	14214
896.255	14107
896.376	14077
896.498	14145
896.619	14214
896.74	14210
896.861	14115
896.982	14454
897.103	14590
897.224	14461
897.345	14400
897.466	14355
897.587	14336
897.708	14522
897.828	14404
897.949	14427
898.07	14317
898.19	14290
898.311	14503
898.431	14465
898.552	14374
898.672	14625
898.792	14431
898.913	14564
899.033	14343
899.153	14377
899.273	14206
899.393	14282
899.513	14351
899.633	14393
899.753	14446
899.873	14332
899.993	14423
900.113	14267
900.232	14355
900.352	14233
900.472	14252
900.591	14183
900.711	14233
900.83	14062
900.95	14221
901.069	14244
901.189	14103
901.308	13932
901.427	13902
901.546	13913
901.665	13925
901.784	13830
901.904	13769
902.023	13708
902.141	13506
902.26	13377
902.379	13518
902.498	13419
902.617	13354
902.735	13426
902.854	13430
902.973	13422
903.091	13171
903.21	13126
903.328	13156
903.446	13072
903.565	13042
903.683	13076
903.801	12939
903.919	13008
904.038	12981
904.156	12924
904.274	12901
904.392	12825
904.51	12894
904.627	12776
904.745	12890
904.863	12947
904.981	12593
905.098	12540
905.216	12517
905.334	12570
905.451	12502
905.569	12536
905.686	12566
905.803	12486
905.921	12346
906.038	12418
906.155	12319
906.272	12228
906.389	12186
906.506	12068
906.623	12163
906.74	12155
906.857	12049
906.974	12011
907.091	12163
907.208	12308
907.324	12159
907.441	12034
907.557	11923
907.674	11851
907.79	11748
907.907	11821
908.023	11885
908.139	11836
908.256	11828
908.372	11847
908.488	11775
908.604	11691
908.72	11581
908.836	11661
908.952	11570
909.068	11551
909.184	11657
909.3	11600
909.415	11802
909.531	11710
909.647	11455
909.762	11459
909.878	11318
909.993	11433
910.108	11284
910.224	11410
910.339	11368
910.454	11356
910.57	11265
910.685	11140
910.8	11372
910.915	11490
911.03	11273
911.145	11140
911.259	11025
911.374	11159
911.489	10957
911.604	11033
911.718	10934
911.833	10915
911.947	10809
912.062	10679
912.176	10862
912.291	10790
912.405	10797
912.519	11060
912.633	11162
912.748	10938
912.862	10862
912.976	10782
913.09	10683
913.204	10679
913.318	10752
913.431	10824
913.545	10820
913.659	10831
913.772	10698
913.886	10634
914	10569
914.113	10672
914.226	10725
914.34	10710
914.453	10523
914.566	10706
914.68	10588
914.793	10577
914.906	10428
915.019	10333
915.132	10341
915.245	10360
915.358	10394
915.47	10421
915.583	10432
915.696	10455
915.809	10451
915.921	10504
916.034	10329
916.146	10409
916.259	10341
916.371	10466
916.483	10344
916.595	10337
916.708	10337
916.82	10375
916.932	10268
917.044	10314
917.156	10310
917.268	10242
917.38	10261
917.491	10120
917.603	10242
917.715	10367
917.826	10360
917.938	10276
918.049	10051
918.161	10257
918.272	10348
918.384	10360
918.495	10196
918.606	10200
918.717	10044
918.828	10112
918.939	10147
919.05	9964
919.161	10074
919.272	9827
919.383	9934
919.494	10154
919.604	10314
919.715	10150
919.826	10093
919.936	10109
920.047	10227
920.157	10227
920.267	10375
920.378	10169
920.488	10124
920.598	10341
920.708	10489
920.818	10356
920.928	10337
921.038	10523
921.148	10409
921.258	10238
921.368	10105
921.477	10044
921.587	9918
921.697	9766
921.806	9994
921.916	9823
922.025	9759
922.134	9713
922.244	9622
922.353	9663
922.462	9614
922.571	9473
922.68	9355
922.789	9336
922.898	9420
923.007	9382
923.116	9496
923.224	9382
923.333	9317
923.442	9283
923.55	9272
923.659	9268
923.767	9253
923.876	9222
923.984	9367
924.092	9237
924.201	9222
924.309	9253
924.417	9256
924.525	9173
924.633	9157
924.741	9915
924.849	9058
924.956	9203
925.064	9001
925.172	8941
925.279	8956
925.387	9032
925.494	9017
925.602	9184
925.709	9165
925.816	8967
925.924	8994
926.031	9100
926.138	9070
926.245	9116
926.352	8925
926.459	9119
926.566	9127
926.673	9028
926.779	8937
926.886	8956
926.993	8750
927.099	8849
927.206	8697
927.312	8670
927.419	8727
927.525	8754
927.631	8838
927.737	8693
927.843	8617
927.95	8530
928.056	8629
928.162	8590
928.267	8606
928.373	9169
928.479	8727
928.585	8541
928.69	8613
928.796	8674
928.901	8518
929.007	8446
929.112	8583
929.218	8507
929.323	8507
929.428	8419
929.533	8610
929.638	8339
929.743	8469
929.848	8545
929.953	8465
930.058	8381
930.163	8286
930.267	8259
930.372	8389
930.477	8210
930.581	8469
930.685	8355
930.79	8214
930.894	8210
930.998	8202
931.103	8313
931.207	7955
931.311	7925
931.415	7856
931.519	7731
931.623	7666
