Data from test_V78500241_2579.txt Node
Date: Fri Mar 25 14:51:40 CST 2022
User: usil
Spectrometer: V785-0024
Trigger mode: 0
Integration Time (sec): 4.000000E-1
Scans to average: 1
Nonlinearity correction enabled: false
Boxcar width: 0
Storing dark spectrum: false
XAxis mode: Wavelengths
Number of Pixels in Spectrum: 1024
>>>>>Begin Spectral Data<<<<<
801.071	22067
801.214	22082
801.356	21720
801.499	21572
801.641	21534
801.783	21496
801.926	21397
802.068	21374
802.211	21302
802.353	21287
802.496	20921
802.638	20910
802.78	20990
802.923	20689
803.065	20819
803.208	20651
803.35	20811
803.492	20838
803.635	20857
803.777	20804
803.919	20804
804.061	21127
804.204	20708
804.346	20609
804.488	20682
804.63	20800
804.773	20518
804.915	20727
805.057	20788
805.199	20537
805.341	20750
805.483	20811
805.626	20724
805.768	20705
805.91	20693
806.052	20781
806.194	20560
806.336	20823
806.478	20678
806.62	20670
806.762	20796
806.904	20876
807.046	21150
807.188	20982
807.33	20948
807.472	21062
807.614	20807
807.756	20883
807.898	20815
808.04	20701
808.182	20663
808.324	20705
808.465	20807
808.607	20944
808.749	20963
808.891	21142
809.033	21264
809.174	21104
809.316	21074
809.458	21074
809.6	20910
809.741	21085
809.883	21047
810.025	21207
810.166	21108
810.308	21138
810.45	21150
810.591	21043
810.733	20853
810.875	20785
811.016	20754
811.158	20743
811.299	20864
811.441	20975
811.582	20864
811.724	20773
811.865	20750
812.007	20731
812.148	20765
812.29	20804
812.431	20914
812.573	21249
812.714	21104
812.855	21340
812.997	21431
813.138	21363
813.279	21378
813.421	21393
813.562	21138
813.703	21146
813.845	20998
813.986	20617
814.127	20377
814.268	20374
814.41	20358
814.551	20336
814.692	20412
814.833	20275
814.974	20336
815.115	20370
815.256	20248
815.397	20168
815.539	20263
815.68	20084
815.821	19963
815.962	19906
816.103	20096
816.244	19932
816.385	19795
816.526	19814
816.666	19628
816.807	19434
816.948	19540
817.089	19502
817.23	19537
817.371	19495
817.512	19464
817.653	19457
817.793	19400
817.934	19339
818.075	19441
818.216	19491
818.356	19434
818.497	19274
818.638	19232
818.778	19160
818.919	19160
819.06	19114
819.2	19179
819.341	19460
819.481	19434
819.622	19597
819.762	19799
819.903	19670
820.043	19506
820.184	19499
820.324	19624
820.465	19396
820.605	19510
820.746	19358
820.886	19320
821.026	19506
821.167	19457
821.307	19487
821.447	19426
821.588	19217
821.728	19145
821.868	18977
822.008	18844
822.149	18852
822.289	18814
822.429	18665
822.569	18521
822.709	18593
822.849	18483
822.99	18311
823.13	18365
823.27	18369
823.41	18163
823.55	18121
823.69	18152
823.83	18095
823.97	18114
824.11	17942
824.25	17874
824.389	18011
824.529	18064
824.669	17901
824.809	17931
824.949	17992
825.089	17912
825.228	17878
825.368	17714
825.508	17775
825.648	17813
825.787	17832
825.927	17866
826.067	17592
826.206	17676
826.346	17726
826.485	17805
826.625	17718
826.765	17931
826.904	17813
827.044	17474
827.183	17425
827.323	17356
827.462	17406
827.601	17391
827.741	17330
827.88	17429
828.02	17345
828.159	17398
828.298	17360
828.437	17516
828.577	17444
828.716	17509
828.855	17292
828.994	17220
829.134	17292
829.273	17239
829.412	17083
829.551	17121
829.69	17193
829.829	17223
829.968	17349
830.107	17178
830.246	17254
830.385	17113
830.524	16965
830.663	17033
830.802	16866
830.941	16828
831.08	16744
831.219	16812
831.357	16946
831.496	17090
831.635	16752
831.774	16736
831.913	16649
832.051	16542
832.19	16531
832.329	16538
832.467	16535
832.606	16447
832.744	16303
832.883	16447
833.022	16386
833.16	16538
833.299	16527
833.437	16405
833.576	16607
833.714	16554
833.852	16596
833.991	16573
834.129	16664
834.267	16599
834.406	16641
834.544	16493
834.682	16478
834.821	16489
834.959	16656
835.097	16443
835.235	16577
835.373	16489
835.511	16497
835.65	16519
835.788	16436
835.926	16379
836.064	16360
836.202	16268
836.34	16523
836.478	16478
836.615	16382
836.753	16462
836.891	16451
837.029	16569
837.167	16424
837.305	16265
837.443	16409
837.58	16211
837.718	16424
837.856	16276
837.993	16356
838.131	16314
838.269	16261
838.406	16268
838.544	16204
838.681	16032
838.819	15911
838.956	15934
839.094	15819
839.231	15911
839.369	16021
839.506	16215
839.643	16139
839.781	15880
839.918	15816
840.055	15789
840.193	15835
840.33	15884
840.467	15785
840.604	15797
840.742	16139
840.879	15812
841.016	15831
841.153	15724
841.29	15998
841.427	15945
841.564	16010
841.701	15888
841.838	15789
841.975	15701
842.112	15766
842.249	15660
842.385	15625
842.522	15835
842.659	15751
842.796	15641
842.933	15690
843.069	15561
843.206	15488
843.343	15694
843.479	15682
843.616	15720
843.752	15473
843.889	15500
844.025	15679
844.162	15355
844.298	15526
844.435	15485
844.571	15367
844.708	15496
844.844	15576
844.98	15572
845.117	15530
845.253	15428
845.389	15367
845.525	15310
845.661	15272
845.798	15192
845.934	15237
846.07	15150
846.206	15264
846.342	15256
846.478	15264
846.614	15081
846.75	14975
846.886	14929
847.022	15020
847.158	15028
847.294	15043
847.429	15001
847.565	15047
847.701	15325
847.837	14746
847.972	14777
848.108	14899
848.244	14792
848.379	14697
848.515	14659
848.65	14564
848.786	14541
848.921	14571
849.057	14701
849.192	14674
849.328	14708
849.463	14575
849.598	14492
849.734	14495
849.869	14480
850.004	14290
850.14	14351
850.275	14389
850.41	14355
850.545	14408
850.68	14233
850.815	14347
850.95	14336
851.085	14568
851.22	14488
851.355	14412
851.49	14301
851.625	14317
851.76	14332
851.895	14286
852.03	14347
852.165	14332
852.299	14358
852.434	14507
852.569	14461
852.703	14404
852.838	14469
852.973	14613
853.107	14503
853.242	14317
853.376	14305
853.511	14111
853.645	14202
853.78	14347
853.914	14294
854.048	14355
854.183	14153
854.317	14271
854.451	14408
854.585	14271
854.72	14244
854.854	14301
854.988	14199
855.122	14214
855.256	14115
855.39	14176
855.524	14343
855.658	14263
855.792	14309
855.926	14240
856.06	14355
856.194	14336
856.327	14271
856.461	14176
856.595	14199
856.729	14313
856.862	14351
856.996	14256
857.13	14450
857.263	14377
857.397	14374
857.53	14214
857.664	14195
857.797	14412
857.931	14343
858.064	14332
858.197	14438
858.331	14278
858.464	14259
858.597	14126
858.731	14298
858.864	14267
858.997	14309
859.13	14252
859.263	14317
859.396	14351
859.529	14183
859.662	14183
859.795	14328
859.928	14267
860.061	14351
860.194	14415
860.327	14263
860.46	14240
860.592	14374
860.725	14431
860.858	14415
860.99	14206
861.123	14229
861.256	14214
861.388	14278
861.521	14864
861.653	14081
861.786	14065
861.918	14168
862.05	14195
862.183	14286
862.315	14206
862.447	14301
862.58	14237
862.712	14069
862.844	14043
862.976	14123
863.108	14153
863.24	14552
863.372	14111
863.504	13982
863.636	14008
863.768	14092
863.9	14084
864.032	14084
864.164	14020
864.296	14130
864.428	14149
864.559	14149
864.691	14172
864.823	14183
864.954	13978
865.086	14088
865.217	13993
865.349	13909
865.48	14008
865.612	13986
865.743	14275
865.875	14054
866.006	13932
866.137	14096
866.269	14077
866.4	14088
866.531	13967
866.662	13986
866.793	13936
866.924	14084
867.055	14065
867.186	14081
867.317	14012
867.448	13944
867.579	14024
867.71	13925
867.841	13936
867.972	13997
868.103	13970
868.233	13997
868.364	13982
868.495	14153
868.625	14294
868.756	14355
868.886	14259
869.017	14290
869.147	14412
869.278	14355
869.408	14240
869.539	14191
869.669	14336
869.799	14358
869.929	14400
870.06	14370
870.19	14610
870.32	14579
870.45	14613
870.58	14807
870.71	14804
870.84	14883
870.97	14651
871.1	14845
871.23	14864
871.36	14906
871.489	14735
871.619	14834
871.749	14956
871.879	14883
872.008	14990
872.138	14838
872.267	14944
872.397	14735
872.526	14674
872.656	14705
872.785	14746
872.915	14937
873.044	14986
873.173	14948
873.303	14921
873.432	14975
873.561	14967
873.69	14998
873.819	14967
873.948	14914
874.077	14902
874.206	14834
874.335	14948
874.464	15058
874.593	15260
874.722	15184
874.851	15313
874.979	15386
875.108	15241
875.237	15275
875.365	15165
875.494	15306
875.623	15287
875.751	15294
875.88	15382
876.008	15363
876.136	15431
876.265	15698
876.393	15781
876.521	15774
876.65	15808
876.778	15717
876.906	15606
877.034	15618
877.162	15736
877.29	15599
877.418	15644
877.546	15690
877.674	15622
877.802	15698
877.93	15717
878.058	15648
878.185	15580
878.313	15652
878.441	15694
878.568	15496
878.696	15595
878.824	15690
878.951	15854
879.079	15732
879.206	15949
879.333	15816
879.461	15717
879.588	15816
879.715	15899
879.842	16017
879.97	15641
880.097	15526
880.224	15435
880.351	15587
880.478	15458
880.605	15435
880.732	15553
880.859	15766
880.986	15576
881.112	15595
881.239	15443
881.366	15226
881.493	15214
881.619	15135
881.746	15279
881.872	15165
881.999	15199
882.125	15081
882.252	15260
882.378	15169
882.505	15317
882.631	15146
882.757	14971
882.883	15180
883.01	14979
883.136	14948
883.262	14914
883.388	14792
883.514	14994
883.64	15077
883.766	14933
883.892	14769
884.018	14800
884.143	14941
884.269	15047
884.395	14773
884.52	14781
884.646	14724
884.772	14613
884.897	14568
885.023	14678
885.148	14952
885.274	14796
885.399	14872
885.524	14663
885.65	14663
885.775	14708
885.9	14804
886.025	14826
886.15	14781
886.275	14727
886.4	14594
886.525	14682
886.65	14575
886.775	14731
886.9	14735
887.025	15020
887.149	14667
887.274	14545
887.399	14533
887.523	14495
887.648	14347
887.773	14442
887.897	14533
888.021	14636
888.146	14465
888.27	14636
888.395	14640
888.519	14610
888.643	14632
888.767	14602
888.891	14499
889.015	14358
889.139	14446
889.263	14278
889.387	14575
889.511	14632
889.635	14484
889.759	14396
889.883	14252
890.006	14423
890.13	14469
890.254	14294
890.377	14355
890.501	14256
890.624	14256
890.748	14145
890.871	14183
890.995	14065
891.118	13993
891.241	14103
891.364	14164
891.488	14187
891.611	14138
891.734	14035
891.857	14191
891.98	14111
892.103	14142
892.226	14183
892.349	14077
892.471	13925
892.594	13940
892.717	14046
892.839	14012
892.962	14119
893.085	14107
893.207	14050
893.33	13932
893.452	13993
893.575	14161
893.697	14031
893.819	14172
893.941	14278
894.064	14191
894.186	14134
894.308	14107
894.43	14187
894.552	14336
894.674	14301
894.796	14054
894.918	14153
895.04	14119
895.161	14218
895.283	14187
895.405	14183
895.526	14180
895.648	14202
895.769	14370
895.891	14206
896.012	14343
896.134	14324
896.255	14210
896.376	14180
896.498	14275
896.619	14347
896.74	14252
896.861	14442
896.982	14518
897.103	14708
897.224	14560
897.345	14511
897.466	14427
897.587	14552
897.708	14712
897.828	14617
897.949	14457
898.07	14438
898.19	14537
898.311	14708
898.431	14514
898.552	14530
898.672	14667
898.792	14705
898.913	14667
899.033	14549
899.153	14427
899.273	14377
899.393	14457
899.513	14522
899.633	14511
899.753	14556
899.873	14454
899.993	14469
900.113	14355
900.232	14495
900.352	14419
900.472	14381
900.591	14278
900.711	14362
900.83	14210
900.95	14419
901.069	14495
901.189	14286
901.308	14020
901.427	13947
901.546	13982
901.665	13982
901.784	13989
901.904	13871
902.023	13803
902.141	13636
902.26	13605
902.379	13548
902.498	13624
902.617	13563
902.735	13643
902.854	13529
902.973	13506
903.091	13274
903.21	13225
903.328	13358
903.446	13206
903.565	13171
903.683	13217
903.801	12985
903.919	13129
904.038	13031
904.156	12859
904.274	12928
904.392	12951
904.51	12989
904.627	13000
904.745	13031
904.863	12993
904.981	12798
905.098	12578
905.216	12635
905.334	12673
905.451	12646
905.569	12646
905.686	12715
905.803	12528
905.921	12509
906.038	12544
906.155	12369
906.272	12395
906.389	12292
906.506	12308
906.623	12190
906.74	12285
906.857	12110
906.974	12167
907.091	12209
907.208	12350
907.324	12350
907.441	12095
907.557	12034
907.674	11855
907.79	11969
907.907	12019
908.023	11969
908.139	12049
908.256	11897
908.372	11866
908.488	11973
908.604	11790
908.72	11672
908.836	11722
908.952	11699
909.068	11851
909.184	11828
909.3	11691
909.415	11775
909.531	11779
909.647	11634
909.762	11615
909.878	11493
909.993	11558
910.108	11474
910.224	11395
910.339	11532
910.454	11417
910.57	11391
910.685	11379
910.8	11581
910.915	11562
911.03	11345
911.145	11296
911.259	11181
911.374	11162
911.489	11124
911.604	11166
911.718	10942
911.833	10961
911.947	10850
912.062	10786
912.176	11014
912.291	10850
912.405	10927
912.519	11162
912.633	11189
912.748	11121
912.862	11018
912.976	10908
913.09	10778
913.204	10812
913.318	10816
913.431	10949
913.545	10953
913.659	10949
913.772	10877
913.886	10691
914	10763
914.113	10763
914.226	10847
914.34	10805
914.453	10717
914.566	10805
914.68	10630
914.793	10626
914.906	10440
915.019	10573
915.132	10356
915.245	10489
915.358	10531
915.47	10516
915.583	10481
915.696	10523
915.809	10660
915.921	10645
916.034	10390
916.146	10402
916.259	10405
916.371	10451
916.483	10493
916.595	10386
916.708	10337
916.82	10405
916.932	10409
917.044	10428
917.156	10379
917.268	10257
917.38	10272
917.491	10272
917.603	10299
917.715	10413
917.826	10398
917.938	10310
918.049	10219
918.161	10310
918.272	10481
918.384	10519
918.495	10371
918.606	10227
918.717	10078
918.828	10211
918.939	10196
919.05	10131
919.161	10185
919.272	9972
919.383	10032
919.494	10325
919.604	10348
919.715	10238
919.826	10086
919.936	10150
920.047	10261
920.157	10196
920.267	10405
920.378	10268
920.488	10249
920.598	10451
920.708	10561
920.818	10443
920.928	10390
921.038	10565
921.148	10516
921.258	10253
921.368	10230
921.477	10120
921.587	10048
921.697	9949
921.806	10059
921.916	9941
922.025	9800
922.134	9793
922.244	9679
922.353	9743
922.462	9610
922.571	9667
922.68	9511
922.789	9408
922.898	9492
923.007	9469
923.116	9538
923.224	9507
923.333	9378
923.442	9329
923.55	9351
923.659	9447
923.767	9485
923.876	9268
923.984	9397
924.092	9157
924.201	9291
924.309	9275
924.417	9401
924.525	9253
924.633	9298
924.741	10074
924.849	9112
924.956	9241
925.064	9119
925.172	9047
925.279	9104
925.387	9100
925.494	9093
925.602	9192
925.709	9150
925.816	9104
925.924	9077
926.031	9184
926.138	9135
926.245	9127
926.352	9032
926.459	9157
926.566	9146
926.673	9104
926.779	8960
926.886	8895
926.993	8815
927.099	8785
927.206	8762
927.312	8781
927.419	8823
927.525	8864
927.631	8891
927.737	8788
927.843	8708
927.95	8598
928.056	8697
928.162	8758
928.267	8804
928.373	9412
928.479	8804
928.585	8648
928.69	8720
928.796	8811
928.901	8568
929.007	8514
929.112	8655
929.218	8575
929.323	8530
929.428	8488
929.533	8735
929.638	8415
929.743	8499
929.848	8556
929.953	8598
930.058	8450
930.163	8275
930.267	8343
930.372	8465
930.477	8351
930.581	8522
930.685	8366
930.79	8229
930.894	8252
930.998	8214
931.103	8385
931.207	7978
931.311	7925
931.415	7925
931.519	7830
931.623	7757
