Data from test_V78500241_855.txt Node
Date: Fri Mar 25 14:39:40 CST 2022
User: usil
Spectrometer: V785-0024
Trigger mode: 0
Integration Time (sec): 4.000000E-1
Scans to average: 1
Nonlinearity correction enabled: false
Boxcar width: 0
Storing dark spectrum: false
XAxis mode: Wavelengths
Number of Pixels in Spectrum: 1024
>>>>>Begin Spectral Data<<<<<
801.071	25791
801.214	25685
801.356	25537
801.499	25312
801.641	25301
801.783	25168
801.926	25183
802.068	25012
802.211	25019
802.353	24958
802.496	24738
802.638	24741
802.78	24582
802.923	24513
803.065	24490
803.208	24589
803.35	24528
803.492	24707
803.635	24722
803.777	24612
803.919	24696
804.061	25065
804.204	24772
804.346	24757
804.488	24635
804.63	24589
804.773	24673
804.915	24848
805.057	24856
805.199	24734
805.341	24856
805.483	24966
805.626	24970
805.768	24909
805.91	25095
806.052	25103
806.194	24954
806.336	25362
806.478	25206
806.62	25411
806.762	25643
806.904	25769
807.046	26320
807.188	26313
807.33	26541
807.472	26667
807.614	27013
807.756	27606
807.898	28002
808.04	28778
808.182	29794
808.324	31088
808.465	32495
808.607	34112
808.749	35870
808.891	36540
809.033	36540
809.174	35706
809.316	34086
809.458	32602
809.6	30787
809.741	29741
809.883	28615
810.025	27937
810.166	27492
810.308	27032
810.45	26648
810.591	26305
810.733	26077
810.875	25727
811.016	25601
811.158	25476
811.299	25552
811.441	25578
811.582	25571
811.724	25198
811.865	25114
812.007	25190
812.148	25168
812.29	25118
812.431	25251
812.573	25282
812.714	25339
812.855	25533
812.997	25609
813.138	25757
813.279	25666
813.421	25628
813.562	25381
813.703	25232
813.845	25084
813.986	24661
814.127	24536
814.268	24452
814.41	24475
814.551	24365
814.692	24570
814.833	24243
814.974	24338
815.115	24441
815.256	24155
815.397	24125
815.539	24190
815.68	23942
815.821	23813
815.962	24072
816.103	23893
816.244	23817
816.385	23661
816.526	23745
816.666	23379
816.807	23471
816.948	23467
817.089	23551
817.23	23364
817.371	23261
817.512	23459
817.653	23459
817.793	23315
817.934	23280
818.075	23296
818.216	23239
818.356	23318
818.497	23102
818.638	22965
818.778	22923
818.919	22949
819.06	23079
819.2	23178
819.341	23189
819.481	23220
819.622	23212
819.762	23577
819.903	23372
820.043	23372
820.184	23223
820.324	23242
820.465	23322
820.605	23239
820.746	23162
820.886	23090
821.026	23140
821.167	23136
821.307	23208
821.447	23048
821.588	22942
821.728	22858
821.868	22717
822.008	22481
822.149	22622
822.289	22489
822.429	22177
822.569	22200
822.709	22162
822.849	21975
822.99	21926
823.13	21915
823.27	21838
823.41	21720
823.55	21739
823.69	21747
823.83	21694
823.97	21724
824.11	21481
824.25	21454
824.389	21580
824.529	21534
824.669	21572
824.809	21663
824.949	21599
825.089	21587
825.228	21675
825.368	21329
825.508	21325
825.648	21351
825.787	21389
825.927	21439
826.067	21310
826.206	21260
826.346	21275
826.485	21340
826.625	21218
826.765	21443
826.904	21207
827.044	20998
827.183	21100
827.323	21001
827.462	20956
827.601	21036
827.741	21005
827.88	20952
828.02	20819
828.159	20815
828.298	20883
828.437	20937
828.577	20849
828.716	20975
828.855	20754
828.994	20655
829.134	20648
829.273	20697
829.412	20613
829.551	20655
829.69	20697
829.829	20769
829.968	20743
830.107	20743
830.246	20644
830.385	20522
830.524	20404
830.663	20457
830.802	20336
830.941	20328
831.08	20202
831.219	20271
831.357	20263
831.496	20431
831.635	20195
831.774	20103
831.913	20202
832.051	19997
832.19	20126
832.329	20149
832.467	19940
832.606	20039
832.744	20005
832.883	20012
833.022	20088
833.16	20043
833.299	20138
833.437	20275
833.576	20362
833.714	20465
833.852	20511
833.991	20476
834.129	20480
834.267	20549
834.406	20587
834.544	20545
834.682	20446
834.821	20450
834.959	20457
835.097	20180
835.235	20275
835.373	20244
835.511	19989
835.65	20008
835.788	19947
835.926	19799
836.064	19609
836.202	19712
836.34	19837
836.478	19887
836.615	19780
836.753	19818
836.891	19883
837.029	19852
837.167	19738
837.305	19643
837.443	19635
837.58	19594
837.718	19788
837.856	19620
837.993	19544
838.131	19556
838.269	19582
838.406	19521
838.544	19457
838.681	19327
838.819	19331
838.956	19160
839.094	19034
839.231	19228
839.369	19156
839.506	19510
839.643	19320
839.781	19088
839.918	18928
840.055	19038
840.193	19031
840.33	19034
840.467	18932
840.604	19099
840.742	19301
840.879	18947
841.016	18996
841.153	18878
841.29	19103
841.427	19061
841.564	19015
841.701	19031
841.838	19053
841.975	18863
842.112	18890
842.249	18878
842.385	18776
842.522	18954
842.659	18840
842.796	18768
842.933	18779
843.069	18760
843.206	18764
843.343	18814
843.479	18867
843.616	18856
843.752	18871
843.889	18738
844.025	18795
844.162	18779
844.298	18909
844.435	18894
844.571	18920
844.708	19187
844.844	19407
844.98	19605
845.117	19913
845.253	20092
845.389	20918
845.525	22527
845.661	25183
845.798	28527
845.934	31209
846.07	32294
846.206	31753
846.342	29764
846.478	26465
846.614	23448
846.75	21393
846.886	20172
847.022	19681
847.158	19091
847.294	18802
847.429	18654
847.565	18346
847.701	18635
847.837	18041
847.972	18133
848.108	18045
848.244	18034
848.379	17893
848.515	17790
848.65	17836
848.786	17726
848.921	17843
849.057	17893
849.192	17779
849.328	17745
849.463	17657
849.598	17687
849.734	17619
849.869	17505
850.004	17490
850.14	17452
850.275	17478
850.41	17425
850.545	17448
850.68	17383
850.815	17501
850.95	17383
851.085	17467
851.22	17562
851.355	17417
851.49	17360
851.625	17280
851.76	17376
851.895	17231
852.03	17216
852.165	17414
852.299	17455
852.434	17570
852.569	17490
852.703	17493
852.838	17501
852.973	17585
853.107	17619
853.242	17425
853.376	17311
853.511	17277
853.645	17410
853.78	17604
853.914	17486
854.048	17474
854.183	17421
854.317	17406
854.451	17516
854.585	17387
854.72	17334
854.854	17562
854.988	17235
855.122	17368
855.256	17162
855.39	17315
855.524	17387
855.658	17383
855.792	17284
855.926	17353
856.06	17277
856.194	17364
856.327	17258
856.461	17109
856.595	17212
856.729	17246
856.862	17292
856.996	17395
857.13	17250
857.263	17406
857.397	17379
857.53	17307
857.664	17098
857.797	17288
857.931	17261
858.064	17376
858.197	17334
858.331	17254
858.464	17140
858.597	17067
858.731	17231
858.864	17083
858.997	17075
859.13	17204
859.263	17147
859.396	17200
859.529	17086
859.662	17159
859.795	16999
859.928	17227
860.061	17269
860.194	17452
860.327	17208
860.46	17045
860.592	17212
860.725	17364
860.858	17216
860.99	17128
861.123	17052
861.256	17132
861.388	17102
861.521	17741
861.653	16953
861.786	16908
861.918	16946
862.05	17079
862.183	17117
862.315	17098
862.447	17178
862.58	16961
862.712	16892
862.844	16812
862.976	16919
863.108	16866
863.24	17326
863.372	16824
863.504	16911
863.636	16862
863.768	16797
863.9	16790
864.032	16717
864.164	16889
864.296	16866
864.428	16938
864.559	16968
864.691	17014
864.823	16892
864.954	16889
865.086	16778
865.217	16767
865.349	16866
865.48	16858
865.612	16694
865.743	16923
865.875	16812
866.006	16664
866.137	16835
866.269	16835
866.4	16793
866.531	16740
866.662	16736
866.793	16611
866.924	16736
867.055	16759
867.186	16611
867.317	16797
867.448	16725
867.579	16790
867.71	16721
867.841	16683
867.972	16786
868.103	16687
868.233	16759
868.364	16816
868.495	16881
868.625	16949
868.756	17109
868.886	16968
869.017	17006
869.147	17151
869.278	17128
869.408	17052
869.539	17003
869.669	17132
869.799	17124
869.929	17159
870.06	17170
870.19	17330
870.32	17334
870.45	17467
870.58	17356
870.71	17501
870.84	17429
870.97	17448
871.1	17402
871.23	17566
871.36	17665
871.489	17573
871.619	17604
871.749	17714
871.879	17532
872.008	17855
872.138	17687
872.267	17642
872.397	17577
872.526	17436
872.656	17497
872.785	17577
872.915	17722
873.044	17760
873.173	17783
873.303	17786
873.432	17779
873.561	17824
873.69	17836
873.819	17863
873.948	17923
874.077	17859
874.206	17779
874.335	17790
874.464	17946
874.593	18129
874.722	18114
874.851	18186
874.979	18262
875.108	18353
875.237	18232
875.365	18178
875.494	18205
875.623	18289
875.751	18376
875.88	18441
876.008	18525
876.136	18513
876.265	18840
876.393	18935
876.521	18993
876.65	19027
876.778	18833
876.906	18894
877.034	18913
877.162	19038
877.29	18901
877.418	19069
877.546	19099
877.674	19114
877.802	19027
877.93	19270
878.058	19331
878.185	19358
878.313	19514
878.441	19677
878.568	19807
878.696	20100
878.824	20564
878.951	21104
879.079	22021
879.206	22957
879.333	24011
879.461	24764
879.588	25529
879.715	25327
879.842	25080
879.97	23977
880.097	22873
880.224	22044
880.351	21538
880.478	21009
880.605	20659
880.732	20552
880.859	20636
880.986	20370
881.112	20423
881.239	20081
881.366	19947
881.493	19864
881.619	19868
881.746	19925
881.872	19936
881.999	19898
882.125	19833
882.252	20027
882.378	19845
882.505	20180
882.631	19856
882.757	19753
882.883	19921
883.01	19845
883.136	19647
883.262	19693
883.388	19723
883.514	19742
883.64	19814
883.766	19731
883.892	19499
884.018	19620
884.143	19658
884.269	19860
884.395	19544
884.52	19510
884.646	19537
884.772	19377
884.897	19312
885.023	19491
885.148	19635
885.274	19601
885.399	19499
885.524	19354
885.65	19320
885.775	19308
885.9	19164
886.025	19293
886.15	19080
886.275	18886
886.4	18825
886.525	18909
886.65	18787
886.775	18601
886.9	18814
887.025	18791
887.149	18597
887.274	18376
887.399	18270
887.523	18285
887.648	18182
887.773	18213
887.897	18224
888.021	18213
888.146	17992
888.27	18197
888.395	18190
888.519	18038
888.643	17977
888.767	18049
888.891	17893
889.015	17710
889.139	17726
889.263	17672
889.387	17836
889.511	17878
889.635	17855
889.759	17627
889.883	17676
890.006	17745
890.13	17786
890.254	17512
890.377	17425
890.501	17387
890.624	17250
890.748	17318
890.871	17185
890.995	17090
891.118	17090
891.241	17189
891.364	17113
891.488	17212
891.611	17105
891.734	17113
891.857	17212
891.98	17018
892.103	17155
892.226	17109
892.349	17071
892.471	16877
892.594	16904
892.717	16987
892.839	16930
892.962	16991
893.085	16968
893.207	16980
893.33	16816
893.452	16862
893.575	16972
893.697	16938
893.819	16976
893.941	17025
894.064	17025
894.186	16771
894.308	16763
894.43	16949
894.552	16927
894.674	16984
894.796	16790
894.918	16744
895.04	16767
895.161	16839
895.283	16881
895.405	16736
895.526	16801
895.648	16748
895.769	16809
895.891	16824
896.012	16717
896.134	16793
896.255	16660
896.376	16721
896.498	16824
896.619	16927
896.74	16679
896.861	16793
896.982	17102
897.103	17181
897.224	17048
897.345	16908
897.466	16968
897.587	16957
897.708	17143
897.828	17048
897.949	17052
898.07	16968
898.19	16934
898.311	17079
898.431	17029
898.552	17094
898.672	17147
898.792	17105
898.913	16999
899.033	16946
899.153	16946
899.273	16854
899.393	16927
899.513	16881
899.633	16843
899.753	16885
899.873	16911
899.993	16915
900.113	16828
900.232	16850
900.352	16725
900.472	16797
900.591	16637
900.711	16698
900.83	16634
900.95	16797
901.069	16793
901.189	16664
901.308	16451
901.427	16352
901.546	16367
901.665	16306
901.784	16348
901.904	16154
902.023	16074
902.141	15895
902.26	15819
902.379	15907
902.498	15739
902.617	15759
902.735	15895
902.854	15762
902.973	15751
903.091	15553
903.21	15496
903.328	15443
903.446	15351
903.565	15283
903.683	15382
903.801	15237
903.919	15260
904.038	15165
904.156	15036
904.274	15108
904.392	15127
904.51	15028
904.627	15089
904.745	15020
904.863	15043
904.981	14868
905.098	14693
905.216	14705
905.334	14693
905.451	14750
905.569	14670
905.686	14636
905.803	14632
905.921	14396
906.038	14583
906.155	14499
906.272	14355
906.389	14370
906.506	14286
906.623	14275
906.74	14324
906.857	14065
906.974	14081
907.091	14282
907.208	14309
907.324	14290
907.441	14210
907.557	14043
907.674	13951
907.79	13818
907.907	13894
908.023	14027
908.139	13849
908.256	13959
908.372	13871
908.488	13841
908.604	13712
908.72	13704
908.836	13685
908.952	13658
909.068	13620
909.184	13788
909.3	13674
909.415	13681
909.531	13696
909.647	13487
909.762	13495
909.878	13343
909.993	13487
910.108	13381
910.224	13327
910.339	13483
910.454	13331
910.57	13225
910.685	13217
910.8	13468
910.915	13419
911.03	13308
911.145	13076
911.259	13095
911.374	13034
911.489	13042
911.604	12962
911.718	12783
911.833	12863
911.947	12738
912.062	12669
912.176	12768
912.291	12787
912.405	12734
912.519	12981
912.633	12985
912.748	12897
912.862	12779
912.976	12707
913.09	12532
913.204	12517
913.318	12623
913.431	12760
913.545	12741
913.659	12798
913.772	12631
913.886	12479
914	12498
914.113	12585
914.226	12616
914.34	12555
914.453	12448
914.566	12559
914.68	12460
914.793	12532
914.906	12277
915.019	12220
915.132	12182
915.245	12220
915.358	12258
915.47	12304
915.583	12296
915.696	12171
915.809	12391
915.921	12414
916.034	12232
916.146	12155
916.259	12133
916.371	12277
916.483	12175
916.595	12144
916.708	12117
916.82	12159
916.932	12235
917.044	12201
917.156	12114
917.268	11977
917.38	11859
917.491	11927
917.603	12030
917.715	12038
917.826	12041
917.938	11958
918.049	11802
918.161	12015
918.272	12098
918.384	12114
918.495	11961
918.606	11817
918.717	11752
918.828	11927
918.939	11828
919.05	11653
919.161	11843
919.272	11604
919.383	11703
919.494	11771
919.604	12003
919.715	11855
919.826	11703
919.936	11707
920.047	11832
920.157	11893
920.267	12060
920.378	11836
920.488	11885
920.598	11916
920.708	12079
920.818	11882
920.928	11973
921.038	12155
921.148	12011
921.258	11748
921.368	11718
921.477	11543
921.587	11581
921.697	11452
921.806	11596
921.916	11490
922.025	11376
922.134	11311
922.244	11166
922.353	11337
922.462	11159
922.571	11102
922.68	10987
922.789	10934
922.898	10946
923.007	10900
923.116	10930
923.224	10923
923.333	10938
923.442	10793
923.55	10782
923.659	10763
923.767	10892
923.876	10812
923.984	10915
924.092	10668
924.201	10805
924.309	10763
924.417	10721
924.525	10645
924.633	10725
924.741	11600
924.849	10542
924.956	10706
925.064	10512
925.172	10436
925.279	10440
925.387	10558
925.494	10615
925.602	10634
925.709	10615
925.816	10402
925.924	10523
926.031	10542
926.138	10443
926.245	10519
926.352	10291
926.459	10535
926.566	10618
926.673	10432
926.779	10287
926.886	10333
926.993	10166
927.099	10200
927.206	10109
927.312	10082
927.419	10185
927.525	10181
927.631	10215
927.737	10135
927.843	10010
927.95	9991
928.056	10029
928.162	10078
928.267	10128
928.373	10694
928.479	10071
928.585	9876
928.69	10017
928.796	10158
928.901	9926
929.007	9823
929.112	9979
929.218	9960
929.323	9865
929.428	9835
929.533	9918
929.638	9713
929.743	9789
929.848	9793
929.953	9812
930.058	9694
930.163	9542
930.267	9542
930.372	9732
930.477	9564
930.581	9789
930.685	9584
930.79	9519
930.894	9534
930.998	9435
931.103	9576
931.207	9230
931.311	9306
931.415	9176
931.519	8929
931.623	8975
