Data from test_V78500241_2594.txt Node
Date: Fri Mar 25 14:51:46 CST 2022
User: usil
Spectrometer: V785-0024
Trigger mode: 0
Integration Time (sec): 4.000000E-1
Scans to average: 1
Nonlinearity correction enabled: false
Boxcar width: 0
Storing dark spectrum: false
XAxis mode: Wavelengths
Number of Pixels in Spectrum: 1024
>>>>>Begin Spectral Data<<<<<
801.071	22158
801.214	21979
801.356	21728
801.499	21671
801.641	21450
801.783	21439
801.926	21534
802.068	21386
802.211	21370
802.353	21146
802.496	20895
802.638	20914
802.78	20967
802.923	20735
803.065	20651
803.208	20674
803.35	20625
803.492	20811
803.635	20701
803.777	20701
803.919	20735
804.061	21070
804.204	20708
804.346	20781
804.488	20724
804.63	20769
804.773	20644
804.915	20598
805.057	20785
805.199	20621
805.341	20727
805.483	20796
805.626	20670
805.768	20537
805.91	20560
806.052	20807
806.194	20473
806.336	20815
806.478	20674
806.62	20602
806.762	20617
806.904	20876
807.046	21024
807.188	20990
807.33	21043
807.472	21009
807.614	20891
807.756	20838
807.898	20716
808.04	20613
808.182	20724
808.324	20727
808.465	20708
808.607	20960
808.749	21077
808.891	21055
809.033	21116
809.174	21005
809.316	20948
809.458	21039
809.6	20925
809.741	21066
809.883	21032
810.025	21055
810.166	21085
810.308	21116
810.45	21020
810.591	20853
810.733	20830
810.875	20815
811.016	20705
811.158	20708
811.299	20689
811.441	20925
811.582	20819
811.724	20800
811.865	20758
812.007	20750
812.148	20712
812.29	20819
812.431	20804
812.573	21104
812.714	21119
812.855	21294
812.997	21256
813.138	21473
813.279	21336
813.421	21294
813.562	21093
813.703	20982
813.845	20826
813.986	20682
814.127	20522
814.268	20396
814.41	20298
814.551	20309
814.692	20412
814.833	20317
814.974	20381
815.115	20309
815.256	20119
815.397	20187
815.539	20225
815.68	20050
815.821	20016
815.962	20107
816.103	20081
816.244	19909
816.385	19909
816.526	19791
816.666	19628
816.807	19388
816.948	19476
817.089	19514
817.23	19468
817.371	19506
817.512	19521
817.653	19282
817.793	19316
817.934	19480
818.075	19346
818.216	19400
818.356	19457
818.497	19327
818.638	19057
818.778	19118
818.919	19209
819.06	19137
819.2	19175
819.341	19255
819.481	19232
819.622	19327
819.762	19635
819.903	19430
820.043	19373
820.184	19480
820.324	19445
820.465	19540
820.605	19384
820.746	19327
820.886	19190
821.026	19400
821.167	19247
821.307	19441
821.447	19350
821.588	19396
821.728	19114
821.868	18958
822.008	18821
822.149	18776
822.289	18798
822.429	18483
822.569	18437
822.709	18445
822.849	18334
822.99	18418
823.13	18216
823.27	18285
823.41	18140
823.55	18174
823.69	18194
823.83	18144
823.97	18083
824.11	18041
824.25	17855
824.389	17984
824.529	18057
824.669	17866
824.809	18057
824.949	18034
825.089	18064
825.228	17988
825.368	17855
825.508	17710
825.648	17722
825.787	17790
825.927	17745
826.067	17718
826.206	17684
826.346	17748
826.485	17691
826.625	17710
826.765	17764
826.904	17786
827.044	17436
827.183	17436
827.323	17395
827.462	17410
827.601	17406
827.741	17501
827.88	17444
828.02	17345
828.159	17292
828.298	17448
828.437	17421
828.577	17315
828.716	17509
828.855	17322
828.994	17159
829.134	17227
829.273	17254
829.412	17052
829.551	17037
829.69	17166
829.829	17052
829.968	17288
830.107	17181
830.246	17181
830.385	17010
830.524	17079
830.663	16995
830.802	16889
830.941	16873
831.08	16812
831.219	16930
831.357	16839
831.496	16934
831.635	16805
831.774	16752
831.913	16717
832.051	16516
832.19	16478
832.329	16618
832.467	16459
832.606	16455
832.744	16485
832.883	16375
833.022	16421
833.16	16451
833.299	16550
833.437	16421
833.576	16546
833.714	16485
833.852	16535
833.991	16630
834.129	16656
834.267	16504
834.406	16558
834.544	16497
834.682	16462
834.821	16626
834.959	16694
835.097	16478
835.235	16558
835.373	16573
835.511	16527
835.65	16337
835.788	16272
835.926	16341
836.064	16219
836.202	16272
836.34	16451
836.478	16421
836.615	16466
836.753	16337
836.891	16497
837.029	16436
837.167	16405
837.305	16398
837.443	16333
837.58	16322
837.718	16363
837.856	16329
837.993	16246
838.131	16303
838.269	16211
838.406	16284
838.544	16234
838.681	16105
838.819	16025
838.956	15861
839.094	15934
839.231	15926
839.369	16032
839.506	16280
839.643	16173
839.781	15865
839.918	15918
840.055	15915
840.193	15937
840.33	15816
840.467	15945
840.604	15892
840.742	16093
840.879	15755
841.016	15819
841.153	15694
841.29	15972
841.427	15816
841.564	15895
841.701	15861
841.838	15808
841.975	15846
842.112	15800
842.249	15667
842.385	15614
842.522	15975
842.659	15690
842.796	15663
842.933	15736
843.069	15618
843.206	15629
843.343	15739
843.479	15694
843.616	15739
843.752	15492
843.889	15500
844.025	15625
844.162	15378
844.298	15507
844.435	15386
844.571	15378
844.708	15469
844.844	15549
844.98	15526
845.117	15481
845.253	15408
845.389	15294
845.525	15435
845.661	15378
845.798	15241
845.934	15226
846.07	15123
846.206	15283
846.342	15329
846.478	15249
846.614	15028
846.75	15085
846.886	14956
847.022	15142
847.158	14952
847.294	15032
847.429	15066
847.565	15070
847.701	15211
847.837	14823
847.972	14724
848.108	14887
848.244	14864
848.379	14606
848.515	14541
848.65	14560
848.786	14594
848.921	14583
849.057	14743
849.192	14667
849.328	14602
849.463	14617
849.598	14594
849.734	14564
849.869	14541
850.004	14442
850.14	14465
850.275	14339
850.41	14328
850.545	14336
850.68	14343
850.815	14438
850.95	14370
851.085	14575
851.22	14503
851.355	14320
851.49	14244
851.625	14294
851.76	14385
851.895	14202
852.03	14290
852.165	14343
852.299	14495
852.434	14446
852.569	14396
852.703	14473
852.838	14484
852.973	14507
853.107	14503
853.242	14294
853.376	14263
853.511	14199
853.645	14256
853.78	14339
853.914	14294
854.048	14195
854.183	14210
854.317	14202
854.451	14385
854.585	14153
854.72	14214
854.854	14336
854.988	14195
855.122	14221
855.256	14100
855.39	14225
855.524	14328
855.658	14298
855.792	14263
855.926	14282
856.06	14240
856.194	14324
856.327	14240
856.461	14259
856.595	14187
856.729	14267
856.862	14393
856.996	14259
857.13	14301
857.263	14339
857.397	14412
857.53	14332
857.664	14161
857.797	14358
857.931	14400
858.064	14286
858.197	14381
858.331	14221
858.464	14210
858.597	14168
858.731	14343
858.864	14206
858.997	14240
859.13	14237
859.263	14305
859.396	14408
859.529	14149
859.662	14107
859.795	14202
859.928	14278
860.061	14393
860.194	14389
860.327	14301
860.46	14301
860.592	14396
860.725	14355
860.858	14370
860.99	14275
861.123	14267
861.256	14210
861.388	14259
861.521	14887
861.653	14195
861.786	14107
861.918	14081
862.05	14107
862.183	14210
862.315	14256
862.447	14237
862.58	14210
862.712	14027
862.844	13883
862.976	14172
863.108	14046
863.24	14518
863.372	13997
863.504	14001
863.636	14020
863.768	14081
863.9	14065
864.032	13963
864.164	13989
864.296	14084
864.428	14103
864.559	14107
864.691	14043
864.823	14027
864.954	13993
865.086	13932
865.217	13974
865.349	13913
865.48	13967
865.612	14031
865.743	14123
865.875	14008
866.006	13963
866.137	13940
866.269	13947
866.4	14016
866.531	13932
866.662	13967
866.793	13913
866.924	13940
867.055	14016
867.186	14054
867.317	13902
867.448	13932
867.579	13997
867.71	13978
867.841	13993
867.972	13970
868.103	14016
868.233	13974
868.364	13974
868.495	14024
868.625	14172
868.756	14355
868.886	14187
869.017	14282
869.147	14286
869.278	14347
869.408	14218
869.539	14301
869.669	14263
869.799	14415
869.929	14347
870.06	14400
870.19	14598
870.32	14541
870.45	14571
870.58	14629
870.71	14762
870.84	14769
870.97	14689
871.1	14670
871.23	14883
871.36	14796
871.489	14762
871.619	14815
871.749	14849
871.879	14895
872.008	14963
872.138	14918
872.267	14838
872.397	14689
872.526	14746
872.656	14655
872.785	14765
872.915	14785
873.044	14880
873.173	14849
873.303	14895
873.432	14937
873.561	14933
873.69	14883
873.819	14960
873.948	15028
874.077	14902
874.206	14891
874.335	14921
874.464	15074
874.593	15150
874.722	15142
874.851	15252
874.979	15173
875.108	15180
875.237	15173
875.365	15142
875.494	15222
875.623	15279
875.751	15264
875.88	15291
876.008	15424
876.136	15378
876.265	15660
876.393	15682
876.521	15781
876.65	15720
876.778	15728
876.906	15584
877.034	15576
877.162	15698
877.29	15595
877.418	15652
877.546	15595
877.674	15641
877.802	15701
877.93	15675
878.058	15610
878.185	15572
878.313	15572
878.441	15641
878.568	15580
878.696	15557
878.824	15614
878.951	15671
879.079	15831
879.206	15842
879.333	15762
879.461	15743
879.588	15838
879.715	15781
879.842	15968
879.97	15633
880.097	15542
880.224	15439
880.351	15523
880.478	15447
880.605	15405
880.732	15435
880.859	15667
880.986	15500
881.112	15473
881.239	15397
881.366	15268
881.493	15203
881.619	15195
881.746	15119
881.872	15161
881.999	15108
882.125	15138
882.252	15180
882.378	15192
882.505	15245
882.631	15195
882.757	14975
882.883	15047
883.01	14986
883.136	14891
883.262	14986
883.388	14845
883.514	14971
883.64	15039
883.766	14933
883.892	14739
884.018	14830
884.143	14994
884.269	15089
884.395	14716
884.52	14629
884.646	14632
884.772	14651
884.897	14556
885.023	14667
885.148	14693
885.274	14678
885.399	14823
885.524	14659
885.65	14590
885.775	14686
885.9	14495
886.025	14667
886.15	14693
886.275	14575
886.4	14549
886.525	14678
886.65	14602
886.775	14541
886.9	14788
887.025	14853
887.149	14727
887.274	14552
887.399	14484
887.523	14503
887.648	14415
887.773	14336
887.897	14514
888.021	14465
888.146	14412
888.27	14613
888.395	14636
888.519	14568
888.643	14537
888.767	14606
888.891	14514
889.015	14298
889.139	14419
889.263	14377
889.387	14393
889.511	14568
889.635	14480
889.759	14336
889.883	14305
890.006	14389
890.13	14484
890.254	14317
890.377	14377
890.501	14199
890.624	14149
890.748	14145
890.871	14100
890.995	14050
891.118	14054
891.241	14027
891.364	14123
891.488	14107
891.611	13997
891.734	14046
891.857	14092
891.98	14065
892.103	14183
892.226	14062
892.349	13951
892.471	13871
892.594	14077
892.717	14081
892.839	14050
892.962	14065
893.085	14138
893.207	14134
893.33	13955
893.452	14001
893.575	14065
893.697	14031
893.819	14206
893.941	14286
894.064	14278
894.186	13951
894.308	14050
894.43	14153
894.552	14298
894.674	14237
894.796	14027
894.918	14138
895.04	14016
895.161	14164
895.283	14191
895.405	14096
895.526	14248
895.648	14126
895.769	14240
895.891	14180
896.012	14275
896.134	14290
896.255	14214
896.376	14259
896.498	14176
896.619	14183
896.74	14286
896.861	14347
896.982	14670
897.103	14735
897.224	14522
897.345	14465
897.466	14396
897.587	14537
897.708	14655
897.828	14560
897.949	14442
898.07	14404
898.19	14511
898.311	14678
898.431	14427
898.552	14610
898.672	14689
898.792	14674
898.913	14568
899.033	14461
899.153	14465
899.273	14343
899.393	14434
899.513	14434
899.633	14465
899.753	14400
899.873	14366
899.993	14415
900.113	14415
900.232	14514
900.352	14461
900.472	14351
900.591	14328
900.711	14362
900.83	14191
900.95	14427
901.069	14355
901.189	14309
901.308	14069
901.427	13951
901.546	14043
901.665	14081
901.784	13936
901.904	13959
902.023	13788
902.141	13514
902.26	13495
902.379	13620
902.498	13548
902.617	13537
902.735	13666
902.854	13559
902.973	13502
903.091	13244
903.21	13232
903.328	13312
903.446	13156
903.565	13149
903.683	13107
903.801	12951
903.919	13091
904.038	13046
904.156	12943
904.274	12958
904.392	12977
904.51	12916
904.627	12951
904.745	12935
904.863	13012
904.981	12795
905.098	12620
905.216	12692
905.334	12593
905.451	12681
905.569	12544
905.686	12650
905.803	12574
905.921	12437
906.038	12563
906.155	12475
906.272	12323
906.389	12380
906.506	12220
906.623	12197
906.74	12243
906.857	12136
906.974	12117
907.091	12292
907.208	12410
907.324	12277
907.441	12129
907.557	12019
907.674	11939
907.79	11954
907.907	12011
908.023	11954
908.139	11984
908.256	11866
908.372	11939
908.488	11832
908.604	11805
908.72	11703
908.836	11714
908.952	11691
909.068	11764
909.184	11771
909.3	11794
909.415	11798
909.531	11794
909.647	11532
909.762	11478
909.878	11509
909.993	11539
910.108	11433
910.224	11474
910.339	11543
910.454	11395
910.57	11356
910.685	11265
910.8	11505
910.915	11528
911.03	11406
911.145	11185
911.259	11105
911.374	11102
911.489	11060
911.604	11003
911.718	10957
911.833	10999
911.947	10828
912.062	10866
912.176	10904
912.291	10904
912.405	10889
912.519	11166
912.633	11231
912.748	11037
912.862	10949
912.976	10824
913.09	10672
913.204	10771
913.318	10809
913.431	10889
913.545	10862
913.659	10942
913.772	10801
913.886	10782
914	10717
914.113	10812
914.226	10778
914.34	10759
914.453	10656
914.566	10771
914.68	10622
914.793	10618
914.906	10451
915.019	10405
915.132	10417
915.245	10409
915.358	10588
915.47	10470
915.583	10474
915.696	10485
915.809	10542
915.921	10603
916.034	10455
916.146	10432
916.259	10341
916.371	10382
916.483	10421
916.595	10333
916.708	10390
916.82	10322
916.932	10348
917.044	10360
917.156	10360
917.268	10238
917.38	10303
917.491	10272
917.603	10287
917.715	10356
917.826	10360
917.938	10211
918.049	10238
918.161	10287
918.272	10443
918.384	10367
918.495	10344
918.606	10135
918.717	10150
918.828	10261
918.939	10223
919.05	10158
919.161	10173
919.272	10021
919.383	10032
919.494	10166
919.604	10341
919.715	10211
919.826	10116
919.936	10166
920.047	10261
920.157	10166
920.267	10455
920.378	10284
920.488	10223
920.598	10360
920.708	10535
920.818	10371
920.928	10360
921.038	10523
921.148	10436
921.258	10257
921.368	10124
921.477	10036
921.587	10029
921.697	9915
921.806	10040
921.916	9968
922.025	9823
922.134	9720
922.244	9698
922.353	9797
922.462	9610
922.571	9648
922.68	9500
922.789	9382
922.898	9450
923.007	9401
923.116	9488
923.224	9412
923.333	9397
923.442	9268
923.55	9313
923.659	9363
923.767	9435
923.876	9321
923.984	9458
924.092	9264
924.201	9264
924.309	9367
924.417	9313
924.525	9176
924.633	9283
924.741	10067
924.849	9032
924.956	9241
925.064	9116
925.172	8952
925.279	9043
925.387	9104
925.494	9093
925.602	9169
925.709	9131
925.816	9017
925.924	9077
926.031	9268
926.138	9055
926.245	9154
926.352	9081
926.459	9104
926.566	9214
926.673	9024
926.779	8944
926.886	9001
926.993	8895
927.099	8800
927.206	8811
927.312	8857
927.419	8849
927.525	8853
927.631	8876
927.737	8746
927.843	8815
927.95	8625
928.056	8739
928.162	8686
928.267	8769
928.373	9416
928.479	8781
928.585	8571
928.69	8678
928.796	8731
928.901	8678
929.007	8511
929.112	8716
929.218	8613
929.323	8495
929.428	8492
929.533	8701
929.638	8442
929.743	8522
929.848	8533
929.953	8473
930.058	8427
930.163	8309
930.267	8305
930.372	8431
930.477	8267
930.581	8526
930.685	8377
930.79	8153
930.894	8320
930.998	8218
931.103	8408
931.207	8043
931.311	7997
931.415	7978
931.519	7803
931.623	7647
