Data from test_V78500241_1294.txt Node
Date: Fri Mar 25 14:42:43 CST 2022
User: usil
Spectrometer: V785-0024
Trigger mode: 0
Integration Time (sec): 4.000000E-1
Scans to average: 1
Nonlinearity correction enabled: false
Boxcar width: 0
Storing dark spectrum: false
XAxis mode: Wavelengths
Number of Pixels in Spectrum: 1024
>>>>>Begin Spectral Data<<<<<
801.071	22447
801.214	22367
801.356	22109
801.499	22025
801.641	21797
801.783	21694
801.926	21823
802.068	21743
802.211	21667
802.353	21511
802.496	21321
802.638	21291
802.78	21272
802.923	21089
803.065	21093
803.208	21131
803.35	21123
803.492	21161
803.635	21268
803.777	21249
803.919	21272
804.061	21477
804.204	21203
804.346	21047
804.488	21001
804.63	20948
804.773	20998
804.915	21096
805.057	21173
805.199	21047
805.341	21058
805.483	21260
805.626	21024
805.768	21089
805.91	21062
806.052	20994
806.194	20960
806.336	21169
806.478	21104
806.62	20899
806.762	21032
806.904	21195
807.046	21416
807.188	21272
807.33	21275
807.472	21378
807.614	21462
807.756	21370
807.898	21317
808.04	21123
808.182	21260
808.324	21131
808.465	21272
808.607	21530
808.749	21580
808.891	21686
809.033	21751
809.174	21637
809.316	21587
809.458	21580
809.6	21595
809.741	21606
809.883	21553
810.025	21728
810.166	21606
810.308	21614
810.45	21542
810.591	21462
810.733	21359
810.875	21310
811.016	21131
811.158	21169
811.299	21325
811.441	21283
811.582	21363
811.724	21237
811.865	21287
812.007	21222
812.148	21272
812.29	21302
812.431	21359
812.573	21488
812.714	21629
812.855	21766
812.997	21705
813.138	22002
813.279	21819
813.421	21724
813.562	21622
813.703	21652
813.845	21401
813.986	21138
814.127	20941
814.268	20826
814.41	21020
814.551	20727
814.692	20849
814.833	20648
814.974	20724
815.115	20826
815.256	20670
815.397	20697
815.539	20640
815.68	20473
815.821	20469
815.962	20560
816.103	20450
816.244	20400
816.385	20214
816.526	20263
816.666	20134
816.807	19890
816.948	20012
817.089	20126
817.23	19936
817.371	19967
817.512	19856
817.653	19868
817.793	19890
817.934	20027
818.075	20039
818.216	19936
818.356	19689
818.497	19700
818.638	19597
818.778	19487
818.919	19540
819.06	19575
819.2	19830
819.341	19811
819.481	19887
819.622	19902
819.762	20142
819.903	20065
820.043	20092
820.184	19898
820.324	19906
820.465	19936
820.605	19887
820.746	19791
820.886	19803
821.026	19852
821.167	19841
821.307	19909
821.447	19799
821.588	19731
821.728	19674
821.868	19407
822.008	19266
822.149	19194
822.289	19213
822.429	19076
822.569	19034
822.709	19000
822.849	18776
822.99	18802
823.13	18795
823.27	18661
823.41	18612
823.55	18578
823.69	18669
823.83	18616
823.97	18528
824.11	18384
824.25	18258
824.389	18365
824.529	18582
824.669	18346
824.809	18437
824.949	18509
825.089	18338
825.228	18410
825.368	18163
825.508	18167
825.648	18209
825.787	18152
825.927	18148
826.067	18053
826.206	18045
826.346	18186
826.485	18254
826.625	18308
826.765	18186
826.904	18243
827.044	17920
827.183	17984
827.323	17805
827.462	17961
827.601	17863
827.741	17760
827.88	17832
828.02	17722
828.159	17695
828.298	17866
828.437	17863
828.577	17809
828.716	17984
828.855	17794
828.994	17581
829.134	17589
829.273	17691
829.412	17524
829.551	17543
829.69	17543
829.829	17577
829.968	17691
830.107	17707
830.246	17649
830.385	17547
830.524	17421
830.663	17330
830.802	17376
830.941	17197
831.08	17273
831.219	17261
831.357	17311
831.496	17520
831.635	17174
831.774	17197
831.913	17189
832.051	16942
832.19	17022
832.329	17083
832.467	16946
832.606	16812
832.744	16915
832.883	17010
833.022	16885
833.16	16995
833.299	16927
833.437	16980
833.576	16949
833.714	17060
833.852	17109
833.991	17041
834.129	16930
834.267	16999
834.406	17086
834.544	16953
834.682	17083
834.821	16957
834.959	17086
835.097	16991
835.235	17029
835.373	16889
835.511	16995
835.65	16915
835.788	16873
835.926	16713
836.064	16816
836.202	16771
836.34	16854
836.478	16843
836.615	16809
836.753	16938
836.891	16915
837.029	16881
837.167	16847
837.305	16733
837.443	16797
837.58	16793
837.718	16748
837.856	16782
837.993	16763
838.131	16729
838.269	16687
838.406	16637
838.544	16694
838.681	16405
838.819	16474
838.956	16382
839.094	16329
839.231	16291
839.369	16462
839.506	16710
839.643	16569
839.781	16375
839.918	16253
840.055	16306
840.193	16299
840.33	16112
840.467	16105
840.604	16253
840.742	16474
840.879	16211
841.016	16234
841.153	16276
841.29	16432
841.427	16360
841.564	16253
841.701	16291
841.838	16204
841.975	16181
842.112	16265
842.249	16074
842.385	16063
842.522	16261
842.659	16063
842.796	16006
842.933	16112
843.069	16071
843.206	16036
843.343	16105
843.479	16086
843.616	16101
843.752	15800
843.889	15827
844.025	16067
844.162	15816
844.298	16021
844.435	15960
844.571	15770
844.708	15968
844.844	16055
844.98	16006
845.117	15892
845.253	15854
845.389	15869
845.525	15778
845.661	15865
845.798	15827
845.934	15876
846.07	15781
846.206	15880
846.342	15987
846.478	15823
846.614	15542
846.75	15511
846.886	15412
847.022	15599
847.158	15443
847.294	15435
847.429	15469
847.565	15553
847.701	15641
847.837	15154
847.972	15112
848.108	15291
848.244	15351
848.379	15138
848.515	14979
848.65	14971
848.786	15013
848.921	15009
849.057	15104
849.192	15119
849.328	15062
849.463	15017
849.598	14998
849.734	14963
849.869	14941
850.004	14735
850.14	14823
850.275	14746
850.41	14705
850.545	14655
850.68	14743
850.815	14796
850.95	14796
851.085	14910
851.22	14921
851.355	14830
851.49	14659
851.625	14743
851.76	14781
851.895	14678
852.03	14621
852.165	14727
852.299	14815
852.434	14838
852.569	14823
852.703	14830
852.838	14845
852.973	14941
853.107	14963
853.242	14743
853.376	14731
853.511	14488
853.645	14629
853.78	14743
853.914	14648
854.048	14545
854.183	14648
854.317	14674
854.451	14853
854.585	14686
854.72	14587
854.854	14724
854.988	14568
855.122	14564
855.256	14602
855.39	14610
855.524	14773
855.658	14674
855.792	14640
855.926	14682
856.06	14678
856.194	14750
856.327	14701
856.461	14663
856.595	14636
856.729	14663
856.862	14743
856.996	14781
857.13	14750
857.263	14686
857.397	14769
857.53	14682
857.664	14750
857.797	14785
857.931	14788
858.064	14708
858.197	14758
858.331	14617
858.464	14659
858.597	14465
858.731	14575
858.864	14697
858.997	14667
859.13	14499
859.263	14716
859.396	14823
859.529	14663
859.662	14617
859.795	14663
859.928	14670
860.061	14785
860.194	14819
860.327	14640
860.46	14659
860.592	14708
860.725	14785
860.858	14731
860.99	14682
861.123	14579
861.256	14549
861.388	14655
861.521	15389
861.653	14625
861.786	14446
861.918	14522
862.05	14632
862.183	14594
862.315	14541
862.447	14731
862.58	14564
862.712	14404
862.844	14450
862.976	14457
863.108	14393
863.24	14861
863.372	14450
863.504	14412
863.636	14305
863.768	14522
863.9	14503
864.032	14351
864.164	14366
864.296	14492
864.428	14518
864.559	14629
864.691	14568
864.823	14537
864.954	14457
865.086	14366
865.217	14313
865.349	14351
865.48	14446
865.612	14541
865.743	14571
865.875	14385
866.006	14400
866.137	14358
866.269	14484
866.4	14309
866.531	14328
866.662	14271
866.793	14408
866.924	14476
867.055	14404
867.186	14404
867.317	14400
867.448	14389
867.579	14446
867.71	14328
867.841	14263
867.972	14389
868.103	14389
868.233	14336
868.364	14423
868.495	14507
868.625	14667
868.756	14750
868.886	14644
869.017	14571
869.147	14720
869.278	14678
869.408	14625
869.539	14674
869.669	14823
869.799	14708
869.929	14693
870.06	14758
870.19	14979
870.32	14971
870.45	14990
870.58	15089
870.71	15161
870.84	15195
870.97	14956
871.1	14998
871.23	15348
871.36	15169
871.489	15150
871.619	15157
871.749	15268
871.879	15306
872.008	15336
872.138	15313
872.267	15214
872.397	15173
872.526	15005
872.656	14979
872.785	15112
872.915	15275
873.044	15275
873.173	15310
873.303	15249
873.432	15310
873.561	15291
873.69	15272
873.819	15454
873.948	15332
874.077	15313
874.206	15207
874.335	15370
874.464	15462
874.593	15526
874.722	15530
874.851	15671
874.979	15671
875.108	15732
875.237	15511
875.365	15481
875.494	15549
875.623	15679
875.751	15599
875.88	15633
876.008	15781
876.136	15800
876.265	16074
876.393	16169
876.521	16162
876.65	16120
876.778	16010
876.906	15968
877.034	16067
877.162	15903
877.29	15861
877.418	16010
877.546	16055
877.674	16021
877.802	16051
877.93	15998
878.058	15972
878.185	16032
878.313	15968
878.441	15987
878.568	15918
878.696	15956
878.824	16105
878.951	16192
879.079	16242
879.206	16474
879.333	16284
879.461	16109
879.588	16253
879.715	16268
879.842	16417
879.97	16166
880.097	15987
880.224	15850
880.351	15888
880.478	15930
880.605	15899
880.732	15895
880.859	16063
880.986	15861
881.112	15964
881.239	15873
881.366	15671
881.493	15564
881.619	15386
881.746	15568
881.872	15492
881.999	15496
882.125	15496
882.252	15633
882.378	15603
882.505	15717
882.631	15549
882.757	15359
882.883	15340
883.01	15428
883.136	15389
883.262	15249
883.388	15161
883.514	15389
883.64	15420
883.766	15214
883.892	15169
884.018	15279
884.143	15348
884.269	15412
884.395	15100
884.52	15047
884.646	15135
884.772	14967
884.897	14963
885.023	15089
885.148	15199
885.274	15192
885.399	15214
885.524	15108
885.65	15051
885.775	15043
885.9	15081
886.025	15222
886.15	15036
886.275	15077
886.4	14979
886.525	15043
886.65	15047
886.775	15051
886.9	15173
887.025	15264
887.149	15100
887.274	14842
887.399	14804
887.523	14815
887.648	14887
887.773	14811
887.897	14956
888.021	15020
888.146	14857
888.27	14921
888.395	15005
888.519	14979
888.643	14990
888.767	14887
888.891	14720
889.015	14632
889.139	14712
889.263	14716
889.387	14781
889.511	14941
889.635	14876
889.759	14667
889.883	14800
890.006	14746
890.13	14941
890.254	14651
890.377	14659
890.501	14522
890.624	14434
890.748	14636
890.871	14469
890.995	14393
891.118	14336
891.241	14393
891.364	14393
891.488	14579
891.611	14374
891.734	14419
891.857	14415
891.98	14461
892.103	14488
892.226	14480
892.349	14385
892.471	14282
892.594	14362
892.717	14492
892.839	14347
892.962	14450
893.085	14533
893.207	14518
893.33	14377
893.452	14305
893.575	14503
893.697	14290
893.819	14549
893.941	14648
894.064	14518
894.186	14381
894.308	14423
894.43	14610
894.552	14587
894.674	14613
894.796	14461
894.918	14419
895.04	14454
895.161	14511
895.283	14575
895.405	14442
895.526	14503
895.648	14503
895.769	14511
895.891	14701
896.012	14629
896.134	14522
896.255	14587
896.376	14537
896.498	14526
896.619	14587
896.74	14594
896.861	14621
896.982	14956
897.103	15097
897.224	14941
897.345	14701
897.466	14674
897.587	14895
897.708	14979
897.828	14788
897.949	14735
898.07	14689
898.19	14788
898.311	14948
898.431	14864
898.552	14849
898.672	15005
898.792	15093
898.913	14887
899.033	14830
899.153	14777
899.273	14655
899.393	14724
899.513	14826
899.633	14800
899.753	14815
899.873	14815
899.993	14811
900.113	14785
900.232	14773
900.352	14739
900.472	14598
900.591	14549
900.711	14674
900.83	14621
900.95	14792
901.069	14792
901.189	14579
901.308	14298
901.427	14229
901.546	14199
901.665	14298
901.784	14275
901.904	14218
902.023	14191
902.141	13875
902.26	13928
902.379	13932
902.498	13734
902.617	13791
902.735	13894
902.854	13883
902.973	13791
903.091	13670
903.21	13647
903.328	13586
903.446	13483
903.565	13365
903.683	13377
903.801	13251
903.919	13415
904.038	13377
904.156	13213
904.274	13285
904.392	13190
904.51	13301
904.627	13274
904.745	13259
904.863	13251
904.981	13072
905.098	12894
905.216	12875
905.334	12954
905.451	12958
905.569	12947
905.686	12947
905.803	12924
905.921	12772
906.038	12852
906.155	12730
906.272	12616
906.389	12665
906.506	12467
906.623	12460
906.74	12460
906.857	12422
906.974	12460
907.091	12479
907.208	12642
907.324	12574
907.441	12433
907.557	12285
907.674	12315
907.79	12254
907.907	12186
908.023	12323
908.139	12186
908.256	12201
908.372	12076
908.488	12133
908.604	12068
908.72	12038
908.836	12041
908.952	12045
909.068	11973
909.184	12068
909.3	12083
909.415	12121
909.531	12064
909.647	11828
909.762	11779
909.878	11657
909.993	11802
910.108	11699
910.224	11668
910.339	11771
910.454	11661
910.57	11615
910.685	11668
910.8	11870
910.915	11824
911.03	11680
911.145	11558
911.259	11516
911.374	11463
911.489	11417
911.604	11376
911.718	11273
911.833	11193
911.947	11105
912.062	10953
912.176	11201
912.291	11227
912.405	11174
912.519	11341
912.633	11414
912.748	11292
912.862	11227
912.976	11128
913.09	10980
913.204	11045
913.318	11212
913.431	11239
913.545	11128
913.659	11261
913.772	11064
913.886	10904
914	10976
914.113	11018
914.226	11128
914.34	11086
914.453	10858
914.566	11094
914.68	10968
914.793	10968
914.906	10797
915.019	10599
915.132	10630
915.245	10778
915.358	10733
915.47	10725
915.583	10763
915.696	10771
915.809	10873
915.921	10843
916.034	10790
916.146	10679
916.259	10641
916.371	10729
916.483	10763
916.595	10588
916.708	10611
916.82	10637
916.932	10618
917.044	10588
917.156	10618
917.268	10558
917.38	10546
917.491	10508
917.603	10504
917.715	10599
917.826	10675
917.938	10527
918.049	10402
918.161	10523
918.272	10649
918.384	10664
918.495	10538
918.606	10402
918.717	10363
918.828	10451
918.939	10455
919.05	10310
919.161	10325
919.272	10192
919.383	10265
919.494	10455
919.604	10641
919.715	10447
919.826	10390
919.936	10443
920.047	10535
920.157	10382
920.267	10622
920.378	10523
920.488	10409
920.598	10634
920.708	10729
920.818	10630
920.928	10679
921.038	10877
921.148	10702
921.258	10466
921.368	10337
921.477	10356
921.587	10291
921.697	10181
921.806	10200
921.916	10135
922.025	10021
922.134	9998
922.244	9842
922.353	10036
922.462	9884
922.571	9793
922.68	9717
922.789	9568
922.898	9679
923.007	9637
923.116	9694
923.224	9648
923.333	9610
923.442	9610
923.55	9504
923.659	9557
923.767	9564
923.876	9492
923.984	9599
924.092	9443
924.201	9504
924.309	9504
924.417	9504
924.525	9545
924.633	9401
924.741	10265
924.849	9279
924.956	9450
925.064	9279
925.172	9207
925.279	9291
925.387	9332
925.494	9310
925.602	9450
925.709	9443
925.816	9230
925.924	9344
926.031	9408
926.138	9279
926.245	9351
926.352	9291
926.459	9424
926.566	9405
926.673	9249
926.779	9188
926.886	9123
926.993	9058
927.099	8994
927.206	8963
927.312	8941
927.419	9024
927.525	9058
927.631	9070
927.737	8944
927.843	8933
927.95	8781
928.056	8921
928.162	8910
928.267	8990
928.373	9561
928.479	9024
928.585	8731
928.69	8933
928.796	8967
928.901	8796
929.007	8727
929.112	8823
929.218	8849
929.323	8762
929.428	8750
929.533	8883
929.638	8636
929.743	8727
929.848	8834
929.953	8758
930.058	8613
930.163	8507
930.267	8526
930.372	8655
930.477	8530
930.581	8750
930.685	8571
930.79	8434
930.894	8541
930.998	8450
931.103	8594
931.207	8225
931.311	8206
931.415	8115
931.519	8012
931.623	7982
