Data from test_V78500241_783.txt Node
Date: Fri Mar 25 14:39:10 CST 2022
User: usil
Spectrometer: V785-0024
Trigger mode: 0
Integration Time (sec): 4.000000E-1
Scans to average: 1
Nonlinearity correction enabled: false
Boxcar width: 0
Storing dark spectrum: false
XAxis mode: Wavelengths
Number of Pixels in Spectrum: 1024
>>>>>Begin Spectral Data<<<<<
801.071	26693
801.214	26537
801.356	26263
801.499	26393
801.641	26115
801.783	26077
801.926	26149
802.068	25902
802.211	25986
802.353	25833
802.496	25556
802.638	25651
802.78	25628
802.923	25544
803.065	25426
803.208	25491
803.35	25594
803.492	25514
803.635	25708
803.777	25613
803.919	25803
804.061	26024
804.204	25803
804.346	25616
804.488	25750
804.63	25887
804.773	25723
804.915	25811
805.057	25989
805.199	25959
805.341	26027
805.483	26229
805.626	26393
805.768	26183
805.91	26176
806.052	26514
806.194	26568
806.336	26804
806.478	26914
806.62	27024
806.762	27218
806.904	27739
807.046	28249
807.188	28421
807.33	28824
807.472	29273
807.614	29718
807.756	30783
807.898	31712
808.04	32956
808.182	34953
808.324	37126
808.465	39793
808.607	42734
808.749	45424
808.891	47006
809.033	47117
809.174	45675
809.316	43202
809.458	39842
809.6	37012
809.741	34500
809.883	32484
810.025	31175
810.166	30216
810.308	29467
810.45	28850
810.591	28481
810.733	27945
810.875	27538
811.016	27302
811.158	27081
811.299	26948
811.441	27108
811.582	26785
811.724	26552
811.865	26427
812.007	26389
812.148	26362
812.29	26301
812.431	26431
812.573	26358
812.714	26598
812.855	26461
812.997	26743
813.138	26720
813.279	26549
813.421	26404
813.562	26271
813.703	26252
813.845	25928
813.986	25677
814.127	25514
814.268	25460
814.41	25365
814.551	25293
814.692	25472
814.833	25255
814.974	25160
815.115	25061
815.256	25012
815.397	24996
815.539	25012
815.68	24802
815.821	24776
815.962	24837
816.103	24783
816.244	24623
816.385	24498
816.526	24623
816.666	24216
816.807	24178
816.948	24258
817.089	24182
817.23	24148
817.371	24030
817.512	24030
817.653	24068
817.793	23980
817.934	24076
818.075	24098
818.216	23980
818.356	23863
818.497	23794
818.638	23813
818.778	23699
818.919	23828
819.06	23863
819.2	23748
819.341	23923
819.481	23973
819.622	24072
819.762	24308
819.903	24201
820.043	23927
820.184	23920
820.324	23912
820.465	23889
820.605	23969
820.746	23821
820.886	23623
821.026	23901
821.167	23824
821.307	23748
821.447	23630
821.588	23570
821.728	23410
821.868	23315
822.008	23121
822.149	23067
822.289	23197
822.429	22877
822.569	22946
822.709	22786
822.849	22588
822.99	22664
823.13	22634
823.27	22557
823.41	22436
823.55	22325
823.69	22337
823.83	22356
823.97	22352
824.11	22162
824.25	22059
824.389	22112
824.529	22204
824.669	22109
824.809	22325
824.949	22188
825.089	22139
825.228	22261
825.368	22021
825.508	21987
825.648	22002
825.787	21804
825.927	21991
826.067	21880
826.206	21865
826.346	21880
826.485	21842
826.625	21918
826.765	22006
826.904	21854
827.044	21709
827.183	21622
827.323	21576
827.462	21679
827.601	21595
827.741	21564
827.88	21523
828.02	21466
828.159	21542
828.298	21542
828.437	21580
828.577	21492
828.716	21614
828.855	21393
828.994	21245
829.134	21408
829.273	21329
829.412	21245
829.551	21157
829.69	21268
829.829	21161
829.968	21264
830.107	21252
830.246	21218
830.385	21157
830.524	21024
830.663	20986
830.802	20895
830.941	20796
831.08	20754
831.219	20918
831.357	20883
831.496	21131
831.635	20868
831.774	20861
831.913	20686
832.051	20769
832.19	20708
832.329	20708
832.467	20716
832.606	20743
832.744	20674
832.883	20724
833.022	20720
833.16	20929
833.299	21017
833.437	21100
833.576	21302
833.714	21317
833.852	21473
833.991	21629
834.129	21903
834.267	21736
834.406	21747
834.544	21515
834.682	21488
834.821	21378
834.959	21462
835.097	21066
835.235	21066
835.373	20990
835.511	20861
835.65	20670
835.788	20667
835.926	20518
836.064	20301
836.202	20347
836.34	20454
836.478	20541
836.615	20377
836.753	20404
836.891	20404
837.029	20389
837.167	20240
837.305	20362
837.443	20237
837.58	20180
837.718	20275
837.856	20191
837.993	20138
838.131	20199
838.269	20153
838.406	20111
838.544	20092
838.681	19894
838.819	19780
838.956	19632
839.094	19719
839.231	19723
839.369	19753
839.506	20012
839.643	19856
839.781	19643
839.918	19510
840.055	19601
840.193	19624
840.33	19609
840.467	19674
840.604	19559
840.742	19925
840.879	19495
841.016	19480
841.153	19491
841.29	19784
841.427	19594
841.564	19582
841.701	19666
841.838	19521
841.975	19616
842.112	19556
842.249	19411
842.385	19384
842.522	19624
842.659	19510
842.796	19354
842.933	19491
843.069	19411
843.206	19544
843.343	19529
843.479	19548
843.616	19552
843.752	19403
843.889	19445
844.025	19643
844.162	19476
844.298	19651
844.435	19784
844.571	19951
844.708	20176
844.844	20629
844.98	21039
845.117	21564
845.253	22291
845.389	23935
845.525	27123
845.661	32286
845.798	38469
845.934	43122
846.07	44906
846.206	43571
846.342	39439
846.478	33462
846.614	28158
846.75	24563
846.886	22561
847.022	21332
847.158	20503
847.294	20054
847.429	19609
847.565	19464
847.701	19578
847.837	18916
847.972	18745
848.108	18894
848.244	18894
848.379	18631
848.515	18566
848.65	18448
848.786	18525
848.921	18475
849.057	18582
849.192	18395
849.328	18464
849.463	18353
849.598	18311
849.734	18213
849.869	18258
850.004	18064
850.14	18140
850.275	18129
850.41	18049
850.545	18083
850.68	17950
850.815	18015
850.95	17988
851.085	18213
851.22	18098
851.355	17939
851.49	18098
851.625	18057
851.76	18015
851.895	17950
852.03	18057
852.165	18159
852.299	18057
852.434	18289
852.569	18125
852.703	18140
852.838	18228
852.973	18311
853.107	18266
853.242	18216
853.376	17999
853.511	17984
853.645	18038
853.78	18292
853.914	18194
854.048	18121
854.183	18209
854.317	18277
854.451	18452
854.585	18205
854.72	18144
854.854	18148
854.988	18270
855.122	18106
855.256	17950
855.39	18117
855.524	18057
855.658	18186
855.792	17999
855.926	17931
856.06	18079
856.194	18098
856.327	17920
856.461	17931
856.595	17904
856.729	17863
856.862	18011
856.996	17885
857.13	17897
857.263	17961
857.397	18079
857.53	17874
857.664	17923
857.797	17878
857.931	17973
858.064	18011
858.197	17946
858.331	17775
858.464	17786
858.597	17741
858.731	17771
858.864	17824
858.997	17665
859.13	17809
859.263	17783
859.396	17920
859.529	17748
859.662	17805
859.795	17729
859.928	17969
860.061	17916
860.194	17904
860.327	17813
860.46	17741
860.592	17958
860.725	17988
860.858	17882
860.99	17798
861.123	17589
861.256	17699
861.388	17779
861.521	18308
861.653	17760
861.786	17554
861.918	17585
862.05	17722
862.183	17638
862.315	17657
862.447	17722
862.58	17627
862.712	17444
862.844	17387
862.976	17577
863.108	17436
863.24	17931
863.372	17433
863.504	17391
863.636	17376
863.768	17436
863.9	17421
864.032	17455
864.164	17414
864.296	17509
864.428	17604
864.559	17425
864.691	17482
864.823	17433
864.954	17440
865.086	17360
865.217	17429
865.349	17360
865.48	17391
865.612	17315
865.743	17551
865.875	17391
866.006	17364
866.137	17364
866.269	17452
866.4	17368
866.531	17311
866.662	17143
866.793	17337
866.924	17318
867.055	17296
867.186	17284
867.317	17269
867.448	17349
867.579	17223
867.71	17299
867.841	17235
867.972	17277
868.103	17395
868.233	17356
868.364	17455
868.495	17349
868.625	17558
868.756	17672
868.886	17535
869.017	17661
869.147	17687
869.278	17703
869.408	17627
869.539	17592
869.669	17634
869.799	17672
869.929	17798
870.06	17741
870.19	17942
870.32	17996
870.45	17984
870.58	17992
870.71	18167
870.84	18087
870.97	17969
871.1	18053
871.23	18178
871.36	18163
871.489	18144
871.619	18243
871.749	18289
871.879	18441
872.008	18509
872.138	18277
872.267	18285
872.397	18190
872.526	18133
872.656	18262
872.785	18334
872.915	18399
873.044	18502
873.173	18460
873.303	18536
873.432	18635
873.561	18631
873.69	18627
873.819	18654
873.948	18673
874.077	18646
874.206	18559
874.335	18776
874.464	18821
874.593	18837
874.722	18867
874.851	19076
874.979	18966
875.108	19156
875.237	19038
875.365	19099
875.494	19114
875.623	19209
875.751	19141
875.88	19346
876.008	19491
876.136	19548
876.265	19814
876.393	20027
876.521	19932
876.65	20012
876.778	19989
876.906	19989
877.034	20062
877.162	20164
877.29	20225
877.418	20309
877.546	20366
877.674	20461
877.802	20533
877.93	20739
878.058	20765
878.185	20838
878.313	21207
878.441	21557
878.568	21720
878.696	22268
878.824	23170
878.951	24079
879.079	25616
879.206	27310
879.333	29292
879.461	30703
879.588	31772
879.715	31769
879.842	30966
879.97	29014
880.097	27378
880.224	25784
880.351	24810
880.478	24076
880.605	23391
880.732	23174
880.859	23140
880.986	22733
881.112	22831
881.239	22599
881.366	22371
881.493	22238
881.619	22287
881.746	22268
881.872	22162
881.999	22284
882.125	22295
882.252	22447
882.378	22489
882.505	22584
882.631	22390
882.757	22390
882.883	22447
883.01	22230
883.136	22242
883.262	22166
883.388	22078
883.514	22246
883.64	22265
883.766	22226
883.892	22025
884.018	22013
884.143	22287
884.269	22306
884.395	22082
884.52	22055
884.646	21915
884.772	22002
884.897	21899
885.023	22010
885.148	22006
885.274	22013
885.399	21937
885.524	21671
885.65	21747
885.775	21572
885.9	21310
886.025	21412
886.15	21245
886.275	20937
886.4	20929
886.525	20735
886.65	20636
886.775	20560
886.9	20522
887.025	20655
887.149	20336
887.274	20126
887.399	19875
887.523	19906
887.648	19662
887.773	19685
887.897	19753
888.021	19685
888.146	19563
888.27	19605
888.395	19537
888.519	19510
888.643	19411
888.767	19270
888.891	19244
889.015	19232
889.139	19027
889.263	18985
889.387	19126
889.511	19114
889.635	19000
889.759	18970
889.883	18852
890.006	18829
890.13	18852
890.254	18669
890.377	18757
890.501	18582
890.624	18490
890.748	18517
890.871	18399
890.995	18117
891.118	18174
891.241	18205
891.364	18186
891.488	18194
891.611	18125
891.734	18190
891.857	18095
891.98	18045
892.103	18102
892.226	18072
892.349	17958
892.471	17726
892.594	17920
892.717	17946
892.839	17798
892.962	17874
893.085	17897
893.207	17866
893.33	17600
893.452	17657
893.575	17874
893.697	17596
893.819	17783
893.941	17874
894.064	17767
894.186	17566
894.308	17558
894.43	17642
894.552	17653
894.674	17684
894.796	17421
894.918	17421
895.04	17543
895.161	17581
895.283	17532
895.405	17414
895.526	17547
895.648	17414
895.769	17311
895.891	17573
896.012	17471
896.134	17349
896.255	17433
896.376	17376
896.498	17421
896.619	17486
896.74	17383
896.861	17398
896.982	17707
897.103	17939
897.224	17581
897.345	17657
897.466	17474
897.587	17543
897.708	17764
897.828	17543
897.949	17490
898.07	17349
898.19	17581
898.311	17676
898.431	17463
898.552	17718
898.672	17627
898.792	17707
898.913	17649
899.033	17436
899.153	17425
899.273	17269
899.393	17326
899.513	17414
899.633	17379
899.753	17341
899.873	17364
899.993	17391
900.113	17368
900.232	17433
900.352	17235
900.472	17242
900.591	17109
900.711	17231
900.83	17113
900.95	17284
901.069	17265
901.189	17170
901.308	16877
901.427	16771
901.546	16752
901.665	16793
901.784	16778
901.904	16592
902.023	16634
902.141	16280
902.26	16284
902.379	16287
902.498	16261
902.617	16268
902.735	16344
902.854	16253
902.973	16109
903.091	15949
903.21	15899
903.328	15873
903.446	15846
903.565	15717
903.683	15857
903.801	15644
903.919	15614
904.038	15690
904.156	15439
904.274	15542
904.392	15488
904.51	15469
904.627	15496
904.745	15443
904.863	15443
904.981	15184
905.098	15154
905.216	15154
905.334	15089
905.451	15237
905.569	15157
905.686	15169
905.803	15043
905.921	14914
906.038	14998
906.155	14899
906.272	14773
906.389	14845
906.506	14598
906.623	14716
906.74	14610
906.857	14499
906.974	14575
907.091	14674
907.208	14689
907.324	14659
907.441	14431
907.557	14370
907.674	14309
907.79	14320
907.907	14244
908.023	14362
908.139	14389
908.256	14252
908.372	14130
908.488	14240
908.604	14126
908.72	14046
908.836	14065
908.952	14020
909.068	14107
909.184	14161
909.3	14054
909.415	14142
909.531	14024
909.647	13837
909.762	13780
909.878	13799
909.993	13849
910.108	13746
910.224	13723
910.339	13803
910.454	13708
910.57	13666
910.685	13476
910.8	13902
910.915	13769
911.03	13597
911.145	13480
911.259	13464
911.374	13434
911.489	13457
911.604	13327
911.718	13190
911.833	13236
911.947	13160
912.062	13046
912.176	13072
912.291	13236
912.405	13107
912.519	13324
912.633	13365
912.748	13289
912.862	13221
912.976	13069
913.09	12962
913.204	12981
913.318	12932
913.431	13103
913.545	13095
913.659	13206
913.772	12924
913.886	12951
914	12924
914.113	12977
914.226	13034
914.34	13046
914.453	12894
914.566	13034
914.68	12844
914.793	12798
914.906	12696
915.019	12536
915.132	12532
915.245	12578
915.358	12536
915.47	12654
915.583	12646
915.696	12642
915.809	12795
915.921	12840
916.034	12616
916.146	12631
916.259	12483
916.371	12612
916.483	12536
916.595	12528
916.708	12536
916.82	12559
916.932	12521
917.044	12498
917.156	12578
917.268	12323
917.38	12494
917.491	12315
917.603	12369
917.715	12448
917.826	12494
917.938	12273
918.049	12201
918.161	12346
918.272	12498
918.384	12506
918.495	12342
918.606	12254
918.717	12045
918.828	12251
918.939	12194
919.05	12045
919.161	12034
919.272	11889
919.383	11961
919.494	12152
919.604	12369
919.715	12106
919.826	12011
919.936	12041
920.047	12209
920.157	12064
920.267	12342
920.378	12201
920.488	12167
920.598	12239
920.708	12384
920.818	12190
920.928	12289
921.038	12475
921.148	12407
921.258	12091
921.368	12019
921.477	11889
921.587	11893
921.697	11824
921.806	11969
921.916	11756
922.025	11661
922.134	11577
922.244	11543
922.353	11615
922.462	11459
922.571	11337
922.68	11277
922.789	11235
922.898	11299
923.007	11227
923.116	11353
923.224	11201
923.333	11223
923.442	11128
923.55	11052
923.659	11124
923.767	11159
923.876	11048
923.984	11086
924.092	11025
924.201	11140
924.309	11056
924.417	11048
924.525	10972
924.633	11037
924.741	11916
924.849	10809
924.956	11029
925.064	10812
925.172	10793
925.279	10805
925.387	10828
925.494	10797
925.602	10866
925.709	10854
925.816	10740
925.924	10805
926.031	10843
926.138	10767
926.245	10774
926.352	10656
926.459	10877
926.566	10866
926.673	10675
926.779	10630
926.886	10626
926.993	10508
927.099	10519
927.206	10493
927.312	10402
927.419	10455
927.525	10512
927.631	10554
927.737	10405
927.843	10356
927.95	10196
928.056	10363
928.162	10325
928.267	10398
928.373	11025
928.479	10417
928.585	10169
928.69	10322
928.796	10360
928.901	10131
929.007	9998
929.112	10185
929.218	10211
929.323	10067
929.428	10101
929.533	10257
929.638	10051
929.743	10059
929.848	10051
929.953	10074
930.058	9998
930.163	9869
930.267	9918
930.372	10029
930.477	9808
930.581	10032
930.685	9869
930.79	9766
930.894	9823
930.998	9747
931.103	9846
931.207	9542
931.311	9424
931.415	9367
931.519	9214
931.623	9188
