Data from test_V78500241_2100.txt Node
Date: Fri Mar 25 14:48:20 CST 2022
User: usil
Spectrometer: V785-0024
Trigger mode: 0
Integration Time (sec): 4.000000E-1
Scans to average: 1
Nonlinearity correction enabled: false
Boxcar width: 0
Storing dark spectrum: false
XAxis mode: Wavelengths
Number of Pixels in Spectrum: 1024
>>>>>Begin Spectral Data<<<<<
801.071	22154
801.214	22029
801.356	21812
801.499	21633
801.641	21587
801.783	21595
801.926	21534
802.068	21408
802.211	21344
802.353	21245
802.496	21233
802.638	21081
802.78	20929
802.923	20887
803.065	20788
803.208	20773
803.35	20834
803.492	21020
803.635	20933
803.777	20807
803.919	20975
804.061	21195
804.204	20891
804.346	20762
804.488	20853
804.63	20720
804.773	20769
804.915	20834
805.057	20887
805.199	20701
805.341	20876
805.483	20815
805.626	20785
805.768	20693
805.91	20701
806.052	20800
806.194	20754
806.336	20845
806.478	20686
806.62	20648
806.762	20754
806.904	20990
807.046	21169
807.188	21032
807.33	21104
807.472	21070
807.614	21051
807.756	21043
807.898	20826
808.04	20792
808.182	20849
808.324	20838
808.465	20838
808.607	21085
808.749	21207
808.891	21226
809.033	21389
809.174	21264
809.316	21176
809.458	21081
809.6	21066
809.741	21233
809.883	21176
810.025	21321
810.166	21321
810.308	21237
810.45	21188
810.591	21100
810.733	21043
810.875	20735
811.016	20883
811.158	20743
811.299	20925
811.441	21108
811.582	21020
811.724	20914
811.865	20880
812.007	20777
812.148	20868
812.29	20921
812.431	21017
812.573	21298
812.714	21294
812.855	21374
812.997	21439
813.138	21629
813.279	21606
813.421	21355
813.562	21264
813.703	21169
813.845	21032
813.986	20830
814.127	20541
814.268	20594
814.41	20541
814.551	20484
814.692	20560
814.833	20408
814.974	20488
815.115	20389
815.256	20282
815.397	20278
815.539	20237
815.68	20351
815.821	20168
815.962	20263
816.103	20191
816.244	20058
816.385	20069
816.526	19913
816.666	19826
816.807	19571
816.948	19651
817.089	19723
817.23	19635
817.371	19544
817.512	19655
817.653	19620
817.793	19548
817.934	19643
818.075	19632
818.216	19472
818.356	19521
818.497	19384
818.638	19270
818.778	19308
818.919	19312
819.06	19331
819.2	19373
819.341	19449
819.481	19533
819.622	19681
819.762	19788
819.903	19655
820.043	19609
820.184	19613
820.324	19597
820.465	19575
820.605	19658
820.746	19449
820.886	19346
821.026	19559
821.167	19499
821.307	19548
821.447	19563
821.588	19392
821.728	19304
821.868	19175
822.008	19050
822.149	18973
822.289	18993
822.429	18711
822.569	18642
822.709	18658
822.849	18460
822.99	18388
823.13	18513
823.27	18395
823.41	18235
823.55	18220
823.69	18308
823.83	18285
823.97	18319
824.11	18220
824.25	18091
824.389	18068
824.529	18098
824.669	18064
824.809	18114
824.949	18057
825.089	18114
825.228	18026
825.368	17828
825.508	17931
825.648	17855
825.787	17908
825.927	17836
826.067	17760
826.206	17851
826.346	17832
826.485	17729
826.625	17863
826.765	17885
826.904	17851
827.044	17619
827.183	17562
827.323	17532
827.462	17630
827.601	17543
827.741	17452
827.88	17551
828.02	17421
828.159	17509
828.298	17463
828.437	17589
828.577	17490
828.716	17619
828.855	17554
828.994	17337
829.134	17261
829.273	17269
829.412	17200
829.551	17159
829.69	17151
829.829	17258
829.968	17395
830.107	17288
830.246	17242
830.385	17250
830.524	17220
830.663	17037
830.802	16984
830.941	16927
831.08	16809
831.219	16896
831.357	16949
831.496	17181
831.635	16812
831.774	16778
831.913	16873
832.051	16683
832.19	16668
832.329	16664
832.467	16584
832.606	16447
832.744	16569
832.883	16668
833.022	16519
833.16	16508
833.299	16569
833.437	16599
833.576	16554
833.714	16634
833.852	16588
833.991	16660
834.129	16577
834.267	16744
834.406	16721
834.544	16592
834.682	16637
834.821	16573
834.959	16835
835.097	16561
835.235	16736
835.373	16679
835.511	16733
835.65	16538
835.788	16493
835.926	16318
836.064	16344
836.202	16386
836.34	16558
836.478	16694
836.615	16447
836.753	16489
836.891	16630
837.029	16588
837.167	16432
837.305	16493
837.443	16394
837.58	16504
837.718	16474
837.856	16394
837.993	16360
838.131	16519
838.269	16481
838.406	16310
838.544	16295
838.681	16116
838.819	16063
838.956	15941
839.094	15873
839.231	15903
839.369	16112
839.506	16303
839.643	16177
839.781	15934
839.918	15800
840.055	15915
840.193	15888
840.33	15972
840.467	15895
840.604	15945
840.742	16162
840.879	15892
841.016	15888
841.153	15831
841.29	16048
841.427	15994
841.564	15991
841.701	16063
841.838	15899
841.975	15778
842.112	15793
842.249	15800
842.385	15751
842.522	15987
842.659	15838
842.796	15633
842.933	15789
843.069	15671
843.206	15690
843.343	15873
843.479	15835
843.616	15804
843.752	15469
843.889	15622
844.025	15663
844.162	15397
844.298	15671
844.435	15523
844.571	15389
844.708	15595
844.844	15679
844.98	15679
845.117	15644
845.253	15439
845.389	15359
845.525	15378
845.661	15386
845.798	15359
845.934	15424
846.07	15195
846.206	15412
846.342	15447
846.478	15329
846.614	15195
846.75	15097
846.886	15024
847.022	15176
847.158	15062
847.294	15077
847.429	15116
847.565	15036
847.701	15264
847.837	14769
847.972	14819
848.108	14960
848.244	14986
848.379	14750
848.515	14686
848.65	14598
848.786	14800
848.921	14629
849.057	14845
849.192	14819
849.328	14792
849.463	14659
849.598	14640
849.734	14644
849.869	14442
850.004	14442
850.14	14488
850.275	14434
850.41	14385
850.545	14450
850.68	14499
850.815	14473
850.95	14465
851.085	14644
851.22	14549
851.355	14400
851.49	14408
851.625	14339
851.76	14473
851.895	14374
852.03	14320
852.165	14454
852.299	14469
852.434	14533
852.569	14473
852.703	14469
852.838	14587
852.973	14469
853.107	14575
853.242	14488
853.376	14332
853.511	14183
853.645	14259
853.78	14438
853.914	14218
854.048	14237
854.183	14381
854.317	14374
854.451	14446
854.585	14259
854.72	14263
854.854	14320
854.988	14214
855.122	14358
855.256	14180
855.39	14218
855.524	14362
855.658	14374
855.792	14229
855.926	14362
856.06	14427
856.194	14419
856.327	14275
856.461	14298
856.595	14278
856.729	14263
856.862	14400
856.996	14461
857.13	14415
857.263	14442
857.397	14476
857.53	14377
857.664	14461
857.797	14355
857.931	14389
858.064	14358
858.197	14404
858.331	14427
858.464	14240
858.597	14244
858.731	14298
858.864	14206
858.997	14244
859.13	14282
859.263	14347
859.396	14358
859.529	14339
859.662	14210
859.795	14298
859.928	14267
860.061	14518
860.194	14465
860.327	14385
860.46	14240
860.592	14385
860.725	14328
860.858	14320
860.99	14438
861.123	14237
861.256	14313
861.388	14320
861.521	14800
861.653	14263
861.786	14180
861.918	14229
862.05	14290
862.183	14248
862.315	14187
862.447	14317
862.58	14271
862.712	14092
862.844	14123
862.976	14259
863.108	14096
863.24	14305
863.372	13883
863.504	13986
863.636	14088
863.768	14153
863.9	14043
864.032	14016
864.164	14035
864.296	14084
864.428	14176
864.559	14130
864.691	14210
864.823	14191
864.954	14157
865.086	14100
865.217	14046
865.349	14020
865.48	14054
865.612	14153
865.743	14214
865.875	14103
866.006	14077
866.137	14039
866.269	14012
866.4	14043
866.531	14039
866.662	13974
866.793	13963
866.924	13944
867.055	14134
867.186	14008
867.317	14111
867.448	13925
867.579	13947
867.71	13986
867.841	14050
867.972	14096
868.103	13986
868.233	14115
868.364	14107
868.495	14214
868.625	14282
868.756	14415
868.886	14210
869.017	14225
869.147	14537
869.278	14438
869.408	14355
869.539	14317
869.669	14336
869.799	14385
869.929	14530
870.06	14385
870.19	14678
870.32	14644
870.45	14644
870.58	14727
870.71	14800
870.84	14800
870.97	14625
871.1	14807
871.23	14876
871.36	14925
871.489	14823
871.619	14963
871.749	14914
871.879	14998
872.008	15077
872.138	14982
872.267	14826
872.397	14735
872.526	14655
872.656	14727
872.785	14845
872.915	15047
873.044	15062
873.173	14975
873.303	15058
873.432	14891
873.561	15017
873.69	14960
873.819	14887
873.948	15036
874.077	14975
874.206	14899
874.335	15051
874.464	15058
874.593	15245
874.722	15222
874.851	15222
874.979	15389
875.108	15351
875.237	15256
875.365	15157
875.494	15230
875.623	15302
875.751	15348
875.88	15378
876.008	15435
876.136	15614
876.265	15679
876.393	15850
876.521	15823
876.65	15755
876.778	15682
876.906	15584
877.034	15637
877.162	15770
877.29	15610
877.418	15789
877.546	15701
877.674	15679
877.802	15656
877.93	15705
878.058	15561
878.185	15584
878.313	15728
878.441	15732
878.568	15553
878.696	15629
878.824	15701
878.951	15804
879.079	15797
879.206	16013
879.333	15800
879.461	15671
879.588	15759
879.715	15785
879.842	15926
879.97	15728
880.097	15549
880.224	15511
880.351	15618
880.478	15633
880.605	15492
880.732	15564
880.859	15854
880.986	15610
881.112	15584
881.239	15450
881.366	15370
881.493	15241
881.619	15230
881.746	15249
881.872	15214
881.999	15176
882.125	15188
882.252	15260
882.378	15245
882.505	15397
882.631	15173
882.757	15062
882.883	15161
883.01	15013
883.136	15024
883.262	14925
883.388	14979
883.514	15039
883.64	15112
883.766	15085
883.892	14815
884.018	14830
884.143	14967
884.269	15100
884.395	14857
884.52	14731
884.646	14746
884.772	14731
884.897	14682
885.023	14716
885.148	14918
885.274	14910
885.399	14826
885.524	14716
885.65	14746
885.775	14678
885.9	14667
886.025	14819
886.15	14883
886.275	14575
886.4	14678
886.525	14762
886.65	14765
886.775	14674
886.9	14739
887.025	14994
887.149	14663
887.274	14629
887.399	14522
887.523	14598
887.648	14396
887.773	14457
887.897	14587
888.021	14663
888.146	14552
888.27	14552
888.395	14701
888.519	14617
888.643	14617
888.767	14648
888.891	14469
889.015	14434
889.139	14522
889.263	14366
889.387	14537
889.511	14598
889.635	14518
889.759	14415
889.883	14381
890.006	14377
890.13	14476
890.254	14313
890.377	14465
890.501	14199
890.624	14130
890.748	14324
890.871	14237
890.995	14073
891.118	13970
891.241	14115
891.364	14168
891.488	14206
891.611	14088
891.734	14161
891.857	14244
891.98	14096
892.103	14157
892.226	14225
892.349	14005
892.471	14001
892.594	14081
892.717	14092
892.839	14123
892.962	14138
893.085	14161
893.207	14149
893.33	14092
893.452	14046
893.575	14092
893.697	14107
893.819	14301
893.941	14294
894.064	14195
894.186	14107
894.308	14103
894.43	14240
894.552	14351
894.674	14275
894.796	14103
894.918	14142
895.04	14229
895.161	14248
895.283	14210
895.405	14187
895.526	14240
895.648	14202
895.769	14229
895.891	14180
896.012	14336
896.134	14271
896.255	14278
896.376	14282
896.498	14358
896.619	14339
896.74	14313
896.861	14362
896.982	14648
897.103	14724
897.224	14644
897.345	14537
897.466	14438
897.587	14511
897.708	14625
897.828	14632
897.949	14495
898.07	14450
898.19	14461
898.311	14670
898.431	14579
898.552	14693
898.672	14705
898.792	14674
898.913	14712
899.033	14621
899.153	14442
899.273	14400
899.393	14530
899.513	14526
899.633	14549
899.753	14568
899.873	14469
899.993	14522
900.113	14492
900.232	14545
900.352	14389
900.472	14286
900.591	14343
900.711	14465
900.83	14336
900.95	14438
901.069	14320
901.189	14355
901.308	14081
901.427	14092
901.546	13970
901.665	14050
901.784	13982
901.904	13978
902.023	13845
902.141	13689
902.26	13586
902.379	13696
902.498	13559
902.617	13495
902.735	13712
902.854	13590
902.973	13559
903.091	13285
903.21	13263
903.328	13293
903.446	13255
903.565	13145
903.683	13259
903.801	13065
903.919	13137
904.038	13187
904.156	12993
904.274	13076
904.392	12939
904.51	12996
904.627	13065
904.745	13027
904.863	13107
904.981	12863
905.098	12738
905.216	12669
905.334	12760
905.451	12757
905.569	12669
905.686	12730
905.803	12707
905.921	12517
906.038	12700
906.155	12551
906.272	12452
906.389	12433
906.506	12334
906.623	12292
906.74	12296
906.857	12129
906.974	12125
907.091	12239
907.208	12372
907.324	12327
907.441	12136
907.557	12064
907.674	11988
907.79	11973
907.907	12053
908.023	12064
908.139	12034
908.256	11912
908.372	11882
908.488	11904
908.604	11760
908.72	11760
908.836	11748
908.952	11775
909.068	11783
909.184	11813
909.3	11794
909.415	11832
909.531	11828
909.647	11585
909.762	11596
909.878	11520
909.993	11623
910.108	11646
910.224	11478
910.339	11585
910.454	11452
910.57	11376
910.685	11307
910.8	11585
910.915	11585
911.03	11440
911.145	11376
911.259	11159
911.374	11258
911.489	11265
911.604	11143
911.718	10965
911.833	10961
911.947	11018
912.062	10831
912.176	10942
912.291	11014
912.405	11022
912.519	11143
912.633	11181
912.748	11067
912.862	11052
912.976	10892
913.09	10736
913.204	10869
913.318	10923
913.431	11025
913.545	10980
913.659	10976
913.772	10896
913.886	10786
914	10691
914.113	10850
914.226	10812
914.34	10908
914.453	10771
914.566	10824
914.68	10691
914.793	10767
914.906	10519
915.019	10519
915.132	10512
915.245	10554
915.358	10535
915.47	10497
915.583	10558
915.696	10504
915.809	10683
915.921	10714
916.034	10542
916.146	10459
916.259	10447
916.371	10607
916.483	10497
916.595	10447
916.708	10421
916.82	10398
916.932	10409
917.044	10379
917.156	10432
917.268	10306
917.38	10341
917.491	10284
917.603	10341
917.715	10382
917.826	10348
917.938	10325
918.049	10238
918.161	10295
918.272	10497
918.384	10451
918.495	10360
918.606	10215
918.717	10154
918.828	10257
918.939	10227
919.05	10154
919.161	10257
919.272	10044
919.383	10116
919.494	10238
919.604	10417
919.715	10192
919.826	10051
919.936	10116
920.047	10284
920.157	10310
920.267	10413
920.378	10253
920.488	10318
920.598	10451
920.708	10538
920.818	10398
920.928	10462
921.038	10577
921.148	10558
921.258	10337
921.368	10196
921.477	10105
921.587	10109
921.697	9949
921.806	10078
921.916	9964
922.025	9774
922.134	9808
922.244	9797
922.353	9812
922.462	9686
922.571	9568
922.68	9485
922.789	9462
922.898	9515
923.007	9428
923.116	9477
923.224	9568
923.333	9542
923.442	9313
923.55	9344
923.659	9374
923.767	9382
923.876	9325
923.984	9428
924.092	9336
924.201	9443
924.309	9287
924.417	9321
924.525	9348
924.633	9340
924.741	10207
924.849	9138
924.956	9237
925.064	9180
925.172	9093
925.279	9112
925.387	9119
925.494	9081
925.602	9218
925.709	9161
925.816	9032
925.924	9154
926.031	9256
926.138	9222
926.245	9195
926.352	9074
926.459	9253
926.566	9249
926.673	9062
926.779	8979
926.886	8948
926.993	8842
927.099	8868
927.206	8861
927.312	8739
927.419	8914
927.525	8838
927.631	8960
927.737	8785
927.843	8746
927.95	8636
928.056	8701
928.162	8693
928.267	8754
928.373	9374
928.479	8845
928.585	8590
928.69	8716
928.796	8792
928.901	8644
929.007	8549
929.112	8670
929.218	8629
929.323	8568
929.428	8533
929.533	8735
929.638	8530
929.743	8514
929.848	8594
929.953	8415
930.058	8476
930.163	8290
930.267	8381
930.372	8438
930.477	8336
930.581	8583
930.685	8412
930.79	8358
930.894	8351
930.998	8271
931.103	8442
931.207	8119
931.311	8016
931.415	7936
931.519	7811
931.623	7769
