Data from test_V78500241_1942.txt Node
Date: Fri Mar 25 14:47:14 CST 2022
User: usil
Spectrometer: V785-0024
Trigger mode: 0
Integration Time (sec): 4.000000E-1
Scans to average: 1
Nonlinearity correction enabled: false
Boxcar width: 0
Storing dark spectrum: false
XAxis mode: Wavelengths
Number of Pixels in Spectrum: 1024
>>>>>Begin Spectral Data<<<<<
801.071	22128
801.214	21869
801.356	21720
801.499	21523
801.641	21447
801.783	21504
801.926	21386
802.068	21344
802.211	21291
802.353	21195
802.496	21001
802.638	20899
802.78	20857
802.923	20708
803.065	20705
803.208	20830
803.35	20785
803.492	20804
803.635	20899
803.777	20632
803.919	20861
804.061	21173
804.204	20891
804.346	20804
804.488	20644
804.63	20842
804.773	20724
804.915	20845
805.057	20758
805.199	20617
805.341	20758
805.483	20895
805.626	20758
805.768	20636
805.91	20716
806.052	20746
806.194	20682
806.336	20883
806.478	20765
806.62	20655
806.762	20834
806.904	20899
807.046	21108
807.188	21043
807.33	20944
807.472	20986
807.614	20899
807.756	21070
807.898	20815
808.04	20769
808.182	20785
808.324	20743
808.465	20853
808.607	21062
808.749	21032
808.891	21032
809.033	21173
809.174	21173
809.316	21104
809.458	20998
809.6	21032
809.741	21104
809.883	21211
810.025	21199
810.166	21348
810.308	21241
810.45	21233
810.591	21180
810.733	20921
810.875	21020
811.016	20750
811.158	20701
811.299	20880
811.441	20830
811.582	20941
811.724	20746
811.865	20864
812.007	20705
812.148	20705
812.29	20792
812.431	21116
812.573	21195
812.714	21100
812.855	21260
812.997	21370
813.138	21606
813.279	21443
813.421	21256
813.562	21169
813.703	21142
813.845	21085
813.986	20648
814.127	20541
814.268	20419
814.41	20336
814.551	20358
814.692	20514
814.833	20252
814.974	20256
815.115	20313
815.256	20267
815.397	20271
815.539	20115
815.68	20126
815.821	20024
815.962	20073
816.103	20005
816.244	19967
816.385	19849
816.526	19898
816.666	19765
816.807	19624
816.948	19567
817.089	19628
817.23	19616
817.371	19521
817.512	19457
817.653	19533
817.793	19434
817.934	19544
818.075	19544
818.216	19476
818.356	19407
818.497	19343
818.638	19145
818.778	19206
818.919	19160
819.06	19293
819.2	19320
819.341	19396
819.481	19396
819.622	19651
819.762	19666
819.903	19594
820.043	19548
820.184	19441
820.324	19468
820.465	19689
820.605	19563
820.746	19381
820.886	19259
821.026	19453
821.167	19563
821.307	19601
821.447	19392
821.588	19266
821.728	19190
821.868	19076
822.008	18837
822.149	18985
822.289	18795
822.429	18741
822.569	18585
822.709	18612
822.849	18498
822.99	18441
823.13	18418
823.27	18388
823.41	18266
823.55	18015
823.69	18262
823.83	18235
823.97	18079
824.11	17988
824.25	17893
824.389	17942
824.529	18068
824.669	17988
824.809	18148
824.949	17969
825.089	18079
825.228	17973
825.368	17847
825.508	17802
825.648	17691
825.787	17798
825.927	17794
826.067	17680
826.206	17779
826.346	17882
826.485	17764
826.625	17783
826.765	17836
826.904	17760
827.044	17486
827.183	17501
827.323	17516
827.462	17444
827.601	17535
827.741	17516
827.88	17474
828.02	17353
828.159	17364
828.298	17425
828.437	17433
828.577	17433
828.716	17634
828.855	17509
828.994	17265
829.134	17231
829.273	17189
829.412	17220
829.551	17235
829.69	17303
829.829	17250
829.968	17364
830.107	17239
830.246	17212
830.385	17140
830.524	17136
830.663	17113
830.802	16976
830.941	16843
831.08	16763
831.219	16824
831.357	16847
831.496	17159
831.635	16816
831.774	16782
831.913	16744
832.051	16694
832.19	16626
832.329	16611
832.467	16504
832.606	16497
832.744	16504
832.883	16611
833.022	16554
833.16	16432
833.299	16607
833.437	16489
833.576	16599
833.714	16584
833.852	16599
833.991	16535
834.129	16725
834.267	16615
834.406	16558
834.544	16687
834.682	16573
834.821	16653
834.959	16771
835.097	16656
835.235	16694
835.373	16679
835.511	16584
835.65	16546
835.788	16523
835.926	16356
836.064	16322
836.202	16421
836.34	16489
836.478	16493
836.615	16451
836.753	16554
836.891	16653
837.029	16500
837.167	16440
837.305	16390
837.443	16398
837.58	16322
837.718	16424
837.856	16443
837.993	16356
838.131	16344
838.269	16211
838.406	16322
838.544	16272
838.681	16040
838.819	16150
838.956	16002
839.094	15869
839.231	16010
839.369	16013
839.506	16299
839.643	16143
839.781	16013
839.918	15911
840.055	15979
840.193	15850
840.33	15876
840.467	15842
840.604	15983
840.742	16181
840.879	15800
841.016	15926
841.153	15899
841.29	16059
841.427	15964
841.564	16109
841.701	16006
841.838	15903
841.975	15823
842.112	15842
842.249	15751
842.385	15671
842.522	15960
842.659	15766
842.796	15656
842.933	15736
843.069	15694
843.206	15732
843.343	15770
843.479	15717
843.616	15747
843.752	15519
843.889	15428
844.025	15561
844.162	15500
844.298	15606
844.435	15530
844.571	15496
844.708	15595
844.844	15545
844.98	15690
845.117	15584
845.253	15416
845.389	15367
845.525	15469
845.661	15329
845.798	15317
845.934	15291
846.07	15211
846.206	15310
846.342	15428
846.478	15283
846.614	15108
846.75	14986
846.886	15089
847.022	15195
847.158	15093
847.294	15131
847.429	15020
847.565	15135
847.701	15256
847.837	14918
847.972	14842
848.108	14853
848.244	14849
848.379	14758
848.515	14640
848.65	14632
848.786	14693
848.921	14800
849.057	14758
849.192	14804
849.328	14667
849.463	14800
849.598	14712
849.734	14640
849.869	14514
850.004	14469
850.14	14530
850.275	14415
850.41	14404
850.545	14339
850.68	14434
850.815	14522
850.95	14465
851.085	14598
851.22	14495
851.355	14408
851.49	14415
851.625	14465
851.76	14442
851.895	14180
852.03	14339
852.165	14431
852.299	14484
852.434	14537
852.569	14492
852.703	14419
852.838	14495
852.973	14511
853.107	14598
853.242	14294
853.376	14252
853.511	14229
853.645	14313
853.78	14332
853.914	14290
854.048	14313
854.183	14248
854.317	14358
854.451	14495
854.585	14210
854.72	14286
854.854	14362
854.988	14130
855.122	14419
855.256	14153
855.39	14278
855.524	14324
855.658	14400
855.792	14431
855.926	14305
856.06	14343
856.194	14495
856.327	14328
856.461	14187
856.595	14240
856.729	14419
856.862	14347
856.996	14290
857.13	14385
857.263	14404
857.397	14358
857.53	14248
857.664	14282
857.797	14339
857.931	14431
858.064	14362
858.197	14393
858.331	14282
858.464	14313
858.597	14172
858.731	14298
858.864	14336
858.997	14343
859.13	14298
859.263	14404
859.396	14343
859.529	14221
859.662	14271
859.795	14275
859.928	14301
860.061	14461
860.194	14579
860.327	14339
860.46	14317
860.592	14377
860.725	14434
860.858	14408
860.99	14244
861.123	14191
861.256	14237
861.388	14214
861.521	15013
861.653	14176
861.786	14214
861.918	14088
862.05	14183
862.183	14294
862.315	14336
862.447	14412
862.58	14263
862.712	14126
862.844	14001
862.976	14214
863.108	14096
863.24	14415
863.372	14046
863.504	14100
863.636	14111
863.768	14199
863.9	14138
864.032	14016
864.164	14084
864.296	14142
864.428	14218
864.559	14107
864.691	14210
864.823	14199
864.954	14065
865.086	14084
865.217	14092
865.349	14073
865.48	14100
865.612	14012
865.743	14214
865.875	14096
866.006	14024
866.137	14031
866.269	14153
866.4	14005
866.531	14077
866.662	13986
866.793	14008
866.924	14084
867.055	14096
867.186	14024
867.317	14031
867.448	14016
867.579	14012
867.71	14008
867.841	13986
867.972	14081
868.103	14054
868.233	14069
868.364	14016
868.495	14183
868.625	14374
868.756	14336
868.886	14218
869.017	14370
869.147	14492
869.278	14450
869.408	14313
869.539	14377
869.669	14374
869.799	14317
869.929	14419
870.06	14431
870.19	14640
870.32	14545
870.45	14682
870.58	14735
870.71	14746
870.84	14804
870.97	14731
871.1	14727
871.23	14944
871.36	14918
871.489	14842
871.619	14872
871.749	14956
871.879	14994
872.008	15036
872.138	14914
872.267	14906
872.397	14758
872.526	14769
872.656	14697
872.785	14765
872.915	14868
873.044	15062
873.173	14906
873.303	15039
873.432	14944
873.561	15116
873.69	14986
873.819	15024
873.948	15070
874.077	15024
874.206	14845
874.335	15066
874.464	15150
874.593	15199
874.722	15249
874.851	15386
874.979	15298
875.108	15367
875.237	15302
875.365	15180
875.494	15306
875.623	15344
875.751	15287
875.88	15214
876.008	15428
876.136	15511
876.265	15637
876.393	15865
876.521	15816
876.65	15880
876.778	15690
876.906	15739
877.034	15652
877.162	15755
877.29	15591
877.418	15793
877.546	15633
877.674	15736
877.802	15857
877.93	15724
878.058	15614
878.185	15663
878.313	15652
878.441	15679
878.568	15610
878.696	15641
878.824	15770
878.951	15743
879.079	15934
879.206	16025
879.333	15907
879.461	15846
879.588	15831
879.715	15876
879.842	16071
879.97	15804
880.097	15526
880.224	15553
880.351	15584
880.478	15561
880.605	15561
880.732	15526
880.859	15759
880.986	15671
881.112	15568
881.239	15466
881.366	15325
881.493	15291
881.619	15245
881.746	15233
881.872	15176
881.999	15161
882.125	15192
882.252	15306
882.378	15298
882.505	15412
882.631	15214
882.757	14982
882.883	15131
883.01	15005
883.136	14941
883.262	14876
883.388	14944
883.514	15119
883.64	15085
883.766	15024
883.892	14811
884.018	14956
884.143	14967
884.269	15001
884.395	14845
884.52	14670
884.646	14777
884.772	14629
884.897	14674
885.023	14743
885.148	14781
885.274	14899
885.399	14864
885.524	14689
885.65	14750
885.775	14788
885.9	14697
886.025	14773
886.15	14762
886.275	14724
886.4	14651
886.525	14621
886.65	14663
886.775	14720
886.9	14906
887.025	14872
887.149	14705
887.274	14594
887.399	14602
887.523	14507
887.648	14552
887.773	14461
887.897	14651
888.021	14674
888.146	14484
888.27	14606
888.395	14785
888.519	14659
888.643	14746
888.767	14625
888.891	14488
889.015	14400
889.139	14594
889.263	14484
889.387	14484
889.511	14663
889.635	14571
889.759	14355
889.883	14450
890.006	14507
890.13	14530
890.254	14355
890.377	14309
890.501	14244
890.624	14221
890.748	14381
890.871	14134
890.995	14027
891.118	14077
891.241	14081
891.364	14172
891.488	14259
891.611	14157
891.734	14214
891.857	14183
891.98	14180
892.103	14142
892.226	14164
892.349	14100
892.471	14058
892.594	14077
892.717	14100
892.839	14138
892.962	14172
893.085	14149
893.207	14069
893.33	14065
893.452	14054
893.575	14252
893.697	14001
893.819	14221
893.941	14412
894.064	14267
894.186	14153
894.308	14012
894.43	14286
894.552	14332
894.674	14294
894.796	14107
894.918	14240
895.04	14153
895.161	14320
895.283	14237
895.405	14069
895.526	14271
895.648	14218
895.769	14320
895.891	14221
896.012	14298
896.134	14195
896.255	14252
896.376	14176
896.498	14275
896.619	14412
896.74	14362
896.861	14408
896.982	14697
897.103	14868
897.224	14598
897.345	14541
897.466	14450
897.587	14499
897.708	14682
897.828	14708
897.949	14465
898.07	14469
898.19	14610
898.311	14606
898.431	14568
898.552	14640
898.672	14735
898.792	14659
898.913	14682
899.033	14610
899.153	14511
899.273	14393
899.393	14488
899.513	14526
899.633	14530
899.753	14541
899.873	14492
899.993	14602
900.113	14499
900.232	14442
900.352	14522
900.472	14408
900.591	14336
900.711	14495
900.83	14301
900.95	14545
901.069	14469
901.189	14339
901.308	14065
901.427	13997
901.546	13970
901.665	14084
901.784	13963
901.904	13822
902.023	13852
902.141	13712
902.26	13620
902.379	13685
902.498	13540
902.617	13548
902.735	13620
902.854	13521
902.973	13563
903.091	13392
903.21	13320
903.328	13327
903.446	13278
903.565	13228
903.683	13206
903.801	13091
903.919	13053
904.038	13137
904.156	12966
904.274	13103
904.392	13057
904.51	12943
904.627	12958
904.745	13034
904.863	13046
904.981	12776
905.098	12684
905.216	12658
905.334	12696
905.451	12711
905.569	12662
905.686	12772
905.803	12700
905.921	12566
906.038	12616
906.155	12471
906.272	12353
906.389	12380
906.506	12300
906.623	12300
906.74	12254
906.857	12117
906.974	12133
907.091	12232
907.208	12372
907.324	12292
907.441	12152
907.557	12011
907.674	12057
907.79	11878
907.907	11946
908.023	12019
908.139	11996
908.256	12049
908.372	12003
908.488	11931
908.604	11767
908.72	11714
908.836	11851
908.952	11843
909.068	11809
909.184	11927
909.3	11771
909.415	11824
909.531	11771
909.647	11577
909.762	11474
909.878	11516
909.993	11623
910.108	11520
910.224	11558
910.339	11532
910.454	11455
910.57	11452
910.685	11337
910.8	11653
910.915	11528
911.03	11493
911.145	11337
911.259	11250
911.374	11216
911.489	11197
911.604	11136
911.718	10972
911.833	11010
911.947	10938
912.062	10850
912.176	10927
912.291	11109
912.405	11037
912.519	11162
912.633	11250
912.748	11121
912.862	11029
912.976	10995
913.09	10790
913.204	10927
913.318	10911
913.431	11094
913.545	10968
913.659	11029
913.772	10949
913.886	10736
914	10774
914.113	10930
914.226	10942
914.34	10900
914.453	10809
914.566	10862
914.68	10752
914.793	10771
914.906	10580
915.019	10493
915.132	10474
915.245	10531
915.358	10565
915.47	10592
915.583	10660
915.696	10603
915.809	10706
915.921	10710
916.034	10580
916.146	10508
916.259	10459
916.371	10554
916.483	10470
916.595	10531
916.708	10523
916.82	10489
916.932	10481
917.044	10481
917.156	10421
917.268	10356
917.38	10409
917.491	10325
917.603	10394
917.715	10535
917.826	10474
917.938	10421
918.049	10280
918.161	10363
918.272	10592
918.384	10493
918.495	10394
918.606	10196
918.717	10234
918.828	10291
918.939	10265
919.05	10211
919.161	10257
919.272	10071
919.383	10074
919.494	10234
919.604	10371
919.715	10280
919.826	10192
919.936	10207
920.047	10341
920.157	10246
920.267	10428
920.378	10310
920.488	10306
920.598	10436
920.708	10634
920.818	10542
920.928	10424
921.038	10542
921.148	10584
921.258	10287
921.368	10261
921.477	10196
921.587	10067
921.697	9949
921.806	10131
921.916	10029
922.025	9846
922.134	9865
922.244	9781
922.353	9854
922.462	9694
922.571	9641
922.68	9500
922.789	9485
922.898	9557
923.007	9454
923.116	9580
923.224	9534
923.333	9519
923.442	9435
923.55	9431
923.659	9412
923.767	9553
923.876	9374
923.984	9481
924.092	9275
924.201	9428
924.309	9367
924.417	9378
924.525	9230
924.633	9367
924.741	10287
924.849	9161
924.956	9313
925.064	9123
925.172	9108
925.279	9116
925.387	9169
925.494	9249
925.602	9348
925.709	9294
925.816	9085
925.924	9192
926.031	9256
926.138	9218
926.245	9218
926.352	9081
926.459	9287
926.566	9264
926.673	9100
926.779	9108
926.886	9089
926.993	8933
927.099	8849
927.206	8785
927.312	8830
927.419	8918
927.525	8937
927.631	8963
927.737	8785
927.843	8796
927.95	8674
928.056	8766
928.162	8819
928.267	8880
928.373	9344
928.479	8944
928.585	8617
928.69	8743
928.796	8788
928.901	8727
929.007	8537
929.112	8750
929.218	8655
929.323	8640
929.428	8583
929.533	8670
929.638	8427
929.743	8571
929.848	8568
929.953	8598
930.058	8522
930.163	8339
930.267	8370
930.372	8507
930.477	8377
930.581	8655
930.685	8431
930.79	8336
930.894	8393
930.998	8294
931.103	8476
931.207	8153
931.311	7989
931.415	8043
931.519	7784
931.623	7826
