Data from test_V78500241_780.txt Node
Date: Fri Mar 25 14:39:09 CST 2022
User: usil
Spectrometer: V785-0024
Trigger mode: 0
Integration Time (sec): 4.000000E-1
Scans to average: 1
Nonlinearity correction enabled: false
Boxcar width: 0
Storing dark spectrum: false
XAxis mode: Wavelengths
Number of Pixels in Spectrum: 1024
>>>>>Begin Spectral Data<<<<<
801.071	26720
801.214	26598
801.356	26442
801.499	26122
801.641	26218
801.783	26005
801.926	26084
802.068	25837
802.211	25902
802.353	25814
802.496	25658
802.638	25734
802.78	25479
802.923	25624
803.065	25476
803.208	25460
803.35	25495
803.492	25594
803.635	25712
803.777	25563
803.919	25708
804.061	25993
804.204	25841
804.346	25712
804.488	25575
804.63	25849
804.773	25651
804.915	25849
805.057	26016
805.199	25925
805.341	26054
805.483	26077
805.626	26320
805.768	26107
805.91	26256
806.052	26522
806.194	26495
806.336	26944
806.478	26826
806.62	27013
806.762	27268
806.904	27728
807.046	28192
807.188	28440
807.33	28736
807.472	29429
807.614	29870
807.756	30779
807.898	31791
808.04	33058
808.182	34740
808.324	37278
808.465	40067
808.607	42951
808.749	45778
808.891	47375
809.033	47528
809.174	45892
809.316	43072
809.458	40097
809.6	37023
809.741	34516
809.883	32526
810.025	31400
810.166	30251
810.308	29566
810.45	29029
810.591	28428
810.733	27968
810.875	27606
811.016	27389
811.158	27081
811.299	27116
811.441	27024
811.582	26891
811.724	26697
811.865	26533
812.007	26461
812.148	26343
812.29	26332
812.431	26404
812.573	26442
812.714	26495
812.855	26609
812.997	26594
813.138	26807
813.279	26701
813.421	26499
813.562	26423
813.703	26176
813.845	26027
813.986	25738
814.127	25487
814.268	25476
814.41	25324
814.551	25206
814.692	25396
814.833	25236
814.974	25057
815.115	25198
815.256	25061
815.397	25019
815.539	24878
815.68	24958
815.821	24817
815.962	24871
816.103	24593
816.244	24570
816.385	24536
816.526	24486
816.666	24350
816.807	24098
816.948	24205
817.089	24209
817.23	24258
817.371	24167
817.512	24072
817.653	24011
817.793	23874
817.934	23973
818.075	24091
818.216	24098
818.356	23984
818.497	23870
818.638	23615
818.778	23779
818.919	23695
819.06	23707
819.2	23745
819.341	23878
819.481	24095
819.622	24011
819.762	24148
819.903	24216
820.043	24087
820.184	23942
820.324	23893
820.465	23882
820.605	24007
820.746	23912
820.886	23733
821.026	23942
821.167	23771
821.307	23859
821.447	23573
821.588	23665
821.728	23524
821.868	23376
822.008	23235
822.149	23193
822.289	23071
822.429	22953
822.569	22778
822.709	22702
822.849	22550
822.99	22615
823.13	22550
823.27	22573
823.41	22413
823.55	22360
823.69	22409
823.83	22325
823.97	22413
824.11	22268
824.25	22131
824.389	22169
824.529	22337
824.669	22128
824.809	22261
824.949	22143
825.089	22253
825.228	22204
825.368	22067
825.508	21876
825.648	22025
825.787	21876
825.927	21975
826.067	21941
826.206	21850
826.346	21953
826.485	21873
826.625	21918
826.765	21930
826.904	21960
827.044	21709
827.183	21637
827.323	21610
827.462	21739
827.601	21428
827.741	21500
827.88	21557
828.02	21420
828.159	21519
828.298	21648
828.437	21583
828.577	21466
828.716	21576
828.855	21500
828.994	21169
829.134	21245
829.273	21306
829.412	21138
829.551	21176
829.69	21161
829.829	21256
829.968	21237
830.107	21321
830.246	21245
830.385	21233
830.524	21127
830.663	21020
830.802	20891
830.941	20986
831.08	20796
831.219	20902
831.357	20944
831.496	20994
831.635	20895
831.774	20727
831.913	20788
832.051	20762
832.19	20750
832.329	20705
832.467	20609
832.606	20621
832.744	20632
832.883	20845
833.022	20849
833.16	20857
833.299	21005
833.437	21214
833.576	21302
833.714	21332
833.852	21534
833.991	21564
834.129	21720
834.267	21698
834.406	21618
834.544	21663
834.682	21507
834.821	21416
834.959	21450
835.097	21161
835.235	21146
835.373	21055
835.511	20937
835.65	20663
835.788	20689
835.926	20461
836.064	20473
836.202	20393
836.34	20602
836.478	20636
836.615	20495
836.753	20404
836.891	20499
837.029	20358
837.167	20294
837.305	20476
837.443	20138
837.58	20252
837.718	20256
837.856	20286
837.993	20084
838.131	20233
838.269	20084
838.406	20126
838.544	20001
838.681	19868
838.819	19780
838.956	19628
839.094	19811
839.231	19658
839.369	19811
839.506	20130
839.643	19902
839.781	19769
839.918	19586
840.055	19601
840.193	19655
840.33	19556
840.467	19624
840.604	19719
840.742	19845
840.879	19533
841.016	19521
841.153	19514
841.29	19727
841.427	19643
841.564	19556
841.701	19476
841.838	19468
841.975	19411
842.112	19487
842.249	19499
842.385	19411
842.522	19586
842.659	19540
842.796	19396
842.933	19460
843.069	19457
843.206	19559
843.343	19639
843.479	19540
843.616	19601
843.752	19419
843.889	19502
844.025	19605
844.162	19491
844.298	19799
844.435	19807
844.571	19833
844.708	20259
844.844	20659
844.98	21028
845.117	21606
845.253	22348
845.389	24125
845.525	27321
845.661	32602
845.798	38739
845.934	43358
846.07	45199
846.206	43909
846.342	39675
846.478	33587
846.614	28173
846.75	24806
846.886	22634
847.022	21462
847.158	20568
847.294	20096
847.429	19814
847.565	19468
847.701	19514
847.837	18989
847.972	18859
848.108	18863
848.244	18787
848.379	18589
848.515	18578
848.65	18528
848.786	18498
848.921	18509
849.057	18536
849.192	18593
849.328	18544
849.463	18315
849.598	18445
849.734	18247
849.869	18277
850.004	18201
850.14	18216
850.275	18182
850.41	17969
850.545	17946
850.68	18129
850.815	18026
850.95	18102
851.085	18186
851.22	18300
851.355	18098
851.49	17992
851.625	18041
851.76	18007
851.895	18019
852.03	17999
852.165	18034
852.299	18019
852.434	18224
852.569	18197
852.703	18129
852.838	18140
852.973	18334
853.107	18273
853.242	18262
853.376	18133
853.511	17950
853.645	18098
853.78	18182
853.914	18235
854.048	18251
854.183	18300
854.317	18361
854.451	18460
854.585	18216
854.72	18190
854.854	18357
854.988	18148
855.122	18152
855.256	17942
855.39	18155
855.524	18235
855.658	18201
855.792	17984
855.926	18076
856.06	18030
856.194	18110
856.327	18041
856.461	17893
856.595	17897
856.729	17847
856.862	18068
856.996	17882
857.13	17939
857.263	17999
857.397	18019
857.53	17836
857.664	17935
857.797	17988
857.931	17859
858.064	17874
858.197	17954
858.331	17786
858.464	17676
858.597	17630
858.731	17786
858.864	17718
858.997	17783
859.13	17760
859.263	17722
859.396	17828
859.529	17703
859.662	17684
859.795	17630
859.928	17790
860.061	17965
860.194	18049
860.327	17745
860.46	17760
860.592	17863
860.725	17828
860.858	17813
860.99	17672
861.123	17684
861.256	17585
861.388	17733
861.521	18300
861.653	17634
861.786	17596
861.918	17615
862.05	17661
862.183	17665
862.315	17752
862.447	17600
862.58	17646
862.712	17539
862.844	17410
862.976	17448
863.108	17535
863.24	17939
863.372	17277
863.504	17436
863.636	17318
863.768	17486
863.9	17398
864.032	17459
864.164	17402
864.296	17520
864.428	17402
864.559	17566
864.691	17509
864.823	17379
864.954	17444
865.086	17376
865.217	17334
865.349	17303
865.48	17254
865.612	17307
865.743	17429
865.875	17417
866.006	17235
866.137	17467
866.269	17360
866.4	17326
866.531	17235
866.662	17254
866.793	17235
866.924	17273
867.055	17391
867.186	17280
867.317	17200
867.448	17265
867.579	17254
867.71	17147
867.841	17227
867.972	17341
868.103	17311
868.233	17318
868.364	17334
868.495	17376
868.625	17589
868.756	17699
868.886	17402
869.017	17638
869.147	17657
869.278	17779
869.408	17619
869.539	17638
869.669	17745
869.799	17615
869.929	17733
870.06	17729
870.19	17908
870.32	18022
870.45	17950
870.58	18026
870.71	18251
870.84	18167
870.97	18114
871.1	17939
871.23	18129
871.36	18125
871.489	18228
871.619	18235
871.749	18277
871.879	18334
872.008	18323
872.138	18330
872.267	18323
872.397	18273
872.526	18224
872.656	18224
872.785	18277
872.915	18441
873.044	18467
873.173	18509
873.303	18532
873.432	18490
873.561	18536
873.69	18661
873.819	18525
873.948	18715
874.077	18540
874.206	18700
874.335	18677
874.464	18821
874.593	18993
874.722	18951
874.851	18958
874.979	19080
875.108	19091
875.237	19015
875.365	19069
875.494	19198
875.623	19263
875.751	19255
875.88	19206
876.008	19388
876.136	19544
876.265	19811
876.393	19906
876.521	19902
876.65	20050
876.778	20100
876.906	20088
877.034	20027
877.162	20210
877.29	20176
877.418	20237
877.546	20431
877.674	20518
877.802	20598
877.93	20762
878.058	20887
878.185	20975
878.313	21268
878.441	21641
878.568	21823
878.696	22337
878.824	23143
878.951	24148
879.079	25689
879.206	27481
879.333	29467
879.461	30943
879.588	31871
879.715	31921
879.842	31209
879.97	29425
880.097	27469
880.224	25879
880.351	24947
880.478	24057
880.605	23387
880.732	23086
880.859	23235
880.986	22672
881.112	22641
881.239	22508
881.366	22341
881.493	22253
881.619	22249
881.746	22291
881.872	22291
881.999	22284
882.125	22329
882.252	22402
882.378	22485
882.505	22611
882.631	22375
882.757	22268
882.883	22428
883.01	22379
883.136	22371
883.262	22143
883.388	22192
883.514	22284
883.64	22314
883.766	22249
883.892	22162
884.018	22219
884.143	22261
884.269	22352
884.395	22093
884.52	22070
884.646	22044
884.772	21907
884.897	21941
885.023	21991
885.148	22139
885.274	22166
885.399	22013
885.524	21876
885.65	21663
885.775	21549
885.9	21428
886.025	21397
886.15	21378
886.275	20979
886.4	20804
886.525	20838
886.65	20735
886.775	20480
886.9	20511
887.025	20701
887.149	20355
887.274	20046
887.399	19951
887.523	19841
887.648	19814
887.773	19582
887.897	19795
888.021	19746
888.146	19635
888.27	19556
888.395	19575
888.519	19434
888.643	19381
888.767	19430
888.891	19107
889.015	19213
889.139	19050
889.263	19088
889.387	19107
889.511	19137
889.635	19031
889.759	18951
889.883	18932
890.006	18867
890.13	18916
890.254	18700
890.377	18585
890.501	18452
890.624	18464
890.748	18452
890.871	18376
890.995	18216
891.118	18266
891.241	18232
891.364	18285
891.488	18209
891.611	18106
891.734	18117
891.857	18171
891.98	18095
892.103	18121
892.226	18072
892.349	17889
892.471	17836
892.594	17904
892.717	17851
892.839	17908
892.962	17870
893.085	17851
893.207	17748
893.33	17672
893.452	17687
893.575	17775
893.697	17703
893.819	17817
893.941	17821
894.064	17737
894.186	17615
894.308	17459
894.43	17512
894.552	17687
894.674	17767
894.796	17368
894.918	17421
895.04	17398
895.161	17493
895.283	17512
895.405	17258
895.526	17512
895.648	17444
895.769	17482
895.891	17448
896.012	17459
896.134	17436
896.255	17379
896.376	17387
896.498	17353
896.619	17459
896.74	17391
896.861	17433
896.982	17695
897.103	17851
897.224	17615
897.345	17573
897.466	17440
897.587	17585
897.708	17840
897.828	17562
897.949	17528
898.07	17296
898.19	17535
898.311	17577
898.431	17562
898.552	17528
898.672	17718
898.792	17668
898.913	17543
899.033	17455
899.153	17421
899.273	17250
899.393	17349
899.513	17360
899.633	17448
899.753	17345
899.873	17330
899.993	17402
900.113	17356
900.232	17288
900.352	17349
900.472	17265
900.591	17060
900.711	17159
900.83	17185
900.95	17261
901.069	17258
901.189	17010
901.308	16919
901.427	16790
901.546	16805
901.665	16858
901.784	16801
901.904	16565
902.023	16523
902.141	16253
902.26	16211
902.379	16280
902.498	16284
902.617	16211
902.735	16265
902.854	16169
902.973	15960
903.091	15922
903.21	15854
903.328	16051
903.446	15785
903.565	15667
903.683	15728
903.801	15606
903.919	15686
904.038	15724
904.156	15424
904.274	15595
904.392	15393
904.51	15412
904.627	15439
904.745	15401
904.863	15538
904.981	15291
905.098	15077
905.216	15039
905.334	15081
905.451	15039
905.569	14986
905.686	15192
905.803	14971
905.921	14819
906.038	14937
906.155	14906
906.272	14731
906.389	14777
906.506	14564
906.623	14530
906.74	14625
906.857	14560
906.974	14537
907.091	14617
907.208	14727
907.324	14636
907.441	14480
907.557	14347
907.674	14412
907.79	14195
907.907	14298
908.023	14400
908.139	14351
908.256	14324
908.372	14237
908.488	14142
908.604	14100
908.72	13997
908.836	14096
908.952	14027
909.068	14039
909.184	14126
909.3	14008
909.415	14088
909.531	13974
909.647	13871
909.762	13875
909.878	13693
909.993	13818
910.108	13696
910.224	13784
910.339	13765
910.454	13681
910.57	13643
910.685	13518
910.8	13860
910.915	13822
911.03	13723
911.145	13506
911.259	13365
911.374	13518
911.489	13419
911.604	13312
911.718	13266
911.833	13149
911.947	13080
912.062	13076
912.176	13091
912.291	13183
912.405	13099
912.519	13396
912.633	13369
912.748	13304
912.862	13202
912.976	13095
913.09	12989
913.204	12962
913.318	13027
913.431	13133
913.545	13187
913.659	13122
913.772	13050
913.886	12856
914	12875
914.113	12966
914.226	13061
914.34	12897
914.453	12776
914.566	12935
914.68	12707
914.793	12810
914.906	12604
915.019	12612
915.132	12479
915.245	12616
915.358	12585
915.47	12597
915.583	12616
915.696	12681
915.809	12764
915.921	12738
916.034	12570
916.146	12517
916.259	12494
916.371	12650
916.483	12627
916.595	12521
916.708	12551
916.82	12650
916.932	12582
917.044	12597
917.156	12502
917.268	12353
917.38	12380
917.491	12376
917.603	12376
917.715	12490
917.826	12403
917.938	12247
918.049	12190
918.161	12273
918.272	12464
918.384	12369
918.495	12372
918.606	12175
918.717	12083
918.828	12163
918.939	12159
919.05	12057
919.161	12121
919.272	11901
919.383	11984
919.494	12178
919.604	12273
919.715	12163
919.826	12064
919.936	12057
920.047	12205
920.157	12152
920.267	12327
920.378	12171
920.488	12087
920.598	12300
920.708	12445
920.818	12258
920.928	12175
921.038	12342
921.148	12391
921.258	12140
921.368	11935
921.477	11885
921.587	11874
921.697	11775
921.806	11920
921.916	11729
922.025	11688
922.134	11581
922.244	11562
922.353	11642
922.462	11455
922.571	11471
922.68	11368
922.789	11261
922.898	11201
923.007	11155
923.116	11166
923.224	11140
923.333	11105
923.442	11113
923.55	11037
923.659	11083
923.767	11128
923.876	11014
923.984	11124
924.092	10984
924.201	11041
924.309	11071
924.417	11052
924.525	10987
924.633	11014
924.741	11760
924.849	10801
924.956	10976
925.064	10790
925.172	10691
925.279	10721
925.387	10793
925.494	10687
925.602	10968
925.709	10797
925.816	10721
925.924	10714
926.031	10782
926.138	10790
926.245	10850
926.352	10721
926.459	10805
926.566	10858
926.673	10653
926.779	10580
926.886	10656
926.993	10489
927.099	10398
927.206	10329
927.312	10360
927.419	10379
927.525	10436
927.631	10474
927.737	10367
927.843	10295
927.95	10234
928.056	10280
928.162	10333
928.267	10318
928.373	10957
928.479	10356
928.585	10162
928.69	10253
928.796	10314
928.901	10196
929.007	10006
929.112	10150
929.218	10166
929.323	10101
929.428	10086
929.533	10192
929.638	10006
929.743	10063
929.848	10048
929.953	10029
930.058	9934
930.163	9838
930.267	9842
930.372	9922
930.477	9717
930.581	10025
930.685	9888
930.79	9709
930.894	9717
930.998	9679
931.103	9846
931.207	9553
931.311	9408
931.415	9397
931.519	9138
931.623	9150
