Data from test_V78500241_592.txt Node
Date: Fri Mar 25 14:37:50 CST 2022
User: usil
Spectrometer: V785-0024
Trigger mode: 0
Integration Time (sec): 4.000000E-1
Scans to average: 1
Nonlinearity correction enabled: false
Boxcar width: 0
Storing dark spectrum: false
XAxis mode: Wavelengths
Number of Pixels in Spectrum: 1024
>>>>>Begin Spectral Data<<<<<
801.071	27945
801.214	27732
801.356	27534
801.499	27515
801.641	27321
801.783	27363
801.926	27378
802.068	27287
802.211	27146
802.353	27085
802.496	26944
802.638	26895
802.78	26838
802.923	26674
803.065	26735
803.208	26842
803.35	26788
803.492	26914
803.635	26982
803.777	26914
803.919	26929
804.061	27291
804.204	26880
804.346	26861
804.488	26952
804.63	27062
804.773	26781
804.915	27123
805.057	27119
805.199	27161
805.341	27218
805.483	27355
805.626	27268
805.768	27268
805.91	27374
806.052	27610
806.194	27561
806.336	27892
806.478	27789
806.62	27934
806.762	28162
806.904	28554
807.046	28873
807.188	28991
807.33	29444
807.472	29771
807.614	30030
807.756	30802
807.898	31453
808.04	32476
808.182	33671
808.324	35406
808.465	37403
808.607	39641
808.749	41619
808.891	42715
809.033	42726
809.174	41474
809.316	39511
809.458	37510
809.6	35159
809.741	33564
809.883	32153
810.025	31251
810.166	30490
810.308	29923
810.45	29459
810.591	29086
810.733	28691
810.875	28462
811.016	28287
811.158	28067
811.299	28093
811.441	28147
811.582	27987
811.724	27808
811.865	27835
812.007	27690
812.148	27572
812.29	27724
812.431	27644
812.573	27797
812.714	27778
812.855	27892
812.997	27975
813.138	28036
813.279	28010
813.421	27838
813.562	27599
813.703	27538
813.845	27439
813.986	27058
814.127	26781
814.268	26746
814.41	26568
814.551	26705
814.692	26678
814.833	26533
814.974	26606
815.115	26552
815.256	26301
815.397	26336
815.539	26495
815.68	26282
815.821	26263
815.962	26267
816.103	26153
816.244	26077
816.385	25898
816.526	25898
816.666	25704
816.807	25582
816.948	25662
817.089	25609
817.23	25571
817.371	25453
817.512	25594
817.653	25620
817.793	25331
817.934	25548
818.075	25502
818.216	25495
818.356	25434
818.497	25190
818.638	25240
818.778	25266
818.919	25240
819.06	25255
819.2	25301
819.341	25350
819.481	25548
819.622	25479
819.762	25719
819.903	25700
820.043	25597
820.184	25479
820.324	25556
820.465	25483
820.605	25350
820.746	25362
820.886	25282
821.026	25392
821.167	25198
821.307	25415
821.447	25148
821.588	25126
821.728	24973
821.868	24825
822.008	24760
822.149	24623
822.289	24536
822.429	24483
822.569	24353
822.709	24414
822.849	24159
822.99	24205
823.13	24011
823.27	24003
823.41	23969
823.55	23885
823.69	23870
823.83	23920
823.97	23843
824.11	23657
824.25	23646
824.389	23699
824.529	23691
824.669	23623
824.809	23623
824.949	23889
825.089	23691
825.228	23691
825.368	23406
825.508	23512
825.648	23524
825.787	23512
825.927	23528
826.067	23524
826.206	23383
826.346	23356
826.485	23512
826.625	23440
826.765	23448
826.904	23505
827.044	23147
827.183	23098
827.323	23067
827.462	23064
827.601	23075
827.741	23117
827.88	23044
828.02	23018
828.159	23204
828.298	23113
828.437	23086
828.577	23044
828.716	23216
828.855	23075
828.994	22850
829.134	22778
829.273	22831
829.412	22687
829.551	22672
829.69	22740
829.829	22812
829.968	22801
830.107	22843
830.246	22736
830.385	22649
830.524	22755
830.663	22634
830.802	22432
830.941	22398
831.08	22379
831.219	22348
831.357	22443
831.496	22485
831.635	22360
831.774	22314
831.913	22166
832.051	22177
832.19	22120
832.329	22291
832.467	22040
832.606	22074
832.744	22093
832.883	22150
833.022	22116
833.16	22303
833.299	22306
833.437	22637
833.576	22588
833.714	22538
833.852	22820
833.991	22869
834.129	22957
834.267	22885
834.406	22858
834.544	22873
834.682	22660
834.821	22519
834.959	22516
835.097	22417
835.235	22436
835.373	22257
835.511	22322
835.65	22101
835.788	21998
835.926	21888
836.064	21690
836.202	21831
836.34	21892
836.478	21926
836.615	21827
836.753	21876
836.891	21953
837.029	21800
837.167	21762
837.305	21789
837.443	21720
837.58	21633
837.718	21675
837.856	21637
837.993	21496
838.131	21583
838.269	21610
838.406	21511
838.544	21519
838.681	21287
838.819	21313
838.956	21169
839.094	21100
839.231	21169
839.369	21260
839.506	21469
839.643	21416
839.781	21009
839.918	20937
840.055	21001
840.193	21055
840.33	21009
840.467	21089
840.604	21085
840.742	21268
840.879	20963
841.016	20982
841.153	20891
841.29	21062
841.427	21028
841.564	20941
841.701	21081
841.838	21001
841.975	20872
842.112	20902
842.249	20815
842.385	20819
842.522	21005
842.659	20857
842.796	20807
842.933	20906
843.069	20834
843.206	20781
843.343	20804
843.479	20861
843.616	20914
843.752	20739
843.889	20701
844.025	20864
844.162	20845
844.298	21009
844.435	20899
844.571	20994
844.708	21291
844.844	21675
844.98	21869
845.117	22314
845.253	22862
845.389	23958
845.525	26275
845.661	29942
845.798	34257
845.934	37970
846.07	39108
846.206	38412
846.342	35440
846.478	30939
846.614	27093
846.75	24414
846.886	22858
847.022	22055
847.158	21351
847.294	21077
847.429	20727
847.565	20499
847.701	20606
847.837	20130
847.972	20145
848.108	20027
848.244	19906
848.379	19887
848.515	19655
848.65	19715
848.786	19742
848.921	19708
849.057	19696
849.192	19769
849.328	19715
849.463	19681
849.598	19552
849.734	19548
849.869	19483
850.004	19377
850.14	19392
850.275	19438
850.41	19244
850.545	19251
850.68	19282
850.815	19331
850.95	19392
851.085	19632
851.22	19518
851.355	19350
851.49	19320
851.625	19346
851.76	19365
851.895	19251
852.03	19240
852.165	19320
852.299	19350
852.434	19411
852.569	19346
852.703	19495
852.838	19441
852.973	19499
853.107	19434
853.242	19304
853.376	19331
853.511	19160
853.645	19259
853.78	19472
853.914	19434
854.048	19297
854.183	19327
854.317	19510
854.451	19559
854.585	19491
854.72	19377
854.854	19362
854.988	19339
855.122	19365
855.256	19168
855.39	19221
855.524	19354
855.658	19415
855.792	19137
855.926	19148
856.06	19255
856.194	19304
856.327	19301
856.461	19080
856.595	19179
856.729	19164
856.862	19209
856.996	19099
857.13	19259
857.263	19194
857.397	19263
857.53	19206
857.664	19145
857.797	19331
857.931	19213
858.064	19129
858.197	19240
858.331	19038
858.464	19091
858.597	18928
858.731	18947
858.864	18977
858.997	18996
859.13	19118
859.263	19088
859.396	19076
859.529	19019
859.662	18947
859.795	19046
859.928	19057
860.061	19103
860.194	19225
860.327	18996
860.46	19023
860.592	19114
860.725	19255
860.858	19095
860.99	19008
861.123	18920
861.256	18848
861.388	19023
861.521	19655
861.653	18916
861.786	18840
861.918	18810
862.05	18901
862.183	19069
862.315	19000
862.447	19012
862.58	18985
862.712	18753
862.844	18738
862.976	18817
863.108	18696
863.24	19038
863.372	18639
863.504	18707
863.636	18776
863.768	18627
863.9	18768
864.032	18707
864.164	18597
864.296	18544
864.428	18791
864.559	18798
864.691	18711
864.823	18703
864.954	18760
865.086	18650
865.217	18654
865.349	18639
865.48	18585
865.612	18677
865.743	18692
865.875	18566
866.006	18570
866.137	18597
866.269	18665
866.4	18547
866.531	18486
866.662	18536
866.793	18559
866.924	18582
867.055	18570
867.186	18521
867.317	18559
867.448	18433
867.579	18506
867.71	18452
867.841	18388
867.972	18589
868.103	18547
868.233	18582
868.364	18623
868.495	18719
868.625	18833
868.756	18859
868.886	18604
869.017	18825
869.147	18913
869.278	18962
869.408	18973
869.539	18783
869.669	18867
869.799	18844
869.929	18924
870.06	18916
870.19	19190
870.32	19080
870.45	19103
870.58	19160
870.71	19453
870.84	19266
870.97	19228
871.1	19240
871.23	19362
871.36	19499
871.489	19419
871.619	19559
871.749	19556
871.879	19533
872.008	19677
872.138	19586
872.267	19480
872.397	19514
872.526	19468
872.656	19502
872.785	19441
872.915	19571
873.044	19700
873.173	19514
873.303	19715
873.432	19655
873.561	19753
873.69	19696
873.819	19700
873.948	19761
874.077	19620
874.206	19708
874.335	19681
874.464	19868
874.593	20008
874.722	19970
874.851	20069
874.979	20050
875.108	20161
875.237	20096
875.365	20016
875.494	20180
875.623	20248
875.751	20206
875.88	20206
876.008	20408
876.136	20473
876.265	20899
876.393	20868
876.521	20952
876.65	21028
876.778	20845
876.906	20971
877.034	20842
877.162	21070
877.29	21020
877.418	21131
877.546	21081
877.674	21226
877.802	21351
877.93	21294
878.058	21431
878.185	21481
878.313	21770
878.441	22029
878.568	22086
878.696	22557
878.824	23258
878.951	24068
879.079	24958
879.206	26332
879.333	27572
879.461	28869
879.588	29596
879.715	29497
879.842	29071
879.97	27808
880.097	26191
880.224	25095
880.351	24422
880.478	23874
880.605	23410
880.732	23132
880.859	23277
880.986	22862
881.112	22759
881.239	22706
881.366	22485
881.493	22440
881.619	22306
881.746	22459
881.872	22394
881.999	22405
882.125	22337
882.252	22493
882.378	22493
882.505	22710
882.631	22478
882.757	22379
882.883	22436
883.01	22386
883.136	22314
883.262	22257
883.388	22158
883.514	22375
883.64	22363
883.766	22128
883.892	22055
884.018	22063
884.143	22291
884.269	22379
884.395	21945
884.52	21983
884.646	22074
884.772	21994
884.897	21838
885.023	21972
885.148	22044
885.274	21983
885.399	21987
885.524	21861
885.65	21831
885.775	21568
885.9	21629
886.025	21515
886.15	21496
886.275	21283
886.4	21154
886.525	21032
886.65	21005
886.775	20956
886.9	20963
887.025	21089
887.149	20864
887.274	20503
887.399	20457
887.523	20320
887.648	20324
887.773	20134
887.897	20355
888.021	20290
888.146	20161
888.27	20172
888.395	20214
888.519	20130
888.643	20035
888.767	19989
888.891	19944
889.015	19788
889.139	19879
889.263	19715
889.387	19723
889.511	19841
889.635	19818
889.759	19499
889.883	19476
890.006	19647
890.13	19605
890.254	19453
890.377	19441
890.501	19255
890.624	19293
890.748	19312
890.871	19072
890.995	18894
891.118	18932
891.241	18928
891.364	18939
891.488	19076
891.611	19057
891.734	18962
891.857	18943
891.98	18867
892.103	18962
892.226	18916
892.349	18829
892.471	18627
892.594	18768
892.717	18681
892.839	18631
892.962	18726
893.085	18738
893.207	18589
893.33	18486
893.452	18608
893.575	18532
893.697	18593
893.819	18616
893.941	18768
894.064	18650
894.186	18498
894.308	18441
894.43	18604
894.552	18661
894.674	18498
894.796	18334
894.918	18433
895.04	18452
895.161	18399
895.283	18532
895.405	18346
895.526	18464
895.648	18319
895.769	18414
895.891	18452
896.012	18414
896.134	18399
896.255	18376
896.376	18407
896.498	18441
896.619	18403
896.74	18315
896.861	18342
896.982	18741
897.103	18973
897.224	18677
897.345	18388
897.466	18509
897.587	18551
897.708	18650
897.828	18684
897.949	18582
898.07	18441
898.19	18498
898.311	18582
898.431	18540
898.552	18559
898.672	18715
898.792	18738
898.913	18620
899.033	18414
899.153	18365
899.273	18311
899.393	18285
899.513	18346
899.633	18410
899.753	18319
899.873	18262
899.993	18471
900.113	18460
900.232	18418
900.352	18296
900.472	18136
900.591	18129
900.711	18186
900.83	18140
900.95	18258
901.069	18178
901.189	18030
901.308	17710
901.427	17767
901.546	17760
901.665	17813
901.784	17794
901.904	17600
902.023	17497
902.141	17326
902.26	17296
902.379	17307
902.498	17147
902.617	17102
902.735	17128
902.854	17143
902.973	17174
903.091	16866
903.21	16866
903.328	16812
903.446	16717
903.565	16649
903.683	16702
903.801	16554
903.919	16558
904.038	16672
904.156	16459
904.274	16421
904.392	16382
904.51	16341
904.627	16424
904.745	16405
904.863	16382
904.981	16185
905.098	16074
905.216	16074
905.334	15949
905.451	16162
905.569	15949
905.686	16055
905.803	16021
905.921	15804
906.038	15842
906.155	15842
906.272	15690
906.389	15774
906.506	15633
906.623	15595
906.74	15545
906.857	15466
906.974	15466
907.091	15599
907.208	15591
907.324	15584
907.441	15500
907.557	15351
907.674	15268
907.79	15157
907.907	15184
908.023	15252
908.139	15211
908.256	15260
908.372	15180
908.488	15066
908.604	15028
908.72	14933
908.836	14937
908.952	14906
909.068	14929
909.184	15001
909.3	14876
909.415	14887
909.531	14853
909.647	14678
909.762	14674
909.878	14663
909.993	14727
910.108	14705
910.224	14625
910.339	14689
910.454	14518
910.57	14404
910.685	14358
910.8	14693
910.915	14579
911.03	14537
911.145	14404
911.259	14305
911.374	14191
911.489	14210
911.604	14187
911.718	14138
911.833	14054
911.947	13944
912.062	13967
912.176	14016
912.291	14054
912.405	13959
912.519	14202
912.633	14202
912.748	14058
912.862	13974
912.976	13902
913.09	13791
913.204	13849
913.318	13883
913.431	13887
913.545	13932
913.659	13936
913.772	13864
913.886	13689
914	13704
914.113	13750
914.226	13738
914.34	13826
914.453	13647
914.566	13746
914.68	13578
914.793	13521
914.906	13445
915.019	13354
915.132	13312
915.245	13449
915.358	13449
915.47	13388
915.583	13460
915.696	13449
915.809	13556
915.921	13483
916.034	13362
916.146	13377
916.259	13316
916.371	13430
916.483	13327
916.595	13251
916.708	13339
916.82	13316
916.932	13274
917.044	13304
917.156	13285
917.268	13137
917.38	13137
917.491	13042
917.603	13091
917.715	13145
917.826	13198
917.938	12958
918.049	12947
918.161	13019
918.272	13183
918.384	13209
918.495	13110
918.606	12848
918.717	12814
918.828	12890
918.939	12905
919.05	12844
919.161	12817
919.272	12623
919.383	12601
919.494	12935
919.604	13103
919.715	12753
919.826	12745
919.936	12764
920.047	12905
920.157	12837
920.267	13008
920.378	12856
920.488	12768
920.598	12951
920.708	13156
920.818	12943
920.928	12970
921.038	13076
921.148	13027
921.258	12791
921.368	12722
921.477	12574
921.587	12566
921.697	12509
921.806	12479
921.916	12452
922.025	12338
922.134	12220
922.244	12235
922.353	12205
922.462	12121
922.571	12003
922.68	11866
922.789	11851
922.898	11897
923.007	11893
923.116	11908
923.224	11889
923.333	11809
923.442	11760
923.55	11737
923.659	11783
923.767	11805
923.876	11714
923.984	11794
924.092	11615
924.201	11649
924.309	11756
924.417	11676
924.525	11642
924.633	11592
924.741	12365
924.849	11455
924.956	11581
925.064	11425
925.172	11360
925.279	11383
925.387	11387
925.494	11429
925.602	11474
925.709	11486
925.816	11273
925.924	11345
926.031	11455
926.138	11379
926.245	11368
926.352	11197
926.459	11376
926.566	11417
926.673	11280
926.779	11223
926.886	11231
926.993	10999
927.099	11098
927.206	10908
927.312	11010
927.419	11048
927.525	11018
927.631	11113
927.737	10965
927.843	10923
927.95	10786
928.056	10911
928.162	10881
928.267	10965
928.373	11452
928.479	10896
928.585	10691
928.69	10771
928.796	10927
928.901	10694
929.007	10611
929.112	10729
929.218	10767
929.323	10577
929.428	10607
929.533	10763
929.638	10538
929.743	10622
929.848	10637
929.953	10626
930.058	10455
930.163	10329
930.267	10371
930.372	10470
930.477	10325
930.581	10542
930.685	10371
930.79	10329
930.894	10242
930.998	10200
931.103	10375
931.207	9979
931.311	9964
931.415	9831
931.519	9644
931.623	9660
