Data from test_V78500241_2838.txt Node
Date: Fri Mar 25 14:53:28 CST 2022
User: usil
Spectrometer: V785-0024
Trigger mode: 0
Integration Time (sec): 4.000000E-1
Scans to average: 1
Nonlinearity correction enabled: false
Boxcar width: 0
Storing dark spectrum: false
XAxis mode: Wavelengths
Number of Pixels in Spectrum: 1024
>>>>>Begin Spectral Data<<<<<
801.071	22010
801.214	21953
801.356	21576
801.499	21454
801.641	21405
801.783	21420
801.926	21447
802.068	21382
802.211	21294
802.353	21283
802.496	21017
802.638	20838
802.78	20880
802.923	20773
803.065	20648
803.208	20682
803.35	20735
803.492	20883
803.635	20887
803.777	20731
803.919	20834
804.061	21070
804.204	20781
804.346	20659
804.488	20617
804.63	20693
804.773	20739
804.915	20579
805.057	20682
805.199	20621
805.341	20640
805.483	20807
805.626	20735
805.768	20609
805.91	20746
806.052	20625
806.194	20507
806.336	20765
806.478	20697
806.62	20632
806.762	20663
806.904	20868
807.046	21009
807.188	20944
807.33	20883
807.472	21005
807.614	20960
807.756	20910
807.898	20819
808.04	20762
808.182	20838
808.324	20823
808.465	20758
808.607	20933
808.749	20960
808.891	21074
809.033	21138
809.174	21074
809.316	20998
809.458	21119
809.6	20986
809.741	21119
809.883	21123
810.025	21184
810.166	21154
810.308	21017
810.45	21138
810.591	21024
810.733	20880
810.875	20788
811.016	20762
811.158	20655
811.299	20834
811.441	20811
811.582	20842
811.724	20857
811.865	20781
812.007	20739
812.148	20648
812.29	20773
812.431	20880
812.573	21081
812.714	21188
812.855	21192
812.997	21344
813.138	21500
813.279	21386
813.421	21230
813.562	21203
813.703	20986
813.845	20849
813.986	20674
814.127	20507
814.268	20434
814.41	20423
814.551	20450
814.692	20339
814.833	20214
814.974	20278
815.115	20393
815.256	20187
815.397	20271
815.539	20267
815.68	20134
815.821	20046
815.962	20001
816.103	20027
816.244	19887
816.385	19807
816.526	19799
816.666	19552
816.807	19419
816.948	19476
817.089	19605
817.23	19483
817.371	19396
817.512	19438
817.653	19419
817.793	19381
817.934	19426
818.075	19495
818.216	19533
818.356	19457
818.497	19301
818.638	19084
818.778	19114
818.919	19088
819.06	19069
819.2	19259
819.341	19255
819.481	19339
819.622	19476
819.762	19635
819.903	19635
820.043	19487
820.184	19438
820.324	19438
820.465	19457
820.605	19411
820.746	19388
820.886	19114
821.026	19468
821.167	19304
821.307	19415
821.447	19335
821.588	19247
821.728	19141
821.868	18966
822.008	18985
822.149	18875
822.289	18734
822.429	18707
822.569	18506
822.709	18509
822.849	18403
822.99	18346
823.13	18353
823.27	18277
823.41	18213
823.55	18083
823.69	18232
823.83	18209
823.97	18068
824.11	17893
824.25	17889
824.389	17870
824.529	17984
824.669	17961
824.809	18015
824.949	17950
825.089	17912
825.228	17988
825.368	17745
825.508	17741
825.648	17798
825.787	17703
825.927	17760
826.067	17592
826.206	17764
826.346	17726
826.485	17672
826.625	17722
826.765	17680
826.904	17737
827.044	17520
827.183	17486
827.323	17330
827.462	17482
827.601	17334
827.741	17429
827.88	17391
828.02	17303
828.159	17383
828.298	17379
828.437	17455
828.577	17467
828.716	17444
828.855	17349
828.994	17178
829.134	17212
829.273	17227
829.412	17033
829.551	17109
829.69	17162
829.829	17170
829.968	17311
830.107	17307
830.246	17155
830.385	17147
830.524	17124
830.663	17010
830.802	16995
830.941	16835
831.08	16694
831.219	16892
831.357	16873
831.496	16961
831.635	16812
831.774	16691
831.913	16687
832.051	16569
832.19	16637
832.329	16645
832.467	16424
832.606	16417
832.744	16363
832.883	16474
833.022	16508
833.16	16432
833.299	16432
833.437	16466
833.576	16531
833.714	16618
833.852	16569
833.991	16596
834.129	16538
834.267	16626
834.406	16615
834.544	16535
834.682	16546
834.821	16485
834.959	16698
835.097	16519
835.235	16573
835.373	16645
835.511	16626
835.65	16402
835.788	16432
835.926	16272
836.064	16257
836.202	16291
836.34	16523
836.478	16561
836.615	16535
836.753	16459
836.891	16580
837.029	16421
837.167	16443
837.305	16474
837.443	16303
837.58	16238
837.718	16421
837.856	16352
837.993	16238
838.131	16314
838.269	16257
838.406	16261
838.544	16135
838.681	16059
838.819	16032
838.956	15918
839.094	15937
839.231	15918
839.369	15968
839.506	16268
839.643	16074
839.781	15819
839.918	15884
840.055	15918
840.193	15880
840.33	15861
840.467	15797
840.604	15884
840.742	16154
840.879	15698
841.016	15724
841.153	15732
841.29	15922
841.427	15732
841.564	15899
841.701	15869
841.838	15838
841.975	15728
842.112	15797
842.249	15713
842.385	15637
842.522	15812
842.659	15656
842.796	15675
842.933	15603
843.069	15511
843.206	15545
843.343	15701
843.479	15648
843.616	15694
843.752	15420
843.889	15477
844.025	15553
844.162	15412
844.298	15519
844.435	15496
844.571	15401
844.708	15496
844.844	15648
844.98	15568
845.117	15564
845.253	15405
845.389	15249
845.525	15313
845.661	15332
845.798	15252
845.934	15351
846.07	15260
846.206	15157
846.342	15389
846.478	15207
846.614	15013
846.75	14994
846.886	14986
847.022	15173
847.158	15005
847.294	15039
847.429	14948
847.565	15062
847.701	15180
847.837	14746
847.972	14731
848.108	14807
848.244	14845
848.379	14701
848.515	14590
848.65	14438
848.786	14541
848.921	14697
849.057	14720
849.192	14697
849.328	14655
849.463	14640
849.598	14499
849.734	14533
849.869	14446
850.004	14377
850.14	14442
850.275	14438
850.41	14240
850.545	14256
850.68	14408
850.815	14442
850.95	14366
851.085	14503
851.22	14537
851.355	14370
851.49	14347
851.625	14347
851.76	14282
851.895	14259
852.03	14267
852.165	14347
852.299	14351
852.434	14385
852.569	14355
852.703	14324
852.838	14415
852.973	14492
853.107	14351
853.242	14336
853.376	14252
853.511	14134
853.645	14214
853.78	14305
853.914	14278
854.048	14256
854.183	14119
854.317	14298
854.451	14412
854.585	14195
854.72	14183
854.854	14221
854.988	14123
855.122	14191
855.256	14092
855.39	14328
855.524	14324
855.658	14275
855.792	14355
855.926	14290
856.06	14393
856.194	14381
856.327	14202
856.461	14145
856.595	14088
856.729	14263
856.862	14347
856.996	14199
857.13	14210
857.263	14320
857.397	14324
857.53	14229
857.664	14180
857.797	14286
857.931	14298
858.064	14317
858.197	14355
858.331	14259
858.464	14187
858.597	14180
858.731	14199
858.864	14229
858.997	14206
859.13	14271
859.263	14271
859.396	14305
859.529	14214
859.662	14202
859.795	14142
859.928	14362
860.061	14415
860.194	14469
860.327	14320
860.46	14210
860.592	14355
860.725	14469
860.858	14377
860.99	14328
861.123	14138
861.256	14301
861.388	14218
861.521	14815
861.653	14123
861.786	14005
861.918	13989
862.05	14202
862.183	14206
862.315	14180
862.447	14199
862.58	14206
862.712	14024
862.844	13947
862.976	13989
863.108	14058
863.24	14412
863.372	13883
863.504	13986
863.636	13982
863.768	13993
863.9	14027
864.032	13986
864.164	14043
864.296	14035
864.428	14096
864.559	14142
864.691	14134
864.823	14046
864.954	13978
865.086	14081
865.217	14027
865.349	13940
865.48	14020
865.612	14111
865.743	14168
865.875	13944
866.006	13997
866.137	13970
866.269	13913
866.4	14119
866.531	13970
866.662	13890
866.793	13978
866.924	13864
867.055	14100
867.186	13959
867.317	13982
867.448	13818
867.579	13959
867.71	13883
867.841	13890
867.972	14024
868.103	13986
868.233	13947
868.364	14020
868.495	14024
868.625	14214
868.756	14298
868.886	14069
869.017	14248
869.147	14396
869.278	14286
869.408	14195
869.539	14229
869.669	14248
869.799	14290
869.929	14366
870.06	14328
870.19	14549
870.32	14530
870.45	14579
870.58	14667
870.71	14724
870.84	14705
870.97	14644
871.1	14602
871.23	14899
871.36	14849
871.489	14773
871.619	14842
871.749	14887
871.879	15001
872.008	14857
872.138	14956
872.267	14788
872.397	14674
872.526	14670
872.656	14632
872.785	14765
872.915	14872
873.044	14952
873.173	14842
873.303	14864
873.432	14876
873.561	14861
873.69	14918
873.819	14899
873.948	14963
874.077	14887
874.206	14861
874.335	14834
874.464	15081
874.593	15154
874.722	15161
874.851	15218
874.979	15264
875.108	15233
875.237	15192
875.365	15058
875.494	15150
875.623	15294
875.751	15116
875.88	15165
876.008	15344
876.136	15370
876.265	15534
876.393	15751
876.521	15770
876.65	15679
876.778	15603
876.906	15572
877.034	15591
877.162	15557
877.29	15530
877.418	15587
877.546	15606
877.674	15534
877.802	15595
877.93	15587
878.058	15564
878.185	15576
878.313	15633
878.441	15584
878.568	15473
878.696	15519
878.824	15599
878.951	15717
879.079	15785
879.206	15934
879.333	15739
879.461	15732
879.588	15660
879.715	15831
879.842	15808
879.97	15728
880.097	15500
880.224	15443
880.351	15492
880.478	15534
880.605	15340
880.732	15348
880.859	15591
880.986	15492
881.112	15454
881.239	15374
881.366	15218
881.493	15173
881.619	15051
881.746	15150
881.872	15043
881.999	15062
882.125	15100
882.252	15207
882.378	15211
882.505	15264
882.631	14979
882.757	14876
882.883	15062
883.01	14975
883.136	14864
883.262	14819
883.388	14826
883.514	14998
883.64	15039
883.766	14853
883.892	14743
884.018	14655
884.143	14929
884.269	15058
884.395	14739
884.52	14629
884.646	14701
884.772	14511
884.897	14549
885.023	14712
885.148	14720
885.274	14800
885.399	14663
885.524	14602
885.65	14758
885.775	14617
885.9	14629
886.025	14689
886.15	14701
886.275	14670
886.4	14541
886.525	14621
886.65	14571
886.775	14556
886.9	14781
887.025	14849
887.149	14621
887.274	14499
887.399	14511
887.523	14545
887.648	14442
887.773	14339
887.897	14507
888.021	14511
888.146	14434
888.27	14590
888.395	14686
888.519	14511
888.643	14560
888.767	14549
888.891	14358
889.015	14336
889.139	14495
889.263	14336
889.387	14469
889.511	14598
889.635	14396
889.759	14309
889.883	14332
890.006	14374
890.13	14514
890.254	14233
890.377	14336
890.501	14172
890.624	14069
890.748	14256
890.871	14012
890.995	14027
891.118	13967
891.241	13986
891.364	14130
891.488	14100
891.611	14077
891.734	14092
891.857	14081
891.98	14035
892.103	14126
892.226	14107
892.349	14069
892.471	13944
892.594	14103
892.717	13982
892.839	14119
892.962	14115
893.085	14134
893.207	14084
893.33	13944
893.452	13955
893.575	14088
893.697	14100
893.819	14149
893.941	14347
894.064	14252
894.186	14027
894.308	14012
894.43	14271
894.552	14267
894.674	14123
894.796	13974
894.918	14077
895.04	14077
895.161	14225
895.283	14199
895.405	14043
895.526	14183
895.648	14168
895.769	14221
895.891	14103
896.012	14221
896.134	14259
896.255	14210
896.376	14176
896.498	14161
896.619	14313
896.74	14149
896.861	14259
896.982	14564
897.103	14788
897.224	14511
897.345	14469
897.466	14339
897.587	14423
897.708	14571
897.828	14514
897.949	14514
898.07	14339
898.19	14454
898.311	14606
898.431	14564
898.552	14545
898.672	14716
898.792	14644
898.913	14636
899.033	14552
899.153	14427
899.273	14343
899.393	14415
899.513	14480
899.633	14370
899.753	14454
899.873	14450
899.993	14446
900.113	14423
900.232	14492
900.352	14389
900.472	14317
900.591	14328
900.711	14396
900.83	14282
900.95	14450
901.069	14298
901.189	14278
901.308	14081
901.427	13921
901.546	13898
901.665	14065
901.784	13898
901.904	13826
902.023	13689
902.141	13548
902.26	13624
902.379	13567
902.498	13468
902.617	13384
902.735	13556
902.854	13483
902.973	13476
903.091	13285
903.21	13194
903.328	13297
903.446	13236
903.565	13194
903.683	13141
903.801	13012
903.919	13050
904.038	13015
904.156	12764
904.274	13000
904.392	12897
904.51	12852
904.627	12909
904.745	12954
904.863	13012
904.981	12787
905.098	12559
905.216	12684
905.334	12688
905.451	12631
905.569	12506
905.686	12608
905.803	12639
905.921	12490
906.038	12547
906.155	12479
906.272	12380
906.389	12380
906.506	12216
906.623	12159
906.74	12224
906.857	12091
906.974	12125
907.091	12296
907.208	12350
907.324	12216
907.441	12030
907.557	11923
907.674	12015
907.79	11870
907.907	11946
908.023	12030
908.139	11965
908.256	11912
908.372	11927
908.488	11889
908.604	11691
908.72	11688
908.836	11661
908.952	11691
909.068	11703
909.184	11794
909.3	11642
909.415	11809
909.531	11638
909.647	11516
909.762	11448
909.878	11490
909.993	11528
910.108	11425
910.224	11444
910.339	11520
910.454	11379
910.57	11341
910.685	11376
910.8	11608
910.915	11455
911.03	11391
911.145	11208
911.259	11124
911.374	11208
911.489	11105
911.604	11094
911.718	10854
911.833	11010
911.947	10949
912.062	10725
912.176	10881
912.291	10946
912.405	10980
912.519	11185
912.633	11098
912.748	11060
912.862	10934
912.976	10828
913.09	10725
913.204	10786
913.318	10721
913.431	10858
913.545	10911
913.659	10919
913.772	10889
913.886	10839
914	10683
914.113	10835
914.226	10892
914.34	10797
914.453	10618
914.566	10767
914.68	10694
914.793	10630
914.906	10554
915.019	10443
915.132	10363
915.245	10398
915.358	10432
915.47	10424
915.583	10489
915.696	10394
915.809	10584
915.921	10580
916.034	10462
916.146	10443
916.259	10341
916.371	10443
916.483	10428
916.595	10352
916.708	10413
916.82	10462
916.932	10409
917.044	10318
917.156	10402
917.268	10211
917.38	10322
917.491	10299
917.603	10310
917.715	10341
917.826	10333
917.938	10348
918.049	10200
918.161	10246
918.272	10352
918.384	10405
918.495	10280
918.606	10173
918.717	10086
918.828	10211
918.939	10215
919.05	10078
919.161	10169
919.272	9888
919.383	10017
919.494	10238
919.604	10424
919.715	10147
919.826	10135
919.936	10234
920.047	10246
920.157	10177
920.267	10462
920.378	10196
920.488	10154
920.598	10337
920.708	10470
920.818	10436
920.928	10287
921.038	10618
921.148	10569
921.258	10268
921.368	10143
921.477	9998
921.587	10006
921.697	9998
921.806	10055
921.916	9956
922.025	9686
922.134	9732
922.244	9705
922.353	9751
922.462	9637
922.571	9564
922.68	9443
922.789	9424
922.898	9439
923.007	9462
923.116	9462
923.224	9435
923.333	9401
923.442	9260
923.55	9233
923.659	9397
923.767	9355
923.876	9302
923.984	9431
924.092	9199
924.201	9302
924.309	9291
924.417	9336
924.525	9173
924.633	9199
924.741	10185
924.849	9089
924.956	9199
925.064	9020
925.172	9013
925.279	9074
925.387	9138
925.494	9077
925.602	9199
925.709	9161
925.816	8998
925.924	9127
926.031	9184
926.138	9104
926.245	9214
926.352	9028
926.459	9127
926.566	9272
926.673	9085
926.779	8975
926.886	8876
926.993	8819
927.099	8777
927.206	8842
927.312	8746
927.419	8842
927.525	8826
927.631	8925
927.737	8769
927.843	8686
927.95	8617
928.056	8739
928.162	8750
928.267	8769
928.373	9237
928.479	8819
928.585	8537
928.69	8716
928.796	8750
928.901	8648
929.007	8488
929.112	8670
929.218	8556
929.323	8480
929.428	8495
929.533	8674
929.638	8442
929.743	8442
929.848	8549
929.953	8480
930.058	8389
930.163	8336
930.267	8324
930.372	8393
930.477	8290
930.581	8511
930.685	8351
930.79	8286
930.894	8324
930.998	8214
931.103	8396
931.207	8058
931.311	7944
931.415	7928
931.519	7723
931.623	7662
