Data from test_V78500241_3613.txt Node
Date: Fri Mar 25 14:58:52 CST 2022
User: usil
Spectrometer: V785-0024
Trigger mode: 0
Integration Time (sec): 4.000000E-1
Scans to average: 1
Nonlinearity correction enabled: false
Boxcar width: 0
Storing dark spectrum: false
XAxis mode: Wavelengths
Number of Pixels in Spectrum: 1024
>>>>>Begin Spectral Data<<<<<
801.071	21854
801.214	21690
801.356	21473
801.499	21500
801.641	21230
801.783	21249
801.926	21439
802.068	21211
802.211	21036
802.353	21001
802.496	20963
802.638	20705
802.78	20640
802.923	20651
803.065	20541
803.208	20522
803.35	20552
803.492	20670
803.635	20674
803.777	20579
803.919	20655
804.061	20937
804.204	20598
804.346	20450
804.488	20355
804.63	20636
804.773	20423
804.915	20469
805.057	20606
805.199	20556
805.341	20488
805.483	20674
805.626	20503
805.768	20427
805.91	20564
806.052	20476
806.194	20301
806.336	20617
806.478	20393
806.62	20480
806.762	20648
806.904	20785
807.046	20883
807.188	20796
807.33	20712
807.472	20796
807.614	20785
807.756	20693
807.898	20495
808.04	20564
808.182	20511
808.324	20419
808.465	20644
808.607	20720
808.749	20891
808.891	20960
809.033	21020
809.174	20853
809.316	20785
809.458	20872
809.6	20731
809.741	20960
809.883	20834
810.025	21020
810.166	20960
810.308	20914
810.45	20933
810.591	20849
810.733	20708
810.875	20727
811.016	20625
811.158	20526
811.299	20606
811.441	20667
811.582	20781
811.724	20617
811.865	20533
812.007	20617
812.148	20560
812.29	20682
812.431	20853
812.573	20868
812.714	20994
812.855	21249
812.997	21203
813.138	21519
813.279	21176
813.421	20960
813.562	21051
813.703	20811
813.845	20746
813.986	20427
814.127	20313
814.268	20138
814.41	20244
814.551	20145
814.692	20206
814.833	20027
814.974	20126
815.115	20103
815.256	20054
815.397	20058
815.539	19894
815.68	19917
815.821	19807
815.962	19970
816.103	19856
816.244	19780
816.385	19552
816.526	19594
816.666	19510
816.807	19278
816.948	19304
817.089	19316
817.23	19282
817.371	19282
817.512	19297
817.653	19244
817.793	19152
817.934	19175
818.075	19194
818.216	19232
818.356	19244
818.497	19236
818.638	18993
818.778	18867
818.919	18954
819.06	18951
819.2	19103
819.341	19065
819.481	19129
819.622	19324
819.762	19438
819.903	19354
820.043	19228
820.184	19297
820.324	19194
820.465	19381
820.605	19304
820.746	19175
820.886	19008
821.026	19244
821.167	19164
821.307	19126
821.447	19160
821.588	19019
821.728	18905
821.868	18837
822.008	18730
822.149	18540
822.289	18559
822.429	18452
822.569	18369
822.709	18384
822.849	18140
822.99	18106
823.13	18209
823.27	18072
823.41	17999
823.55	17935
823.69	17961
823.83	17980
823.97	17824
824.11	17745
824.25	17817
824.389	17661
824.529	17707
824.669	17752
824.809	17851
824.949	17729
825.089	17687
825.228	17729
825.368	17516
825.508	17474
825.648	17581
825.787	17520
825.927	17581
826.067	17532
826.206	17486
826.346	17471
826.485	17486
826.625	17467
826.765	17543
826.904	17592
827.044	17322
827.183	17250
827.323	17174
827.462	17303
827.601	17174
827.741	17261
827.88	17288
828.02	17102
828.159	17284
828.298	17227
828.437	17200
828.577	17269
828.716	17414
828.855	17151
828.994	17022
829.134	16930
829.273	17022
829.412	16892
829.551	16850
829.69	16896
829.829	17037
829.968	17060
830.107	17006
830.246	17029
830.385	16930
830.524	16877
830.663	16744
830.802	16702
830.941	16630
831.08	16641
831.219	16653
831.357	16725
831.496	16774
831.635	16729
831.774	16493
831.913	16466
832.051	16443
832.19	16493
832.329	16402
832.467	16268
832.606	16295
832.744	16303
832.883	16306
833.022	16204
833.16	16344
833.299	16348
833.437	16337
833.576	16265
833.714	16348
833.852	16459
833.991	16428
834.129	16558
834.267	16390
834.406	16386
834.544	16512
834.682	16474
834.821	16360
834.959	16615
835.097	16295
835.235	16409
835.373	16462
835.511	16394
835.65	16337
835.788	16303
835.926	16162
836.064	16200
836.202	16135
836.34	16303
836.478	16379
836.615	16230
836.753	16310
836.891	16417
837.029	16287
837.167	16306
837.305	16284
837.443	16207
837.58	16120
837.718	16268
837.856	16230
837.993	16154
838.131	16200
838.269	16097
838.406	16090
838.544	15991
838.681	15926
838.819	15915
838.956	15819
839.094	15656
839.231	15808
839.369	15876
839.506	16158
839.643	15949
839.781	15869
839.918	15732
840.055	15675
840.193	15804
840.33	15610
840.467	15717
840.604	15713
840.742	15994
840.879	15603
841.016	15660
841.153	15614
841.29	15793
841.427	15819
841.564	15800
841.701	15827
841.838	15694
841.975	15580
842.112	15584
842.249	15557
842.385	15519
842.522	15671
842.659	15622
842.796	15545
842.933	15523
843.069	15515
843.206	15504
843.343	15599
843.479	15599
843.616	15625
843.752	15279
843.889	15363
844.025	15507
844.162	15218
844.298	15401
844.435	15382
844.571	15264
844.708	15401
844.844	15473
844.98	15412
845.117	15450
845.253	15386
845.389	15142
845.525	15237
845.661	15184
845.798	15104
845.934	15135
846.07	15036
846.206	15070
846.342	15291
846.478	15112
846.614	14925
846.75	14918
846.886	14823
847.022	14868
847.158	14918
847.294	14952
847.429	14963
847.565	14857
847.701	15093
847.837	14720
847.972	14644
848.108	14785
848.244	14735
848.379	14541
848.515	14484
848.65	14484
848.786	14396
848.921	14419
849.057	14526
849.192	14598
849.328	14469
849.463	14545
849.598	14389
849.734	14396
849.869	14317
850.004	14362
850.14	14362
850.275	14233
850.41	14168
850.545	14183
850.68	14187
850.815	14271
850.95	14244
851.085	14389
851.22	14332
851.355	14240
851.49	14138
851.625	14176
851.76	14176
851.895	14138
852.03	14103
852.165	14153
852.299	14259
852.434	14355
852.569	14282
852.703	14244
852.838	14339
852.973	14419
853.107	14408
853.242	14237
853.376	14172
853.511	14039
853.645	14123
853.78	14183
853.914	14164
854.048	14035
854.183	14176
854.317	14138
854.451	14324
854.585	14035
854.72	14039
854.854	14210
854.988	14046
855.122	14016
855.256	13932
855.39	14130
855.524	14225
855.658	14210
855.792	14126
855.926	14149
856.06	14100
856.194	14191
856.327	14046
856.461	14039
856.595	14046
856.729	14145
856.862	14225
856.996	14054
857.13	14187
857.263	14244
857.397	14237
857.53	14065
857.664	14221
857.797	14172
857.931	14233
858.064	14027
858.197	14278
858.331	14142
858.464	14100
858.597	14081
858.731	14119
858.864	14115
858.997	14050
859.13	14214
859.263	14111
859.396	14218
859.529	14134
859.662	14001
859.795	14027
859.928	14115
860.061	14256
860.194	14404
860.327	14115
860.46	14084
860.592	14225
860.725	14286
860.858	14168
860.99	14043
861.123	14031
861.256	14043
861.388	14111
861.521	14948
861.653	14084
861.786	13955
861.918	13986
862.05	14043
862.183	14054
862.315	14119
862.447	14164
862.58	14259
862.712	13887
862.844	13852
862.976	14107
863.108	13951
863.24	14206
863.372	13879
863.504	13944
863.636	13913
863.768	13959
863.9	13875
864.032	13879
864.164	13849
864.296	13917
864.428	13974
864.559	14020
864.691	13959
864.823	13932
864.954	13818
865.086	13898
865.217	13906
865.349	13807
865.48	13906
865.612	13978
865.743	14039
865.875	13807
866.006	13860
866.137	13963
866.269	13860
866.4	13909
866.531	13818
866.662	13776
866.793	13879
866.924	13841
867.055	13826
867.186	13925
867.317	13860
867.448	13791
867.579	13788
867.71	13784
867.841	13784
867.972	13913
868.103	13925
868.233	13864
868.364	13776
868.495	14008
868.625	14145
868.756	14218
868.886	14073
869.017	14092
869.147	14248
869.278	14290
869.408	14187
869.539	14103
869.669	14149
869.799	14145
869.929	14263
870.06	14229
870.19	14480
870.32	14431
870.45	14488
870.58	14556
870.71	14640
870.84	14758
870.97	14514
871.1	14507
871.23	14758
871.36	14716
871.489	14610
871.619	14625
871.749	14674
871.879	14670
872.008	14861
872.138	14701
872.267	14800
872.397	14602
872.526	14610
872.656	14606
872.785	14617
872.915	14750
873.044	14830
873.173	14823
873.303	14750
873.432	14902
873.561	14842
873.69	14800
873.819	14727
873.948	14876
874.077	14838
874.206	14625
874.335	14781
874.464	15020
874.593	15154
874.722	15097
874.851	15077
874.979	15157
875.108	15154
875.237	15051
875.365	15009
875.494	15081
875.623	15291
875.751	15066
875.88	15176
876.008	15214
876.136	15298
876.265	15500
876.393	15663
876.521	15584
876.65	15591
876.778	15500
876.906	15454
877.034	15523
877.162	15538
877.29	15401
877.418	15530
877.546	15511
877.674	15595
877.802	15431
877.93	15629
878.058	15549
878.185	15420
878.313	15584
878.441	15504
878.568	15348
878.696	15466
878.824	15515
878.951	15591
879.079	15690
879.206	15880
879.333	15736
879.461	15580
879.588	15637
879.715	15717
879.842	15793
879.97	15595
880.097	15351
880.224	15313
880.351	15428
880.478	15538
880.605	15458
880.732	15348
880.859	15618
880.986	15458
881.112	15416
881.239	15260
881.366	15176
881.493	15017
881.619	14986
881.746	15074
881.872	15047
881.999	15032
882.125	15020
882.252	15097
882.378	15070
882.505	15188
882.631	14967
882.757	14899
882.883	14891
883.01	14807
883.136	14861
883.262	14769
883.388	14686
883.514	14804
883.64	14861
883.766	14819
883.892	14560
884.018	14708
884.143	14811
884.269	14925
884.395	14598
884.52	14511
884.646	14617
884.772	14499
884.897	14400
885.023	14625
885.148	14682
885.274	14750
885.399	14667
885.524	14625
885.65	14556
885.775	14621
885.9	14545
886.025	14617
886.15	14670
886.275	14461
886.4	14545
886.525	14621
886.65	14537
886.775	14465
886.9	14674
887.025	14804
887.149	14552
887.274	14377
887.399	14404
887.523	14377
887.648	14218
887.773	14298
887.897	14400
888.021	14446
888.146	14393
888.27	14503
888.395	14495
888.519	14370
888.643	14374
888.767	14480
888.891	14328
889.015	14202
889.139	14275
889.263	14313
889.387	14347
889.511	14438
889.635	14385
889.759	14202
889.883	14199
890.006	14282
890.13	14415
890.254	14206
890.377	14317
890.501	14046
890.624	14069
890.748	14111
890.871	14012
890.995	13917
891.118	13883
891.241	13970
891.364	13921
891.488	14024
891.611	14012
891.734	13913
891.857	14065
891.98	14043
892.103	14069
892.226	14058
892.349	13986
892.471	13662
892.594	13890
892.717	13902
892.839	13925
892.962	13978
893.085	14096
893.207	14039
893.33	13913
893.452	13875
893.575	14062
893.697	13868
893.819	14157
893.941	14157
894.064	14077
894.186	13993
894.308	13963
894.43	14092
894.552	14180
894.674	14107
894.796	13959
894.918	14008
895.04	14043
895.161	14157
895.283	14065
895.405	13978
895.526	14039
895.648	14077
895.769	14164
895.891	14058
896.012	14263
896.134	14138
896.255	14142
896.376	14092
896.498	14092
896.619	14218
896.74	14145
896.861	14157
896.982	14442
897.103	14667
897.224	14461
897.345	14336
897.466	14313
897.587	14408
897.708	14507
897.828	14408
897.949	14385
898.07	14313
898.19	14290
898.311	14507
898.431	14488
898.552	14442
898.672	14610
898.792	14594
898.913	14526
899.033	14415
899.153	14377
899.273	14172
899.393	14336
899.513	14282
899.633	14301
899.753	14301
899.873	14271
899.993	14362
900.113	14275
900.232	14434
900.352	14339
900.472	14278
900.591	14115
900.711	14282
900.83	14168
900.95	14259
901.069	14324
901.189	14138
901.308	13932
901.427	13898
901.546	13761
901.665	13906
901.784	13879
901.904	13818
902.023	13616
902.141	13510
902.26	13434
902.379	13548
902.498	13411
902.617	13354
902.735	13506
902.854	13460
902.973	13445
903.091	13213
903.21	13194
903.328	13187
903.446	13149
903.565	12973
903.683	13084
903.801	12951
903.919	12954
904.038	12993
904.156	12894
904.274	12993
904.392	12848
904.51	12821
904.627	12802
904.745	12901
904.863	12932
904.981	12627
905.098	12601
905.216	12570
905.334	12574
905.451	12585
905.569	12585
905.686	12616
905.803	12589
905.921	12346
906.038	12448
906.155	12429
906.272	12270
906.389	12266
906.506	12117
906.623	12152
906.74	12216
906.857	12003
906.974	12057
907.091	12289
907.208	12281
907.324	12186
907.441	12057
907.557	11965
907.674	11961
907.79	11786
907.907	11859
908.023	11977
908.139	11923
908.256	11805
908.372	11863
908.488	11786
908.604	11684
908.72	11638
908.836	11707
908.952	11573
909.068	11726
909.184	11767
909.3	11764
909.415	11718
909.531	11653
909.647	11478
909.762	11433
909.878	11444
909.993	11497
910.108	11402
910.224	11486
910.339	11353
910.454	11425
910.57	11296
910.685	11258
910.8	11482
910.915	11474
911.03	11269
911.145	11227
911.259	11208
911.374	11151
911.489	11174
911.604	11018
911.718	10915
911.833	10900
911.947	10797
912.062	10675
912.176	10930
912.291	10835
912.405	10824
912.519	11045
912.633	11109
912.748	10919
912.862	10869
912.976	10778
913.09	10725
913.204	10702
913.318	10847
913.431	10877
913.545	10942
913.659	10908
913.772	10790
913.886	10714
914	10611
914.113	10809
914.226	10869
914.34	10698
914.453	10558
914.566	10755
914.68	10603
914.793	10596
914.906	10466
915.019	10466
915.132	10325
915.245	10287
915.358	10413
915.47	10417
915.583	10462
915.696	10428
915.809	10691
915.921	10485
916.034	10402
916.146	10363
916.259	10348
916.371	10546
916.483	10470
916.595	10295
916.708	10413
916.82	10284
916.932	10299
917.044	10318
917.156	10261
917.268	10223
917.38	10291
917.491	10265
917.603	10261
917.715	10421
917.826	10348
917.938	10223
918.049	10188
918.161	10325
918.272	10409
918.384	10382
918.495	10333
918.606	10158
918.717	10010
918.828	10101
918.939	10150
919.05	10021
919.161	10120
919.272	9949
919.383	10029
919.494	10109
919.604	10352
919.715	10204
919.826	10051
919.936	10067
920.047	10173
920.157	10181
920.267	10382
920.378	10261
920.488	10086
920.598	10356
920.708	10493
920.818	10344
920.928	10219
921.038	10519
921.148	10466
921.258	10116
921.368	10169
921.477	10071
921.587	10021
921.697	9876
921.806	10074
921.916	9873
922.025	9751
922.134	9728
922.244	9629
922.353	9724
922.462	9553
922.571	9435
922.68	9420
922.789	9340
922.898	9397
923.007	9317
923.116	9367
923.224	9405
923.333	9321
923.442	9245
923.55	9279
923.659	9310
923.767	9344
923.876	9306
923.984	9306
924.092	9184
924.201	9218
924.309	9211
924.417	9237
924.525	9291
924.633	9226
924.741	9972
924.849	9017
924.956	9184
925.064	9058
925.172	8960
925.279	9009
925.387	9093
925.494	9093
925.602	9268
925.709	9211
925.816	9001
925.924	9009
926.031	9195
926.138	9055
926.245	9043
926.352	8937
926.459	9062
926.566	9150
926.673	9043
926.779	8925
926.886	8857
926.993	8830
927.099	8788
927.206	8792
927.312	8807
927.419	8826
927.525	8826
927.631	8868
927.737	8724
927.843	8697
927.95	8499
928.056	8610
928.162	8682
928.267	8686
928.373	9176
928.479	8727
928.585	8522
928.69	8674
928.796	8674
928.901	8533
929.007	8503
929.112	8560
929.218	8594
929.323	8492
929.428	8503
929.533	8640
929.638	8423
929.743	8484
929.848	8450
929.953	8423
930.058	8339
930.163	8206
930.267	8275
930.372	8408
930.477	8259
930.581	8431
930.685	8385
930.79	8244
930.894	8149
930.998	8191
931.103	8385
931.207	7989
931.311	7974
931.415	7925
931.519	7731
931.623	7700
