Data from test_V78500241_691.txt Node
Date: Fri Mar 25 14:38:31 CST 2022
User: usil
Spectrometer: V785-0024
Trigger mode: 0
Integration Time (sec): 4.000000E-1
Scans to average: 1
Nonlinearity correction enabled: false
Boxcar width: 0
Storing dark spectrum: false
XAxis mode: Wavelengths
Number of Pixels in Spectrum: 1024
>>>>>Begin Spectral Data<<<<<
801.071	28090
801.214	27884
801.356	27622
801.499	27637
801.641	27462
801.783	27488
801.926	27431
802.068	27344
802.211	27116
802.353	27131
802.496	27062
802.638	27013
802.78	26990
802.923	26948
803.065	26773
803.208	26868
803.35	27036
803.492	27104
803.635	27104
803.777	27001
803.919	27077
804.061	27485
804.204	27062
804.346	27135
804.488	27028
804.63	27180
804.773	27089
804.915	27370
805.057	27511
805.199	27374
805.341	27473
805.483	27564
805.626	27637
805.768	27663
805.91	27865
806.052	27934
806.194	27953
806.336	28421
806.478	28398
806.62	28569
806.762	28862
806.904	29273
807.046	29893
807.188	30152
807.33	30604
807.472	31175
807.614	31890
807.756	32838
807.898	33880
808.04	35459
808.182	37506
808.324	40105
808.465	43213
808.607	46675
808.749	49476
808.891	51169
809.033	51561
809.174	49727
809.316	46843
809.458	43339
809.6	39926
809.741	37004
809.883	34873
810.025	33310
810.166	32297
810.308	31392
810.45	30905
810.591	30136
810.733	29680
810.875	29322
811.016	28942
811.158	28752
811.299	28835
811.441	28584
811.582	28474
811.724	28242
811.865	27953
812.007	28021
812.148	27888
812.29	27907
812.431	28021
812.573	28082
812.714	28067
812.855	28101
812.997	28226
813.138	28348
813.279	28059
813.421	27816
813.562	27739
813.703	27755
813.845	27447
813.986	27176
814.127	26910
814.268	26796
814.41	26914
814.551	26606
814.692	26777
814.833	26606
814.974	26583
815.115	26522
815.256	26530
815.397	26438
815.539	26476
815.68	26218
815.821	26218
815.962	26252
816.103	26282
816.244	26020
816.385	25776
816.526	25822
816.666	25601
816.807	25559
816.948	25601
817.089	25655
817.23	25571
817.371	25548
817.512	25499
817.653	25552
817.793	25468
817.934	25388
818.075	25472
818.216	25483
818.356	25324
818.497	25339
818.638	25107
818.778	25228
818.919	25137
819.06	25187
819.2	25304
819.341	25282
819.481	25339
819.622	25392
819.762	25521
819.903	25540
820.043	25445
820.184	25343
820.324	25388
820.465	25388
820.605	25247
820.746	25198
820.886	25072
821.026	25221
821.167	25221
821.307	25202
821.447	25080
821.588	25038
821.728	24886
821.868	24692
822.008	24441
822.149	24559
822.289	24460
822.429	24308
822.569	24186
822.709	24251
822.849	24053
822.99	24102
823.13	23893
823.27	23927
823.41	23729
823.55	23653
823.69	23714
823.83	23752
823.97	23627
824.11	23478
824.25	23474
824.389	23611
824.529	23630
824.669	23406
824.809	23646
824.949	23573
825.089	23627
825.228	23577
825.368	23455
825.508	23273
825.648	23345
825.787	23360
825.927	23360
826.067	23288
826.206	23296
826.346	23402
826.485	23273
826.625	23414
826.765	23330
826.904	23406
827.044	23124
827.183	23121
827.323	23006
827.462	23033
827.601	23014
827.741	23071
827.88	23064
828.02	22881
828.159	22877
828.298	22976
828.437	22927
828.577	22812
828.716	23010
828.855	22869
828.994	22710
829.134	22637
829.273	22831
829.412	22500
829.551	22615
829.69	22660
829.829	22675
829.968	22691
830.107	22561
830.246	22580
830.385	22634
830.524	22550
830.663	22497
830.802	22318
830.941	22207
831.08	22204
831.219	22253
831.357	22341
831.496	22417
831.635	22147
831.774	22192
831.913	22120
832.051	22097
832.19	22101
832.329	22101
832.467	22013
832.606	22082
832.744	22044
832.883	21926
833.022	22093
833.16	22333
833.299	22421
833.437	22561
833.576	22622
833.714	22835
833.852	22995
833.991	23117
834.129	23227
834.267	23239
834.406	23250
834.544	23166
834.682	23075
834.821	22889
834.959	22915
835.097	22557
835.235	22592
835.373	22352
835.511	22268
835.65	22173
835.788	22063
835.926	21956
836.064	21747
836.202	21720
836.34	21941
836.478	21804
836.615	21808
836.753	21816
836.891	21835
837.029	21808
837.167	21663
837.305	21576
837.443	21778
837.58	21439
837.718	21595
837.856	21599
837.993	21351
838.131	21504
838.269	21397
838.406	21443
838.544	21329
838.681	21150
838.819	21199
838.956	21024
839.094	21089
839.231	21009
839.369	21211
839.506	21340
839.643	21157
839.781	20994
839.918	20937
840.055	20948
840.193	20952
840.33	20826
840.467	20982
840.604	20975
840.742	21184
840.879	20682
841.016	20868
841.153	20834
841.29	21009
841.427	20876
841.564	20804
841.701	20933
841.838	20800
841.975	20765
842.112	20864
842.249	20712
842.385	20682
842.522	20986
842.659	20754
842.796	20788
842.933	20739
843.069	20804
843.206	20670
843.343	20811
843.479	20842
843.616	20918
843.752	20632
843.889	20739
844.025	20880
844.162	20979
844.298	21085
844.435	21089
844.571	21329
844.708	21591
844.844	21991
844.98	22577
845.117	23280
845.253	23946
845.389	26180
845.525	29760
845.661	35764
845.798	42722
845.934	47897
846.07	49898
846.206	48308
846.342	43403
846.478	36414
846.614	30467
846.75	26659
846.886	24285
847.022	22991
847.158	22154
847.294	21329
847.429	21195
847.565	20701
847.701	20838
847.837	20355
847.972	20199
848.108	20206
848.244	20263
848.379	19864
848.515	19769
848.65	19772
848.786	19734
848.921	19750
849.057	19822
849.192	19822
849.328	19750
849.463	19594
849.598	19552
849.734	19403
849.869	19430
850.004	19381
850.14	19343
850.275	19365
850.41	19346
850.545	19221
850.68	19346
850.815	19240
850.95	19278
851.085	19449
851.22	19282
851.355	19350
851.49	19274
851.625	19335
851.76	19255
851.895	19236
852.03	19091
852.165	19373
852.299	19457
852.434	19476
852.569	19445
852.703	19384
852.838	19396
852.973	19540
853.107	19453
853.242	19327
853.376	19278
853.511	19240
853.645	19350
853.78	19537
853.914	19499
854.048	19487
854.183	19575
854.317	19597
854.451	19628
854.585	19563
854.72	19537
854.854	19548
854.988	19422
855.122	19415
855.256	19251
855.39	19449
855.524	19293
855.658	19324
855.792	19308
855.926	19240
856.06	19289
856.194	19301
856.327	19251
856.461	19072
856.595	19129
856.729	19198
856.862	19236
856.996	19194
857.13	19160
857.263	19152
857.397	19251
857.53	19133
857.664	19209
857.797	19168
857.931	19069
858.064	19038
858.197	19164
858.331	18996
858.464	18993
858.597	18890
858.731	18939
858.864	19080
858.997	18913
859.13	18977
859.263	18993
859.396	19202
859.529	18954
859.662	18920
859.795	18897
859.928	19019
860.061	19015
860.194	19042
860.327	18920
860.46	19034
860.592	19004
860.725	18996
860.858	18970
860.99	18928
861.123	18825
861.256	18905
861.388	18924
861.521	19689
861.653	18798
861.786	18772
861.918	18806
862.05	18905
862.183	18863
862.315	18973
862.447	18966
862.58	18852
862.712	18745
862.844	18597
862.976	18741
863.108	18722
863.24	18935
863.372	18555
863.504	18566
863.636	18669
863.768	18711
863.9	18566
864.032	18574
864.164	18604
864.296	18711
864.428	18639
864.559	18620
864.691	18623
864.823	18642
864.954	18589
865.086	18608
865.217	18498
865.349	18540
865.48	18684
865.612	18528
865.743	18688
865.875	18578
866.006	18544
866.137	18486
866.269	18521
866.4	18536
866.531	18475
866.662	18422
866.793	18498
866.924	18517
867.055	18623
867.186	18494
867.317	18513
867.448	18452
867.579	18490
867.71	18429
867.841	18479
867.972	18544
868.103	18506
868.233	18467
868.364	18486
868.495	18486
868.625	18741
868.756	18837
868.886	18616
869.017	18700
869.147	18924
869.278	18989
869.408	18829
869.539	18688
869.669	18779
869.799	18821
869.929	18814
870.06	18875
870.19	19110
870.32	19122
870.45	19107
870.58	19358
870.71	19255
870.84	19377
870.97	19171
871.1	19133
871.23	19373
871.36	19457
871.489	19350
871.619	19369
871.749	19407
871.879	19499
872.008	19529
872.138	19651
872.267	19495
872.397	19282
872.526	19331
872.656	19350
872.785	19426
872.915	19666
873.044	19712
873.173	19795
873.303	19723
873.432	19757
873.561	19670
873.69	19875
873.819	19811
873.948	19818
874.077	19955
874.206	19868
874.335	19833
874.464	20001
874.593	20206
874.722	20153
874.851	20278
874.979	20225
875.108	20358
875.237	20298
875.365	20343
875.494	20355
875.623	20492
875.751	20511
875.88	20651
876.008	20663
876.136	20746
876.265	21085
876.393	21252
876.521	21188
876.65	21355
876.778	21336
876.906	21283
877.034	21336
877.162	21439
877.29	21519
877.418	21572
877.546	21629
877.674	21766
877.802	21972
877.93	22109
878.058	22086
878.185	22207
878.313	22713
878.441	23113
878.568	23246
878.696	23977
878.824	24791
878.951	25951
879.079	27633
879.206	29691
879.333	31658
879.461	33302
879.588	34634
879.715	34546
879.842	33663
879.97	31719
880.097	29710
880.224	27975
880.351	26689
880.478	25750
880.605	25171
880.732	24844
880.859	24817
880.986	24471
881.112	24395
881.239	24205
881.366	24106
881.493	23935
881.619	23832
881.746	23942
881.872	23939
881.999	23958
882.125	23863
882.252	24144
882.378	24178
882.505	24239
882.631	24087
882.757	24026
882.883	24133
883.01	24003
883.136	23836
883.262	23805
883.388	23764
883.514	23893
883.64	23931
883.766	23752
883.892	23668
884.018	23687
884.143	23642
884.269	23916
884.395	23630
884.52	23535
884.646	23493
884.772	23535
884.897	23684
885.023	23714
885.148	23642
885.274	23764
885.399	23592
885.524	23356
885.65	23315
885.775	23193
885.9	22976
886.025	23060
886.15	22733
886.275	22660
886.4	22348
886.525	22215
886.65	22109
886.775	22021
886.9	21937
887.025	21975
887.149	21736
887.274	21435
887.399	21344
887.523	21256
887.648	21093
887.773	20918
887.897	21036
888.021	20899
888.146	20754
888.27	20868
888.395	20838
888.519	20735
888.643	20667
888.767	20609
888.891	20457
889.015	20385
889.139	20442
889.263	20225
889.387	20320
889.511	20461
889.635	20271
889.759	20126
889.883	20020
890.006	20062
890.13	20176
890.254	19913
890.377	19795
890.501	19693
890.624	19753
890.748	19670
890.871	19643
890.995	19426
891.118	19422
891.241	19480
891.364	19384
891.488	19324
891.611	19358
891.734	19278
891.857	19278
891.98	19198
892.103	19266
892.226	19118
892.349	19103
892.471	19019
892.594	18962
892.717	18989
892.839	18817
892.962	19023
893.085	18996
893.207	18856
893.33	18688
893.452	18768
893.575	18856
893.697	18715
893.819	18863
893.941	18901
894.064	18734
894.186	18684
894.308	18563
894.43	18817
894.552	18776
894.674	18715
894.796	18490
894.918	18582
895.04	18467
895.161	18597
895.283	18555
895.405	18445
895.526	18437
895.648	18475
895.769	18452
895.891	18509
896.012	18601
896.134	18418
896.255	18460
896.376	18384
896.498	18330
896.619	18388
896.74	18441
896.861	18475
896.982	18703
897.103	18833
897.224	18700
897.345	18597
897.466	18578
897.587	18532
897.708	18604
897.828	18566
897.949	18513
898.07	18498
898.19	18566
898.311	18601
898.431	18502
898.552	18521
898.672	18631
898.792	18722
898.913	18601
899.033	18407
899.153	18456
899.273	18258
899.393	18239
899.513	18308
899.633	18311
899.753	18376
899.873	18353
899.993	18292
900.113	18323
900.232	18228
900.352	18300
900.472	18262
900.591	18106
900.711	18114
900.83	17954
900.95	18273
901.069	18251
901.189	17984
901.308	17710
901.427	17729
901.546	17726
901.665	17767
901.784	17722
901.904	17417
902.023	17360
902.141	17273
902.26	17258
902.379	17254
902.498	17117
902.617	17117
902.735	17124
902.854	17018
902.973	16942
903.091	16858
903.21	16782
903.328	16816
903.446	16713
903.565	16596
903.683	16561
903.801	16523
903.919	16470
904.038	16478
904.156	16322
904.274	16390
904.392	16272
904.51	16352
904.627	16341
904.745	16284
904.863	16303
904.981	15983
905.098	15994
905.216	15991
905.334	16029
905.451	15915
905.569	15934
905.686	15987
905.803	15964
905.921	15812
906.038	15861
906.155	15755
906.272	15584
906.389	15641
906.506	15466
906.623	15466
906.74	15397
906.857	15302
906.974	15405
907.091	15481
907.208	15545
907.324	15374
907.441	15310
907.557	15188
907.674	15176
907.79	15100
907.907	15157
908.023	15184
908.139	15112
908.256	14990
908.372	15081
908.488	14948
908.604	14918
908.72	14944
908.836	14956
908.952	14785
909.068	14880
909.184	14925
909.3	14872
909.415	14864
909.531	14826
909.647	14651
909.762	14625
909.878	14545
909.993	14640
910.108	14560
910.224	14552
910.339	14564
910.454	14564
910.57	14499
910.685	14412
910.8	14613
910.915	14549
911.03	14415
911.145	14195
911.259	14107
911.374	14214
911.489	14130
911.604	14142
911.718	13986
911.833	13928
911.947	13898
912.062	13780
912.176	13978
912.291	13890
912.405	13947
912.519	14157
912.633	14142
912.748	13951
912.862	13944
912.976	13780
913.09	13628
913.204	13811
913.318	13864
913.431	13898
913.545	13845
913.659	13940
913.772	13742
913.886	13613
914	13537
914.113	13826
914.226	13712
914.34	13696
914.453	13525
914.566	13662
914.68	13586
914.793	13521
914.906	13422
915.019	13320
915.132	13270
915.245	13331
915.358	13373
915.47	13346
915.583	13407
915.696	13308
915.809	13487
915.921	13506
916.034	13407
916.146	13160
916.259	13304
916.371	13392
916.483	13403
916.595	13312
916.708	13289
916.82	13316
916.932	13293
917.044	13251
917.156	13152
917.268	13088
917.38	13171
917.491	13114
917.603	13240
917.715	13137
917.826	13156
917.938	12932
918.049	12916
918.161	12935
918.272	13084
918.384	13076
918.495	13027
918.606	12909
918.717	12738
918.828	12833
918.939	12837
919.05	12715
919.161	12776
919.272	12494
919.383	12642
919.494	12730
919.604	12966
919.715	12806
919.826	12623
919.936	12730
920.047	12844
920.157	12791
920.267	13088
920.378	12715
920.488	12772
920.598	12897
920.708	13076
920.818	12897
920.928	12954
921.038	13175
921.148	13091
921.258	12741
921.368	12612
921.477	12498
921.587	12502
921.697	12350
921.806	12551
921.916	12429
922.025	12277
922.134	12232
922.244	12133
922.353	12194
922.462	12019
922.571	11988
922.68	11889
922.789	11843
922.898	11908
923.007	11847
923.116	11832
923.224	11817
923.333	11836
923.442	11680
923.55	11653
923.659	11764
923.767	11745
923.876	11630
923.984	11779
924.092	11600
924.201	11657
924.309	11573
924.417	11684
924.525	11490
924.633	11592
924.741	12395
924.849	11455
924.956	11558
925.064	11345
925.172	11246
925.279	11311
925.387	11315
925.494	11368
925.602	11505
925.709	11490
925.816	11273
925.924	11334
926.031	11387
926.138	11261
926.245	11280
926.352	11326
926.459	11452
926.566	11379
926.673	11246
926.779	11254
926.886	11159
926.993	11033
927.099	10987
927.206	10984
927.312	10991
927.419	11014
927.525	10968
927.631	10976
927.737	10896
927.843	10820
927.95	10740
928.056	10778
928.162	10885
928.267	10927
928.373	11421
928.479	10938
928.585	10744
928.69	10835
928.796	10881
928.901	10736
929.007	10584
929.112	10831
929.218	10793
929.323	10637
929.428	10675
929.533	10816
929.638	10634
929.743	10683
929.848	10702
929.953	10554
930.058	10558
930.163	10306
930.267	10455
930.372	10500
930.477	10341
930.581	10538
930.685	10470
930.79	10219
930.894	10246
930.998	10230
931.103	10409
931.207	10078
931.311	9956
931.415	9930
931.519	9679
931.623	9663
