Data from test_V78500241_2298.txt Node
Date: Fri Mar 25 14:49:42 CST 2022
User: usil
Spectrometer: V785-0024
Trigger mode: 0
Integration Time (sec): 4.000000E-1
Scans to average: 1
Nonlinearity correction enabled: false
Boxcar width: 0
Storing dark spectrum: false
XAxis mode: Wavelengths
Number of Pixels in Spectrum: 1024
>>>>>Begin Spectral Data<<<<<
801.071	22196
801.214	21987
801.356	21888
801.499	21739
801.641	21694
801.783	21542
801.926	21458
802.068	21454
802.211	21599
802.353	21302
802.496	21150
802.638	21062
802.78	21039
802.923	21028
803.065	20830
803.208	20864
803.35	20918
803.492	20902
803.635	20921
803.777	20785
803.919	20986
804.061	21211
804.204	20994
804.346	20746
804.488	20727
804.63	20845
804.773	20765
804.915	20834
805.057	20914
805.199	20773
805.341	20842
805.483	20792
805.626	20880
805.768	20697
805.91	20800
806.052	20845
806.194	20693
806.336	20864
806.478	20796
806.62	20815
806.762	20823
806.904	21089
807.046	21279
807.188	21100
807.33	21032
807.472	21203
807.614	21081
807.756	21138
807.898	20921
808.04	20925
808.182	20811
808.324	21032
808.465	20902
808.607	20986
808.749	21119
808.891	21260
809.033	21370
809.174	21256
809.316	21298
809.458	21192
809.6	21154
809.741	21180
809.883	21161
810.025	21412
810.166	21203
810.308	21405
810.45	21332
810.591	21176
810.733	21085
810.875	21081
811.016	20906
811.158	20933
811.299	20998
811.441	21173
811.582	21081
811.724	20929
811.865	20971
812.007	21009
812.148	20864
812.29	21055
812.431	21100
812.573	21249
812.714	21431
812.855	21405
812.997	21519
813.138	21690
813.279	21705
813.421	21469
813.562	21431
813.703	21218
813.845	21036
813.986	20830
814.127	20651
814.268	20617
814.41	20507
814.551	20518
814.692	20644
814.833	20499
814.974	20492
815.115	20404
815.256	20419
815.397	20290
815.539	20351
815.68	20237
815.821	20271
815.962	20336
816.103	20157
816.244	20142
816.385	19993
816.526	20046
816.666	19871
816.807	19586
816.948	19681
817.089	19757
817.23	19772
817.371	19533
817.512	19616
817.653	19582
817.793	19597
817.934	19628
818.075	19590
818.216	19651
818.356	19575
818.497	19362
818.638	19285
818.778	19430
818.919	19324
819.06	19285
819.2	19445
819.341	19499
819.481	19540
819.622	19616
819.762	19868
819.903	19700
820.043	19597
820.184	19632
820.324	19609
820.465	19635
820.605	19533
820.746	19677
820.886	19445
821.026	19597
821.167	19468
821.307	19563
821.447	19632
821.588	19392
821.728	19415
821.868	19141
822.008	19008
822.149	19122
822.289	19126
822.429	18867
822.569	18730
822.709	18734
822.849	18426
822.99	18486
823.13	18490
823.27	18479
823.41	18304
823.55	18258
823.69	18174
823.83	18266
823.97	18228
824.11	18106
824.25	18152
824.389	18064
824.529	18216
824.669	18015
824.809	18057
824.949	18148
825.089	18064
825.228	18102
825.368	17920
825.508	17897
825.648	17920
825.787	17901
825.927	17874
826.067	17779
826.206	17843
826.346	17859
826.485	17893
826.625	17726
826.765	17939
826.904	17794
827.044	17623
827.183	17608
827.323	17630
827.462	17608
827.601	17581
827.741	17459
827.88	17585
828.02	17429
828.159	17471
828.298	17512
828.437	17505
828.577	17497
828.716	17722
828.855	17501
828.994	17299
829.134	17318
829.273	17395
829.412	17212
829.551	17200
829.69	17231
829.829	17315
829.968	17254
830.107	17311
830.246	17254
830.385	17132
830.524	17204
830.663	17170
830.802	16904
830.941	16820
831.08	16900
831.219	16953
831.357	16934
831.496	17193
831.635	16797
831.774	16774
831.913	16797
832.051	16599
832.19	16592
832.329	16740
832.467	16599
832.606	16565
832.744	16596
832.883	16573
833.022	16542
833.16	16634
833.299	16603
833.437	16615
833.576	16565
833.714	16561
833.852	16626
833.991	16778
834.129	16630
834.267	16679
834.406	16531
834.544	16641
834.682	16675
834.821	16660
834.959	16797
835.097	16569
835.235	16645
835.373	16519
835.511	16626
835.65	16542
835.788	16634
835.926	16459
836.064	16310
836.202	16322
836.34	16558
836.478	16584
836.615	16523
836.753	16519
836.891	16527
837.029	16565
837.167	16504
837.305	16367
837.443	16428
837.58	16329
837.718	16478
837.856	16432
837.993	16325
838.131	16386
838.269	16314
838.406	16337
838.544	16242
838.681	16071
838.819	16071
838.956	15983
839.094	15987
839.231	15945
839.369	16055
839.506	16360
839.643	16082
839.781	15945
839.918	15789
840.055	15899
840.193	15922
840.33	15892
840.467	15941
840.604	15915
840.742	16238
840.879	15827
841.016	15686
841.153	15793
841.29	16025
841.427	15975
841.564	15953
841.701	15979
841.838	15823
841.975	15759
842.112	15812
842.249	15679
842.385	15671
842.522	15857
842.659	15759
842.796	15625
842.933	15690
843.069	15648
843.206	15694
843.343	15759
843.479	15857
843.616	15599
843.752	15584
843.889	15538
844.025	15637
844.162	15416
844.298	15549
844.435	15462
844.571	15473
844.708	15507
844.844	15682
844.98	15587
845.117	15591
845.253	15408
845.389	15363
845.525	15397
845.661	15405
845.798	15291
845.934	15370
846.07	15264
846.206	15329
846.342	15393
846.478	15249
846.614	15104
846.75	15043
846.886	15039
847.022	15108
847.158	15066
847.294	15093
847.429	15017
847.565	15055
847.701	15230
847.837	14746
847.972	14739
848.108	14819
848.244	14830
848.379	14712
848.515	14678
848.65	14659
848.786	14610
848.921	14663
849.057	14693
849.192	14758
849.328	14705
849.463	14678
849.598	14659
849.734	14549
849.869	14552
850.004	14400
850.14	14564
850.275	14385
850.41	14328
850.545	14351
850.68	14313
850.815	14324
850.95	14374
851.085	14564
851.22	14511
851.355	14374
851.49	14427
851.625	14389
851.76	14339
851.895	14351
852.03	14202
852.165	14454
852.299	14385
852.434	14351
852.569	14408
852.703	14377
852.838	14473
852.973	14564
853.107	14560
853.242	14351
853.376	14317
853.511	14157
853.645	14294
853.78	14393
853.914	14351
854.048	14218
854.183	14366
854.317	14377
854.451	14438
854.585	14286
854.72	14252
854.854	14286
854.988	14149
855.122	14305
855.256	14046
855.39	14256
855.524	14362
855.658	14358
855.792	14374
855.926	14347
856.06	14320
856.194	14313
856.327	14214
856.461	14206
856.595	14142
856.729	14210
856.862	14313
856.996	14374
857.13	14324
857.263	14412
857.397	14366
857.53	14351
857.664	14328
857.797	14454
857.931	14461
858.064	14374
858.197	14317
858.331	14248
858.464	14195
858.597	14138
858.731	14240
858.864	14233
858.997	14263
859.13	14233
859.263	14259
859.396	14313
859.529	14233
859.662	14271
859.795	14267
859.928	14244
860.061	14396
860.194	14442
860.327	14317
860.46	14259
860.592	14393
860.725	14415
860.858	14389
860.99	14294
861.123	14172
861.256	14313
861.388	14229
861.521	14887
861.653	14161
861.786	14107
861.918	14123
862.05	14187
862.183	14210
862.315	14225
862.447	14309
862.58	14195
862.712	14027
862.844	13989
862.976	14107
863.108	14096
863.24	14320
863.372	13951
863.504	13997
863.636	14103
863.768	14130
863.9	13974
864.032	14073
864.164	14046
864.296	14138
864.428	14191
864.559	14153
864.691	14206
864.823	14096
864.954	14077
865.086	14073
865.217	14100
865.349	14031
865.48	14069
865.612	14077
865.743	14271
865.875	14050
866.006	14031
866.137	14016
866.269	14046
866.4	14050
866.531	13993
866.662	13936
866.793	13967
866.924	13970
867.055	14008
867.186	14142
867.317	13940
867.448	13982
867.579	14054
867.71	13902
867.841	13852
867.972	13982
868.103	14039
868.233	14062
868.364	14092
868.495	14092
868.625	14248
868.756	14347
868.886	14161
869.017	14248
869.147	14488
869.278	14396
869.408	14336
869.539	14237
869.669	14442
869.799	14400
869.929	14385
870.06	14389
870.19	14644
870.32	14552
870.45	14663
870.58	14689
870.71	14765
870.84	14773
870.97	14682
871.1	14731
871.23	14800
871.36	14864
871.489	14743
871.619	14872
871.749	14876
871.879	14960
872.008	15097
872.138	14891
872.267	14864
872.397	14800
872.526	14705
872.656	14686
872.785	14697
872.915	14864
873.044	15001
873.173	14956
873.303	15009
873.432	14975
873.561	15085
873.69	15013
873.819	14971
873.948	15077
874.077	15024
874.206	14971
874.335	14929
874.464	15047
874.593	15298
874.722	15104
874.851	15203
874.979	15157
875.108	15260
875.237	15268
875.365	15207
875.494	15218
875.623	15294
875.751	15192
875.88	15252
876.008	15401
876.136	15507
876.265	15595
876.393	15789
876.521	15720
876.65	15667
876.778	15705
876.906	15648
877.034	15671
877.162	15698
877.29	15542
877.418	15648
877.546	15671
877.674	15698
877.802	15682
877.93	15610
878.058	15629
878.185	15584
878.313	15682
878.441	15690
878.568	15439
878.696	15545
878.824	15633
878.951	15747
879.079	15869
879.206	15926
879.333	15960
879.461	15762
879.588	15800
879.715	15831
879.842	15991
879.97	15682
880.097	15557
880.224	15450
880.351	15553
880.478	15530
880.605	15382
880.732	15549
880.859	15724
880.986	15625
881.112	15595
881.239	15340
881.366	15298
881.493	15306
881.619	15161
881.746	15142
881.872	15157
881.999	15138
882.125	15192
882.252	15131
882.378	15154
882.505	15367
882.631	15176
882.757	14937
882.883	15013
883.01	14975
883.136	14872
883.262	14876
883.388	14857
883.514	15017
883.64	15017
883.766	14891
883.892	14731
884.018	14682
884.143	14986
884.269	15127
884.395	14689
884.52	14735
884.646	14651
884.772	14598
884.897	14640
885.023	14720
885.148	14762
885.274	14804
885.399	14849
885.524	14689
885.65	14663
885.775	14689
885.9	14697
886.025	14769
886.15	14754
886.275	14724
886.4	14526
886.525	14651
886.65	14651
886.775	14598
886.9	14773
887.025	14948
887.149	14712
887.274	14526
887.399	14343
887.523	14568
887.648	14438
887.773	14465
887.897	14590
888.021	14511
888.146	14488
888.27	14636
888.395	14587
888.519	14583
888.643	14579
888.767	14522
888.891	14419
889.015	14355
889.139	14415
889.263	14267
889.387	14476
889.511	14564
889.635	14514
889.759	14400
889.883	14328
890.006	14499
890.13	14503
890.254	14434
890.377	14473
890.501	14214
890.624	14191
890.748	14248
890.871	14123
890.995	14111
891.118	13944
891.241	14031
891.364	14035
891.488	14252
891.611	14081
891.734	14084
891.857	14138
891.98	14024
892.103	14191
892.226	14107
892.349	14073
892.471	13993
892.594	14088
892.717	14084
892.839	14092
892.962	14164
893.085	14043
893.207	14084
893.33	13993
893.452	14100
893.575	14134
893.697	14111
893.819	14218
893.941	14275
894.064	14187
894.186	14054
894.308	13974
894.43	14229
894.552	14244
894.674	14309
894.796	14062
894.918	14115
895.04	14161
895.161	14313
895.283	14176
895.405	14183
895.526	14191
895.648	14134
895.769	14157
895.891	14248
896.012	14324
896.134	14412
896.255	14218
896.376	14278
896.498	14172
896.619	14370
896.74	14317
896.861	14320
896.982	14640
897.103	14750
897.224	14476
897.345	14541
897.466	14469
897.587	14568
897.708	14667
897.828	14427
897.949	14473
898.07	14339
898.19	14556
898.311	14598
898.431	14625
898.552	14556
898.672	14587
898.792	14651
898.913	14712
899.033	14526
899.153	14518
899.273	14431
899.393	14469
899.513	14511
899.633	14446
899.753	14469
899.873	14480
899.993	14465
900.113	14434
900.232	14556
900.352	14393
900.472	14408
900.591	14347
900.711	14370
900.83	14320
900.95	14328
901.069	14469
901.189	14324
901.308	14020
901.427	14084
901.546	13955
901.665	14016
901.784	14031
901.904	13951
902.023	13814
902.141	13632
902.26	13552
902.379	13662
902.498	13548
902.617	13540
902.735	13636
902.854	13624
902.973	13544
903.091	13289
903.21	13301
903.328	13301
903.446	13278
903.565	13240
903.683	13274
903.801	13137
903.919	13160
904.038	13145
904.156	12970
904.274	13057
904.392	12954
904.51	12924
904.627	12981
904.745	12901
904.863	13034
904.981	12768
905.098	12722
905.216	12692
905.334	12757
905.451	12650
905.569	12642
905.686	12692
905.803	12646
905.921	12391
906.038	12601
906.155	12513
906.272	12376
906.389	12399
906.506	12213
906.623	12277
906.74	12323
906.857	12159
906.974	12083
907.091	12277
907.208	12414
907.324	12357
907.441	12152
907.557	12015
907.674	11927
907.79	11939
907.907	11939
908.023	12026
908.139	12003
908.256	11935
908.372	11916
908.488	11851
908.604	11809
908.72	11596
908.836	11710
908.952	11760
909.068	11672
909.184	11794
909.3	11718
909.415	11847
909.531	11756
909.647	11532
909.762	11452
909.878	11490
909.993	11562
910.108	11425
910.224	11490
910.339	11505
910.454	11368
910.57	11356
910.685	11326
910.8	11608
910.915	11505
911.03	11448
911.145	11250
911.259	11231
911.374	11204
911.489	11147
911.604	11090
911.718	10923
911.833	11109
911.947	10896
912.062	10908
912.176	10946
912.291	10934
912.405	10980
912.519	11067
912.633	11201
912.748	11060
912.862	10915
912.976	10850
913.09	10748
913.204	10843
913.318	10835
913.431	10961
913.545	10934
913.659	10930
913.772	10881
913.886	10736
914	10698
914.113	10854
914.226	10892
914.34	10801
914.453	10675
914.566	10778
914.68	10641
914.793	10668
914.906	10527
915.019	10443
915.132	10402
915.245	10428
915.358	10615
915.47	10500
915.583	10618
915.696	10573
915.809	10584
915.921	10569
916.034	10379
916.146	10489
916.259	10398
916.371	10561
916.483	10535
916.595	10409
916.708	10386
916.82	10394
916.932	10478
917.044	10462
917.156	10485
917.268	10227
917.38	10306
917.491	10341
917.603	10348
917.715	10379
917.826	10379
917.938	10295
918.049	10207
918.161	10299
918.272	10447
918.384	10447
918.495	10333
918.606	10238
918.717	10101
918.828	10234
918.939	10223
919.05	10078
919.161	10147
919.272	9983
919.383	10124
919.494	10333
919.604	10352
919.715	10147
919.826	10169
919.936	10139
920.047	10291
920.157	10261
920.267	10375
920.378	10265
920.488	10185
920.598	10390
920.708	10599
920.818	10462
920.928	10470
921.038	10637
921.148	10565
921.258	10291
921.368	10128
921.477	10067
921.587	10112
921.697	9945
921.806	10173
921.916	9922
922.025	9732
922.134	9846
922.244	9808
922.353	9808
922.462	9618
922.571	9561
922.68	9431
922.789	9397
922.898	9568
923.007	9412
923.116	9538
923.224	9420
923.333	9492
923.442	9279
923.55	9317
923.659	9321
923.767	9435
923.876	9310
923.984	9370
924.092	9321
924.201	9272
924.309	9348
924.417	9374
924.525	9226
924.633	9313
924.741	10192
924.849	9146
924.956	9329
925.064	9123
925.172	8971
925.279	9119
925.387	9135
925.494	9077
925.602	9264
925.709	9230
925.816	9043
925.924	9066
926.031	9184
926.138	9097
926.245	9142
926.352	9017
926.459	9195
926.566	9180
926.673	9119
926.779	8960
926.886	8914
926.993	8918
927.099	8857
927.206	8807
927.312	8766
927.419	8861
927.525	8853
927.631	8880
927.737	8701
927.843	8731
927.95	8590
928.056	8678
928.162	8712
928.267	8834
928.373	9412
928.479	8868
928.585	8590
928.69	8701
928.796	8754
928.901	8636
929.007	8488
929.112	8697
929.218	8632
929.323	8640
929.428	8492
929.533	8746
929.638	8454
929.743	8526
929.848	8541
929.953	8556
930.058	8400
930.163	8301
930.267	8301
930.372	8507
930.477	8320
930.581	8560
930.685	8347
930.79	8324
930.894	8290
930.998	8202
931.103	8393
931.207	8062
931.311	7955
931.415	8058
931.519	7723
931.623	7830
