Data from test_V78500241_2677.txt Node
Date: Fri Mar 25 14:52:21 CST 2022
User: usil
Spectrometer: V785-0024
Trigger mode: 0
Integration Time (sec): 4.000000E-1
Scans to average: 1
Nonlinearity correction enabled: false
Boxcar width: 0
Storing dark spectrum: false
XAxis mode: Wavelengths
Number of Pixels in Spectrum: 1024
>>>>>Begin Spectral Data<<<<<
801.071	22044
801.214	21850
801.356	21724
801.499	21462
801.641	21359
801.783	21283
801.926	21363
802.068	21291
802.211	21321
802.353	21169
802.496	20941
802.638	20994
802.78	20823
802.923	20788
803.065	20769
803.208	20659
803.35	20746
803.492	20739
803.635	20830
803.777	20579
803.919	20811
804.061	21001
804.204	20758
804.346	20511
804.488	20579
804.63	20590
804.773	20507
804.915	20602
805.057	20655
805.199	20545
805.341	20693
805.483	20648
805.626	20640
805.768	20465
805.91	20571
806.052	20625
806.194	20499
806.336	20651
806.478	20549
806.62	20552
806.762	20640
806.904	20750
807.046	20902
807.188	20887
807.33	20982
807.472	20979
807.614	20735
807.756	20735
807.898	20632
808.04	20785
808.182	20598
808.324	20769
808.465	20720
808.607	20952
808.749	20899
808.891	21154
809.033	21005
809.174	20963
809.316	20944
809.458	21047
809.6	20883
809.741	21028
809.883	20895
810.025	21161
810.166	21116
810.308	21043
810.45	21036
810.591	21074
810.733	20914
810.875	20731
811.016	20655
811.158	20648
811.299	20762
811.441	20834
811.582	20921
811.724	20800
811.865	20659
812.007	20739
812.148	20739
812.29	20689
812.431	20963
812.573	20998
812.714	21104
812.855	21245
812.997	21325
813.138	21496
813.279	21222
813.421	21340
813.562	21077
813.703	20963
813.845	20765
813.986	20659
814.127	20476
814.268	20423
814.41	20385
814.551	20396
814.692	20427
814.833	20180
814.974	20263
815.115	20240
815.256	20142
815.397	20221
815.539	20183
815.68	20050
815.821	20012
815.962	19997
816.103	20035
816.244	19769
816.385	19693
816.526	19738
816.666	19571
816.807	19460
816.948	19514
817.089	19510
817.23	19491
817.371	19426
817.512	19377
817.653	19392
817.793	19438
817.934	19331
818.075	19476
818.216	19259
818.356	19312
818.497	19221
818.638	19088
818.778	18977
818.919	19088
819.06	19148
819.2	19301
819.341	19327
819.481	19369
819.622	19396
819.762	19597
819.903	19559
820.043	19430
820.184	19411
820.324	19396
820.465	19441
820.605	19445
820.746	19441
820.886	19122
821.026	19316
821.167	19411
821.307	19365
821.447	19327
821.588	19183
821.728	18985
821.868	18966
822.008	18817
822.149	18810
822.289	18726
822.429	18483
822.569	18547
822.709	18353
822.849	18281
822.99	18296
823.13	18372
823.27	18235
823.41	18129
823.55	17939
823.69	18186
823.83	18019
823.97	18136
824.11	17882
824.25	17855
824.389	17954
824.529	17878
824.669	17779
824.809	17885
824.949	18030
825.089	17912
825.228	17847
825.368	17691
825.508	17600
825.648	17707
825.787	17676
825.927	17687
826.067	17627
826.206	17600
826.346	17615
826.485	17661
826.625	17589
826.765	17832
826.904	17627
827.044	17299
827.183	17395
827.323	17311
827.462	17337
827.601	17353
827.741	17280
827.88	17349
828.02	17159
828.159	17330
828.298	17414
828.437	17444
828.577	17478
828.716	17566
828.855	17341
828.994	17071
829.134	17151
829.273	17155
829.412	17094
829.551	17037
829.69	17079
829.829	17181
829.968	17159
830.107	17147
830.246	17109
830.385	17006
830.524	17094
830.663	16961
830.802	16873
830.941	16668
831.08	16637
831.219	16786
831.357	16877
831.496	16968
831.635	16721
831.774	16645
831.913	16599
832.051	16538
832.19	16584
832.329	16630
832.467	16413
832.606	16367
832.744	16451
832.883	16481
833.022	16481
833.16	16413
833.299	16504
833.437	16455
833.576	16527
833.714	16440
833.852	16519
833.991	16542
834.129	16649
834.267	16493
834.406	16470
834.544	16618
834.682	16668
834.821	16455
834.959	16675
835.097	16481
835.235	16618
835.373	16546
835.511	16599
835.65	16322
835.788	16329
835.926	16181
836.064	16226
836.202	16276
836.34	16485
836.478	16470
836.615	16459
836.753	16421
836.891	16421
837.029	16519
837.167	16405
837.305	16428
837.443	16390
837.58	16261
837.718	16432
837.856	16306
837.993	16261
838.131	16268
838.269	16112
838.406	16238
838.544	16207
838.681	16025
838.819	15968
838.956	15823
839.094	15838
839.231	15846
839.369	15975
839.506	16226
839.643	16105
839.781	15907
839.918	15857
840.055	15895
840.193	15880
840.33	15816
840.467	15873
840.604	15812
840.742	16059
840.879	15770
841.016	15762
841.153	15625
841.29	15949
841.427	15873
841.564	15892
841.701	15846
841.838	15747
841.975	15797
842.112	15747
842.249	15686
842.385	15591
842.522	15774
842.659	15633
842.796	15641
842.933	15675
843.069	15485
843.206	15584
843.343	15698
843.479	15671
843.616	15656
843.752	15492
843.889	15355
844.025	15614
844.162	15545
844.298	15511
844.435	15408
844.571	15370
844.708	15572
844.844	15622
844.98	15603
845.117	15545
845.253	15344
845.389	15302
845.525	15420
845.661	15408
845.798	15165
845.934	15325
846.07	15157
846.206	15222
846.342	15332
846.478	15287
846.614	15108
846.75	14960
846.886	14948
847.022	15108
847.158	15058
847.294	14975
847.429	15051
847.565	14956
847.701	15252
847.837	14773
847.972	14712
848.108	14838
848.244	14838
848.379	14667
848.515	14590
848.65	14583
848.786	14545
848.921	14621
849.057	14689
849.192	14663
849.328	14606
849.463	14708
849.598	14587
849.734	14545
849.869	14393
850.004	14298
850.14	14503
850.275	14400
850.41	14374
850.545	14290
850.68	14309
850.815	14294
850.95	14366
851.085	14484
851.22	14465
851.355	14419
851.49	14362
851.625	14328
851.76	14343
851.895	14290
852.03	14256
852.165	14320
852.299	14385
852.434	14434
852.569	14446
852.703	14381
852.838	14412
852.973	14457
853.107	14533
853.242	14305
853.376	14263
853.511	14119
853.645	14180
853.78	14370
853.914	14248
854.048	14206
854.183	14206
854.317	14294
854.451	14385
854.585	14206
854.72	14278
854.854	14320
854.988	14153
855.122	14153
855.256	14024
855.39	14199
855.524	14358
855.658	14320
855.792	14240
855.926	14370
856.06	14328
856.194	14282
856.327	14225
856.461	14126
856.595	14210
856.729	14240
856.862	14286
856.996	14358
857.13	14237
857.263	14457
857.397	14408
857.53	14237
857.664	14256
857.797	14290
857.931	14317
858.064	14244
858.197	14328
858.331	14214
858.464	14252
858.597	14126
858.731	14180
858.864	14290
858.997	14237
859.13	14187
859.263	14267
859.396	14328
859.529	14237
859.662	14199
859.795	14065
859.928	14191
860.061	14347
860.194	14419
860.327	14252
860.46	14168
860.592	14332
860.725	14423
860.858	14343
860.99	14229
861.123	14153
861.256	14278
861.388	14221
861.521	14876
861.653	14088
861.786	14046
861.918	14107
862.05	14275
862.183	14180
862.315	14218
862.447	14339
862.58	14142
862.712	13997
862.844	13970
862.976	14115
863.108	13989
863.24	14298
863.372	13902
863.504	14016
863.636	13932
863.768	14084
863.9	14027
864.032	13978
864.164	13913
864.296	14073
864.428	14256
864.559	14145
864.691	14058
864.823	14077
864.954	14016
865.086	14031
865.217	14043
865.349	13955
865.48	13951
865.612	13955
865.743	14081
865.875	13989
866.006	13875
866.137	14065
866.269	13982
866.4	13959
866.531	13963
866.662	13928
866.793	13967
866.924	13902
867.055	13986
867.186	13982
867.317	13940
867.448	13917
867.579	13951
867.71	13997
867.841	13868
867.972	13955
868.103	14065
868.233	13982
868.364	13974
868.495	14062
868.625	14195
868.756	14332
868.886	14183
869.017	14229
869.147	14336
869.278	14313
869.408	14271
869.539	14240
869.669	14362
869.799	14298
869.929	14259
870.06	14324
870.19	14640
870.32	14663
870.45	14651
870.58	14636
870.71	14777
870.84	14735
870.97	14735
871.1	14689
871.23	14853
871.36	14842
871.489	14686
871.619	14868
871.749	14918
871.879	14834
872.008	14975
872.138	14914
872.267	14815
872.397	14811
872.526	14754
872.656	14610
872.785	14670
872.915	14982
873.044	14925
873.173	14914
873.303	14880
873.432	14880
873.561	15024
873.69	14956
873.819	14902
873.948	15047
874.077	14925
874.206	14914
874.335	14963
874.464	15085
874.593	15119
874.722	15157
874.851	15249
874.979	15192
875.108	15237
875.237	15176
875.365	15157
875.494	15119
875.623	15313
875.751	15233
875.88	15214
876.008	15382
876.136	15435
876.265	15644
876.393	15728
876.521	15682
876.65	15679
876.778	15717
876.906	15622
877.034	15595
877.162	15675
877.29	15504
877.418	15682
877.546	15686
877.674	15606
877.802	15694
877.93	15743
878.058	15614
878.185	15523
878.313	15671
878.441	15656
878.568	15557
878.696	15538
878.824	15614
878.951	15682
879.079	15865
879.206	15934
879.333	15770
879.461	15641
879.588	15785
879.715	15838
879.842	15998
879.97	15698
880.097	15526
880.224	15382
880.351	15534
880.478	15507
880.605	15431
880.732	15492
880.859	15663
880.986	15553
881.112	15538
881.239	15420
881.366	15268
881.493	15161
881.619	15108
881.746	15142
881.872	15138
881.999	15131
882.125	15211
882.252	15211
882.378	15150
882.505	15195
882.631	15017
882.757	14952
882.883	14998
883.01	14963
883.136	14823
883.262	14830
883.388	14781
883.514	14990
883.64	15070
883.766	14872
883.892	14800
884.018	14830
884.143	14826
884.269	14864
884.395	14655
884.52	14621
884.646	14625
884.772	14594
884.897	14708
885.023	14739
885.148	14697
885.274	14830
885.399	14823
885.524	14598
885.65	14667
885.775	14735
885.9	14629
886.025	14819
886.15	14735
886.275	14632
886.4	14530
886.525	14625
886.65	14610
886.775	14617
886.9	14708
887.025	14895
887.149	14648
887.274	14469
887.399	14415
887.523	14412
887.648	14400
887.773	14408
887.897	14571
888.021	14602
888.146	14450
888.27	14522
888.395	14674
888.519	14655
888.643	14465
888.767	14545
888.891	14385
889.015	14427
889.139	14419
889.263	14275
889.387	14492
889.511	14450
889.635	14412
889.759	14256
889.883	14313
890.006	14393
890.13	14423
890.254	14263
890.377	14301
890.501	14107
890.624	14180
890.748	14275
890.871	14161
890.995	14027
891.118	14031
891.241	14001
891.364	13989
891.488	14138
891.611	14016
891.734	14111
891.857	14168
891.98	14138
892.103	14138
892.226	14050
892.349	14005
892.471	13898
892.594	14088
892.717	14001
892.839	14077
892.962	14001
893.085	14081
893.207	14027
893.33	13921
893.452	13906
893.575	14092
893.697	14069
893.819	14180
893.941	14206
894.064	14309
894.186	14065
894.308	14073
894.43	14199
894.552	14339
894.674	14202
894.796	13970
894.918	14084
895.04	14138
895.161	14153
895.283	14191
895.405	14035
895.526	14172
895.648	14161
895.769	14119
895.891	14218
896.012	14183
896.134	14259
896.255	14256
896.376	14202
896.498	14218
896.619	14336
896.74	14183
896.861	14324
896.982	14617
897.103	14670
897.224	14446
897.345	14438
897.466	14374
897.587	14396
897.708	14689
897.828	14598
897.949	14480
898.07	14278
898.19	14533
898.311	14659
898.431	14556
898.552	14556
898.672	14663
898.792	14598
898.913	14568
899.033	14419
899.153	14484
899.273	14362
899.393	14358
899.513	14415
899.633	14469
899.753	14575
899.873	14358
899.993	14530
900.113	14431
900.232	14377
900.352	14339
900.472	14324
900.591	14225
900.711	14240
900.83	14214
900.95	14385
901.069	14400
901.189	14183
901.308	13909
901.427	13959
901.546	13898
901.665	13997
901.784	14031
901.904	13959
902.023	13708
902.141	13670
902.26	13521
902.379	13636
902.498	13491
902.617	13472
902.735	13548
902.854	13521
902.973	13381
903.091	13278
903.21	13221
903.328	13251
903.446	13213
903.565	13118
903.683	13099
903.801	13027
903.919	13129
904.038	13118
904.156	12905
904.274	13034
904.392	12935
904.51	12882
904.627	12894
904.745	12970
904.863	13004
904.981	12787
905.098	12601
905.216	12646
905.334	12631
905.451	12684
905.569	12559
905.686	12608
905.803	12646
905.921	12555
906.038	12540
906.155	12395
906.272	12376
906.389	12433
906.506	12186
906.623	12243
906.74	12159
906.857	11969
906.974	12110
907.091	12292
907.208	12353
907.324	12235
907.441	12106
907.557	11973
907.674	12019
907.79	11927
907.907	11980
908.023	11958
908.139	11893
908.256	11954
908.372	11965
908.488	11828
908.604	11752
908.72	11649
908.836	11733
908.952	11665
909.068	11767
909.184	11817
909.3	11676
909.415	11802
909.531	11748
909.647	11505
909.762	11543
909.878	11467
909.993	11512
910.108	11433
910.224	11566
910.339	11471
910.454	11440
910.57	11280
910.685	11242
910.8	11630
910.915	11471
911.03	11360
911.145	11178
911.259	11250
911.374	11208
911.489	11094
911.604	11083
911.718	10938
911.833	10904
911.947	10858
912.062	10862
912.176	10911
912.291	10953
912.405	10889
912.519	11174
912.633	11162
912.748	11064
912.862	10881
912.976	10843
913.09	10786
913.204	10850
913.318	10866
913.431	10938
913.545	10957
913.659	10987
913.772	10889
913.886	10733
914	10717
914.113	10793
914.226	10824
914.34	10809
914.453	10664
914.566	10782
914.68	10649
914.793	10691
914.906	10455
915.019	10398
915.132	10371
915.245	10447
915.358	10440
915.47	10470
915.583	10462
915.696	10519
915.809	10584
915.921	10615
916.034	10481
916.146	10440
916.259	10310
916.371	10485
916.483	10481
916.595	10367
916.708	10360
916.82	10432
916.932	10356
917.044	10432
917.156	10371
917.268	10204
917.38	10246
917.491	10295
917.603	10253
917.715	10405
917.826	10390
917.938	10219
918.049	10124
918.161	10295
918.272	10360
918.384	10417
918.495	10306
918.606	10162
918.717	10086
918.828	10177
918.939	10230
919.05	10131
919.161	10158
919.272	10013
919.383	10063
919.494	10181
919.604	10386
919.715	10124
919.826	10025
919.936	10177
920.047	10227
920.157	10211
920.267	10386
920.378	10227
920.488	10181
920.598	10379
920.708	10493
920.818	10337
920.928	10375
921.038	10558
921.148	10485
921.258	10207
921.368	10147
921.477	10029
921.587	10010
921.697	9918
921.806	10093
921.916	9949
922.025	9827
922.134	9682
922.244	9728
922.353	9774
922.462	9576
922.571	9587
922.68	9481
922.789	9401
922.898	9424
923.007	9382
923.116	9496
923.224	9515
923.333	9466
923.442	9329
923.55	9214
923.659	9329
923.767	9435
923.876	9272
923.984	9378
924.092	9272
924.201	9351
924.309	9389
924.417	9336
924.525	9275
924.633	9291
924.741	10025
924.849	9062
924.956	9214
925.064	9074
925.172	8986
925.279	9077
925.387	9108
925.494	9154
925.602	9272
925.709	9142
925.816	9089
925.924	9089
926.031	9116
926.138	9066
926.245	9131
926.352	9051
926.459	9138
926.566	9169
926.673	9013
926.779	8906
926.886	8918
926.993	8845
927.099	8826
927.206	8769
927.312	8788
927.419	8807
927.525	8849
927.631	8861
927.737	8727
927.843	8640
927.95	8556
928.056	8735
928.162	8712
928.267	8815
928.373	9344
928.479	8766
928.585	8625
928.69	8667
928.796	8727
928.901	8598
929.007	8484
929.112	8568
929.218	8632
929.323	8514
929.428	8526
929.533	8670
929.638	8442
929.743	8503
929.848	8560
929.953	8522
930.058	8385
930.163	8275
930.267	8377
930.372	8450
930.477	8218
930.581	8488
930.685	8434
930.79	8240
930.894	8252
930.998	8294
931.103	8427
931.207	8084
931.311	7913
931.415	7909
931.519	7750
931.623	7731
