Data from test_V78500241_1647.txt Node
Date: Fri Mar 25 14:45:10 CST 2022
User: usil
Spectrometer: V785-0024
Trigger mode: 0
Integration Time (sec): 4.000000E-1
Scans to average: 1
Nonlinearity correction enabled: false
Boxcar width: 0
Storing dark spectrum: false
XAxis mode: Wavelengths
Number of Pixels in Spectrum: 1024
>>>>>Begin Spectral Data<<<<<
801.071	22234
801.214	22272
801.356	21941
801.499	21869
801.641	21781
801.783	21701
801.926	21800
802.068	21580
802.211	21538
802.353	21435
802.496	21294
802.638	21211
802.78	21188
802.923	21100
803.065	20933
803.208	20967
803.35	21028
803.492	21146
803.635	21184
803.777	21020
803.919	21112
804.061	21458
804.204	21135
804.346	20883
804.488	20853
804.63	20918
804.773	20948
804.915	21039
805.057	21032
805.199	20925
805.341	20990
805.483	21218
805.626	20971
805.768	20895
805.91	20982
806.052	20944
806.194	20899
806.336	21138
806.478	20994
806.62	20876
806.762	20967
806.904	21051
807.046	21336
807.188	21268
807.33	21275
807.472	21287
807.614	21230
807.756	21340
807.898	21066
808.04	21001
808.182	21085
808.324	21081
808.465	21157
808.607	21370
808.749	21363
808.891	21336
809.033	21568
809.174	21447
809.316	21382
809.458	21393
809.6	21313
809.741	21431
809.883	21549
810.025	21462
810.166	21538
810.308	21523
810.45	21481
810.591	21401
810.733	21199
810.875	21268
811.016	21081
811.158	21020
811.299	21131
811.441	21207
811.582	21184
811.724	21055
811.865	21112
812.007	21062
812.148	21165
812.29	21161
812.431	21336
812.573	21370
812.714	21519
812.855	21610
812.997	21797
813.138	21865
813.279	21865
813.421	21812
813.562	21633
813.703	21416
813.845	21245
813.986	21020
814.127	20849
814.268	20720
814.41	20864
814.551	20750
814.692	20758
814.833	20632
814.974	20670
815.115	20488
815.256	20549
815.397	20465
815.539	20412
815.68	20499
815.821	20358
815.962	20476
816.103	20336
816.244	20183
816.385	20168
816.526	20058
816.666	19989
816.807	19845
816.948	19925
817.089	19978
817.23	19921
817.371	19731
817.512	19753
817.653	19803
817.793	19731
817.934	19757
818.075	19875
818.216	19864
818.356	19791
818.497	19582
818.638	19453
818.778	19472
818.919	19388
819.06	19556
819.2	19750
819.341	19647
819.481	19647
819.622	19822
819.762	20005
819.903	19993
820.043	19864
820.184	19841
820.324	19731
820.465	19868
820.605	19811
820.746	19776
820.886	19651
821.026	19632
821.167	19715
821.307	19921
821.447	19689
821.588	19677
821.728	19441
821.868	19274
822.008	19114
822.149	19213
822.289	19110
822.429	18897
822.569	18837
822.709	18875
822.849	18711
822.99	18734
823.13	18528
823.27	18635
823.41	18448
823.55	18490
823.69	18448
823.83	18509
823.97	18456
824.11	18232
824.25	18281
824.389	18224
824.529	18433
824.669	18258
824.809	18369
824.949	18258
825.089	18243
825.228	18232
825.368	18083
825.508	18034
825.648	18064
825.787	18041
825.927	18019
826.067	18003
826.206	17927
826.346	18041
826.485	17965
826.625	18102
826.765	18209
826.904	18110
827.044	17779
827.183	17687
827.323	17726
827.462	17851
827.601	17779
827.741	17802
827.88	17657
828.02	17680
828.159	17668
828.298	17668
828.437	17775
828.577	17760
828.716	17824
828.855	17695
828.994	17501
829.134	17524
829.273	17444
829.412	17334
829.551	17345
829.69	17421
829.829	17482
829.968	17592
830.107	17608
830.246	17524
830.385	17493
830.524	17387
830.663	17254
830.802	17292
830.941	17109
831.08	17200
831.219	17178
831.357	17102
831.496	17261
831.635	17105
831.774	17079
831.913	16892
832.051	16828
832.19	16911
832.329	16915
832.467	16824
832.606	16740
832.744	16786
832.883	16736
833.022	16835
833.16	16809
833.299	16847
833.437	16835
833.576	16759
833.714	16809
833.852	16820
833.991	16858
834.129	16881
834.267	16953
834.406	16843
834.544	16793
834.682	16793
834.821	16740
834.959	17025
835.097	16809
835.235	16881
835.373	16934
835.511	16736
835.65	16767
835.788	16622
835.926	16546
836.064	16519
836.202	16596
836.34	16706
836.478	16774
836.615	16721
836.753	16729
836.891	16809
837.029	16710
837.167	16713
837.305	16653
837.443	16558
837.58	16538
837.718	16649
837.856	16580
837.993	16519
838.131	16584
838.269	16508
838.406	16497
838.544	16375
838.681	16344
838.819	16268
838.956	16109
839.094	16048
839.231	16219
839.369	16200
839.506	16504
839.643	16398
839.781	16185
839.918	16040
840.055	16124
840.193	16036
840.33	16044
840.467	16158
840.604	16078
840.742	16306
840.879	16044
841.016	16013
841.153	16109
841.29	16154
841.427	16158
841.564	16128
841.701	16055
841.838	16040
841.975	16029
842.112	16082
842.249	15945
842.385	15842
842.522	16036
842.659	15922
842.796	15907
842.933	15884
843.069	15842
843.206	15808
843.343	15956
843.479	16029
843.616	16135
843.752	15671
843.889	15667
844.025	15827
844.162	15660
844.298	15759
844.435	15656
844.571	15572
844.708	15804
844.844	15759
844.98	15701
845.117	15720
845.253	15622
845.389	15603
845.525	15610
845.661	15553
845.798	15481
845.934	15587
846.07	15447
846.206	15530
846.342	15663
846.478	15492
846.614	15412
846.75	15260
846.886	15142
847.022	15378
847.158	15252
847.294	15211
847.429	15207
847.565	15291
847.701	15389
847.837	15066
847.972	14910
848.108	15112
848.244	15039
848.379	14849
848.515	14849
848.65	14842
848.786	14769
848.921	14819
849.057	15074
849.192	14937
849.328	14811
849.463	14838
849.598	14830
849.734	14720
849.869	14746
850.004	14610
850.14	14655
850.275	14594
850.41	14552
850.545	14594
850.68	14648
850.815	14625
850.95	14541
851.085	14773
851.22	14636
851.355	14575
851.49	14648
851.625	14533
851.76	14541
851.895	14514
852.03	14503
852.165	14564
852.299	14648
852.434	14678
852.569	14674
852.703	14625
852.838	14720
852.973	14712
853.107	14743
853.242	14522
853.376	14514
853.511	14396
853.645	14446
853.78	14522
853.914	14507
854.048	14457
854.183	14469
854.317	14450
854.451	14663
854.585	14511
854.72	14454
854.854	14522
854.988	14423
855.122	14396
855.256	14256
855.39	14476
855.524	14476
855.658	14617
855.792	14423
855.926	14530
856.06	14514
856.194	14579
856.327	14461
856.461	14446
856.595	14526
856.729	14442
856.862	14602
856.996	14568
857.13	14446
857.263	14560
857.397	14632
857.53	14473
857.664	14522
857.797	14537
857.931	14587
858.064	14533
858.197	14594
858.331	14503
858.464	14438
858.597	14366
858.731	14400
858.864	14488
858.997	14355
859.13	14552
859.263	14541
859.396	14621
859.529	14492
859.662	14454
859.795	14423
859.928	14492
860.061	14659
860.194	14663
860.327	14556
860.46	14396
860.592	14667
860.725	14537
860.858	14629
860.99	14442
861.123	14309
861.256	14457
861.388	14492
861.521	15142
861.653	14324
861.786	14309
861.918	14362
862.05	14339
862.183	14484
862.315	14423
862.447	14492
862.58	14465
862.712	14221
862.844	14180
862.976	14408
863.108	14176
863.24	14621
863.372	14183
863.504	14267
863.636	14252
863.768	14290
863.9	14259
864.032	14191
864.164	14210
864.296	14358
864.428	14404
864.559	14362
864.691	14366
864.823	14381
864.954	14305
865.086	14343
865.217	14206
865.349	14096
865.48	14199
865.612	14366
865.743	14358
865.875	14187
866.006	14107
866.137	14256
866.269	14282
866.4	14191
866.531	14225
866.662	14168
866.793	14088
866.924	14195
867.055	14214
867.186	14161
867.317	14183
867.448	14100
867.579	14100
867.71	14119
867.841	14119
867.972	14244
868.103	14210
868.233	14240
868.364	14168
868.495	14305
868.625	14446
868.756	14632
868.886	14415
869.017	14404
869.147	14537
869.278	14590
869.408	14446
869.539	14522
869.669	14469
869.799	14465
869.929	14674
870.06	14587
870.19	14731
870.32	14701
870.45	14781
870.58	14796
870.71	14952
870.84	14929
870.97	14902
871.1	14826
871.23	15123
871.36	15074
871.489	15001
871.619	15055
871.749	15013
871.879	15119
872.008	15195
872.138	15070
872.267	15123
872.397	14918
872.526	14853
872.656	14914
872.785	14895
872.915	15116
873.044	15195
873.173	15024
873.303	15184
873.432	15123
873.561	15230
873.69	15192
873.819	15119
873.948	15226
874.077	15108
874.206	15085
874.335	15093
874.464	15252
874.593	15397
874.722	15386
874.851	15492
874.979	15408
875.108	15481
875.237	15401
875.365	15462
875.494	15435
875.623	15515
875.751	15382
875.88	15466
876.008	15500
876.136	15667
876.265	15736
876.393	15979
876.521	16021
876.65	15827
876.778	15827
876.906	15865
877.034	15785
877.162	15876
877.29	15835
877.418	15789
877.546	15934
877.674	15857
877.802	15861
877.93	15918
878.058	15778
878.185	15713
878.313	15808
878.441	15945
878.568	15701
878.696	15778
878.824	15907
878.951	15922
879.079	16112
879.206	16230
879.333	15991
879.461	15838
879.588	15937
879.715	16021
879.842	16181
879.97	15975
880.097	15743
880.224	15785
880.351	15736
880.478	15720
880.605	15603
880.732	15675
880.859	15838
880.986	15759
881.112	15736
881.239	15549
881.366	15568
881.493	15488
881.619	15272
881.746	15393
881.872	15424
881.999	15344
882.125	15287
882.252	15378
882.378	15329
882.505	15359
882.631	15344
882.757	15119
882.883	15233
883.01	15313
883.136	15161
883.262	15028
883.388	15028
883.514	15207
883.64	15188
883.766	15104
883.892	14948
884.018	14975
884.143	15226
884.269	15252
884.395	14895
884.52	14880
884.646	14941
884.772	14765
884.897	14769
885.023	14872
885.148	14910
885.274	15074
885.399	14982
885.524	14906
885.65	14872
885.775	14895
885.9	14929
886.025	15085
886.15	14891
886.275	14834
886.4	14823
886.525	14876
886.65	14880
886.775	14781
886.9	14941
887.025	15017
887.149	14880
887.274	14727
887.399	14651
887.523	14659
887.648	14712
887.773	14613
887.897	14701
888.021	14762
888.146	14705
888.27	14811
888.395	14819
888.519	14640
888.643	14788
888.767	14727
888.891	14655
889.015	14575
889.139	14530
889.263	14549
889.387	14617
889.511	14777
889.635	14636
889.759	14530
889.883	14541
890.006	14594
890.13	14651
890.254	14457
890.377	14434
890.501	14423
890.624	14320
890.748	14446
890.871	14229
890.995	14237
891.118	14187
891.241	14237
891.364	14294
891.488	14309
891.611	14290
891.734	14225
891.857	14309
891.98	14351
892.103	14385
892.226	14244
892.349	14199
892.471	14062
892.594	14157
892.717	14263
892.839	14183
892.962	14214
893.085	14328
893.207	14164
893.33	14119
893.452	14187
893.575	14313
893.697	14282
893.819	14324
893.941	14480
894.064	14434
894.186	14180
894.308	14130
894.43	14389
894.552	14473
894.674	14324
894.796	14168
894.918	14351
895.04	14271
895.161	14427
895.283	14358
895.405	14233
895.526	14351
895.648	14393
895.769	14385
895.891	14423
896.012	14473
896.134	14438
896.255	14377
896.376	14313
896.498	14461
896.619	14469
896.74	14408
896.861	14450
896.982	14754
897.103	14937
897.224	14716
897.345	14697
897.466	14598
897.587	14701
897.708	14838
897.828	14842
897.949	14613
898.07	14636
898.19	14678
898.311	14876
898.431	14819
898.552	14727
898.672	14899
898.792	14902
898.913	14743
899.033	14621
899.153	14697
899.273	14545
899.393	14610
899.513	14598
899.633	14568
899.753	14663
899.873	14663
899.993	14617
900.113	14667
900.232	14640
900.352	14674
900.472	14541
900.591	14492
900.711	14503
900.83	14480
900.95	14667
901.069	14629
901.189	14457
901.308	14305
901.427	14214
901.546	14191
901.665	14183
901.784	14210
901.904	13997
902.023	13967
902.141	13704
902.26	13852
902.379	13845
902.498	13670
902.617	13746
902.735	13811
902.854	13578
902.973	13712
903.091	13438
903.21	13514
903.328	13396
903.446	13407
903.565	13289
903.683	13358
903.801	13187
903.919	13308
904.038	13228
904.156	13133
904.274	13145
904.392	13008
904.51	13042
904.627	13072
904.745	13202
904.863	13126
904.981	12901
905.098	12806
905.216	12833
905.334	12837
905.451	12852
905.569	12749
905.686	12753
905.803	12814
905.921	12646
906.038	12703
906.155	12692
906.272	12544
906.389	12604
906.506	12334
906.623	12426
906.74	12380
906.857	12304
906.974	12281
907.091	12429
907.208	12536
907.324	12266
907.441	12270
907.557	12159
907.674	12038
907.79	12034
907.907	12136
908.023	12144
908.139	12125
908.256	12117
908.372	12136
908.488	11939
908.604	11904
908.72	11859
908.836	11923
908.952	11802
909.068	11931
909.184	11958
909.3	11920
909.415	11954
909.531	11897
909.647	11642
909.762	11703
909.878	11634
909.993	11668
910.108	11608
910.224	11577
910.339	11642
910.454	11474
910.57	11459
910.685	11395
910.8	11748
910.915	11653
911.03	11505
911.145	11345
911.259	11421
911.374	11379
911.489	11254
911.604	11208
911.718	11010
911.833	11117
911.947	11006
912.062	10995
912.176	11075
912.291	11094
912.405	11102
912.519	11303
912.633	11315
912.748	11250
912.862	11041
912.976	10980
913.09	10835
913.204	10946
913.318	11033
913.431	11105
913.545	11056
913.659	11124
913.772	10984
913.886	10847
914	10839
914.113	10991
914.226	10980
914.34	10999
914.453	10725
914.566	10923
914.68	10828
914.793	10854
914.906	10588
915.019	10630
915.132	10485
915.245	10592
915.358	10592
915.47	10622
915.583	10596
915.696	10634
915.809	10748
915.921	10778
916.034	10592
916.146	10611
916.259	10554
916.371	10626
916.483	10615
916.595	10519
916.708	10531
916.82	10538
916.932	10485
917.044	10474
917.156	10447
917.268	10367
917.38	10409
917.491	10341
917.603	10527
917.715	10558
917.826	10489
917.938	10352
918.049	10352
918.161	10398
918.272	10531
918.384	10603
918.495	10466
918.606	10299
918.717	10253
918.828	10322
918.939	10291
919.05	10249
919.161	10295
919.272	10158
919.383	10173
919.494	10325
919.604	10489
919.715	10371
919.826	10230
919.936	10276
920.047	10432
920.157	10295
920.267	10561
920.378	10367
920.488	10280
920.598	10478
920.708	10592
920.818	10538
920.928	10493
921.038	10622
921.148	10630
921.258	10371
921.368	10303
921.477	10230
921.587	10166
921.697	10090
921.806	10253
921.916	10036
922.025	9945
922.134	9819
922.244	9823
922.353	9911
922.462	9793
922.571	9762
922.68	9557
922.789	9614
922.898	9606
923.007	9511
923.116	9614
923.224	9580
923.333	9530
923.442	9466
923.55	9447
923.659	9401
923.767	9405
923.876	9424
923.984	9511
924.092	9351
924.201	9473
924.309	9458
924.417	9420
924.525	9268
924.633	9370
924.741	10131
924.849	9279
924.956	9382
925.064	9279
925.172	9142
925.279	9173
925.387	9195
925.494	9253
925.602	9367
925.709	9230
925.816	9188
925.924	9146
926.031	9275
926.138	9233
926.245	9226
926.352	9195
926.459	9268
926.566	9340
926.673	9135
926.779	9112
926.886	9032
926.993	8960
927.099	8902
927.206	8849
927.312	8842
927.419	8994
927.525	8906
927.631	8967
927.737	8876
927.843	8823
927.95	8727
928.056	8872
928.162	8830
928.267	8933
928.373	9336
928.479	8937
928.585	8689
928.69	8785
928.796	8807
928.901	8724
929.007	8571
929.112	8731
929.218	8697
929.323	8689
929.428	8735
929.533	8735
929.638	8621
929.743	8602
929.848	8629
929.953	8579
930.058	8492
930.163	8412
930.267	8408
930.372	8617
930.477	8415
930.581	8659
930.685	8499
930.79	8355
930.894	8355
930.998	8271
931.103	8537
931.207	8111
931.311	8081
931.415	8024
931.519	7890
931.623	7837
