Data from test_V78500241_1167.txt Node
Date: Fri Mar 25 14:41:50 CST 2022
User: usil
Spectrometer: V785-0024
Trigger mode: 0
Integration Time (sec): 4.000000E-1
Scans to average: 1
Nonlinearity correction enabled: false
Boxcar width: 0
Storing dark spectrum: false
XAxis mode: Wavelengths
Number of Pixels in Spectrum: 1024
>>>>>Begin Spectral Data<<<<<
801.071	22535
801.214	22421
801.356	22215
801.499	22040
801.641	21892
801.783	21774
801.926	21956
802.068	21778
802.211	21861
802.353	21739
802.496	21443
802.638	21336
802.78	21237
802.923	21260
803.065	21302
803.208	21173
803.35	21256
803.492	21230
803.635	21325
803.777	21089
803.919	21279
804.061	21599
804.204	21260
804.346	21131
804.488	21043
804.63	21146
804.773	21032
804.915	21173
805.057	21203
805.199	21161
805.341	21074
805.483	21306
805.626	21310
805.768	21066
805.91	21161
806.052	21081
806.194	21077
806.336	21275
806.478	21142
806.62	21108
806.762	21176
806.904	21447
807.046	21488
807.188	21492
807.33	21386
807.472	21447
807.614	21268
807.756	21564
807.898	21275
808.04	21222
808.182	21268
808.324	21340
808.465	21329
808.607	21507
808.749	21648
808.891	21770
809.033	21865
809.174	21823
809.316	21713
809.458	21698
809.6	21469
809.741	21610
809.883	21808
810.025	21861
810.166	21778
810.308	21747
810.45	21709
810.591	21743
810.733	21477
810.875	21329
811.016	21279
811.158	21222
811.299	21386
811.441	21458
811.582	21386
811.724	21252
811.865	21332
812.007	21294
812.148	21389
812.29	21393
812.431	21530
812.573	21614
812.714	21739
812.855	21907
812.997	21972
813.138	22036
813.279	21934
813.421	21675
813.562	21823
813.703	21564
813.845	21534
813.986	21207
814.127	21047
814.268	21017
814.41	20937
814.551	20849
814.692	20861
814.833	20815
814.974	20864
815.115	20823
815.256	20727
815.397	20735
815.539	20754
815.68	20636
815.821	20511
815.962	20625
816.103	20613
816.244	20526
816.385	20301
816.526	20385
816.666	20176
816.807	20100
816.948	20187
817.089	20294
817.23	20111
817.371	20142
817.512	20149
817.653	19970
817.793	19909
817.934	20054
818.075	20168
818.216	20039
818.356	19902
818.497	19898
818.638	19639
818.778	19772
818.919	19674
819.06	19719
819.2	19807
819.341	19879
819.481	19906
819.622	19978
819.762	20218
819.903	20199
820.043	20043
820.184	19967
820.324	20031
820.465	20081
820.605	20183
820.746	19970
820.886	19875
821.026	20027
821.167	19982
821.307	20035
821.447	19913
821.588	19849
821.728	19822
821.868	19537
822.008	19354
822.149	19354
822.289	19392
822.429	19263
822.569	19095
822.709	19114
822.849	18913
822.99	18848
823.13	18951
823.27	18791
823.41	18802
823.55	18631
823.69	18810
823.83	18707
823.97	18707
824.11	18521
824.25	18407
824.389	18486
824.529	18597
824.669	18525
824.809	18566
824.949	18540
825.089	18502
825.228	18517
825.368	18380
825.508	18300
825.648	18346
825.787	18361
825.927	18361
826.067	18258
826.206	18315
826.346	18407
826.485	18391
826.625	18304
826.765	18369
826.904	18247
827.044	18148
827.183	18045
827.323	17923
827.462	17973
827.601	17946
827.741	17912
827.88	18019
828.02	17824
828.159	17920
828.298	17950
828.437	18068
828.577	17942
828.716	18197
828.855	17973
828.994	17779
829.134	17813
829.273	17771
829.412	17729
829.551	17596
829.69	17672
829.829	17783
829.968	17824
830.107	17821
830.246	17824
830.385	17680
830.524	17695
830.663	17520
830.802	17554
830.941	17364
831.08	17337
831.219	17356
831.357	17334
831.496	17505
831.635	17307
831.774	17258
831.913	17250
832.051	17140
832.19	17086
832.329	17212
832.467	17102
832.606	17067
832.744	17029
832.883	17056
833.022	17052
833.16	17102
833.299	17105
833.437	17079
833.576	17052
833.714	17200
833.852	17162
833.991	17098
834.129	17166
834.267	17178
834.406	17193
834.544	17299
834.682	17052
834.821	17045
834.959	17326
835.097	17071
835.235	17155
835.373	17178
835.511	17109
835.65	17048
835.788	16949
835.926	16805
836.064	16793
836.202	16987
836.34	17025
836.478	17121
836.615	17025
836.753	16957
836.891	17056
837.029	16991
837.167	17025
837.305	16942
837.443	16908
837.58	16793
837.718	16946
837.856	16957
837.993	16839
838.131	16908
838.269	16805
838.406	16839
838.544	16759
838.681	16554
838.819	16592
838.956	16451
839.094	16421
839.231	16519
839.369	16405
839.506	16774
839.643	16698
839.781	16455
839.918	16344
840.055	16371
840.193	16375
840.33	16402
840.467	16375
840.604	16500
840.742	16668
840.879	16299
841.016	16348
841.153	16394
841.29	16531
841.427	16489
841.564	16523
841.701	16440
841.838	16322
841.975	16303
842.112	16386
842.249	16276
842.385	16086
842.522	16390
842.659	16181
842.796	16261
842.933	16128
843.069	16158
843.206	16143
843.343	16196
843.479	16166
843.616	16223
843.752	15934
843.889	15983
844.025	16242
844.162	15991
844.298	16055
844.435	15979
844.571	15922
844.708	16166
844.844	16097
844.98	16268
845.117	16143
845.253	15941
845.389	15880
845.525	15941
845.661	15876
845.798	15930
845.934	15941
846.07	16032
846.206	15998
846.342	16116
846.478	15876
846.614	15679
846.75	15549
846.886	15523
847.022	15694
847.158	15606
847.294	15557
847.429	15690
847.565	15557
847.701	15747
847.837	15359
847.972	15176
848.108	15435
848.244	15306
848.379	15195
848.515	15173
848.65	15116
848.786	15112
848.921	15199
849.057	15241
849.192	15241
849.328	15222
849.463	15173
849.598	15157
849.734	15043
849.869	15066
850.004	14941
850.14	14952
850.275	14952
850.41	14826
850.545	14880
850.68	14899
850.815	14918
850.95	15009
851.085	15062
851.22	15001
851.355	14948
851.49	14864
851.625	14891
851.76	14925
851.895	14773
852.03	14826
852.165	14899
852.299	15017
852.434	15013
852.569	15020
852.703	14895
852.838	15020
852.973	15039
853.107	15089
853.242	14807
853.376	14815
853.511	14663
853.645	14762
853.78	14815
853.914	14807
854.048	14670
854.183	14640
854.317	14876
854.451	14861
854.585	14826
854.72	14746
854.854	14861
854.988	14796
855.122	14788
855.256	14648
855.39	14644
855.524	14861
855.658	14895
855.792	14754
855.926	14773
856.06	14762
856.194	14804
856.327	14861
856.461	14773
856.595	14739
856.729	14686
856.862	14891
856.996	14819
857.13	14834
857.263	14804
857.397	14918
857.53	14785
857.664	14819
857.797	14834
857.931	14921
858.064	14781
858.197	14857
858.331	14743
858.464	14697
858.597	14716
858.731	14769
858.864	14785
858.997	14746
859.13	14811
859.263	14773
859.396	14963
859.529	14712
859.662	14701
859.795	14689
859.928	14769
860.061	14899
860.194	14910
860.327	14838
860.46	14765
860.592	14773
860.725	14960
860.858	14963
860.99	14769
861.123	14746
861.256	14754
861.388	14804
861.521	15439
861.653	14655
861.786	14594
861.918	14750
862.05	14701
862.183	14731
862.315	14754
862.447	14819
862.58	14697
862.712	14537
862.844	14396
862.976	14655
863.108	14594
863.24	15055
863.372	14537
863.504	14518
863.636	14568
863.768	14552
863.9	14667
864.032	14499
864.164	14488
864.296	14606
864.428	14800
864.559	14594
864.691	14697
864.823	14617
864.954	14625
865.086	14552
865.217	14511
865.349	14415
865.48	14492
865.612	14564
865.743	14648
865.875	14495
866.006	14507
866.137	14537
866.269	14549
866.4	14503
866.531	14419
866.662	14549
866.793	14454
866.924	14495
867.055	14503
867.186	14514
867.317	14518
867.448	14434
867.579	14370
867.71	14419
867.841	14495
867.972	14522
868.103	14564
868.233	14575
868.364	14541
868.495	14689
868.625	14712
868.756	14792
868.886	14617
869.017	14739
869.147	14880
869.278	14868
869.408	14788
869.539	14678
869.669	14891
869.799	14849
869.929	14918
870.06	14880
870.19	14975
870.32	15077
870.45	15146
870.58	15173
870.71	15279
870.84	15279
870.97	15192
871.1	15135
871.23	15367
871.36	15389
871.489	15260
871.619	15370
871.749	15485
871.879	15439
872.008	15397
872.138	15412
872.267	15359
872.397	15135
872.526	15104
872.656	15154
872.785	15192
872.915	15340
873.044	15488
873.173	15302
873.303	15488
873.432	15477
873.561	15557
873.69	15397
873.819	15462
873.948	15424
874.077	15458
874.206	15420
874.335	15420
874.464	15584
874.593	15675
874.722	15660
874.851	15724
874.979	15705
875.108	15835
875.237	15713
875.365	15641
875.494	15747
875.623	15781
875.751	15785
875.88	15770
876.008	15926
876.136	15964
876.265	16143
876.393	16162
876.521	16238
876.65	16147
876.778	16090
876.906	16101
877.034	16051
877.162	16147
877.29	16059
877.418	16051
877.546	16086
877.674	16162
877.802	16192
877.93	16036
878.058	16143
878.185	16006
878.313	16074
878.441	16147
878.568	16082
878.696	16147
878.824	16238
878.951	16257
879.079	16462
879.206	16497
879.333	16344
879.461	16185
879.588	16436
879.715	16421
879.842	16394
879.97	16265
880.097	16051
880.224	15960
880.351	16090
880.478	16078
880.605	16032
880.732	15972
880.859	16185
880.986	16048
881.112	16112
881.239	15911
881.366	15751
881.493	15739
881.619	15637
881.746	15686
881.872	15686
881.999	15610
882.125	15595
882.252	15682
882.378	15705
882.505	15819
882.631	15622
882.757	15526
882.883	15564
883.01	15477
883.136	15401
883.262	15397
883.388	15367
883.514	15454
883.64	15591
883.766	15454
883.892	15351
884.018	15264
884.143	15477
884.269	15500
884.395	15336
884.52	15112
884.646	15237
884.772	15100
884.897	15039
885.023	15176
885.148	15298
885.274	15268
885.399	15245
885.524	15169
885.65	15173
885.775	15222
885.9	15230
886.025	15408
886.15	15439
886.275	15066
886.4	15081
886.525	15180
886.65	15081
886.775	15081
886.9	15275
887.025	15378
887.149	15195
887.274	14986
887.399	15005
887.523	14929
887.648	14845
887.773	14849
887.897	15039
888.021	15081
888.146	15039
888.27	15123
888.395	15146
888.519	15104
888.643	15093
888.767	14990
888.891	14842
889.015	14864
889.139	14895
889.263	14777
889.387	14979
889.511	15043
889.635	14975
889.759	14758
889.883	14876
890.006	14876
890.13	14975
890.254	14743
890.377	14781
890.501	14651
890.624	14682
890.748	14712
890.871	14526
890.995	14571
891.118	14537
891.241	14575
891.364	14518
891.488	14602
891.611	14507
891.734	14545
891.857	14667
891.98	14545
892.103	14507
892.226	14648
892.349	14579
892.471	14389
892.594	14537
892.717	14632
892.839	14526
892.962	14571
893.085	14571
893.207	14625
893.33	14408
893.452	14438
893.575	14659
893.697	14469
893.819	14716
893.941	14682
894.064	14716
894.186	14507
894.308	14499
894.43	14682
894.552	14686
894.674	14659
894.796	14480
894.918	14518
895.04	14629
895.161	14678
895.283	14541
895.405	14545
895.526	14545
895.648	14617
895.769	14720
895.891	14682
896.012	14655
896.134	14727
896.255	14655
896.376	14720
896.498	14689
896.619	14670
896.74	14606
896.861	14758
896.982	15047
897.103	15176
897.224	15020
897.345	14960
897.466	14815
897.587	14941
897.708	15062
897.828	14990
897.949	15020
898.07	14819
898.19	14868
898.311	14998
898.431	14944
898.552	15074
898.672	15142
898.792	15024
898.913	15039
899.033	14921
899.153	14849
899.273	14773
899.393	14815
899.513	14883
899.633	14785
899.753	14887
899.873	14838
899.993	14857
900.113	14804
900.232	14880
900.352	14796
900.472	14785
900.591	14674
900.711	14754
900.83	14629
900.95	14899
901.069	14815
901.189	14655
901.308	14370
901.427	14347
901.546	14358
901.665	14431
901.784	14412
901.904	14263
902.023	14130
902.141	13989
902.26	13894
902.379	14027
902.498	14050
902.617	13928
902.735	13986
902.854	13970
902.973	13841
903.091	13681
903.21	13685
903.328	13575
903.446	13582
903.565	13491
903.683	13506
903.801	13449
903.919	13601
904.038	13419
904.156	13274
904.274	13384
904.392	13251
904.51	13266
904.627	13331
904.745	13244
904.863	13331
904.981	13122
905.098	13050
905.216	13175
905.334	13012
905.451	13034
905.569	12970
905.686	12996
905.803	13053
905.921	12798
906.038	12920
906.155	12932
906.272	12745
906.389	12798
906.506	12658
906.623	12574
906.74	12570
906.857	12513
906.974	12551
907.091	12665
907.208	12707
907.324	12703
907.441	12551
907.557	12365
907.674	12350
907.79	12327
907.907	12346
908.023	12445
908.139	12350
908.256	12327
908.372	12289
908.488	12190
908.604	12121
908.72	12098
908.836	12110
908.952	12110
909.068	12098
909.184	12239
909.3	12152
909.415	12167
909.531	12121
909.647	11836
909.762	11927
909.878	11885
909.993	11920
910.108	11824
910.224	11889
910.339	11973
910.454	11771
910.57	11699
910.685	11665
910.8	11992
910.915	11805
911.03	11760
911.145	11497
911.259	11562
911.374	11554
911.489	11452
911.604	11379
911.718	11284
911.833	11318
911.947	11250
912.062	11136
912.176	11254
912.291	11395
912.405	11269
912.519	11486
912.633	11539
912.748	11337
912.862	11315
912.976	11201
913.09	11067
913.204	11166
913.318	11189
913.431	11269
913.545	11337
913.659	11269
913.772	11185
913.886	11071
914	11003
914.113	11189
914.226	11231
914.34	11208
914.453	11029
914.566	11147
914.68	11018
914.793	10980
914.906	10786
915.019	10850
915.132	10759
915.245	10778
915.358	10771
915.47	10843
915.583	10809
915.696	10862
915.809	10915
915.921	10987
916.034	10736
916.146	10679
916.259	10641
916.371	10839
916.483	10759
916.595	10710
916.708	10706
916.82	10710
916.932	10664
917.044	10736
917.156	10664
917.268	10618
917.38	10675
917.491	10565
917.603	10649
917.715	10611
917.826	10714
917.938	10538
918.049	10470
918.161	10630
918.272	10729
918.384	10710
918.495	10649
918.606	10577
918.717	10390
918.828	10618
918.939	10485
919.05	10356
919.161	10478
919.272	10276
919.383	10318
919.494	10573
919.604	10687
919.715	10466
919.826	10451
919.936	10447
920.047	10615
920.157	10523
920.267	10721
920.378	10618
920.488	10546
920.598	10599
920.708	10873
920.818	10675
920.928	10668
921.038	10869
921.148	10835
921.258	10569
921.368	10512
921.477	10356
921.587	10390
921.697	10177
921.806	10299
921.916	10280
922.025	10128
922.134	10032
922.244	10013
922.353	10093
922.462	9979
922.571	9876
922.68	9713
922.789	9698
922.898	9743
923.007	9698
923.116	9724
923.224	9663
923.333	9690
923.442	9622
923.55	9584
923.659	9679
923.767	9675
923.876	9553
923.984	9701
924.092	9564
924.201	9564
924.309	9561
924.417	9599
924.525	9534
924.633	9568
924.741	10390
924.849	9306
924.956	9507
925.064	9405
925.172	9256
925.279	9336
925.387	9332
925.494	9340
925.602	9549
925.709	9439
925.816	9336
925.924	9355
926.031	9450
926.138	9340
926.245	9378
926.352	9268
926.459	9420
926.566	9481
926.673	9355
926.779	9272
926.886	9203
926.993	9127
927.099	9013
927.206	9017
927.312	8986
927.419	9119
927.525	9154
927.631	9150
927.737	9001
927.843	8963
927.95	8864
928.056	8902
928.162	9089
928.267	9066
928.373	9644
928.479	9062
928.585	8834
928.69	8960
928.796	8929
928.901	8902
929.007	8785
929.112	8857
929.218	8914
929.323	8842
929.428	8724
929.533	8899
929.638	8663
929.743	8811
929.848	8864
929.953	8727
930.058	8663
930.163	8556
930.267	8560
930.372	8705
930.477	8488
930.581	8777
930.685	8621
930.79	8473
930.894	8480
930.998	8507
931.103	8640
931.207	8305
931.311	8202
931.415	8130
931.519	8024
931.623	7978
