Data from test_V78500241_2002.txt Node
Date: Fri Mar 25 14:47:39 CST 2022
User: usil
Spectrometer: V785-0024
Trigger mode: 0
Integration Time (sec): 4.000000E-1
Scans to average: 1
Nonlinearity correction enabled: false
Boxcar width: 0
Storing dark spectrum: false
XAxis mode: Wavelengths
Number of Pixels in Spectrum: 1024
>>>>>Begin Spectral Data<<<<<
801.071	22029
801.214	21926
801.356	21648
801.499	21648
801.641	21576
801.783	21435
801.926	21519
802.068	21450
802.211	21378
802.353	21294
802.496	20944
802.638	21001
802.78	20963
802.923	20880
803.065	20746
803.208	20823
803.35	20876
803.492	20868
803.635	20914
803.777	20826
803.919	20830
804.061	21116
804.204	20941
804.346	20724
804.488	20724
804.63	20701
804.773	20659
804.915	20788
805.057	20815
805.199	20720
805.341	20800
805.483	20754
805.626	20807
805.768	20663
805.91	20674
806.052	20823
806.194	20644
806.336	20853
806.478	20686
806.62	20655
806.762	20864
806.904	20826
807.046	21116
807.188	21036
807.33	21001
807.472	21055
807.614	20944
807.756	20956
807.898	20845
808.04	20826
808.182	20804
808.324	20792
808.465	20849
808.607	21112
808.749	21096
808.891	21211
809.033	21245
809.174	21116
809.316	21032
809.458	21043
809.6	21070
809.741	21123
809.883	21077
810.025	21214
810.166	21313
810.308	21222
810.45	21127
810.591	21131
810.733	20941
810.875	20921
811.016	20868
811.158	20708
811.299	20948
811.441	20975
811.582	21020
811.724	20887
811.865	20853
812.007	20902
812.148	20842
812.29	20834
812.431	21001
812.573	21119
812.714	21173
812.855	21222
812.997	21439
813.138	21652
813.279	21443
813.421	21351
813.562	21336
813.703	21100
813.845	20990
813.986	20689
814.127	20541
814.268	20450
814.41	20431
814.551	20339
814.692	20533
814.833	20385
814.974	20343
815.115	20210
815.256	20187
815.397	20229
815.539	20271
815.68	20191
815.821	20115
815.962	20062
816.103	20103
816.244	19913
816.385	19940
816.526	19845
816.666	19685
816.807	19571
816.948	19582
817.089	19693
817.23	19632
817.371	19499
817.512	19480
817.653	19533
817.793	19464
817.934	19609
818.075	19639
818.216	19514
818.356	19400
818.497	19407
818.638	19187
818.778	19179
818.919	19232
819.06	19270
819.2	19434
819.341	19247
819.481	19472
819.622	19597
819.762	19788
819.903	19624
820.043	19506
820.184	19674
820.324	19540
820.465	19601
820.605	19506
820.746	19407
820.886	19480
821.026	19449
821.167	19491
821.307	19483
821.447	19419
821.588	19320
821.728	19232
821.868	19015
822.008	18878
822.149	18935
822.289	18913
822.429	18570
822.569	18627
822.709	18574
822.849	18452
822.99	18437
823.13	18448
823.27	18407
823.41	18270
823.55	18133
823.69	18254
823.83	18292
823.97	18129
824.11	18102
824.25	17908
824.389	18121
824.529	17996
824.669	17988
824.809	18140
824.949	18102
825.089	18015
825.228	18064
825.368	17748
825.508	17809
825.648	17760
825.787	17855
825.927	17847
826.067	17722
826.206	17680
826.346	17843
826.485	17863
826.625	17714
826.765	17847
826.904	17828
827.044	17581
827.183	17532
827.323	17467
827.462	17505
827.601	17444
827.741	17395
827.88	17482
828.02	17391
828.159	17570
828.298	17410
828.437	17398
828.577	17532
828.716	17695
828.855	17471
828.994	17200
829.134	17318
829.273	17349
829.412	17250
829.551	17246
829.69	17124
829.829	17345
829.968	17326
830.107	17284
830.246	17162
830.385	17162
830.524	17258
830.663	17102
830.802	16957
830.941	16881
831.08	16919
831.219	16881
831.357	16957
831.496	16999
831.635	16866
831.774	16843
831.913	16702
832.051	16569
832.19	16691
832.329	16672
832.467	16599
832.606	16478
832.744	16500
832.883	16546
833.022	16573
833.16	16596
833.299	16554
833.437	16599
833.576	16584
833.714	16512
833.852	16626
833.991	16622
834.129	16653
834.267	16713
834.406	16634
834.544	16706
834.682	16660
834.821	16607
834.959	16771
835.097	16493
835.235	16721
835.373	16736
835.511	16580
835.65	16622
835.788	16436
835.926	16329
836.064	16382
836.202	16341
836.34	16516
836.478	16550
836.615	16428
836.753	16599
836.891	16596
837.029	16550
837.167	16538
837.305	16516
837.443	16360
837.58	16303
837.718	16386
837.856	16337
837.993	16356
838.131	16405
838.269	16303
838.406	16322
838.544	16329
838.681	16059
838.819	15991
838.956	15972
839.094	15991
839.231	15987
839.369	16055
839.506	16310
839.643	16325
839.781	15926
839.918	15937
840.055	15835
840.193	15903
840.33	16032
840.467	15915
840.604	16013
840.742	16139
840.879	15873
841.016	15876
841.153	15918
841.29	15998
841.427	15956
841.564	15994
841.701	15945
841.838	15941
841.975	15895
842.112	15835
842.249	15755
842.385	15679
842.522	15975
842.659	15808
842.796	15724
842.933	15778
843.069	15686
843.206	15701
843.343	15880
843.479	15751
843.616	15701
843.752	15534
843.889	15447
844.025	15625
844.162	15424
844.298	15705
844.435	15458
844.571	15545
844.708	15656
844.844	15766
844.98	15542
845.117	15660
845.253	15443
845.389	15462
845.525	15504
845.661	15382
845.798	15306
845.934	15443
846.07	15302
846.206	15359
846.342	15359
846.478	15279
846.614	15165
846.75	15013
846.886	15047
847.022	15127
847.158	15013
847.294	15157
847.429	15085
847.565	15142
847.701	15313
847.837	14811
847.972	14594
848.108	15017
848.244	14849
848.379	14746
848.515	14746
848.65	14655
848.786	14655
848.921	14708
849.057	14796
849.192	14815
849.328	14788
849.463	14648
849.598	14686
849.734	14720
849.869	14632
850.004	14530
850.14	14400
850.275	14541
850.41	14377
850.545	14412
850.68	14412
850.815	14419
850.95	14347
851.085	14632
851.22	14632
851.355	14556
851.49	14389
851.625	14438
851.76	14427
851.895	14324
852.03	14347
852.165	14374
852.299	14469
852.434	14533
852.569	14465
852.703	14552
852.838	14530
852.973	14602
853.107	14575
853.242	14492
853.376	14484
853.511	14282
853.645	14347
853.78	14442
853.914	14324
854.048	14328
854.183	14282
854.317	14370
854.451	14503
854.585	14294
854.72	14404
854.854	14362
854.988	14309
855.122	14244
855.256	14168
855.39	14286
855.524	14358
855.658	14381
855.792	14389
855.926	14377
856.06	14282
856.194	14415
856.327	14389
856.461	14256
856.595	14259
856.729	14278
856.862	14381
856.996	14427
857.13	14389
857.263	14415
857.397	14446
857.53	14305
857.664	14499
857.797	14461
857.931	14465
858.064	14362
858.197	14492
858.331	14366
858.464	14332
858.597	14142
858.731	14362
858.864	14275
858.997	14374
859.13	14298
859.263	14336
859.396	14412
859.529	14275
859.662	14172
859.795	14290
859.928	14313
860.061	14556
860.194	14358
860.327	14438
860.46	14301
860.592	14423
860.725	14393
860.858	14518
860.99	14309
861.123	14183
861.256	14218
861.388	14298
861.521	15013
861.653	14214
861.786	14134
861.918	14183
862.05	14244
862.183	14336
862.315	14366
862.447	14362
862.58	14290
862.712	14096
862.844	14039
862.976	14134
863.108	14027
863.24	14434
863.372	13993
863.504	13982
863.636	14130
863.768	14164
863.9	14062
864.032	13944
864.164	14054
864.296	14100
864.428	14256
864.559	14145
864.691	14172
864.823	14134
864.954	14153
865.086	14046
865.217	13978
865.349	13974
865.48	14008
865.612	14115
865.743	14366
865.875	14031
866.006	14111
866.137	14081
866.269	14043
866.4	14008
866.531	14092
866.662	14043
866.793	13963
866.924	14020
867.055	14020
867.186	14054
867.317	14008
867.448	14020
867.579	14016
867.71	13986
867.841	13970
867.972	14096
868.103	14024
868.233	14069
868.364	14062
868.495	14161
868.625	14328
868.756	14381
868.886	14240
869.017	14393
869.147	14381
869.278	14484
869.408	14385
869.539	14301
869.669	14400
869.799	14434
869.929	14454
870.06	14465
870.19	14697
870.32	14606
870.45	14701
870.58	14674
870.71	14861
870.84	14861
870.97	14746
871.1	14693
871.23	14921
871.36	14971
871.489	14872
871.619	14887
871.749	14834
871.879	15009
872.008	14963
872.138	14845
872.267	14838
872.397	14834
872.526	14811
872.656	14754
872.785	14800
872.915	15009
873.044	14960
873.173	14960
873.303	15116
873.432	15028
873.561	15089
873.69	15024
873.819	14975
873.948	15001
874.077	14941
874.206	14971
874.335	15093
874.464	15066
874.593	15393
874.722	15260
874.851	15321
874.979	15313
875.108	15412
875.237	15252
875.365	15192
875.494	15214
875.623	15332
875.751	15176
875.88	15336
876.008	15435
876.136	15454
876.265	15747
876.393	15838
876.521	15827
876.65	15804
876.778	15739
876.906	15717
877.034	15690
877.162	15682
877.29	15679
877.418	15682
877.546	15728
877.674	15698
877.802	15675
877.93	15648
878.058	15568
878.185	15595
878.313	15717
878.441	15698
878.568	15523
878.696	15580
878.824	15660
878.951	15785
879.079	15941
879.206	16025
879.333	15911
879.461	15747
879.588	15789
879.715	15888
879.842	15964
879.97	15827
880.097	15614
880.224	15526
880.351	15587
880.478	15545
880.605	15542
880.732	15549
880.859	15728
880.986	15644
881.112	15576
881.239	15485
881.366	15336
881.493	15344
881.619	15260
881.746	15226
881.872	15252
881.999	15188
882.125	15188
882.252	15226
882.378	15237
882.505	15370
882.631	15173
882.757	15077
882.883	15062
883.01	15020
883.136	14937
883.262	14864
883.388	14914
883.514	15089
883.64	15009
883.766	15017
883.892	14842
884.018	14941
884.143	15039
884.269	15108
884.395	14845
884.52	14785
884.646	14727
884.772	14758
884.897	14724
885.023	14750
885.148	14872
885.274	14876
885.399	14857
885.524	14754
885.65	14792
885.775	14674
885.9	14678
886.025	14861
886.15	14853
886.275	14697
886.4	14598
886.525	14727
886.65	14648
886.775	14632
886.9	14941
887.025	14910
887.149	14743
887.274	14530
887.399	14598
887.523	14503
887.648	14568
887.773	14587
887.897	14545
888.021	14625
888.146	14530
888.27	14701
888.395	14598
888.519	14697
888.643	14636
888.767	14670
888.891	14545
889.015	14499
889.139	14492
889.263	14473
889.387	14488
889.511	14644
889.635	14560
889.759	14484
889.883	14461
890.006	14381
890.13	14530
890.254	14423
890.377	14400
890.501	14149
890.624	14271
890.748	14339
890.871	14199
890.995	14164
891.118	14130
891.241	14062
891.364	14149
891.488	14195
891.611	14210
891.734	14153
891.857	14100
891.98	14172
892.103	14240
892.226	14263
892.349	14088
892.471	14016
892.594	14126
892.717	14153
892.839	14149
892.962	14191
893.085	14168
893.207	14119
893.33	13982
893.452	13989
893.575	14218
893.697	14062
893.819	14290
893.941	14275
894.064	14313
894.186	14119
894.308	14084
894.43	14256
894.552	14309
894.674	14309
894.796	14161
894.918	14183
895.04	14142
895.161	14271
895.283	14221
895.405	14164
895.526	14199
895.648	14256
895.769	14275
895.891	14256
896.012	14351
896.134	14343
896.255	14332
896.376	14343
896.498	14210
896.619	14324
896.74	14195
896.861	14309
896.982	14476
897.103	14868
897.224	14545
897.345	14541
897.466	14526
897.587	14632
897.708	14663
897.828	14579
897.949	14499
898.07	14476
898.19	14492
898.311	14701
898.431	14507
898.552	14564
898.672	14712
898.792	14769
898.913	14682
899.033	14549
899.153	14549
899.273	14469
899.393	14560
899.513	14423
899.633	14495
899.753	14442
899.873	14537
899.993	14549
900.113	14431
900.232	14480
900.352	14514
900.472	14492
900.591	14328
900.711	14393
900.83	14263
900.95	14412
901.069	14404
901.189	14275
901.308	14054
901.427	14058
901.546	13993
901.665	14035
901.784	13993
901.904	13883
902.023	13871
902.141	13655
902.26	13575
902.379	13632
902.498	13529
902.617	13624
902.735	13609
902.854	13544
902.973	13559
903.091	13293
903.21	13297
903.328	13285
903.446	13217
903.565	13149
903.683	13221
903.801	13053
903.919	13103
904.038	13171
904.156	12977
904.274	13137
904.392	12943
904.51	13019
904.627	12935
904.745	13065
904.863	13012
904.981	12764
905.098	12700
905.216	12654
905.334	12738
905.451	12616
905.569	12646
905.686	12791
905.803	12715
905.921	12578
906.038	12608
906.155	12464
906.272	12437
906.389	12422
906.506	12296
906.623	12270
906.74	12262
906.857	12053
906.974	12186
907.091	12327
907.208	12319
907.324	12330
907.441	12155
907.557	12064
907.674	12019
907.79	11954
907.907	12019
908.023	12041
908.139	12053
908.256	12011
908.372	11931
908.488	11866
908.604	11828
908.72	11802
908.836	11748
908.952	11691
909.068	11836
909.184	11935
909.3	11764
909.415	11870
909.531	11790
909.647	11592
909.762	11532
909.878	11512
909.993	11592
910.108	11570
910.224	11535
910.339	11592
910.454	11387
910.57	11387
910.685	11315
910.8	11592
910.915	11600
911.03	11406
911.145	11235
911.259	11368
911.374	11273
911.489	11265
911.604	11178
911.718	10896
911.833	11071
911.947	10984
912.062	10801
912.176	11086
912.291	10949
912.405	11006
912.519	11174
912.633	11254
912.748	11045
912.862	11079
912.976	10885
913.09	10790
913.204	10854
913.318	10900
913.431	11037
913.545	10942
913.659	11056
913.772	10889
913.886	10755
914	10736
914.113	10824
914.226	10908
914.34	10927
914.453	10679
914.566	10805
914.68	10763
914.793	10733
914.906	10519
915.019	10523
915.132	10424
915.245	10455
915.358	10538
915.47	10481
915.583	10554
915.696	10611
915.809	10653
915.921	10641
916.034	10455
916.146	10485
916.259	10497
916.371	10546
916.483	10493
916.595	10367
916.708	10421
916.82	10398
916.932	10466
917.044	10474
917.156	10455
917.268	10280
917.38	10337
917.491	10375
917.603	10413
917.715	10493
917.826	10493
917.938	10356
918.049	10215
918.161	10344
918.272	10493
918.384	10478
918.495	10405
918.606	10234
918.717	10158
918.828	10162
918.939	10287
919.05	10105
919.161	10234
919.272	10013
919.383	10032
919.494	10325
919.604	10375
919.715	10234
919.826	10093
919.936	10204
920.047	10295
920.157	10204
920.267	10375
920.378	10318
920.488	10173
920.598	10398
920.708	10630
920.818	10428
920.928	10344
921.038	10626
921.148	10645
921.258	10257
921.368	10147
921.477	10139
921.587	10082
921.697	9991
921.806	10116
921.916	10090
922.025	9876
922.134	9797
922.244	9766
922.353	9907
922.462	9717
922.571	9580
922.68	9564
922.789	9420
922.898	9439
923.007	9412
923.116	9435
923.224	9477
923.333	9454
923.442	9412
923.55	9279
923.659	9431
923.767	9420
923.876	9367
923.984	9469
924.092	9241
924.201	9340
924.309	9348
924.417	9298
924.525	9348
924.633	9272
924.741	10215
924.849	9176
924.956	9241
925.064	9058
925.172	9135
925.279	9146
925.387	9195
925.494	9161
925.602	9287
925.709	9253
925.816	9100
925.924	9085
926.031	9275
926.138	9222
926.245	9127
926.352	9055
926.459	9173
926.566	9287
926.673	9116
926.779	9039
926.886	8941
926.993	8811
927.099	8823
927.206	8758
927.312	8872
927.419	8845
927.525	8823
927.631	8830
927.737	8781
927.843	8746
927.95	8629
928.056	8693
928.162	8731
928.267	8899
928.373	9370
928.479	8811
928.585	8594
928.69	8746
928.796	8792
928.901	8629
929.007	8518
929.112	8682
929.218	8636
929.323	8571
929.428	8564
929.533	8735
929.638	8480
929.743	8514
929.848	8511
929.953	8514
930.058	8473
930.163	8290
930.267	8347
930.372	8492
930.477	8313
930.581	8526
930.685	8427
930.79	8286
930.894	8286
930.998	8233
931.103	8351
931.207	8077
931.311	8046
931.415	7932
931.519	7746
931.623	7734
