Data from test_V78500241_3286.txt Node
Date: Fri Mar 25 14:56:35 CST 2022
User: usil
Spectrometer: V785-0024
Trigger mode: 0
Integration Time (sec): 4.000000E-1
Scans to average: 1
Nonlinearity correction enabled: false
Boxcar width: 0
Storing dark spectrum: false
XAxis mode: Wavelengths
Number of Pixels in Spectrum: 1024
>>>>>Begin Spectral Data<<<<<
801.071	21960
801.214	21812
801.356	21717
801.499	21526
801.641	21443
801.783	21454
801.926	21336
802.068	21348
802.211	21222
802.353	21142
802.496	20933
802.638	20864
802.78	20716
802.923	20769
803.065	20762
803.208	20651
803.35	20663
803.492	20785
803.635	20785
803.777	20541
803.919	20762
804.061	21070
804.204	20724
804.346	20579
804.488	20545
804.63	20727
804.773	20579
804.915	20457
805.057	20758
805.199	20480
805.341	20644
805.483	20625
805.626	20648
805.768	20594
805.91	20636
806.052	20697
806.194	20476
806.336	20773
806.478	20598
806.62	20530
806.762	20663
806.904	20773
807.046	20800
807.188	20895
807.33	20933
807.472	20857
807.614	20739
807.756	20792
807.898	20625
808.04	20697
808.182	20583
808.324	20765
808.465	20632
808.607	20807
808.749	20967
808.891	21051
809.033	21138
809.174	20944
809.316	20777
809.458	20849
809.6	20857
809.741	20921
809.883	21051
810.025	21001
810.166	21066
810.308	21047
810.45	20925
810.591	20792
810.733	20724
810.875	20765
811.016	20571
811.158	20571
811.299	20754
811.441	20861
811.582	20705
811.724	20560
811.865	20629
812.007	20705
812.148	20629
812.29	20750
812.431	20883
812.573	20994
812.714	21017
812.855	21150
812.997	21252
813.138	21397
813.279	21313
813.421	21195
813.562	21066
813.703	20960
813.845	20811
813.986	20450
814.127	20400
814.268	20267
814.41	20248
814.551	20164
814.692	20176
814.833	20286
814.974	20221
815.115	20225
815.256	20126
815.397	19993
815.539	20062
815.68	20031
815.821	19967
815.962	19932
816.103	19849
816.244	19837
816.385	19605
816.526	19689
816.666	19563
816.807	19293
816.948	19525
817.089	19533
817.23	19460
817.371	19274
817.512	19312
817.653	19411
817.793	19278
817.934	19430
818.075	19293
818.216	19373
818.356	19289
818.497	19221
818.638	19015
818.778	18985
818.919	18989
819.06	19015
819.2	19228
819.341	19198
819.481	19152
819.622	19350
819.762	19594
819.903	19635
820.043	19411
820.184	19331
820.324	19381
820.465	19449
820.605	19209
820.746	19308
820.886	19160
821.026	19247
821.167	19266
821.307	19400
821.447	19160
821.588	19225
821.728	18977
821.868	19004
822.008	18696
822.149	18757
822.289	18681
822.429	18589
822.569	18483
822.709	18422
822.849	18304
822.99	18315
823.13	18346
823.27	18216
823.41	17958
823.55	18026
823.69	17923
823.83	18144
823.97	17988
824.11	17779
824.25	17726
824.389	17889
824.529	17893
824.669	17729
824.809	17889
824.949	17988
825.089	17916
825.228	17764
825.368	17558
825.508	17634
825.648	17657
825.787	17653
825.927	17726
826.067	17554
826.206	17520
826.346	17554
826.485	17611
826.625	17562
826.765	17729
826.904	17634
827.044	17379
827.183	17208
827.323	17280
827.462	17421
827.601	17254
827.741	17212
827.88	17398
828.02	17216
828.159	17288
828.298	17398
828.437	17429
828.577	17231
828.716	17452
828.855	17246
828.994	17056
829.134	17018
829.273	17086
829.412	16938
829.551	17033
829.69	17140
829.829	17052
829.968	17216
830.107	17022
830.246	17060
830.385	16961
830.524	16946
830.663	16862
830.802	16805
830.941	16736
831.08	16660
831.219	16630
831.357	16755
831.496	16812
831.635	16645
831.774	16428
831.913	16535
832.051	16474
832.19	16489
832.329	16565
832.467	16459
832.606	16325
832.744	16310
832.883	16352
833.022	16367
833.16	16424
833.299	16348
833.437	16322
833.576	16325
833.714	16424
833.852	16428
833.991	16382
834.129	16538
834.267	16478
834.406	16424
834.544	16523
834.682	16474
834.821	16329
834.959	16599
835.097	16348
835.235	16497
835.373	16500
835.511	16440
835.65	16329
835.788	16272
835.926	16249
836.064	16154
836.202	16226
836.34	16352
836.478	16481
836.615	16322
836.753	16333
836.891	16394
837.029	16242
837.167	16348
837.305	16246
837.443	16207
837.58	16276
837.718	16284
837.856	16219
837.993	16131
838.131	16181
838.269	16131
838.406	16032
838.544	16078
838.681	15945
838.819	15915
838.956	15759
839.094	15739
839.231	15770
839.369	15800
839.506	16177
839.643	15972
839.781	15804
839.918	15648
840.055	15660
840.193	15812
840.33	15667
840.467	15793
840.604	15797
840.742	16116
840.879	15606
841.016	15656
841.153	15713
841.29	15869
841.427	15717
841.564	15747
841.701	15682
841.838	15675
841.975	15675
842.112	15686
842.249	15534
842.385	15496
842.522	15739
842.659	15504
842.796	15473
842.933	15545
843.069	15477
843.206	15538
843.343	15587
843.479	15545
843.616	15561
843.752	15412
843.889	15313
844.025	15462
844.162	15329
844.298	15458
844.435	15363
844.571	15294
844.708	15477
844.844	15492
844.98	15435
845.117	15435
845.253	15321
845.389	15279
845.525	15157
845.661	15127
845.798	15112
845.934	15230
846.07	15100
846.206	15249
846.342	15226
846.478	15100
846.614	14960
846.75	14899
846.886	14834
847.022	14990
847.158	14823
847.294	14906
847.429	14986
847.565	14944
847.701	15142
847.837	14602
847.972	14602
848.108	14853
848.244	14765
848.379	14575
848.515	14560
848.65	14431
848.786	14400
848.921	14415
849.057	14617
849.192	14648
849.328	14568
849.463	14499
849.598	14434
849.734	14351
849.869	14400
850.004	14294
850.14	14286
850.275	14309
850.41	14244
850.545	14358
850.68	14301
850.815	14240
850.95	14336
851.085	14404
851.22	14298
851.355	14271
851.49	14237
851.625	14176
851.76	14309
851.895	14191
852.03	14100
852.165	14206
852.299	14263
852.434	14393
852.569	14187
852.703	14396
852.838	14374
852.973	14427
853.107	14442
853.242	14298
853.376	14111
853.511	13989
853.645	14077
853.78	14267
853.914	14172
854.048	14096
854.183	14176
854.317	14180
854.451	14355
854.585	14168
854.72	14039
854.854	14157
854.988	14039
855.122	14096
855.256	14008
855.39	14183
855.524	14385
855.658	14271
855.792	14210
855.926	14164
856.06	14294
856.194	14221
856.327	14149
856.461	14046
856.595	14164
856.729	14054
856.862	14237
856.996	14206
857.13	14183
857.263	14267
857.397	14237
857.53	14065
857.664	14199
857.797	14145
857.931	14282
858.064	14172
858.197	14290
858.331	14115
858.464	14126
858.597	13894
858.731	14107
858.864	14050
858.997	14225
859.13	14195
859.263	14096
859.396	14298
859.529	14119
859.662	14046
859.795	14031
859.928	14157
860.061	14282
860.194	14278
860.327	14157
860.46	14195
860.592	14233
860.725	14271
860.858	14229
860.99	14111
861.123	13982
861.256	14008
861.388	14069
861.521	14941
861.653	14043
861.786	13993
861.918	14027
862.05	14058
862.183	14142
862.315	14149
862.447	14149
862.58	14119
862.712	13898
862.844	13974
862.976	14073
863.108	13955
863.24	14256
863.372	13879
863.504	13932
863.636	13928
863.768	13951
863.9	13921
864.032	13925
864.164	13917
864.296	13890
864.428	13936
864.559	14005
864.691	13982
864.823	14024
864.954	13917
865.086	13879
865.217	13906
865.349	13822
865.48	13902
865.612	13890
865.743	14065
865.875	13845
866.006	13944
866.137	13894
866.269	13928
866.4	13909
866.531	13830
866.662	13753
866.793	13799
866.924	13753
867.055	13826
867.186	13963
867.317	13909
867.448	13879
867.579	13875
867.71	13871
867.841	13780
867.972	13951
868.103	13951
868.233	13906
868.364	13940
868.495	14039
868.625	14092
868.756	14229
868.886	14145
869.017	14195
869.147	14221
869.278	14240
869.408	14126
869.539	14153
869.669	14210
869.799	14237
869.929	14294
870.06	14145
870.19	14533
870.32	14514
870.45	14503
870.58	14552
870.71	14640
870.84	14621
870.97	14507
871.1	14511
871.23	14792
871.36	14773
871.489	14731
871.619	14739
871.749	14701
871.879	14777
872.008	14811
872.138	14788
872.267	14796
872.397	14682
872.526	14610
872.656	14533
872.785	14495
872.915	14731
873.044	14921
873.173	14826
873.303	14861
873.432	14800
873.561	14842
873.69	14823
873.819	14800
873.948	14842
874.077	14815
874.206	14720
874.335	14811
874.464	14975
874.593	15055
874.722	15085
874.851	15100
874.979	15222
875.108	15169
875.237	15173
875.365	14979
875.494	15043
875.623	15218
875.751	15028
875.88	15173
876.008	15237
876.136	15363
876.265	15416
876.393	15622
876.521	15549
876.65	15591
876.778	15587
876.906	15530
877.034	15374
877.162	15576
877.29	15481
877.418	15477
877.546	15610
877.674	15542
877.802	15530
877.93	15515
878.058	15504
878.185	15325
878.313	15530
878.441	15530
878.568	15386
878.696	15553
878.824	15496
878.951	15538
879.079	15781
879.206	15785
879.333	15762
879.461	15454
879.588	15720
879.715	15682
879.842	15842
879.97	15542
880.097	15500
880.224	15424
880.351	15359
880.478	15401
880.605	15401
880.732	15401
880.859	15660
880.986	15507
881.112	15500
881.239	15332
881.366	15199
881.493	15055
881.619	15112
881.746	15001
881.872	14990
881.999	14963
882.125	15085
882.252	15070
882.378	15150
882.505	15169
882.631	15043
882.757	14918
882.883	14925
883.01	14941
883.136	14876
883.262	14811
883.388	14712
883.514	14864
883.64	14960
883.766	14807
883.892	14716
884.018	14731
884.143	14933
884.269	14979
884.395	14686
884.52	14579
884.646	14602
884.772	14450
884.897	14533
885.023	14644
885.148	14617
885.274	14819
885.399	14663
885.524	14670
885.65	14545
885.775	14583
885.9	14488
886.025	14678
886.15	14663
886.275	14526
886.4	14469
886.525	14693
886.65	14537
886.775	14545
886.9	14663
887.025	14773
887.149	14560
887.274	14438
887.399	14415
887.523	14366
887.648	14385
887.773	14328
887.897	14514
888.021	14427
888.146	14408
888.27	14556
888.395	14621
888.519	14457
888.643	14476
888.767	14514
888.891	14351
889.015	14309
889.139	14244
889.263	14176
889.387	14454
889.511	14492
889.635	14412
889.759	14317
889.883	14347
890.006	14301
890.13	14442
890.254	14221
890.377	14237
890.501	14149
890.624	14065
890.748	14214
890.871	14115
890.995	13947
891.118	13982
891.241	14039
891.364	13967
891.488	14062
891.611	13997
891.734	14031
891.857	14111
891.98	14005
892.103	14077
892.226	13928
892.349	13963
892.471	13807
892.594	13944
892.717	14001
892.839	13921
892.962	13989
893.085	14020
893.207	13944
893.33	13906
893.452	13902
893.575	14100
893.697	13989
893.819	14130
893.941	14164
894.064	14142
894.186	13978
894.308	13879
894.43	14077
894.552	14206
894.674	14077
894.796	13837
894.918	14012
895.04	14024
895.161	14142
895.283	14164
895.405	14126
895.526	14096
895.648	14081
895.769	14065
895.891	14020
896.012	14202
896.134	14084
896.255	14077
896.376	14145
896.498	14180
896.619	14256
896.74	14183
896.861	14168
896.982	14575
897.103	14651
897.224	14427
897.345	14408
897.466	14374
897.587	14480
897.708	14571
897.828	14461
897.949	14400
898.07	14214
898.19	14438
898.311	14537
898.431	14450
898.552	14457
898.672	14522
898.792	14556
898.913	14419
899.033	14336
899.153	14385
899.273	14161
899.393	14328
899.513	14434
899.633	14396
899.753	14457
899.873	14282
899.993	14404
900.113	14317
900.232	14446
900.352	14412
900.472	14336
900.591	14294
900.711	14218
900.83	14248
900.95	14290
901.069	14290
901.189	14130
901.308	13944
901.427	13807
901.546	13974
901.665	14024
901.784	13879
901.904	13765
902.023	13670
902.141	13594
902.26	13487
902.379	13518
902.498	13464
902.617	13384
902.735	13430
902.854	13499
902.973	13457
903.091	13213
903.21	13236
903.328	13247
903.446	13141
903.565	13072
903.683	13038
903.801	12958
903.919	13004
904.038	13008
904.156	12916
904.274	12859
904.392	12829
904.51	12867
904.627	12776
904.745	12817
904.863	12901
904.981	12681
905.098	12623
905.216	12517
905.334	12604
905.451	12521
905.569	12559
905.686	12547
905.803	12627
905.921	12441
906.038	12369
906.155	12391
906.272	12163
906.389	12330
906.506	12125
906.623	12098
906.74	12148
906.857	11992
906.974	11946
907.091	12197
907.208	12277
907.324	12159
907.441	12117
907.557	11931
907.674	11908
907.79	11832
907.907	11939
908.023	11908
908.139	11935
908.256	11824
908.372	11851
908.488	11775
908.604	11646
908.72	11646
908.836	11688
908.952	11611
909.068	11627
909.184	11771
909.3	11756
909.415	11714
909.531	11688
909.647	11455
909.762	11478
909.878	11421
909.993	11490
910.108	11379
910.224	11387
910.339	11414
910.454	11330
910.57	11284
910.685	11208
910.8	11463
910.915	11486
911.03	11280
911.145	11124
911.259	11178
911.374	11189
911.489	11014
911.604	10991
911.718	10889
911.833	10923
911.947	10778
912.062	10816
912.176	10915
912.291	10896
912.405	10965
912.519	11067
912.633	11117
912.748	10949
912.862	10965
912.976	10866
913.09	10664
913.204	10729
913.318	10820
913.431	10892
913.545	10869
913.659	10820
913.772	10797
913.886	10691
914	10588
914.113	10797
914.226	10767
914.34	10725
914.453	10683
914.566	10717
914.68	10462
914.793	10660
914.906	10478
915.019	10360
915.132	10344
915.245	10344
915.358	10474
915.47	10405
915.583	10436
915.696	10409
915.809	10542
915.921	10577
916.034	10318
916.146	10337
916.259	10375
916.371	10535
916.483	10386
916.595	10329
916.708	10303
916.82	10379
916.932	10276
917.044	10276
917.156	10325
917.268	10211
917.38	10284
917.491	10287
917.603	10253
917.715	10306
917.826	10356
917.938	10276
918.049	10109
918.161	10242
918.272	10466
918.384	10352
918.495	10238
918.606	10204
918.717	10032
918.828	10139
918.939	10234
919.05	10006
919.161	10105
919.272	9964
919.383	9998
919.494	10147
919.604	10272
919.715	10093
919.826	10006
919.936	10051
920.047	10185
920.157	10173
920.267	10341
920.378	10215
920.488	10112
920.598	10329
920.708	10436
920.818	10348
920.928	10337
921.038	10481
921.148	10398
921.258	10204
921.368	10048
921.477	9983
921.587	10006
921.697	9903
921.806	10017
921.916	9873
922.025	9652
922.134	9675
922.244	9637
922.353	9728
922.462	9622
922.571	9633
922.68	9367
922.789	9344
922.898	9393
923.007	9245
923.116	9408
923.224	9393
923.333	9401
923.442	9298
923.55	9287
923.659	9329
923.767	9344
923.876	9279
923.984	9325
924.092	9154
924.201	9188
924.309	9272
924.417	9260
924.525	9233
924.633	9233
924.741	10150
924.849	9039
924.956	9173
925.064	9047
925.172	8998
925.279	9005
925.387	9036
925.494	9058
925.602	9157
925.709	9146
925.816	8952
925.924	9062
926.031	9161
926.138	9070
926.245	9085
926.352	8971
926.459	9089
926.566	9123
926.673	9055
926.779	8979
926.886	8941
926.993	8819
927.099	8708
927.206	8781
927.312	8716
927.419	8701
927.525	8678
927.631	8853
927.737	8670
927.843	8667
927.95	8549
928.056	8629
928.162	8659
928.267	8689
928.373	9157
928.479	8785
928.585	8514
928.69	8655
928.796	8724
928.901	8545
929.007	8480
929.112	8549
929.218	8575
929.323	8457
929.428	8469
929.533	8590
929.638	8476
929.743	8419
929.848	8431
929.953	8476
930.058	8412
930.163	8248
930.267	8275
930.372	8393
930.477	8233
930.581	8434
930.685	8347
930.79	8225
930.894	8256
930.998	8187
931.103	8339
931.207	8077
931.311	7955
931.415	7902
931.519	7765
931.623	7715
