Data from test_V78500241_3598.txt Node
Date: Fri Mar 25 14:58:46 CST 2022
User: usil
Spectrometer: V785-0024
Trigger mode: 0
Integration Time (sec): 4.000000E-1
Scans to average: 1
Nonlinearity correction enabled: false
Boxcar width: 0
Storing dark spectrum: false
XAxis mode: Wavelengths
Number of Pixels in Spectrum: 1024
>>>>>Begin Spectral Data<<<<<
801.071	21842
801.214	21720
801.356	21469
801.499	21496
801.641	21256
801.783	21226
801.926	21272
802.068	21085
802.211	21089
802.353	21005
802.496	20800
802.638	20781
802.78	20743
802.923	20640
803.065	20640
803.208	20636
803.35	20609
803.492	20724
803.635	20686
803.777	20575
803.919	20701
804.061	20990
804.204	20629
804.346	20602
804.488	20598
804.63	20590
804.773	20499
804.915	20495
805.057	20518
805.199	20503
805.341	20568
805.483	20560
805.626	20526
805.768	20480
805.91	20537
806.052	20590
806.194	20374
806.336	20629
806.478	20511
806.62	20412
806.762	20488
806.904	20648
807.046	20887
807.188	20735
807.33	20823
807.472	21077
807.614	20663
807.756	20667
807.898	20594
808.04	20564
808.182	20469
808.324	20492
808.465	20651
808.607	20750
808.749	20838
808.891	20960
809.033	21032
809.174	20872
809.316	20788
809.458	20823
809.6	20807
809.741	20937
809.883	20910
810.025	21036
810.166	20887
810.308	20899
810.45	20910
810.591	20792
810.733	20651
810.875	20556
811.016	20495
811.158	20488
811.299	20621
811.441	20731
811.582	20769
811.724	20522
811.865	20541
812.007	20423
812.148	20408
812.29	20606
812.431	20655
812.573	20990
812.714	21055
812.855	21112
812.997	21192
813.138	21313
813.279	21108
813.421	21161
813.562	20986
813.703	20765
813.845	20644
813.986	20511
814.127	20298
814.268	20286
814.41	20237
814.551	20298
814.692	20043
814.833	20031
814.974	20058
815.115	20020
815.256	20096
815.397	20046
815.539	19940
815.68	19871
815.821	19856
815.962	19811
816.103	19860
816.244	19681
816.385	19613
816.526	19597
816.666	19445
816.807	19259
816.948	19308
817.089	19324
817.23	19304
817.371	19278
817.512	19297
817.653	19137
817.793	19122
817.934	19320
818.075	19209
818.216	19209
818.356	19217
818.497	19175
818.638	18840
818.778	18935
818.919	19065
819.06	19023
819.2	19031
819.341	19156
819.481	19217
819.622	19350
819.762	19453
819.903	19358
820.043	19384
820.184	19179
820.324	19251
820.465	19251
820.605	19202
820.746	19221
820.886	19263
821.026	19221
821.167	19164
821.307	19255
821.447	19122
821.588	19107
821.728	18840
821.868	18821
822.008	18578
822.149	18669
822.289	18566
822.429	18456
822.569	18338
822.709	18369
822.849	18174
822.99	18148
823.13	18117
823.27	18049
823.41	17961
823.55	17855
823.69	17870
823.83	17908
823.97	17859
824.11	17821
824.25	17695
824.389	17783
824.529	17741
824.669	17710
824.809	17893
824.949	17779
825.089	17805
825.228	17767
825.368	17566
825.508	17547
825.648	17532
825.787	17493
825.927	17554
826.067	17509
826.206	17459
826.346	17497
826.485	17501
826.625	17474
826.765	17680
826.904	17493
827.044	17330
827.183	17284
827.323	17258
827.462	17200
827.601	17147
827.741	17200
827.88	17261
828.02	17041
828.159	17231
828.298	17303
828.437	17242
828.577	17151
828.716	17322
828.855	17239
828.994	17003
829.134	16919
829.273	17067
829.412	16961
829.551	16873
829.69	16927
829.829	16984
829.968	17083
830.107	17014
830.246	16999
830.385	16991
830.524	16850
830.663	16839
830.802	16733
830.941	16656
831.08	16489
831.219	16725
831.357	16546
831.496	16866
831.635	16634
831.774	16531
831.913	16489
832.051	16440
832.19	16337
832.329	16466
832.467	16295
832.606	16192
832.744	16306
832.883	16219
833.022	16196
833.16	16265
833.299	16352
833.437	16398
833.576	16379
833.714	16386
833.852	16386
833.991	16303
834.129	16314
834.267	16322
834.406	16295
834.544	16322
834.682	16310
834.821	16306
834.959	16558
835.097	16276
835.235	16409
835.373	16440
835.511	16333
835.65	16207
835.788	16207
835.926	16120
836.064	16162
836.202	16074
836.34	16272
836.478	16230
836.615	16242
836.753	16344
836.891	16348
837.029	16291
837.167	16223
837.305	16150
837.443	16181
837.58	16101
837.718	16219
837.856	16109
837.993	16063
838.131	16143
838.269	16112
838.406	16131
838.544	16017
838.681	15861
838.819	15895
838.956	15747
839.094	15690
839.231	15808
839.369	15857
839.506	16090
839.643	16029
839.781	15736
839.918	15690
840.055	15679
840.193	15667
840.33	15557
840.467	15755
840.604	15705
840.742	15945
840.879	15625
841.016	15637
841.153	15530
841.29	15831
841.427	15751
841.564	15778
841.701	15701
841.838	15652
841.975	15667
842.112	15622
842.249	15542
842.385	15511
842.522	15625
842.659	15500
842.796	15462
842.933	15454
843.069	15359
843.206	15405
843.343	15572
843.479	15443
843.616	15515
843.752	15325
843.889	15302
844.025	15443
844.162	15218
844.298	15386
844.435	15291
844.571	15287
844.708	15397
844.844	15458
844.98	15351
845.117	15321
845.253	15214
845.389	15203
845.525	15241
845.661	15074
845.798	15085
845.934	15161
846.07	15039
846.206	15097
846.342	15112
846.478	15024
846.614	14883
846.75	14838
846.886	14826
847.022	14910
847.158	14792
847.294	14830
847.429	14937
847.565	14902
847.701	15146
847.837	14629
847.972	14492
848.108	14594
848.244	14693
848.379	14541
848.515	14434
848.65	14385
848.786	14408
848.921	14488
849.057	14640
849.192	14579
849.328	14484
849.463	14454
849.598	14438
849.734	14408
849.869	14317
850.004	14202
850.14	14267
850.275	14233
850.41	14031
850.545	14161
850.68	14187
850.815	14271
850.95	14225
851.085	14389
851.22	14225
851.355	14206
851.49	14134
851.625	14256
851.76	14142
851.895	14084
852.03	14081
852.165	14183
852.299	14164
852.434	14320
852.569	14214
852.703	14172
852.838	14313
852.973	14301
853.107	14381
853.242	14138
853.376	14081
853.511	14031
853.645	14081
853.78	14107
853.914	14206
854.048	13982
854.183	13993
854.317	14092
854.451	14256
854.585	14088
854.72	14096
854.854	14103
854.988	14069
855.122	14065
855.256	13963
855.39	14043
855.524	14096
855.658	14069
855.792	14119
855.926	14119
856.06	14077
856.194	14172
856.327	14153
856.461	14153
856.595	14020
856.729	14149
856.862	14191
856.996	14031
857.13	14153
857.263	14240
857.397	14176
857.53	14157
857.664	14191
857.797	14176
857.931	14206
858.064	14164
858.197	14119
858.331	14126
858.464	14046
858.597	13944
858.731	14031
858.864	14046
858.997	14111
859.13	14134
859.263	14077
859.396	14172
859.529	14119
859.662	14069
859.795	14123
859.928	14134
860.061	14214
860.194	14320
860.327	14039
860.46	14172
860.592	14180
860.725	14172
860.858	14278
860.99	14145
861.123	14043
861.256	14073
861.388	14100
861.521	14906
861.653	14100
861.786	13879
861.918	13967
862.05	14005
862.183	14065
862.315	14100
862.447	14092
862.58	14005
862.712	13887
862.844	13731
862.976	14012
863.108	13909
863.24	14256
863.372	13871
863.504	13963
863.636	13818
863.768	13974
863.9	13830
864.032	13826
864.164	13814
864.296	13906
864.428	14043
864.559	14027
864.691	14008
864.823	13986
864.954	13868
865.086	13909
865.217	13871
865.349	13852
865.48	13833
865.612	13909
865.743	13986
865.875	13879
866.006	13845
866.137	13849
866.269	13814
866.4	13811
866.531	13830
866.662	13852
866.793	13769
866.924	13746
867.055	13887
867.186	13928
867.317	13769
867.448	13799
867.579	13811
867.71	13772
867.841	13769
867.972	13913
868.103	13818
868.233	13830
868.364	13887
868.495	13963
868.625	14138
868.756	14168
868.886	14081
869.017	14180
869.147	14301
869.278	14263
869.408	14161
869.539	14069
869.669	14172
869.799	14138
869.929	14199
870.06	14134
870.19	14454
870.32	14396
870.45	14427
870.58	14511
870.71	14579
870.84	14621
870.97	14537
871.1	14488
871.23	14693
871.36	14712
871.489	14693
871.619	14701
871.749	14655
871.879	14739
872.008	14781
872.138	14788
872.267	14872
872.397	14522
872.526	14484
872.656	14526
872.785	14526
872.915	14670
873.044	14826
873.173	14762
873.303	14743
873.432	14731
873.561	14914
873.69	14830
873.819	14804
873.948	14861
874.077	14765
874.206	14781
874.335	14800
874.464	14872
874.593	15157
874.722	15070
874.851	15146
874.979	15123
875.108	15100
875.237	15062
875.365	14921
875.494	15017
875.623	15066
875.751	15097
875.88	15070
876.008	15203
876.136	15325
876.265	15488
876.393	15660
876.521	15648
876.65	15599
876.778	15523
876.906	15454
877.034	15401
877.162	15469
877.29	15355
877.418	15591
877.546	15500
877.674	15443
877.802	15526
877.93	15519
878.058	15439
878.185	15325
878.313	15530
878.441	15488
878.568	15332
878.696	15386
878.824	15545
878.951	15606
879.079	15739
879.206	15816
879.333	15656
879.461	15469
879.588	15618
879.715	15614
879.842	15793
879.97	15568
880.097	15348
880.224	15386
880.351	15450
880.478	15443
880.605	15363
880.732	15386
880.859	15591
880.986	15401
881.112	15382
881.239	15298
881.366	14994
881.493	15024
881.619	15001
881.746	15116
881.872	14948
881.999	15066
882.125	15001
882.252	15020
882.378	14982
882.505	15203
882.631	14979
882.757	14853
882.883	14861
883.01	14895
883.136	14834
883.262	14758
883.388	14648
883.514	14834
883.64	14826
883.766	14815
883.892	14659
884.018	14731
884.143	14853
884.269	14914
884.395	14575
884.52	14484
884.646	14537
884.772	14461
884.897	14499
885.023	14446
885.148	14667
885.274	14731
885.399	14625
885.524	14583
885.65	14526
885.775	14621
885.9	14537
886.025	14689
886.15	14556
886.275	14522
886.4	14389
886.525	14404
886.65	14511
886.775	14423
886.9	14602
887.025	14804
887.149	14549
887.274	14355
887.399	14374
887.523	14336
887.648	14298
887.773	14317
887.897	14492
888.021	14450
888.146	14343
888.27	14454
888.395	14617
888.519	14412
888.643	14404
888.767	14419
888.891	14278
889.015	14324
889.139	14237
889.263	14229
889.387	14324
889.511	14427
889.635	14385
889.759	14271
889.883	14286
890.006	14233
890.13	14404
890.254	14161
890.377	14096
890.501	14062
890.624	14081
890.748	14149
890.871	14073
890.995	13921
891.118	13818
891.241	13868
891.364	13921
891.488	14027
891.611	13928
891.734	13913
891.857	13917
891.98	13928
892.103	13936
892.226	13928
892.349	13830
892.471	13761
892.594	13982
892.717	13978
892.839	14012
892.962	13944
893.085	14100
893.207	13921
893.33	13799
893.452	13811
893.575	13974
893.697	13940
893.819	14103
893.941	14176
894.064	14092
894.186	13940
894.308	13925
894.43	14088
894.552	14161
894.674	14153
894.796	13856
894.918	14008
895.04	13970
895.161	14123
895.283	14050
895.405	13936
895.526	14031
895.648	14149
895.769	14027
895.891	14168
896.012	14199
896.134	14115
896.255	14092
896.376	14054
896.498	14225
896.619	14126
896.74	14153
896.861	14168
896.982	14560
897.103	14552
897.224	14370
897.345	14317
897.466	14362
897.587	14324
897.708	14450
897.828	14495
897.949	14256
898.07	14218
898.19	14366
898.311	14518
898.431	14488
898.552	14522
898.672	14606
898.792	14541
898.913	14507
899.033	14469
899.153	14294
899.273	14259
899.393	14339
899.513	14282
899.633	14317
899.753	14317
899.873	14248
899.993	14377
900.113	14317
900.232	14324
900.352	14259
900.472	14248
900.591	14176
900.711	14256
900.83	14103
900.95	14282
901.069	14309
901.189	14134
901.308	13902
901.427	13830
901.546	13830
901.665	13890
901.784	13875
901.904	13860
902.023	13715
902.141	13480
902.26	13400
902.379	13548
902.498	13438
902.617	13358
902.735	13537
902.854	13415
902.973	13331
903.091	13122
903.21	13152
903.328	13228
903.446	13175
903.565	12989
903.683	12996
903.801	12932
903.919	13027
904.038	13046
904.156	12886
904.274	12905
904.392	12772
904.51	12798
904.627	12760
904.745	12875
904.863	12916
904.981	12570
905.098	12441
905.216	12517
905.334	12654
905.451	12585
905.569	12448
905.686	12547
905.803	12574
905.921	12361
906.038	12460
906.155	12441
906.272	12224
906.389	12327
906.506	12159
906.623	12155
906.74	12102
906.857	12038
906.974	12060
907.091	12228
907.208	12258
907.324	12125
907.441	12053
907.557	11878
907.674	11904
907.79	11790
907.907	11779
908.023	11874
908.139	11843
908.256	11824
908.372	11824
908.488	11897
908.604	11668
908.72	11630
908.836	11627
908.952	11509
909.068	11585
909.184	11726
909.3	11592
909.415	11710
909.531	11661
909.647	11376
909.762	11417
909.878	11337
909.993	11410
910.108	11421
910.224	11334
910.339	11417
910.454	11356
910.57	11296
910.685	11185
910.8	11505
910.915	11368
911.03	11288
911.145	11045
911.259	11166
911.374	11121
911.489	11067
911.604	10968
911.718	10820
911.833	10824
911.947	10721
912.062	10691
912.176	10790
912.291	10896
912.405	10892
912.519	11006
912.633	10946
912.748	10942
912.862	10831
912.976	10759
913.09	10672
913.204	10611
913.318	10710
913.431	10854
913.545	10786
913.659	10828
913.772	10725
913.886	10656
914	10584
914.113	10714
914.226	10759
914.34	10736
914.453	10531
914.566	10679
914.68	10554
914.793	10489
914.906	10352
915.019	10379
915.132	10314
915.245	10367
915.358	10417
915.47	10417
915.583	10440
915.696	10417
915.809	10527
915.921	10542
916.034	10322
916.146	10356
916.259	10329
916.371	10462
916.483	10344
916.595	10325
916.708	10379
916.82	10306
916.932	10257
917.044	10329
917.156	10310
917.268	10173
917.38	10219
917.491	10196
917.603	10287
917.715	10234
917.826	10276
917.938	10223
918.049	10097
918.161	10246
918.272	10318
918.384	10352
918.495	10227
918.606	10086
918.717	10101
918.828	10131
918.939	10131
919.05	9960
919.161	10048
919.272	9899
919.383	9949
919.494	10227
919.604	10306
919.715	10143
919.826	10025
919.936	10109
920.047	10147
920.157	10109
920.267	10344
920.378	10173
920.488	10101
920.598	10257
920.708	10470
920.818	10329
920.928	10306
921.038	10386
921.148	10455
921.258	10215
921.368	10021
921.477	9934
921.587	9964
921.697	9857
921.806	10010
921.916	9911
922.025	9671
922.134	9724
922.244	9629
922.353	9679
922.462	9561
922.571	9507
922.68	9389
922.789	9329
922.898	9359
923.007	9317
923.116	9374
923.224	9355
923.333	9359
923.442	9192
923.55	9283
923.659	9272
923.767	9283
923.876	9154
923.984	9260
924.092	9127
924.201	9287
924.309	9173
924.417	9291
924.525	9249
924.633	9184
924.741	9937
924.849	9058
924.956	9161
925.064	9036
925.172	8887
925.279	9005
925.387	9047
925.494	9070
925.602	9184
925.709	9154
925.816	8933
925.924	9017
926.031	9112
926.138	9024
926.245	9108
926.352	8956
926.459	9058
926.566	9051
926.673	8986
926.779	8834
926.886	8845
926.993	8735
927.099	8785
927.206	8655
927.312	8705
927.419	8777
927.525	8750
927.631	8773
927.737	8769
927.843	8625
927.95	8552
928.056	8621
928.162	8644
928.267	8674
928.373	9169
928.479	8762
928.585	8503
928.69	8640
928.796	8625
928.901	8629
929.007	8412
929.112	8632
929.218	8511
929.323	8476
929.428	8404
929.533	8598
929.638	8400
929.743	8442
929.848	8522
929.953	8434
930.058	8313
930.163	8218
930.267	8256
930.372	8362
930.477	8202
930.581	8484
930.685	8320
930.79	8202
930.894	8221
930.998	8157
931.103	8225
931.207	7974
931.311	7978
931.415	7750
931.519	7715
931.623	7738
