Data from test_V78500241_1079.txt Node
Date: Fri Mar 25 14:41:13 CST 2022
User: usil
Spectrometer: V785-0024
Trigger mode: 0
Integration Time (sec): 4.000000E-1
Scans to average: 1
Nonlinearity correction enabled: false
Boxcar width: 0
Storing dark spectrum: false
XAxis mode: Wavelengths
Number of Pixels in Spectrum: 1024
>>>>>Begin Spectral Data<<<<<
801.071	22694
801.214	22706
801.356	22493
801.499	22223
801.641	22124
801.783	22120
801.926	22204
802.068	22036
802.211	22082
802.353	21964
802.496	21660
802.638	21618
802.78	21511
802.923	21606
803.065	21439
803.208	21431
803.35	21603
803.492	21682
803.635	21591
803.777	21519
803.919	21473
804.061	21785
804.204	21545
804.346	21447
804.488	21412
804.63	21351
804.773	21325
804.915	21443
805.057	21587
805.199	21363
805.341	21428
805.483	21568
805.626	21450
805.768	21355
805.91	21443
806.052	21329
806.194	21355
806.336	21523
806.478	21466
806.62	21397
806.762	21530
806.904	21542
807.046	21850
807.188	21812
807.33	21618
807.472	21892
807.614	21728
807.756	21945
807.898	21713
808.04	21675
808.182	21679
808.324	21823
808.465	21846
808.607	22055
808.749	22421
808.891	22462
809.033	22478
809.174	22367
809.316	22150
809.458	22032
809.6	22135
809.741	22135
809.883	22017
810.025	22139
810.166	22055
810.308	22242
810.45	22086
810.591	21994
810.733	21846
810.875	21808
811.016	21637
811.158	21580
811.299	21644
811.441	21747
811.582	21690
811.724	21629
811.865	21561
812.007	21732
812.148	21701
812.29	21622
812.431	21770
812.573	21926
812.714	22036
812.855	22128
812.997	22280
813.138	22322
813.279	22158
813.421	22070
813.562	21934
813.703	21861
813.845	21679
813.986	21424
814.127	21291
814.268	21116
814.41	21195
814.551	21146
814.692	21173
814.833	21058
814.974	21093
815.115	21150
815.256	20902
815.397	21013
815.539	20960
815.68	20979
815.821	20735
815.962	20967
816.103	20804
816.244	20739
816.385	20663
816.526	20571
816.666	20495
816.807	20427
816.948	20438
817.089	20438
817.23	20339
817.371	20362
817.512	20240
817.653	20172
817.793	20259
817.934	20336
818.075	20362
818.216	20298
818.356	20301
818.497	20111
818.638	19932
818.778	19997
818.919	20027
819.06	20035
819.2	20176
819.341	20073
819.481	20206
819.622	20339
819.762	20423
819.903	20446
820.043	20332
820.184	20389
820.324	20225
820.465	20358
820.605	20366
820.746	20267
820.886	20111
821.026	20119
821.167	20256
821.307	20286
821.447	20149
821.588	20046
821.728	19951
821.868	19784
822.008	19742
822.149	19662
822.289	19647
822.429	19434
822.569	19487
822.709	19316
822.849	19183
822.99	19095
823.13	19107
823.27	19133
823.41	19000
823.55	18962
823.69	19057
823.83	19004
823.97	19000
824.11	18791
824.25	18825
824.389	18757
824.529	18833
824.669	18696
824.809	18878
824.949	18916
825.089	18924
825.228	18692
825.368	18559
825.508	18601
825.648	18650
825.787	18585
825.927	18673
826.067	18471
826.206	18532
826.346	18544
826.485	18597
826.625	18471
826.765	18544
826.904	18555
827.044	18334
827.183	18258
827.323	18220
827.462	18342
827.601	18334
827.741	18190
827.88	18311
828.02	18106
828.159	18155
828.298	18254
828.437	18285
828.577	18296
828.716	18380
828.855	18197
828.994	18060
829.134	17977
829.273	18007
829.412	18026
829.551	17885
829.69	18091
829.829	18083
829.968	18053
830.107	18076
830.246	18034
830.385	17920
830.524	17939
830.663	17817
830.802	17729
830.941	17642
831.08	17630
831.219	17726
831.357	17642
831.496	17779
831.635	17634
831.774	17490
831.913	17410
832.051	17368
832.19	17417
832.329	17520
832.467	17318
832.606	17265
832.744	17322
832.883	17334
833.022	17273
833.16	17288
833.299	17318
833.437	17376
833.576	17429
833.714	17448
833.852	17440
833.991	17459
834.129	17516
834.267	17551
834.406	17429
834.544	17429
834.682	17482
834.821	17425
834.959	17482
835.097	17345
835.235	17391
835.373	17360
835.511	17315
835.65	17299
835.788	17296
835.926	17143
836.064	17102
836.202	17060
836.34	17284
836.478	17402
836.615	17261
836.753	17200
836.891	17322
837.029	17337
837.167	17128
837.305	17117
837.443	17254
837.58	17105
837.718	17216
837.856	17124
837.993	17083
838.131	17014
838.269	17037
838.406	17045
838.544	17079
838.681	16881
838.819	16877
838.956	16565
839.094	16645
839.231	16790
839.369	16771
839.506	17098
839.643	17064
839.781	16649
839.918	16660
840.055	16675
840.193	16622
840.33	16611
840.467	16683
840.604	16596
840.742	16824
840.879	16546
841.016	16622
841.153	16474
841.29	16755
841.427	16683
841.564	16675
841.701	16694
841.838	16542
841.975	16546
842.112	16592
842.249	16523
842.385	16440
842.522	16573
842.659	16478
842.796	16379
842.933	16322
843.069	16348
843.206	16352
843.343	16504
843.479	16493
843.616	16447
843.752	16268
843.889	16287
844.025	16363
844.162	16177
844.298	16295
844.435	16234
844.571	16207
844.708	16249
844.844	16394
844.98	16402
845.117	16322
845.253	16272
845.389	16169
845.525	16299
845.661	16409
845.798	16470
845.934	16622
846.07	16607
846.206	16641
846.342	16573
846.478	16432
846.614	16169
846.75	15930
846.886	15873
847.022	16021
847.158	15747
847.294	15907
847.429	15964
847.565	15690
847.701	15983
847.837	15622
847.972	15564
848.108	15641
848.244	15545
848.379	15492
848.515	15355
848.65	15351
848.786	15363
848.921	15351
849.057	15466
849.192	15500
849.328	15397
849.463	15439
849.598	15492
849.734	15378
849.869	15272
850.004	15157
850.14	15195
850.275	15176
850.41	15032
850.545	15119
850.68	15135
850.815	15089
850.95	15176
851.085	15332
851.22	15230
851.355	15154
851.49	15169
851.625	15062
851.76	15264
851.895	15074
852.03	15058
852.165	15062
852.299	15161
852.434	15241
852.569	15070
852.703	15131
852.838	15199
852.973	15306
853.107	15207
853.242	15066
853.376	15036
853.511	15028
853.645	14963
853.78	15146
853.914	14994
854.048	14982
854.183	14944
854.317	15036
854.451	15150
854.585	15017
854.72	15013
854.854	15077
854.988	14910
855.122	15005
855.256	14796
855.39	14967
855.524	15123
855.658	15074
855.792	15074
855.926	15009
856.06	14929
856.194	15116
856.327	15058
856.461	14906
856.595	14815
856.729	14944
856.862	15047
856.996	15009
857.13	14956
857.263	15085
857.397	15066
857.53	15013
857.664	14956
857.797	15097
857.931	15127
858.064	15032
858.197	15085
858.331	15097
858.464	14925
858.597	14868
858.731	14990
858.864	15070
858.997	15013
859.13	15036
859.263	14948
859.396	15108
859.529	15032
859.662	14929
859.795	14941
859.928	14872
860.061	15066
860.194	15176
860.327	15100
860.46	14921
860.592	15032
860.725	15165
860.858	15047
860.99	15017
861.123	14948
861.256	14960
861.388	15028
861.521	15675
861.653	14868
861.786	14731
861.918	14823
862.05	14948
862.183	14994
862.315	14891
862.447	14979
862.58	14861
862.712	14765
862.844	14765
862.976	14804
863.108	14906
863.24	15218
863.372	14663
863.504	14792
863.636	14800
863.768	14781
863.9	14724
864.032	14667
864.164	14716
864.296	14887
864.428	14845
864.559	14864
864.691	14853
864.823	14750
864.954	14769
865.086	14754
865.217	14701
865.349	14819
865.48	14838
865.612	14693
865.743	14811
865.875	14705
866.006	14693
866.137	14731
866.269	14777
866.4	14686
866.531	14716
866.662	14785
866.793	14758
866.924	14743
867.055	14788
867.186	14739
867.317	14651
867.448	14644
867.579	14682
867.71	14594
867.841	14678
867.972	14648
868.103	14727
868.233	14769
868.364	14743
868.495	14769
868.625	14921
868.756	15089
868.886	14834
869.017	15017
869.147	15150
869.278	15024
869.408	14891
869.539	15005
869.669	15013
869.799	15085
869.929	15169
870.06	14975
870.19	15332
870.32	15237
870.45	15260
870.58	15408
870.71	15443
870.84	15519
870.97	15310
871.1	15382
871.23	15534
871.36	15644
871.489	15351
871.619	15549
871.749	15572
871.879	15614
872.008	15633
872.138	15606
872.267	15462
872.397	15466
872.526	15363
872.656	15351
872.785	15359
872.915	15561
873.044	15599
873.173	15610
873.303	15667
873.432	15675
873.561	15701
873.69	15603
873.819	15614
873.948	15652
874.077	15717
874.206	15618
874.335	15641
874.464	15720
874.593	15861
874.722	15915
874.851	15937
874.979	15926
875.108	15907
875.237	15873
875.365	15797
875.494	15884
875.623	16051
875.751	15934
875.88	15937
876.008	16120
876.136	16139
876.265	16318
876.393	16440
876.521	16375
876.65	16428
876.778	16352
876.906	16234
877.034	16287
877.162	16360
877.29	16318
877.418	16325
877.546	16375
877.674	16360
877.802	16333
877.93	16325
878.058	16261
878.185	16287
878.313	16329
878.441	16371
878.568	16280
878.696	16314
878.824	16443
878.951	16466
879.079	16729
879.206	16862
879.333	16778
879.461	16656
879.588	16660
879.715	16839
879.842	16767
879.97	16569
880.097	16405
880.224	16181
880.351	16261
880.478	16230
880.605	16223
880.732	16261
880.859	16481
880.986	16329
881.112	16211
881.239	16242
881.366	15949
881.493	15922
881.619	15835
881.746	15918
881.872	15903
881.999	15918
882.125	15949
882.252	15968
882.378	15968
882.505	16017
882.631	15869
882.757	15682
882.883	15720
883.01	15686
883.136	15667
883.262	15561
883.388	15625
883.514	15705
883.64	15682
883.766	15580
883.892	15534
884.018	15447
884.143	15701
884.269	15713
884.395	15549
884.52	15363
884.646	15492
884.772	15336
884.897	15291
885.023	15382
885.148	15549
885.274	15492
885.399	15576
885.524	15519
885.65	15439
885.775	15393
885.9	15382
886.025	15519
886.15	15538
886.275	15344
886.4	15260
886.525	15389
886.65	15214
886.775	15264
886.9	15466
887.025	15622
887.149	15363
887.274	15237
887.399	15195
887.523	15218
887.648	15173
887.773	15116
887.897	15344
888.021	15340
888.146	15173
888.27	15268
888.395	15298
888.519	15256
888.643	15173
888.767	15245
888.891	15089
889.015	15089
889.139	15100
889.263	15058
889.387	15195
889.511	15142
889.635	15226
889.759	15032
889.883	15005
890.006	15070
890.13	15135
890.254	14956
890.377	14990
890.501	14887
890.624	14849
890.748	14921
890.871	14800
890.995	14667
891.118	14640
891.241	14716
891.364	14705
891.488	14674
891.611	14762
891.734	14750
891.857	14758
891.98	14693
892.103	14739
892.226	14731
892.349	14678
892.471	14568
892.594	14659
892.717	14731
892.839	14667
892.962	14769
893.085	14765
893.207	14724
893.33	14625
893.452	14731
893.575	14712
893.697	14689
893.819	14914
893.941	14887
894.064	14914
894.186	14617
894.308	14625
894.43	14902
894.552	14864
894.674	14853
894.796	14716
894.918	14697
895.04	14712
895.161	14872
895.283	14800
895.405	14708
895.526	14765
895.648	14773
895.769	14792
895.891	14842
896.012	14960
896.134	14933
896.255	14960
896.376	14823
896.498	14891
896.619	14872
896.74	14872
896.861	14880
896.982	15226
897.103	15268
897.224	15184
897.345	15100
897.466	15062
897.587	15142
897.708	15180
897.828	15237
897.949	15119
898.07	14971
898.19	15123
898.311	15245
898.431	15039
898.552	15169
898.672	15218
898.792	15275
898.913	15275
899.033	15112
899.153	14994
899.273	14883
899.393	14952
899.513	15062
899.633	15001
899.753	14994
899.873	15005
899.993	15047
900.113	15013
900.232	15058
900.352	15047
900.472	15009
900.591	14880
900.711	14986
900.83	14891
900.95	14948
901.069	14956
901.189	14777
901.308	14598
901.427	14556
901.546	14598
901.665	14545
901.784	14629
901.904	14358
902.023	14282
902.141	14172
902.26	14244
902.379	14267
902.498	14145
902.617	14062
902.735	14282
902.854	14088
902.973	14069
903.091	13868
903.21	13776
903.328	13856
903.446	13715
903.565	13746
903.683	13639
903.801	13567
903.919	13700
904.038	13613
904.156	13510
904.274	13559
904.392	13445
904.51	13453
904.627	13441
904.745	13616
904.863	13472
904.981	13202
905.098	13122
905.216	13110
905.334	13164
905.451	13160
905.569	13190
905.686	13171
905.803	13137
905.921	12981
906.038	13171
906.155	13031
906.272	12920
906.389	12856
906.506	12703
906.623	12741
906.74	12764
906.857	12623
906.974	12604
907.091	12833
907.208	12814
907.324	12821
907.441	12703
907.557	12441
907.674	12528
907.79	12391
907.907	12532
908.023	12479
908.139	12464
908.256	12464
908.372	12429
908.488	12391
908.604	12254
908.72	12083
908.836	12277
908.952	12216
909.068	12319
909.184	12350
909.3	12296
909.415	12350
909.531	12311
909.647	11984
909.762	12057
909.878	11939
909.993	12064
910.108	11980
910.224	11954
910.339	11984
910.454	11935
910.57	11897
910.685	11851
910.8	12102
910.915	12072
911.03	11958
911.145	11665
911.259	11676
911.374	11729
911.489	11573
911.604	11573
911.718	11410
911.833	11505
911.947	11318
912.062	11368
912.176	11452
912.291	11478
912.405	11421
912.519	11634
912.633	11611
912.748	11570
912.862	11455
912.976	11322
913.09	11178
913.204	11181
913.318	11280
913.431	11364
913.545	11376
913.659	11421
913.772	11341
913.886	11239
914	11170
914.113	11288
914.226	11254
914.34	11204
914.453	11178
914.566	11299
914.68	11132
914.793	11117
914.906	11014
915.019	10980
915.132	10854
915.245	10801
915.358	10889
915.47	10938
915.583	10984
915.696	10995
915.809	11064
915.921	11052
916.034	10953
916.146	10847
916.259	10877
916.371	10968
916.483	10961
916.595	10873
916.708	10839
916.82	10839
916.932	10771
917.044	10854
917.156	10805
917.268	10721
917.38	10755
917.491	10691
917.603	10755
917.715	10767
917.826	10885
917.938	10740
918.049	10580
918.161	10790
918.272	10869
918.384	10904
918.495	10797
918.606	10675
918.717	10538
918.828	10641
918.939	10668
919.05	10508
919.161	10573
919.272	10394
919.383	10512
919.494	10706
919.604	10904
919.715	10618
919.826	10538
919.936	10558
920.047	10687
920.157	10634
920.267	10854
920.378	10660
920.488	10573
920.598	10816
920.708	10957
920.818	10778
920.928	10809
921.038	10984
921.148	10953
921.258	10687
921.368	10588
921.477	10455
921.587	10455
921.697	10287
921.806	10470
921.916	10261
922.025	10238
922.134	10150
922.244	10143
922.353	10181
922.462	10063
922.571	10055
922.68	9846
922.789	9819
922.898	9800
923.007	9850
923.116	9888
923.224	9873
923.333	9869
923.442	9694
923.55	9717
923.659	9736
923.767	9778
923.876	9686
923.984	9743
924.092	9599
924.201	9698
924.309	9747
924.417	9736
924.525	9682
924.633	9603
924.741	10584
924.849	9416
924.956	9549
925.064	9477
925.172	9382
925.279	9348
925.387	9534
925.494	9496
925.602	9576
925.709	9584
925.816	9393
925.924	9523
926.031	9614
926.138	9584
926.245	9561
926.352	9405
926.459	9534
926.566	9511
926.673	9416
926.779	9306
926.886	9302
926.993	9226
927.099	9195
927.206	9142
927.312	9104
927.419	9100
927.525	9157
927.631	9203
927.737	9112
927.843	9112
927.95	9017
928.056	9116
928.162	9028
928.267	9039
928.373	9690
928.479	9108
928.585	8956
928.69	9081
928.796	9089
928.901	9013
929.007	8842
929.112	8960
929.218	8952
929.323	8838
929.428	8838
929.533	8967
929.638	8804
929.743	8876
929.848	8933
929.953	8849
930.058	8754
930.163	8693
930.267	8701
930.372	8815
930.477	8583
930.581	8857
930.685	8735
930.79	8594
930.894	8651
930.998	8522
931.103	8708
931.207	8389
931.311	8282
931.415	8290
931.519	8058
931.623	8046
