Data from test_V78500241_1377.txt Node
Date: Fri Mar 25 14:43:18 CST 2022
User: usil
Spectrometer: V785-0024
Trigger mode: 0
Integration Time (sec): 4.000000E-1
Scans to average: 1
Nonlinearity correction enabled: false
Boxcar width: 0
Storing dark spectrum: false
XAxis mode: Wavelengths
Number of Pixels in Spectrum: 1024
>>>>>Begin Spectral Data<<<<<
801.071	22337
801.214	22276
801.356	21991
801.499	21979
801.641	21835
801.783	21751
801.926	21911
802.068	21743
802.211	21671
802.353	21462
802.496	21485
802.638	21302
802.78	21142
802.923	21131
803.065	21081
803.208	21039
803.35	21176
803.492	21188
803.635	21264
803.777	21096
803.919	21184
804.061	21496
804.204	21264
804.346	21116
804.488	20963
804.63	21058
804.773	20990
804.915	21081
805.057	21142
805.199	20994
805.341	21085
805.483	21222
805.626	21146
805.768	20967
805.91	21024
806.052	21085
806.194	20925
806.336	21150
806.478	21096
806.62	20967
806.762	21230
806.904	21222
807.046	21481
807.188	21416
807.33	21336
807.472	21507
807.614	21367
807.756	21405
807.898	21291
808.04	21218
808.182	21294
808.324	21256
808.465	21317
808.607	21443
808.749	21694
808.891	21739
809.033	21755
809.174	21812
809.316	21641
809.458	21576
809.6	21473
809.741	21542
809.883	21660
810.025	21663
810.166	21663
810.308	21610
810.45	21629
810.591	21496
810.733	21397
810.875	21252
811.016	21207
811.158	21272
811.299	21260
811.441	21382
811.582	21332
811.724	21256
811.865	21222
812.007	21226
812.148	21146
812.29	21363
812.431	21340
812.573	21595
812.714	21644
812.855	21671
812.997	21831
813.138	21964
813.279	21907
813.421	21736
813.562	21629
813.703	21447
813.845	21447
813.986	21146
814.127	20887
814.268	20838
814.41	20880
814.551	20571
814.692	20929
814.833	20640
814.974	20602
815.115	20667
815.256	20526
815.397	20537
815.539	20731
815.68	20469
815.821	20419
815.962	20571
816.103	20541
816.244	20480
816.385	20263
816.526	20187
816.666	20183
816.807	19864
816.948	20100
817.089	19967
817.23	19928
817.371	19982
817.512	19894
817.653	19818
817.793	19795
817.934	19978
818.075	19967
818.216	19799
818.356	19780
818.497	19715
818.638	19578
818.778	19594
818.919	19605
819.06	19533
819.2	19674
819.341	19788
819.481	19856
819.622	19868
819.762	20164
819.903	20103
820.043	19879
820.184	19902
820.324	19883
820.465	19989
820.605	19852
820.746	19852
820.886	19746
821.026	19826
821.167	19841
821.307	19871
821.447	19696
821.588	19670
821.728	19548
821.868	19422
822.008	19381
822.149	19331
822.289	19270
822.429	19050
822.569	18943
822.709	19050
822.849	18760
822.99	18707
823.13	18719
823.27	18722
823.41	18646
823.55	18532
823.69	18627
823.83	18646
823.97	18509
824.11	18471
824.25	18338
824.389	18365
824.529	18292
824.669	18452
824.809	18452
824.949	18540
825.089	18525
825.228	18441
825.368	18270
825.508	18171
825.648	18239
825.787	18106
825.927	18254
826.067	18197
826.206	18106
826.346	18106
826.485	18159
826.625	18110
826.765	18209
826.904	18144
827.044	17965
827.183	17817
827.323	17783
827.462	17885
827.601	17767
827.741	17798
827.88	17779
828.02	17649
828.159	17699
828.298	17882
828.437	17885
828.577	17920
828.716	18019
828.855	17767
828.994	17623
829.134	17611
829.273	17596
829.412	17596
829.551	17539
829.69	17535
829.829	17554
829.968	17687
830.107	17691
830.246	17577
830.385	17471
830.524	17444
830.663	17349
830.802	17345
830.941	17288
831.08	17151
831.219	17318
831.357	17284
831.496	17512
831.635	17273
831.774	17064
831.913	17170
832.051	17010
832.19	17025
832.329	17102
832.467	16972
832.606	16858
832.744	16972
832.883	16835
833.022	16854
833.16	16972
833.299	16961
833.437	16949
833.576	16881
833.714	16923
833.852	17037
833.991	16923
834.129	17075
834.267	17014
834.406	16995
834.544	16961
834.682	16968
834.821	16987
834.959	17143
835.097	16927
835.235	17056
835.373	17075
835.511	16927
835.65	16862
835.788	16816
835.926	16580
836.064	16622
836.202	16691
836.34	16908
836.478	16915
836.615	16717
836.753	16934
836.891	16938
837.029	16972
837.167	16843
837.305	16835
837.443	16786
837.58	16687
837.718	16854
837.856	16759
837.993	16721
838.131	16767
838.269	16599
838.406	16759
838.544	16634
838.681	16428
838.819	16432
838.956	16257
839.094	16246
839.231	16272
839.369	16322
839.506	16603
839.643	16478
839.781	16268
839.918	16219
840.055	16318
840.193	16238
840.33	16257
840.467	16215
840.604	16299
840.742	16402
840.879	16112
841.016	16097
841.153	16192
841.29	16306
841.427	16333
841.564	16329
841.701	16230
841.838	16280
841.975	16177
842.112	16204
842.249	16055
842.385	16044
842.522	16135
842.659	16048
842.796	15960
842.933	16029
843.069	15956
843.206	15979
843.343	16071
843.479	16048
843.616	16063
843.752	15755
843.889	15854
844.025	15983
844.162	15800
844.298	15911
844.435	15854
844.571	15778
844.708	15895
844.844	16101
844.98	15964
845.117	15915
845.253	15808
845.389	15732
845.525	15895
845.661	15892
845.798	15789
845.934	15979
846.07	15941
846.206	15968
846.342	16010
846.478	15774
846.614	15595
846.75	15450
846.886	15329
847.022	15401
847.158	15538
847.294	15485
847.429	15378
847.565	15382
847.701	15622
847.837	15097
847.972	15104
848.108	15264
848.244	15203
848.379	15161
848.515	14994
848.65	15017
848.786	15062
848.921	15127
849.057	15043
849.192	15230
849.328	15100
849.463	15127
849.598	14921
849.734	14819
849.869	14921
850.004	14861
850.14	14811
850.275	14864
850.41	14689
850.545	14701
850.68	14746
850.815	14731
850.95	14800
851.085	14960
851.22	14910
851.355	14659
851.49	14727
851.625	14716
851.76	14773
851.895	14579
852.03	14659
852.165	14792
852.299	14815
852.434	14891
852.569	14762
852.703	14857
852.838	14902
852.973	14929
853.107	14868
853.242	14697
853.376	14651
853.511	14629
853.645	14610
853.78	14750
853.914	14617
854.048	14583
854.183	14610
854.317	14659
854.451	14796
854.585	14575
854.72	14545
854.854	14629
854.988	14465
855.122	14644
855.256	14537
855.39	14590
855.524	14697
855.658	14739
855.792	14625
855.926	14640
856.06	14655
856.194	14708
856.327	14610
856.461	14636
856.595	14587
856.729	14560
856.862	14773
856.996	14697
857.13	14727
857.263	14788
857.397	14800
857.53	14674
857.664	14716
857.797	14788
857.931	14769
858.064	14602
858.197	14708
858.331	14697
858.464	14632
858.597	14446
858.731	14621
858.864	14636
858.997	14579
859.13	14613
859.263	14629
859.396	14739
859.529	14587
859.662	14450
859.795	14492
859.928	14651
860.061	14796
860.194	14727
860.327	14674
860.46	14594
860.592	14788
860.725	14731
860.858	14697
860.99	14674
861.123	14499
861.256	14598
861.388	14632
861.521	15294
861.653	14526
861.786	14400
861.918	14511
862.05	14594
862.183	14568
862.315	14590
862.447	14697
862.58	14514
862.712	14396
862.844	14351
862.976	14484
863.108	14492
863.24	14731
863.372	14298
863.504	14423
863.636	14305
863.768	14415
863.9	14374
864.032	14385
864.164	14324
864.296	14404
864.428	14514
864.559	14514
864.691	14362
864.823	14473
864.954	14370
865.086	14507
865.217	14389
865.349	14267
865.48	14393
865.612	14412
865.743	14511
865.875	14454
866.006	14313
866.137	14412
866.269	14298
866.4	14419
866.531	14419
866.662	14332
866.793	14374
866.924	14377
867.055	14362
867.186	14408
867.317	14351
867.448	14309
867.579	14351
867.71	14419
867.841	14256
867.972	14294
868.103	14389
868.233	14423
868.364	14358
868.495	14385
868.625	14686
868.756	14701
868.886	14537
869.017	14598
869.147	14708
869.278	14697
869.408	14663
869.539	14560
869.669	14739
869.799	14735
869.929	14819
870.06	14735
870.19	14910
870.32	14963
870.45	15051
870.58	15005
870.71	15154
870.84	15039
870.97	14937
871.1	14986
871.23	15249
871.36	15230
871.489	15180
871.619	15135
871.749	15176
871.879	15230
872.008	15245
872.138	15241
872.267	15180
872.397	15074
872.526	15135
872.656	15017
872.785	15077
872.915	15275
873.044	15275
873.173	15249
873.303	15332
873.432	15336
873.561	15329
873.69	15272
873.819	15279
873.948	15393
874.077	15135
874.206	15306
874.335	15260
874.464	15454
874.593	15625
874.722	15572
874.851	15648
874.979	15549
875.108	15652
875.237	15534
875.365	15504
875.494	15576
875.623	15660
875.751	15500
875.88	15652
876.008	15759
876.136	15854
876.265	15945
876.393	16139
876.521	16086
876.65	16116
876.778	15945
876.906	15861
877.034	15994
877.162	15941
877.29	15892
877.418	15930
877.546	16044
877.674	16010
877.802	15949
877.93	15968
878.058	15945
878.185	15968
878.313	15964
878.441	16021
878.568	15922
878.696	15956
878.824	16078
878.951	16116
879.079	16246
879.206	16371
879.333	16272
879.461	16093
879.588	16257
879.715	16428
879.842	16428
879.97	16204
880.097	15926
880.224	15903
880.351	15945
880.478	15926
880.605	15835
880.732	15918
880.859	16154
880.986	15949
881.112	15850
881.239	15713
881.366	15641
881.493	15523
881.619	15549
881.746	15564
881.872	15625
881.999	15599
882.125	15447
882.252	15614
882.378	15572
882.505	15671
882.631	15450
882.757	15382
882.883	15317
883.01	15340
883.136	15291
883.262	15268
883.388	15173
883.514	15287
883.64	15481
883.766	15199
883.892	15142
884.018	15184
884.143	15367
884.269	15439
884.395	15104
884.52	15051
884.646	15055
884.772	15047
884.897	15020
885.023	15020
885.148	15131
885.274	15207
885.399	15123
885.524	15173
885.65	14956
885.775	15001
885.9	15013
886.025	15199
886.15	15100
886.275	15013
886.4	14986
886.525	14925
886.65	14834
886.775	14853
886.9	15226
887.025	15146
887.149	15131
887.274	14918
887.399	14823
887.523	14861
887.648	14773
887.773	14773
887.897	14944
888.021	14887
888.146	14861
888.27	14975
888.395	14971
888.519	14830
888.643	14925
888.767	14807
888.891	14708
889.015	14781
889.139	14777
889.263	14644
889.387	14762
889.511	14834
889.635	14746
889.759	14693
889.883	14765
890.006	14804
890.13	14811
890.254	14686
890.377	14716
890.501	14522
890.624	14427
890.748	14575
890.871	14469
890.995	14362
891.118	14328
891.241	14389
891.364	14492
891.488	14541
891.611	14446
891.734	14389
891.857	14499
891.98	14396
892.103	14469
892.226	14404
892.349	14275
892.471	14252
892.594	14393
892.717	14332
892.839	14393
892.962	14389
893.085	14469
893.207	14313
893.33	14298
893.452	14275
893.575	14362
893.697	14526
893.819	14541
893.941	14575
894.064	14594
894.186	14328
894.308	14347
894.43	14499
894.552	14511
894.674	14545
894.796	14480
894.918	14522
895.04	14412
895.161	14499
895.283	14537
895.405	14351
895.526	14446
895.648	14396
895.769	14476
895.891	14575
896.012	14610
896.134	14575
896.255	14655
896.376	14537
896.498	14583
896.619	14545
896.74	14629
896.861	14632
896.982	14929
897.103	14899
897.224	14895
897.345	14815
897.466	14727
897.587	14765
897.708	14948
897.828	14823
897.949	14823
898.07	14655
898.19	14804
898.311	14982
898.431	14895
898.552	14868
898.672	15001
898.792	15062
898.913	14979
899.033	14800
899.153	14708
899.273	14640
899.393	14587
899.513	14819
899.633	14648
899.753	14727
899.873	14689
899.993	14811
900.113	14807
900.232	14777
900.352	14765
900.472	14621
900.591	14503
900.711	14564
900.83	14587
900.95	14670
901.069	14621
901.189	14545
901.308	14290
901.427	14263
901.546	14278
901.665	14240
901.784	14278
901.904	14153
902.023	14062
902.141	13875
902.26	13811
902.379	13890
902.498	13803
902.617	13765
902.735	13841
902.854	13894
902.973	13738
903.091	13601
903.21	13578
903.328	13556
903.446	13445
903.565	13438
903.683	13529
903.801	13331
903.919	13422
904.038	13331
904.156	13228
904.274	13324
904.392	13221
904.51	13118
904.627	13198
904.745	13259
904.863	13244
904.981	13000
905.098	12966
905.216	12909
905.334	12981
905.451	12837
905.569	12932
905.686	12939
905.803	12920
905.921	12757
906.038	12859
906.155	12738
906.272	12601
906.389	12669
906.506	12467
906.623	12585
906.74	12517
906.857	12418
906.974	12414
907.091	12570
907.208	12597
907.324	12604
907.441	12445
907.557	12254
907.674	12273
907.79	12235
907.907	12209
908.023	12277
908.139	12285
908.256	12129
908.372	12152
908.488	12053
908.604	12019
908.72	11931
908.836	11973
908.952	11939
909.068	12007
909.184	12087
909.3	11923
909.415	12053
909.531	11927
909.647	11714
909.762	11714
909.878	11699
909.993	11882
910.108	11722
910.224	11646
910.339	11786
910.454	11668
910.57	11699
910.685	11589
910.8	11783
910.915	11771
911.03	11634
911.145	11402
911.259	11440
911.374	11490
911.489	11334
911.604	11364
911.718	11227
911.833	11254
911.947	11140
912.062	11170
912.176	11208
912.291	11181
912.405	11235
912.519	11406
912.633	11402
912.748	11250
912.862	11239
912.976	11029
913.09	10938
913.204	11029
913.318	11105
913.431	11079
913.545	11140
913.659	11143
913.772	10999
913.886	10911
914	10866
914.113	11045
914.226	11060
914.34	11124
914.453	10919
914.566	11025
914.68	10908
914.793	10790
914.906	10744
915.019	10660
915.132	10679
915.245	10691
915.358	10710
915.47	10744
915.583	10759
915.696	10797
915.809	10824
915.921	10881
916.034	10725
916.146	10683
916.259	10630
916.371	10782
916.483	10778
916.595	10603
916.708	10691
916.82	10679
916.932	10550
917.044	10592
917.156	10599
917.268	10508
917.38	10561
917.491	10527
917.603	10596
917.715	10694
917.826	10645
917.938	10588
918.049	10466
918.161	10679
918.272	10691
918.384	10691
918.495	10580
918.606	10451
918.717	10367
918.828	10432
918.939	10421
919.05	10322
919.161	10413
919.272	10265
919.383	10360
919.494	10470
919.604	10668
919.715	10459
919.826	10318
919.936	10394
920.047	10508
920.157	10394
920.267	10691
920.378	10500
920.488	10394
920.598	10694
920.708	10759
920.818	10668
920.928	10683
921.038	10797
921.148	10774
921.258	10588
921.368	10417
921.477	10314
921.587	10291
921.697	10207
921.806	10287
921.916	10166
922.025	10067
922.134	10029
922.244	10002
922.353	10055
922.462	9895
922.571	9793
922.68	9724
922.789	9732
922.898	9690
923.007	9732
923.116	9728
923.224	9690
923.333	9690
923.442	9633
923.55	9641
923.659	9572
923.767	9629
923.876	9507
923.984	9679
924.092	9477
924.201	9584
924.309	9534
924.417	9599
924.525	9507
924.633	9534
924.741	10462
924.849	9359
924.956	9466
925.064	9359
925.172	9226
925.279	9310
925.387	9233
925.494	9416
925.602	9477
925.709	9370
925.816	9241
925.924	9363
926.031	9424
926.138	9370
926.245	9408
926.352	9325
926.459	9291
926.566	9428
926.673	9298
926.779	9256
926.886	9214
926.993	9077
927.099	9047
927.206	8975
927.312	8933
927.419	9074
927.525	9081
927.631	9074
927.737	8975
927.843	8948
927.95	8773
928.056	8891
928.162	8872
928.267	9070
928.373	9507
928.479	9089
928.585	8815
928.69	8952
928.796	8971
928.901	8807
929.007	8746
929.112	8792
929.218	8842
929.323	8762
929.428	8777
929.533	8883
929.638	8731
929.743	8754
929.848	8800
929.953	8727
930.058	8644
930.163	8450
930.267	8533
930.372	8629
930.477	8499
930.581	8727
930.685	8590
930.79	8454
930.894	8480
930.998	8438
931.103	8564
931.207	8298
931.311	8221
931.415	8123
931.519	8020
931.623	7951
