Data from test_V78500241_2635.txt Node
Date: Fri Mar 25 14:52:03 CST 2022
User: usil
Spectrometer: V785-0024
Trigger mode: 0
Integration Time (sec): 4.000000E-1
Scans to average: 1
Nonlinearity correction enabled: false
Boxcar width: 0
Storing dark spectrum: false
XAxis mode: Wavelengths
Number of Pixels in Spectrum: 1024
>>>>>Begin Spectral Data<<<<<
801.071	21998
801.214	21903
801.356	21591
801.499	21496
801.641	21378
801.783	21348
801.926	21321
802.068	21340
802.211	21169
802.353	21127
802.496	20956
802.638	20807
802.78	20902
802.923	20739
803.065	20609
803.208	20644
803.35	20663
803.492	20712
803.635	20765
803.777	20682
803.919	20746
804.061	21009
804.204	20708
804.346	20537
804.488	20632
804.63	20636
804.773	20583
804.915	20499
805.057	20651
805.199	20530
805.341	20598
805.483	20739
805.626	20651
805.768	20541
805.91	20705
806.052	20648
806.194	20518
806.336	20743
806.478	20625
806.62	20499
806.762	20682
806.904	20883
807.046	20952
807.188	20971
807.33	20880
807.472	20845
807.614	20849
807.756	20815
807.898	20727
808.04	20617
808.182	20621
808.324	20735
808.465	20743
808.607	20914
808.749	20906
808.891	21093
809.033	21138
809.174	20933
809.316	20914
809.458	21009
809.6	20910
809.741	20975
809.883	21039
810.025	21051
810.166	21157
810.308	21135
810.45	21043
810.591	20864
810.733	20914
810.875	20720
811.016	20621
811.158	20686
811.299	20708
811.441	20986
811.582	20902
811.724	20773
811.865	20648
812.007	20648
812.148	20609
812.29	20830
812.431	20986
812.573	20975
812.714	21074
812.855	21180
812.997	21233
813.138	21370
813.279	21340
813.421	21157
813.562	21142
813.703	21013
813.845	20918
813.986	20514
814.127	20404
814.268	20286
814.41	20355
814.551	20275
814.692	20233
814.833	20180
814.974	20252
815.115	20252
815.256	20092
815.397	20187
815.539	20145
815.68	20035
815.821	19947
815.962	20065
816.103	19982
816.244	19757
816.385	19746
816.526	19753
816.666	19521
816.807	19499
816.948	19533
817.089	19563
817.23	19441
817.371	19373
817.512	19320
817.653	19335
817.793	19304
817.934	19392
818.075	19415
818.216	19320
818.356	19354
818.497	19244
818.638	19084
818.778	19103
818.919	19103
819.06	19088
819.2	19240
819.341	19217
819.481	19346
819.622	19491
819.762	19575
819.903	19506
820.043	19480
820.184	19365
820.324	19407
820.465	19343
820.605	19434
820.746	19350
820.886	19190
821.026	19434
821.167	19377
821.307	19381
821.447	19308
821.588	19221
821.728	19168
821.868	18867
822.008	18757
822.149	18795
822.289	18696
822.429	18604
822.569	18399
822.709	18547
822.849	18277
822.99	18346
823.13	18243
823.27	18277
823.41	18110
823.55	18045
823.69	18148
823.83	18034
823.97	17836
824.11	17946
824.25	17859
824.389	17855
824.529	18049
824.669	17882
824.809	18057
824.949	17908
825.089	17935
825.228	17901
825.368	17653
825.508	17646
825.648	17684
825.787	17585
825.927	17714
826.067	17684
826.206	17539
826.346	17642
826.485	17726
826.625	17630
826.765	17722
826.904	17767
827.044	17493
827.183	17383
827.323	17353
827.462	17402
827.601	17311
827.741	17383
827.88	17448
828.02	17269
828.159	17345
828.298	17379
828.437	17414
828.577	17299
828.716	17459
828.855	17288
828.994	17067
829.134	17052
829.273	17166
829.412	17136
829.551	17109
829.69	17098
829.829	17155
829.968	17102
830.107	17121
830.246	17048
830.385	17140
830.524	17048
830.663	16946
830.802	16866
830.941	16763
831.08	16698
831.219	16733
831.357	16782
831.496	16911
831.635	16736
831.774	16660
831.913	16710
832.051	16516
832.19	16561
832.329	16668
832.467	16459
832.606	16398
832.744	16443
832.883	16470
833.022	16318
833.16	16394
833.299	16493
833.437	16497
833.576	16485
833.714	16588
833.852	16516
833.991	16516
834.129	16535
834.267	16516
834.406	16459
834.544	16611
834.682	16565
834.821	16417
834.959	16637
835.097	16497
835.235	16634
835.373	16500
835.511	16584
835.65	16386
835.788	16436
835.926	16295
836.064	16177
836.202	16268
836.34	16341
836.478	16459
836.615	16394
836.753	16322
836.891	16527
837.029	16478
837.167	16344
837.305	16276
837.443	16325
837.58	16192
837.718	16303
837.856	16249
837.993	16223
838.131	16284
838.269	16109
838.406	16055
838.544	16147
838.681	16010
838.819	15941
838.956	15797
839.094	15903
839.231	15926
839.369	15945
839.506	16188
839.643	16055
839.781	15880
839.918	15892
840.055	15865
840.193	15770
840.33	15739
840.467	15800
840.604	15835
840.742	16063
840.879	15557
841.016	15728
841.153	15778
841.29	15865
841.427	15854
841.564	15804
841.701	15842
841.838	15694
841.975	15793
842.112	15739
842.249	15641
842.385	15530
842.522	15724
842.659	15618
842.796	15576
842.933	15568
843.069	15553
843.206	15549
843.343	15713
843.479	15587
843.616	15629
843.752	15386
843.889	15428
844.025	15542
844.162	15363
844.298	15466
844.435	15321
844.571	15268
844.708	15439
844.844	15679
844.98	15515
845.117	15526
845.253	15389
845.389	15283
845.525	15389
845.661	15329
845.798	15199
845.934	15325
846.07	15184
846.206	15245
846.342	15287
846.478	15108
846.614	15036
846.75	14872
846.886	14899
847.022	15077
847.158	15032
847.294	15009
847.429	15039
847.565	14971
847.701	15070
847.837	14769
847.972	14670
848.108	14762
848.244	14792
848.379	14629
848.515	14522
848.65	14492
848.786	14583
848.921	14632
849.057	14625
849.192	14701
849.328	14632
849.463	14629
849.598	14583
849.734	14507
849.869	14328
850.004	14377
850.14	14374
850.275	14366
850.41	14240
850.545	14301
850.68	14259
850.815	14248
850.95	14313
851.085	14495
851.22	14385
851.355	14412
851.49	14351
851.625	14374
851.76	14320
851.895	14237
852.03	14290
852.165	14305
852.299	14370
852.434	14366
852.569	14320
852.703	14271
852.838	14351
852.973	14412
853.107	14434
853.242	14317
853.376	14263
853.511	14100
853.645	14142
853.78	14362
853.914	14153
854.048	14218
854.183	14149
854.317	14282
854.451	14305
854.585	14240
854.72	14149
854.854	14282
854.988	14218
855.122	14290
855.256	14100
855.39	14229
855.524	14328
855.658	14278
855.792	14206
855.926	14282
856.06	14176
856.194	14317
856.327	14244
856.461	14183
856.595	14130
856.729	14161
856.862	14332
856.996	14275
857.13	14210
857.263	14347
857.397	14275
857.53	14157
857.664	14355
857.797	14252
857.931	14298
858.064	14282
858.197	14309
858.331	14138
858.464	14176
858.597	14107
858.731	14145
858.864	14115
858.997	14286
859.13	14240
859.263	14259
859.396	14374
859.529	14221
859.662	14275
859.795	14187
859.928	14233
860.061	14374
860.194	14252
860.327	14317
860.46	14138
860.592	14278
860.725	14469
860.858	14396
860.99	14248
861.123	14111
861.256	14142
861.388	14142
861.521	14857
861.653	14039
861.786	13963
861.918	14016
862.05	14164
862.183	14218
862.315	14123
862.447	14336
862.58	14081
862.712	14043
862.844	13856
862.976	14103
863.108	14031
863.24	14590
863.372	13925
863.504	14020
863.636	14016
863.768	14020
863.9	14058
864.032	14005
864.164	13940
864.296	13989
864.428	14123
864.559	14199
864.691	14069
864.823	14005
864.954	14031
865.086	14050
865.217	14024
865.349	13898
865.48	13989
865.612	13982
865.743	14195
865.875	13989
866.006	13959
866.137	13993
866.269	13986
866.4	13951
866.531	13864
866.662	13894
866.793	14031
866.924	13947
867.055	13967
867.186	14016
867.317	13993
867.448	13890
867.579	13894
867.71	13879
867.841	13925
867.972	13902
868.103	14039
868.233	13959
868.364	13989
868.495	14077
868.625	14229
868.756	14366
868.886	14294
869.017	14210
869.147	14271
869.278	14309
869.408	14294
869.539	14218
869.669	14278
869.799	14328
869.929	14385
870.06	14282
870.19	14484
870.32	14507
870.45	14571
870.58	14625
870.71	14849
870.84	14781
870.97	14682
871.1	14549
871.23	14811
871.36	14815
871.489	14746
871.619	14857
871.749	14815
871.879	14876
872.008	14902
872.138	14925
872.267	14880
872.397	14644
872.526	14617
872.656	14712
872.785	14667
872.915	14853
873.044	14857
873.173	14853
873.303	14910
873.432	14933
873.561	14948
873.69	14891
873.819	14823
873.948	15039
874.077	14872
874.206	14883
874.335	14967
874.464	15074
874.593	15142
874.722	15097
874.851	15173
874.979	15230
875.108	15249
875.237	15131
875.365	15123
875.494	15157
875.623	15226
875.751	15116
875.88	15283
876.008	15298
876.136	15397
876.265	15637
876.393	15755
876.521	15720
876.65	15724
876.778	15751
876.906	15618
877.034	15606
877.162	15576
877.29	15568
877.418	15561
877.546	15587
877.674	15625
877.802	15584
877.93	15584
878.058	15564
878.185	15462
878.313	15679
878.441	15618
878.568	15450
878.696	15488
878.824	15644
878.951	15759
879.079	15800
879.206	15895
879.333	15842
879.461	15625
879.588	15667
879.715	15755
879.842	15926
879.97	15660
880.097	15511
880.224	15367
880.351	15428
880.478	15477
880.605	15553
880.732	15538
880.859	15770
880.986	15633
881.112	15587
881.239	15260
881.366	15211
881.493	15203
881.619	15058
881.746	15138
881.872	15039
881.999	15089
882.125	15077
882.252	15192
882.378	15146
882.505	15188
882.631	15074
882.757	14906
882.883	15024
883.01	14861
883.136	14921
883.262	14807
883.388	14857
883.514	14941
883.64	15009
883.766	14883
883.892	14697
884.018	14773
884.143	14952
884.269	15070
884.395	14617
884.52	14724
884.646	14648
884.772	14594
884.897	14545
885.023	14644
885.148	14777
885.274	14792
885.399	14720
885.524	14674
885.65	14552
885.775	14644
885.9	14644
886.025	14785
886.15	14727
886.275	14587
886.4	14484
886.525	14655
886.65	14552
886.775	14575
886.9	14773
887.025	14762
887.149	14606
887.274	14552
887.399	14438
887.523	14454
887.648	14389
887.773	14400
887.897	14480
888.021	14587
888.146	14465
888.27	14552
888.395	14606
888.519	14526
888.643	14473
888.767	14648
888.891	14339
889.015	14305
889.139	14454
889.263	14259
889.387	14537
889.511	14552
889.635	14446
889.759	14381
889.883	14358
890.006	14434
890.13	14492
890.254	14233
890.377	14336
890.501	14202
890.624	14103
890.748	14240
890.871	14142
890.995	13967
891.118	13906
891.241	13906
891.364	13944
891.488	14130
891.611	14024
891.734	14100
891.857	14096
891.98	14073
892.103	14107
892.226	14126
892.349	14005
892.471	13978
892.594	14043
892.717	14073
892.839	14046
892.962	14084
893.085	14168
893.207	14054
893.33	13970
893.452	13974
893.575	14107
893.697	14012
893.819	14183
893.941	14324
894.064	14214
894.186	13944
894.308	14073
894.43	14191
894.552	14301
894.674	14187
894.796	13989
894.918	14111
895.04	14027
895.161	14240
895.283	14183
895.405	14016
895.526	14229
895.648	14244
895.769	14229
895.891	14180
896.012	14313
896.134	14183
896.255	14286
896.376	14031
896.498	14263
896.619	14240
896.74	14237
896.861	14408
896.982	14537
897.103	14667
897.224	14530
897.345	14415
897.466	14309
897.587	14541
897.708	14629
897.828	14492
897.949	14480
898.07	14404
898.19	14583
898.311	14625
898.431	14488
898.552	14442
898.672	14655
898.792	14617
898.913	14556
899.033	14434
899.153	14419
899.273	14374
899.393	14385
899.513	14358
899.633	14431
899.753	14362
899.873	14328
899.993	14423
900.113	14461
900.232	14415
900.352	14339
900.472	14309
900.591	14221
900.711	14320
900.83	14225
900.95	14339
901.069	14442
901.189	14301
901.308	13932
901.427	13830
901.546	13898
901.665	13932
901.784	13932
901.904	13898
902.023	13700
902.141	13582
902.26	13468
902.379	13582
902.498	13499
902.617	13487
902.735	13510
902.854	13487
902.973	13514
903.091	13209
903.21	13221
903.328	13240
903.446	13202
903.565	13091
903.683	13126
903.801	12966
903.919	13122
904.038	13122
904.156	12939
904.274	12932
904.392	12905
904.51	12848
904.627	12890
904.745	12951
904.863	12985
904.981	12642
905.098	12684
905.216	12551
905.334	12585
905.451	12601
905.569	12574
905.686	12673
905.803	12612
905.921	12407
906.038	12460
906.155	12460
906.272	12414
906.389	12498
906.506	12213
906.623	12216
906.74	12273
906.857	12098
906.974	12091
907.091	12197
907.208	12334
907.324	12308
907.441	12121
907.557	11996
907.674	11923
907.79	11885
907.907	11931
908.023	12019
908.139	11904
908.256	11889
908.372	11912
908.488	11840
908.604	11695
908.72	11714
908.836	11748
908.952	11733
909.068	11764
909.184	11817
909.3	11718
909.415	11783
909.531	11783
909.647	11554
909.762	11554
909.878	11414
909.993	11524
910.108	11577
910.224	11429
910.339	11452
910.454	11452
910.57	11398
910.685	11311
910.8	11611
910.915	11497
911.03	11326
911.145	11166
911.259	11189
911.374	11056
911.489	11060
911.604	11083
911.718	10946
911.833	10900
911.947	10820
912.062	10843
912.176	10930
912.291	11037
912.405	10942
912.519	11162
912.633	11136
912.748	11086
912.862	11006
912.976	10828
913.09	10721
913.204	10828
913.318	10774
913.431	10938
913.545	10987
913.659	10980
913.772	10866
913.886	10778
914	10702
914.113	10793
914.226	10919
914.34	10767
914.453	10565
914.566	10744
914.68	10630
914.793	10645
914.906	10478
915.019	10493
915.132	10390
915.245	10417
915.358	10428
915.47	10542
915.583	10481
915.696	10588
915.809	10546
915.921	10584
916.034	10462
916.146	10466
916.259	10394
916.371	10550
916.483	10432
916.595	10341
916.708	10375
916.82	10398
916.932	10386
917.044	10360
917.156	10295
917.268	10284
917.38	10291
917.491	10173
917.603	10303
917.715	10382
917.826	10303
917.938	10268
918.049	10143
918.161	10287
918.272	10443
918.384	10348
918.495	10356
918.606	10242
918.717	10109
918.828	10280
918.939	10192
919.05	10029
919.161	10147
919.272	10002
919.383	10093
919.494	10246
919.604	10402
919.715	10173
919.826	10067
919.936	10150
920.047	10253
920.157	10192
920.267	10394
920.378	10268
920.488	10211
920.598	10367
920.708	10500
920.818	10333
920.928	10348
921.038	10436
921.148	10588
921.258	10188
921.368	10196
921.477	10074
921.587	10071
921.697	9857
921.806	10109
921.916	9979
922.025	9778
922.134	9789
922.244	9690
922.353	9808
922.462	9648
922.571	9496
922.68	9515
922.789	9393
922.898	9447
923.007	9389
923.116	9477
923.224	9466
923.333	9458
923.442	9291
923.55	9302
923.659	9416
923.767	9443
923.876	9192
923.984	9351
924.092	9222
924.201	9329
924.309	9294
924.417	9359
924.525	9249
924.633	9222
924.741	9991
924.849	9062
924.956	9176
925.064	9116
925.172	9009
925.279	9074
925.387	9131
925.494	9173
925.602	9245
925.709	9146
925.816	8994
925.924	9127
926.031	9157
926.138	9127
926.245	9150
926.352	8967
926.459	9249
926.566	9253
926.673	9119
926.779	8956
926.886	8910
926.993	8830
927.099	8804
927.206	8811
927.312	8743
927.419	8807
927.525	8861
927.631	8750
927.737	8727
927.843	8670
927.95	8598
928.056	8773
928.162	8701
928.267	8769
928.373	9393
928.479	8838
928.585	8579
928.69	8754
928.796	8746
928.901	8606
929.007	8461
929.112	8678
929.218	8621
929.323	8556
929.428	8507
929.533	8686
929.638	8492
929.743	8560
929.848	8587
929.953	8514
930.058	8427
930.163	8286
930.267	8374
930.372	8434
930.477	8282
930.581	8457
930.685	8381
930.79	8180
930.894	8366
930.998	8218
931.103	8381
931.207	8024
931.311	7982
931.415	7894
931.519	7780
931.623	7715
