Data from test_V78500241_1936.txt Node
Date: Fri Mar 25 14:47:11 CST 2022
User: usil
Spectrometer: V785-0024
Trigger mode: 0
Integration Time (sec): 4.000000E-1
Scans to average: 1
Nonlinearity correction enabled: false
Boxcar width: 0
Storing dark spectrum: false
XAxis mode: Wavelengths
Number of Pixels in Spectrum: 1024
>>>>>Begin Spectral Data<<<<<
801.071	21945
801.214	21907
801.356	21709
801.499	21690
801.641	21519
801.783	21329
801.926	21504
802.068	21401
802.211	21291
802.353	21252
802.496	20902
802.638	20929
802.78	20933
802.923	20944
803.065	20819
803.208	20705
803.35	20800
803.492	20845
803.635	20929
803.777	20823
803.919	20902
804.061	21294
804.204	20887
804.346	20686
804.488	20701
804.63	20708
804.773	20636
804.915	20746
805.057	20868
805.199	20648
805.341	20781
805.483	20788
805.626	20670
805.768	20720
805.91	20765
806.052	20651
806.194	20621
806.336	20815
806.478	20678
806.62	20689
806.762	20716
806.904	20712
807.046	21043
807.188	21013
807.33	21077
807.472	21001
807.614	20975
807.756	20857
807.898	20899
808.04	20765
808.182	20697
808.324	20674
808.465	20918
808.607	20952
808.749	21032
808.891	21161
809.033	21218
809.174	21135
809.316	20937
809.458	21104
809.6	21032
809.741	21032
809.883	21173
810.025	21218
810.166	21393
810.308	21230
810.45	21233
810.591	21058
810.733	20899
810.875	20853
811.016	20804
811.158	20686
811.299	20857
811.441	20887
811.582	20921
811.724	20807
811.865	20834
812.007	20743
812.148	20864
812.29	20960
812.431	21089
812.573	21180
812.714	21169
812.855	21336
812.997	21336
813.138	21469
813.279	21367
813.421	21378
813.562	21298
813.703	21123
813.845	20971
813.986	20682
814.127	20617
814.268	20492
814.41	20549
814.551	20431
814.692	20358
814.833	20415
814.974	20298
815.115	20404
815.256	20210
815.397	20275
815.539	20202
815.68	20172
815.821	19993
815.962	20157
816.103	19955
816.244	19940
816.385	19765
816.526	19849
816.666	19742
816.807	19480
816.948	19605
817.089	19719
817.23	19632
817.371	19460
817.512	19567
817.653	19563
817.793	19487
817.934	19518
818.075	19537
818.216	19464
818.356	19533
818.497	19377
818.638	19046
818.778	19179
818.919	19190
819.06	19270
819.2	19354
819.341	19464
819.481	19411
819.622	19575
819.762	19765
819.903	19635
820.043	19453
820.184	19499
820.324	19582
820.465	19590
820.605	19506
820.746	19464
820.886	19343
821.026	19449
821.167	19514
821.307	19609
821.447	19434
821.588	19407
821.728	19141
821.868	19061
822.008	18924
822.149	18935
822.289	18837
822.429	18688
822.569	18642
822.709	18688
822.849	18361
822.99	18399
823.13	18357
823.27	18330
823.41	18171
823.55	18030
823.69	18155
823.83	18323
823.97	18159
824.11	17889
824.25	18038
824.389	18053
824.529	18030
824.669	18038
824.809	18049
824.949	17977
825.089	18072
825.228	18003
825.368	17798
825.508	17813
825.648	17695
825.787	17824
825.927	17790
826.067	17752
826.206	17729
826.346	17840
826.485	17813
826.625	17684
826.765	17885
826.904	17786
827.044	17554
827.183	17474
827.323	17455
827.462	17524
827.601	17349
827.741	17440
827.88	17410
828.02	17387
828.159	17391
828.298	17551
828.437	17455
828.577	17440
828.716	17623
828.855	17395
828.994	17193
829.134	17284
829.273	17273
829.412	17254
829.551	17181
829.69	17079
829.829	17117
829.968	17315
830.107	17280
830.246	17242
830.385	17231
830.524	17090
830.663	17033
830.802	16946
830.941	16782
831.08	16831
831.219	16812
831.357	16934
831.496	17060
831.635	16869
831.774	16721
831.913	16839
832.051	16645
832.19	16793
832.329	16641
832.467	16656
832.606	16497
832.744	16573
832.883	16550
833.022	16455
833.16	16538
833.299	16603
833.437	16565
833.576	16645
833.714	16561
833.852	16615
833.991	16584
834.129	16702
834.267	16664
834.406	16588
834.544	16656
834.682	16607
834.821	16489
834.959	16755
835.097	16474
835.235	16702
835.373	16634
835.511	16615
835.65	16607
835.788	16451
835.926	16428
836.064	16287
836.202	16310
836.34	16580
836.478	16596
836.615	16493
836.753	16489
836.891	16577
837.029	16611
837.167	16443
837.305	16390
837.443	16462
837.58	16306
837.718	16508
837.856	16405
837.993	16474
838.131	16577
838.269	16257
838.406	16310
838.544	16287
838.681	16116
838.819	16162
838.956	15934
839.094	15888
839.231	16044
839.369	16017
839.506	16322
839.643	16158
839.781	15979
839.918	15873
840.055	16006
840.193	16078
840.33	15926
840.467	15895
840.604	15888
840.742	16211
840.879	15812
841.016	15899
841.153	15915
841.29	16116
841.427	15956
841.564	15956
841.701	16006
841.838	15907
841.975	15800
842.112	15918
842.249	15785
842.385	15667
842.522	15876
842.659	15671
842.796	15652
842.933	15850
843.069	15622
843.206	15675
843.343	15816
843.479	15736
843.616	15766
843.752	15572
843.889	15523
844.025	15694
844.162	15443
844.298	15553
844.435	15500
844.571	15549
844.708	15538
844.844	15606
844.98	15622
845.117	15519
845.253	15481
845.389	15447
845.525	15428
845.661	15485
845.798	15272
845.934	15367
846.07	15306
846.206	15439
846.342	15435
846.478	15298
846.614	15039
846.75	15051
846.886	15036
847.022	15104
847.158	15055
847.294	15116
847.429	15138
847.565	15154
847.701	15348
847.837	14788
847.972	14826
848.108	14986
848.244	15036
848.379	14731
848.515	14670
848.65	14648
848.786	14705
848.921	14712
849.057	14800
849.192	14796
849.328	14743
849.463	14682
849.598	14724
849.734	14560
849.869	14594
850.004	14492
850.14	14522
850.275	14522
850.41	14381
850.545	14404
850.68	14446
850.815	14408
850.95	14518
851.085	14731
851.22	14484
851.355	14377
851.49	14438
851.625	14446
851.76	14389
851.895	14412
852.03	14282
852.165	14442
852.299	14419
852.434	14537
852.569	14518
852.703	14454
852.838	14457
852.973	14518
853.107	14571
853.242	14400
853.376	14320
853.511	14195
853.645	14248
853.78	14454
853.914	14317
854.048	14244
854.183	14374
854.317	14370
854.451	14442
854.585	14305
854.72	14218
854.854	14431
854.988	14218
855.122	14317
855.256	14233
855.39	14305
855.524	14339
855.658	14389
855.792	14412
855.926	14454
856.06	14385
856.194	14415
856.327	14317
856.461	14271
856.595	14271
856.729	14252
856.862	14408
856.996	14385
857.13	14530
857.263	14488
857.397	14412
857.53	14339
857.664	14370
857.797	14431
857.931	14476
858.064	14404
858.197	14358
858.331	14309
858.464	14309
858.597	14119
858.731	14343
858.864	14343
858.997	14317
859.13	14461
859.263	14396
859.396	14286
859.529	14317
859.662	14324
859.795	14248
859.928	14389
860.061	14408
860.194	14469
860.327	14324
860.46	14313
860.592	14415
860.725	14492
860.858	14450
860.99	14298
861.123	14267
861.256	14362
861.388	14343
861.521	15055
861.653	14263
861.786	14153
861.918	14195
862.05	14202
862.183	14305
862.315	14256
862.447	14389
862.58	14248
862.712	14107
862.844	14008
862.976	14183
863.108	14278
863.24	14412
863.372	14024
863.504	14123
863.636	14111
863.768	14123
863.9	14084
864.032	14020
864.164	14031
864.296	14096
864.428	14153
864.559	14157
864.691	14092
864.823	14187
864.954	14111
865.086	14126
865.217	14123
865.349	14084
865.48	14138
865.612	14065
865.743	14290
865.875	14046
866.006	14088
866.137	14054
866.269	14069
866.4	14092
866.531	14027
866.662	14058
866.793	14054
866.924	14039
867.055	14077
867.186	14031
867.317	14012
867.448	13982
867.579	14050
867.71	14005
867.841	13993
867.972	14145
868.103	14100
868.233	14054
868.364	14096
868.495	14199
868.625	14415
868.756	14434
868.886	14267
869.017	14301
869.147	14434
869.278	14381
869.408	14370
869.539	14389
869.669	14393
869.799	14404
869.929	14495
870.06	14499
870.19	14735
870.32	14636
870.45	14724
870.58	14804
870.71	14823
870.84	14800
870.97	14788
871.1	14716
871.23	14906
871.36	14990
871.489	14845
871.619	14864
871.749	14956
871.879	14979
872.008	14986
872.138	14971
872.267	14872
872.397	14773
872.526	14792
872.656	14686
872.785	14750
872.915	14902
873.044	15062
873.173	15043
873.303	15020
873.432	15093
873.561	15214
873.69	14883
873.819	14986
873.948	15150
874.077	15058
874.206	14914
874.335	15001
874.464	15127
874.593	15317
874.722	15249
874.851	15389
874.979	15424
875.108	15283
875.237	15279
875.365	15188
875.494	15268
875.623	15397
875.751	15321
875.88	15412
876.008	15458
876.136	15519
876.265	15728
876.393	15964
876.521	15732
876.65	15804
876.778	15747
876.906	15679
877.034	15701
877.162	15690
877.29	15622
877.418	15827
877.546	15755
877.674	15724
877.802	15774
877.93	15701
878.058	15622
878.185	15633
878.313	15701
878.441	15652
878.568	15610
878.696	15641
878.824	15759
878.951	15823
879.079	15907
879.206	16013
879.333	15808
879.461	15816
879.588	15895
879.715	15975
879.842	15956
879.97	15720
880.097	15504
880.224	15603
880.351	15591
880.478	15553
880.605	15500
880.732	15618
880.859	15793
880.986	15698
881.112	15557
881.239	15435
881.366	15401
881.493	15256
881.619	15180
881.746	15245
881.872	15252
881.999	15146
882.125	15173
882.252	15256
882.378	15199
882.505	15401
882.631	15218
882.757	15058
882.883	15119
883.01	15051
883.136	14986
883.262	14975
883.388	14883
883.514	15039
883.64	15138
883.766	15020
883.892	14899
884.018	14986
884.143	15085
884.269	15108
884.395	14857
884.52	14670
884.646	14739
884.772	14670
884.897	14594
885.023	14678
885.148	14811
885.274	14975
885.399	14933
885.524	14746
885.65	14765
885.775	14762
885.9	14758
886.025	14823
886.15	14754
886.275	14773
886.4	14670
886.525	14594
886.65	14651
886.775	14632
886.9	14998
887.025	15047
887.149	14788
887.274	14552
887.399	14541
887.523	14560
887.648	14507
887.773	14495
887.897	14708
888.021	14765
888.146	14613
888.27	14682
888.395	14655
888.519	14720
888.643	14587
888.767	14640
888.891	14522
889.015	14412
889.139	14488
889.263	14377
889.387	14537
889.511	14571
889.635	14480
889.759	14393
889.883	14431
890.006	14377
890.13	14545
890.254	14427
890.377	14389
890.501	14267
890.624	14199
890.748	14263
890.871	14218
890.995	14168
891.118	14107
891.241	14134
891.364	14119
891.488	14225
891.611	14126
891.734	14157
891.857	14172
891.98	14218
892.103	14130
892.226	14149
892.349	14191
892.471	13894
892.594	14111
892.717	14138
892.839	14096
892.962	14240
893.085	14142
893.207	14092
893.33	14168
893.452	14062
893.575	14168
893.697	14107
893.819	14225
893.941	14393
894.064	14278
894.186	14161
894.308	14111
894.43	14317
894.552	14374
894.674	14252
894.796	14161
894.918	14221
895.04	14119
895.161	14225
895.283	14206
895.405	14221
895.526	14164
895.648	14259
895.769	14248
895.891	14317
896.012	14370
896.134	14259
896.255	14187
896.376	14301
896.498	14313
896.619	14366
896.74	14286
896.861	14305
896.982	14575
897.103	14785
897.224	14651
897.345	14552
897.466	14469
897.587	14579
897.708	14792
897.828	14617
897.949	14469
898.07	14366
898.19	14549
898.311	14640
898.431	14556
898.552	14632
898.672	14792
898.792	14636
898.913	14731
899.033	14507
899.153	14484
899.273	14374
899.393	14526
899.513	14644
899.633	14518
899.753	14499
899.873	14374
899.993	14590
900.113	14480
900.232	14552
900.352	14431
900.472	14450
900.591	14244
900.711	14377
900.83	14313
900.95	14431
901.069	14492
901.189	14294
901.308	14077
901.427	13951
901.546	14088
901.665	14035
901.784	14046
901.904	13928
902.023	13841
902.141	13666
902.26	13597
902.379	13632
902.498	13620
902.617	13613
902.735	13658
902.854	13499
902.973	13499
903.091	13308
903.21	13362
903.328	13297
903.446	13289
903.565	13251
903.683	13080
903.801	13164
903.919	13164
904.038	13179
904.156	13042
904.274	13129
904.392	13038
904.51	13008
904.627	12970
904.745	13023
904.863	13023
904.981	12825
905.098	12711
905.216	12669
905.334	12760
905.451	12696
905.569	12547
905.686	12783
905.803	12635
905.921	12521
906.038	12604
906.155	12578
906.272	12414
906.389	12441
906.506	12228
906.623	12273
906.74	12281
906.857	12205
906.974	12247
907.091	12357
907.208	12475
907.324	12380
907.441	12205
907.557	12091
907.674	12102
907.79	11999
907.907	11954
908.023	12087
908.139	12041
908.256	11958
908.372	11897
908.488	11969
908.604	11935
908.72	11809
908.836	11809
908.952	11737
909.068	11695
909.184	11828
909.3	11843
909.415	11836
909.531	11809
909.647	11596
909.762	11528
909.878	11600
909.993	11562
910.108	11554
910.224	11512
910.339	11497
910.454	11452
910.57	11391
910.685	11402
910.8	11520
910.915	11558
911.03	11433
911.145	11239
911.259	11261
911.374	11223
911.489	11143
911.604	11140
911.718	10968
911.833	11041
911.947	10843
912.062	10862
912.176	10995
912.291	10938
912.405	10984
912.519	11204
912.633	11303
912.748	11090
912.862	10999
912.976	10854
913.09	10771
913.204	10869
913.318	10995
913.431	11048
913.545	11025
913.659	11010
913.772	10854
913.886	10805
914	10755
914.113	10843
914.226	10968
914.34	10892
914.453	10664
914.566	10774
914.68	10653
914.793	10691
914.906	10542
915.019	10546
915.132	10493
915.245	10508
915.358	10542
915.47	10497
915.583	10554
915.696	10584
915.809	10645
915.921	10702
916.034	10596
916.146	10527
916.259	10481
916.371	10675
916.483	10527
916.595	10402
916.708	10493
916.82	10466
916.932	10379
917.044	10440
917.156	10462
917.268	10306
917.38	10337
917.491	10348
917.603	10265
917.715	10485
917.826	10436
917.938	10329
918.049	10280
918.161	10424
918.272	10489
918.384	10481
918.495	10363
918.606	10219
918.717	10128
918.828	10291
918.939	10196
919.05	10093
919.161	10196
919.272	10029
919.383	10097
919.494	10215
919.604	10360
919.715	10242
919.826	10112
919.936	10234
920.047	10348
920.157	10280
920.267	10474
920.378	10314
920.488	10306
920.598	10459
920.708	10615
920.818	10516
920.928	10474
921.038	10649
921.148	10531
921.258	10230
921.368	10169
921.477	10025
921.587	10032
921.697	9979
921.806	10074
921.916	9998
922.025	9766
922.134	9781
922.244	9751
922.353	9804
922.462	9724
922.571	9660
922.68	9511
922.789	9431
922.898	9473
923.007	9408
923.116	9488
923.224	9492
923.333	9507
923.442	9393
923.55	9363
923.659	9378
923.767	9401
923.876	9336
923.984	9462
924.092	9283
924.201	9302
924.309	9401
924.417	9393
924.525	9348
924.633	9287
924.741	10215
924.849	9161
924.956	9264
925.064	9203
925.172	9138
925.279	9138
925.387	9214
925.494	9176
925.602	9344
925.709	9253
925.816	9051
925.924	9180
926.031	9188
926.138	9150
926.245	9188
926.352	9089
926.459	9146
926.566	9230
926.673	9100
926.779	8990
926.886	8994
926.993	8861
927.099	8830
927.206	8785
927.312	8861
927.419	8864
927.525	8849
927.631	8876
927.737	8716
927.843	8796
927.95	8632
928.056	8697
928.162	8731
928.267	8796
928.373	9374
928.479	8804
928.585	8632
928.69	8727
928.796	8800
928.901	8708
929.007	8393
929.112	8613
929.218	8663
929.323	8648
929.428	8549
929.533	8720
929.638	8522
929.743	8469
929.848	8655
929.953	8587
930.058	8454
930.163	8328
930.267	8362
930.372	8495
930.477	8298
930.581	8507
930.685	8442
930.79	8252
930.894	8290
930.998	8233
931.103	8404
931.207	8084
931.311	8077
931.415	7989
931.519	7814
931.623	7784
