Data from test_V78500241_430.txt Node
Date: Fri Mar 25 14:36:42 CST 2022
User: usil
Spectrometer: V785-0024
Trigger mode: 0
Integration Time (sec): 4.000000E-1
Scans to average: 1
Nonlinearity correction enabled: false
Boxcar width: 0
Storing dark spectrum: false
XAxis mode: Wavelengths
Number of Pixels in Spectrum: 1024
>>>>>Begin Spectral Data<<<<<
801.071	26473
801.214	26514
801.356	26332
801.499	26202
801.641	25997
801.783	26134
801.926	26024
802.068	25887
802.211	25807
802.353	25860
802.496	25746
802.638	25647
802.78	25620
802.923	25590
803.065	25476
803.208	25464
803.35	25487
803.492	25468
803.635	25647
803.777	25567
803.919	25616
804.061	25955
804.204	25460
804.346	25533
804.488	25358
804.63	25594
804.773	25365
804.915	25483
805.057	25662
805.199	25472
805.341	25571
805.483	25715
805.626	25525
805.768	25426
805.91	25525
806.052	25639
806.194	25495
806.336	25670
806.478	25681
806.62	25624
806.762	25708
806.904	25639
807.046	25963
807.188	25849
807.33	25898
807.472	25989
807.614	25841
807.756	25841
807.898	25750
808.04	25708
808.182	25639
808.324	25620
808.465	25700
808.607	25883
808.749	26153
808.891	26183
809.033	26358
809.174	26035
809.316	25947
809.458	26149
809.6	26096
809.741	26149
809.883	26130
810.025	26210
810.166	26301
810.308	26294
810.45	26024
810.591	26142
810.733	25974
810.875	25925
811.016	25811
811.158	25734
811.299	25989
811.441	26001
811.582	25993
811.724	25936
811.865	25986
812.007	25826
812.148	25947
812.29	25890
812.431	25932
812.573	26195
812.714	26202
812.855	26419
812.997	26530
813.138	26602
813.279	26465
813.421	26457
813.562	26130
813.703	26218
813.845	26012
813.986	25696
814.127	25571
814.268	25453
814.41	25571
814.551	25453
814.692	25544
814.833	25343
814.974	25422
815.115	25510
815.256	25270
815.397	25263
815.539	25293
815.68	25095
815.821	25183
815.962	25133
816.103	25110
816.244	25057
816.385	24977
816.526	24928
816.666	24787
816.807	24502
816.948	24532
817.089	24654
817.23	24498
817.371	24722
817.512	24646
817.653	24532
817.793	24460
817.934	24551
818.075	24426
818.216	24532
818.356	24513
818.497	24452
818.638	24273
818.778	24311
818.919	24121
819.06	24273
819.2	24258
819.341	24490
819.481	24540
819.622	24802
819.762	24859
819.903	24738
820.043	24669
820.184	24566
820.324	24437
820.465	24631
820.605	24566
820.746	24429
820.886	24536
821.026	24498
821.167	24513
821.307	24585
821.447	24563
821.588	24300
821.728	24167
821.868	24003
822.008	23912
822.149	23889
822.289	23992
822.429	23627
822.569	23486
822.709	23630
822.849	23455
822.99	23326
823.13	23242
823.27	23299
823.41	23052
823.55	23010
823.69	23113
823.83	23056
823.97	23086
824.11	23003
824.25	22934
824.389	23064
824.529	22987
824.669	22889
824.809	23044
824.949	22991
825.089	22957
825.228	22965
825.368	22767
825.508	22801
825.648	22694
825.787	22694
825.927	22771
826.067	22584
826.206	22729
826.346	22763
826.485	22767
826.625	22679
826.765	22942
826.904	22809
827.044	22379
827.183	22527
827.323	22295
827.462	22352
827.601	22238
827.741	22303
827.88	22371
828.02	22363
828.159	22253
828.298	22405
828.437	22497
828.577	22428
828.716	22481
828.855	22139
828.994	22173
829.134	22116
829.273	22177
829.412	22036
829.551	21968
829.69	22036
829.829	22002
829.968	22158
830.107	22158
830.246	22147
830.385	22147
830.524	22010
830.663	21903
830.802	21682
830.941	21663
831.08	21580
831.219	21690
831.357	21618
831.496	21846
831.635	21641
831.774	21572
831.913	21447
832.051	21397
832.19	21428
832.329	21272
832.467	21329
832.606	21272
832.744	21199
832.883	21279
833.022	21214
833.16	21351
833.299	21454
833.437	21397
833.576	21279
833.714	21363
833.852	21264
833.991	21374
834.129	21447
834.267	21435
834.406	21355
834.544	21393
834.682	21321
834.821	21249
834.959	21469
835.097	21237
835.235	21344
835.373	21207
835.511	21291
835.65	21138
835.788	21161
835.926	20864
836.064	21051
836.202	20994
836.34	21135
836.478	21279
836.615	21150
836.753	21055
836.891	21302
837.029	21135
837.167	20994
837.305	21093
837.443	20937
837.58	20979
837.718	21180
837.856	20971
837.993	21039
838.131	21100
838.269	20883
838.406	20990
838.544	20899
838.681	20686
838.819	20609
838.956	20514
839.094	20503
839.231	20514
839.369	20507
839.506	20750
839.643	20644
839.781	20484
839.918	20408
840.055	20473
840.193	20415
840.33	20419
840.467	20415
840.604	20366
840.742	20579
840.879	20381
841.016	20305
841.153	20119
841.29	20518
841.427	20381
841.564	20351
841.701	20290
841.838	20336
841.975	20259
842.112	20267
842.249	20073
842.385	19947
842.522	20355
842.659	20111
842.796	20054
842.933	20138
843.069	20043
843.206	20065
843.343	20248
843.479	20107
843.616	20077
843.752	19803
843.889	19864
844.025	19906
844.162	19849
844.298	19852
844.435	19875
844.571	19765
844.708	19833
844.844	19936
844.98	19974
845.117	19913
845.253	19845
845.389	19753
845.525	19799
845.661	19620
845.798	19635
845.934	19502
846.07	19548
846.206	19704
846.342	19738
846.478	19548
846.614	19441
846.75	19346
846.886	19335
847.022	19377
847.158	19331
847.294	19282
847.429	19373
847.565	19362
847.701	19449
847.837	19008
847.972	18981
848.108	19095
848.244	19000
848.379	18985
848.515	18764
848.65	18882
848.786	18741
848.921	18856
849.057	18996
849.192	19004
849.328	18939
849.463	18814
849.598	18741
849.734	18795
849.869	18627
850.004	18578
850.14	18772
850.275	18585
850.41	18456
850.545	18570
850.68	18563
850.815	18658
850.95	18623
851.085	18829
851.22	18719
851.355	18738
851.49	18582
851.625	18551
851.76	18604
851.895	18460
852.03	18513
852.165	18597
852.299	18544
852.434	18635
852.569	18681
852.703	18722
852.838	18597
852.973	18661
853.107	18719
853.242	18506
853.376	18517
853.511	18277
853.645	18338
853.78	18574
853.914	18540
854.048	18429
854.183	18281
854.317	18490
854.451	18513
854.585	18414
854.72	18388
854.854	18494
854.988	18277
855.122	18418
855.256	18209
855.39	18376
855.524	18445
855.658	18388
855.792	18498
855.926	18376
856.06	18448
856.194	18536
856.327	18433
856.461	18266
856.595	18327
856.729	18403
856.862	18540
856.996	18414
857.13	18544
857.263	18448
857.397	18513
857.53	18384
857.664	18380
857.797	18460
857.931	18559
858.064	18308
858.197	18627
858.331	18353
858.464	18232
858.597	18182
858.731	18422
858.864	18467
858.997	18243
859.13	18251
859.263	18407
859.396	18517
859.529	18433
859.662	18361
859.795	18308
859.928	18399
860.061	18517
860.194	18483
860.327	18338
860.46	18365
860.592	18544
860.725	18483
860.858	18456
860.99	18452
861.123	18289
861.256	18292
861.388	18338
861.521	19027
861.653	18258
861.786	18125
861.918	18205
862.05	18285
862.183	18361
862.315	18410
862.447	18407
862.58	18418
862.712	18140
862.844	18072
862.976	18190
863.108	18079
863.24	18479
863.372	17999
863.504	18129
863.636	18091
863.768	18171
863.9	18095
864.032	18026
864.164	18034
864.296	18076
864.428	18174
864.559	18106
864.691	18121
864.823	18102
864.954	18106
865.086	18095
865.217	18060
865.349	17992
865.48	17984
865.612	18079
865.743	18155
865.875	18026
866.006	18057
866.137	18049
866.269	17980
866.4	17927
866.531	17977
866.662	18003
866.793	17870
866.924	17920
867.055	18076
867.186	17931
867.317	17996
867.448	17920
867.579	17893
867.71	17775
867.841	17889
867.972	17863
868.103	17939
868.233	17977
868.364	17999
868.495	18087
868.625	18117
868.756	18228
868.886	18110
869.017	18125
869.147	18273
869.278	18365
869.408	18239
869.539	18266
869.669	18330
869.799	18159
869.929	18372
870.06	18224
870.19	18441
870.32	18410
870.45	18566
870.58	18582
870.71	18612
870.84	18703
870.97	18525
871.1	18608
871.23	18776
871.36	18757
871.489	18623
871.619	18661
871.749	18707
871.879	18738
872.008	18844
872.138	18661
872.267	18779
872.397	18650
872.526	18658
872.656	18616
872.785	18623
872.915	18825
873.044	18951
873.173	18757
873.303	18890
873.432	18867
873.561	18897
873.69	18856
873.819	18810
873.948	18871
874.077	18810
874.206	18787
874.335	18852
874.464	18856
874.593	19088
874.722	19053
874.851	19050
874.979	19069
875.108	19080
875.237	19103
875.365	18962
875.494	19061
875.623	19141
875.751	19198
875.88	19091
876.008	19251
876.136	19209
876.265	19525
876.393	19578
876.521	19677
876.65	19540
876.778	19514
876.906	19464
877.034	19381
877.162	19381
877.29	19419
877.418	19453
877.546	19499
877.674	19362
877.802	19400
877.93	19556
878.058	19487
878.185	19354
878.313	19415
878.441	19529
878.568	19362
878.696	19422
878.824	19559
878.951	19548
879.079	19708
879.206	19746
879.333	19704
879.461	19552
879.588	19639
879.715	19833
879.842	19757
879.97	19537
880.097	19441
880.224	19354
880.351	19396
880.478	19362
880.605	19221
880.732	19301
880.859	19643
880.986	19343
881.112	19335
881.239	19198
881.366	19141
881.493	19072
881.619	19008
881.746	18989
881.872	18962
881.999	18882
882.125	18935
882.252	19129
882.378	18985
882.505	19103
882.631	18825
882.757	18810
882.883	18871
883.01	18741
883.136	18711
883.262	18528
883.388	18585
883.514	18798
883.64	18798
883.766	18623
883.892	18597
884.018	18544
884.143	18795
884.269	18753
884.395	18486
884.52	18346
884.646	18555
884.772	18296
884.897	18281
885.023	18365
885.148	18589
885.274	18544
885.399	18384
885.524	18448
885.65	18467
885.775	18334
885.9	18391
886.025	18525
886.15	18536
886.275	18388
886.4	18338
886.525	18384
886.65	18296
886.775	18300
886.9	18471
887.025	18547
887.149	18353
887.274	18270
887.399	18235
887.523	18125
887.648	18083
887.773	18117
887.897	18292
888.021	18232
888.146	18201
888.27	18205
888.395	18296
888.519	18251
888.643	18167
888.767	18178
888.891	18057
889.015	17988
889.139	18083
889.263	17950
889.387	17969
889.511	18159
889.635	18098
889.759	18087
889.883	17923
890.006	17973
890.13	18133
890.254	17923
890.377	17885
890.501	17703
890.624	17771
890.748	17802
890.871	17684
890.995	17634
891.118	17505
891.241	17615
891.364	17608
891.488	17802
891.611	17573
891.734	17532
891.857	17611
891.98	17558
892.103	17695
892.226	17668
892.349	17539
892.471	17410
892.594	17497
892.717	17566
892.839	17505
892.962	17528
893.085	17532
893.207	17604
893.33	17433
893.452	17387
893.575	17532
893.697	17493
893.819	17634
893.941	17726
894.064	17714
894.186	17577
894.308	17589
894.43	17558
894.552	17760
894.674	17676
894.796	17463
894.918	17543
895.04	17551
895.161	17600
895.283	17695
895.405	17497
895.526	17532
895.648	17570
895.769	17619
895.891	17573
896.012	17668
896.134	17535
896.255	17714
896.376	17592
896.498	17691
896.619	17600
896.74	17710
896.861	17684
896.982	18114
897.103	18209
897.224	18007
897.345	17916
897.466	17828
897.587	17885
897.708	18057
897.828	17843
897.949	17798
898.07	17767
898.19	17733
898.311	17965
898.431	17707
898.552	17756
898.672	17889
898.792	17969
898.913	17916
899.033	17722
899.153	17733
899.273	17653
899.393	17596
899.513	17589
899.633	17627
899.753	17634
899.873	17604
899.993	17604
900.113	17642
900.232	17566
900.352	17638
900.472	17501
900.591	17474
900.711	17440
900.83	17455
900.95	17585
901.069	17615
901.189	17429
901.308	17189
901.427	17098
901.546	17086
901.665	17212
901.784	17109
901.904	16987
902.023	16873
902.141	16717
902.26	16694
902.379	16748
902.498	16554
902.617	16554
902.735	16713
902.854	16531
902.973	16508
903.091	16268
903.21	16276
903.328	16352
903.446	16272
903.565	16097
903.683	16112
903.801	16055
903.919	16116
904.038	16158
904.156	15861
904.274	15964
904.392	15918
904.51	15960
904.627	15895
904.745	15888
904.863	15922
904.981	15770
905.098	15526
905.216	15591
905.334	15675
905.451	15618
905.569	15576
905.686	15686
905.803	15606
905.921	15492
906.038	15504
906.155	15526
906.272	15351
906.389	15332
906.506	15165
906.623	15138
906.74	15173
906.857	14979
906.974	15039
907.091	15131
907.208	15256
907.324	15108
907.441	14952
907.557	14952
907.674	14804
907.79	14731
907.907	14823
908.023	14857
908.139	14887
908.256	14792
908.372	14823
908.488	14727
908.604	14537
908.72	14492
908.836	14507
908.952	14552
909.068	14606
909.184	14674
909.3	14423
909.415	14606
909.531	14492
909.647	14305
909.762	14313
909.878	14263
909.993	14309
910.108	14240
910.224	14157
910.339	14263
910.454	14084
910.57	14103
910.685	14058
910.8	14423
910.915	14126
911.03	14111
911.145	13841
911.259	13963
911.374	13909
911.489	13826
911.604	13791
911.718	13674
911.833	13636
911.947	13537
912.062	13506
912.176	13590
912.291	13685
912.405	13662
912.519	13795
912.633	13811
912.748	13658
912.862	13567
912.976	13533
913.09	13365
913.204	13396
913.318	13426
913.431	13575
913.545	13453
913.659	13597
913.772	13487
913.886	13373
914	13282
914.113	13460
914.226	13407
914.34	13388
914.453	13175
914.566	13301
914.68	13247
914.793	13213
914.906	13000
915.019	13072
915.132	12924
915.245	12932
915.358	12970
915.47	13038
915.583	12981
915.696	13046
915.809	13126
915.921	13198
916.034	13023
916.146	12916
916.259	12951
916.371	12909
916.483	12947
916.595	12852
916.708	12863
916.82	12928
916.932	12878
917.044	12848
917.156	12840
917.268	12665
917.38	12692
917.491	12688
917.603	12783
917.715	12833
917.826	12734
917.938	12669
918.049	12582
918.161	12707
918.272	12779
918.384	12844
918.495	12692
918.606	12570
918.717	12433
918.828	12589
918.939	12563
919.05	12456
919.161	12536
919.272	12327
919.383	12323
919.494	12471
919.604	12825
919.715	12547
919.826	12357
919.936	12483
920.047	12563
920.157	12486
920.267	12684
920.378	12509
920.488	12486
920.598	12719
920.708	12776
920.818	12692
920.928	12654
921.038	12802
921.148	12662
921.258	12498
921.368	12353
921.477	12311
921.587	12258
921.697	12155
921.806	12273
921.916	12106
922.025	11984
922.134	11958
922.244	11939
922.353	11946
922.462	11775
922.571	11764
922.68	11589
922.789	11592
922.898	11611
923.007	11551
923.116	11649
923.224	11566
923.333	11577
923.442	11455
923.55	11490
923.659	11406
923.767	11474
923.876	11471
923.984	11497
924.092	11315
924.201	11387
924.309	11421
924.417	11383
924.525	11311
924.633	11402
924.741	12209
924.849	11124
924.956	11254
925.064	11151
925.172	11094
925.279	11033
925.387	11193
925.494	11185
925.602	11235
925.709	11124
925.816	11041
925.924	11029
926.031	11208
926.138	11155
926.245	11166
926.352	11014
926.459	11143
926.566	11162
926.673	11060
926.779	10968
926.886	10915
926.993	10782
927.099	10828
927.206	10683
927.312	10786
927.419	10797
927.525	10774
927.631	10820
927.737	10580
927.843	10603
927.95	10519
928.056	10588
928.162	10679
928.267	10714
928.373	11242
928.479	10679
928.585	10451
928.69	10588
928.796	10573
928.901	10478
929.007	10375
929.112	10489
929.218	10375
929.323	10314
929.428	10329
929.533	10424
929.638	10287
929.743	10337
929.848	10443
929.953	10348
930.058	10204
930.163	10025
930.267	10097
930.372	10215
930.477	10032
930.581	10276
930.685	10181
930.79	10013
930.894	9956
930.998	10032
931.103	10044
931.207	9804
931.311	9751
931.415	9545
931.519	9382
931.623	9401
