Data from test_V78500241_2065.txt Node
Date: Fri Mar 25 14:48:05 CST 2022
User: usil
Spectrometer: V785-0024
Trigger mode: 0
Integration Time (sec): 4.000000E-1
Scans to average: 1
Nonlinearity correction enabled: false
Boxcar width: 0
Storing dark spectrum: false
XAxis mode: Wavelengths
Number of Pixels in Spectrum: 1024
>>>>>Begin Spectral Data<<<<<
801.071	21937
801.214	22070
801.356	21739
801.499	21717
801.641	21549
801.783	21420
801.926	21576
802.068	21431
802.211	21344
802.353	21363
802.496	21108
802.638	21062
802.78	20876
802.923	20967
803.065	20781
803.208	20735
803.35	20819
803.492	20937
803.635	20979
803.777	20765
803.919	20933
804.061	21203
804.204	20937
804.346	20735
804.488	20682
804.63	20792
804.773	20667
804.915	20712
805.057	20800
805.199	20739
805.341	20762
805.483	20838
805.626	20701
805.768	20720
805.91	20693
806.052	20765
806.194	20746
806.336	20708
806.478	20632
806.62	20655
806.762	20842
806.904	20933
807.046	21203
807.188	20986
807.33	21043
807.472	21138
807.614	20948
807.756	21013
807.898	20902
808.04	20781
808.182	20788
808.324	20834
808.465	20807
808.607	20994
808.749	21119
808.891	21218
809.033	21222
809.174	21161
809.316	21138
809.458	21081
809.6	21051
809.741	21176
809.883	21154
810.025	21165
810.166	21363
810.308	21252
810.45	21142
810.591	21173
810.733	20956
810.875	20963
811.016	20750
811.158	20792
811.299	20971
811.441	20975
811.582	20960
811.724	20948
811.865	20758
812.007	20944
812.148	20788
812.29	20842
812.431	20941
812.573	21104
812.714	21370
812.855	21302
812.997	21473
813.138	21606
813.279	21408
813.421	21382
813.562	21393
813.703	21131
813.845	20956
813.986	20701
814.127	20659
814.268	20465
814.41	20461
814.551	20389
814.692	20613
814.833	20336
814.974	20450
815.115	20396
815.256	20225
815.397	20317
815.539	20290
815.68	20301
815.821	20134
815.962	20225
816.103	20145
816.244	19921
816.385	20005
816.526	19830
816.666	19761
816.807	19616
816.948	19700
817.089	19727
817.23	19544
817.371	19472
817.512	19525
817.653	19472
817.793	19502
817.934	19537
818.075	19537
818.216	19590
818.356	19472
818.497	19422
818.638	19346
818.778	19324
818.919	19297
819.06	19171
819.2	19285
819.341	19449
819.481	19335
819.622	19620
819.762	19655
819.903	19681
820.043	19655
820.184	19460
820.324	19548
820.465	19495
820.605	19548
820.746	19472
820.886	19472
821.026	19487
821.167	19441
821.307	19552
821.447	19552
821.588	19316
821.728	19285
821.868	19072
822.008	18958
822.149	18894
822.289	19008
822.429	18673
822.569	18601
822.709	18620
822.849	18464
822.99	18475
823.13	18342
823.27	18407
823.41	18247
823.55	18163
823.69	18262
823.83	18258
823.97	18213
824.11	17999
824.25	18057
824.389	17939
824.529	18136
824.669	18007
824.809	18095
824.949	18003
825.089	17992
825.228	18129
825.368	17817
825.508	17710
825.648	17779
825.787	17855
825.927	17786
826.067	17710
826.206	17798
826.346	17775
826.485	17699
826.625	17783
826.765	17737
826.904	17771
827.044	17566
827.183	17539
827.323	17524
827.462	17596
827.601	17573
827.741	17535
827.88	17630
828.02	17436
828.159	17497
828.298	17554
828.437	17493
828.577	17463
828.716	17566
828.855	17440
828.994	17284
829.134	17292
829.273	17337
829.412	17204
829.551	17140
829.69	17147
829.829	17292
829.968	17292
830.107	17231
830.246	17185
830.385	17303
830.524	17231
830.663	16911
830.802	17006
830.941	16835
831.08	16778
831.219	16961
831.357	16801
831.496	17045
831.635	16816
831.774	16797
831.913	16812
832.051	16721
832.19	16656
832.329	16672
832.467	16618
832.606	16428
832.744	16558
832.883	16592
833.022	16615
833.16	16611
833.299	16634
833.437	16618
833.576	16573
833.714	16630
833.852	16630
833.991	16558
834.129	16668
834.267	16660
834.406	16577
834.544	16656
834.682	16691
834.821	16592
834.959	16786
835.097	16599
835.235	16558
835.373	16656
835.511	16622
835.65	16512
835.788	16478
835.926	16363
836.064	16348
836.202	16329
836.34	16550
836.478	16565
836.615	16493
836.753	16531
836.891	16672
837.029	16527
837.167	16523
837.305	16375
837.443	16409
837.58	16329
837.718	16485
837.856	16413
837.993	16272
838.131	16428
838.269	16299
838.406	16356
838.544	16181
838.681	16158
838.819	16044
838.956	15876
839.094	15953
839.231	16025
839.369	16017
839.506	16329
839.643	16071
839.781	15979
839.918	15899
840.055	15994
840.193	15945
840.33	15876
840.467	15953
840.604	15972
840.742	16173
840.879	15876
841.016	15812
841.153	15819
841.29	16010
841.427	15953
841.564	16021
841.701	15934
841.838	15918
841.975	15808
842.112	15861
842.249	15701
842.385	15660
842.522	15956
842.659	15827
842.796	15656
842.933	15759
843.069	15622
843.206	15679
843.343	15899
843.479	15698
843.616	15842
843.752	15519
843.889	15599
844.025	15717
844.162	15450
844.298	15622
844.435	15534
844.571	15564
844.708	15591
844.844	15663
844.98	15679
845.117	15679
845.253	15462
845.389	15382
845.525	15538
845.661	15454
845.798	15275
845.934	15378
846.07	15291
846.206	15336
846.342	15454
846.478	15340
846.614	15169
846.75	15252
846.886	15074
847.022	15108
847.158	15097
847.294	15009
847.429	15116
847.565	15051
847.701	15233
847.837	14868
847.972	14727
848.108	14849
848.244	14902
848.379	14781
848.515	14708
848.65	14621
848.786	14590
848.921	14571
849.057	14746
849.192	14773
849.328	14769
849.463	14655
849.598	14689
849.734	14617
849.869	14552
850.004	14450
850.14	14579
850.275	14446
850.41	14309
850.545	14339
850.68	14446
850.815	14476
850.95	14366
851.085	14545
851.22	14602
851.355	14355
851.49	14511
851.625	14454
851.76	14343
851.895	14408
852.03	14370
852.165	14473
852.299	14450
852.434	14492
852.569	14412
852.703	14431
852.838	14499
852.973	14480
853.107	14583
853.242	14442
853.376	14248
853.511	14134
853.645	14301
853.78	14393
853.914	14214
854.048	14199
854.183	14370
854.317	14332
854.451	14541
854.585	14286
854.72	14355
854.854	14320
854.988	14259
855.122	14248
855.256	14149
855.39	14377
855.524	14404
855.658	14324
855.792	14374
855.926	14358
856.06	14339
856.194	14351
856.327	14256
856.461	14267
856.595	14263
856.729	14332
856.862	14389
856.996	14389
857.13	14415
857.263	14492
857.397	14343
857.53	14381
857.664	14336
857.797	14393
857.931	14366
858.064	14366
858.197	14396
858.331	14339
858.464	14267
858.597	14256
858.731	14191
858.864	14286
858.997	14233
859.13	14381
859.263	14298
859.396	14450
859.529	14298
859.662	14259
859.795	14328
859.928	14199
860.061	14434
860.194	14442
860.327	14355
860.46	14328
860.592	14381
860.725	14492
860.858	14400
860.99	14259
861.123	14317
861.256	14130
861.388	14389
861.521	15009
861.653	14187
861.786	14180
861.918	14206
862.05	14191
862.183	14180
862.315	14271
862.447	14286
862.58	14202
862.712	14062
862.844	14172
862.976	14088
863.108	14107
863.24	14393
863.372	13940
863.504	14058
863.636	14142
863.768	14134
863.9	14183
864.032	14039
864.164	14012
864.296	14065
864.428	14191
864.559	14081
864.691	14119
864.823	14199
864.954	14115
865.086	14134
865.217	14168
865.349	14027
865.48	14065
865.612	14161
865.743	14229
865.875	14031
866.006	13959
866.137	14081
866.269	14119
866.4	14054
866.531	14126
866.662	14088
866.793	13997
866.924	14084
867.055	14039
867.186	14062
867.317	13974
867.448	14027
867.579	14107
867.71	14031
867.841	14081
867.972	14100
868.103	14058
868.233	14153
868.364	14100
868.495	14103
868.625	14332
868.756	14408
868.886	14248
869.017	14271
869.147	14442
869.278	14412
869.408	14434
869.539	14396
869.669	14438
869.799	14328
869.929	14374
870.06	14434
870.19	14674
870.32	14564
870.45	14689
870.58	14674
870.71	14773
870.84	14918
870.97	14720
871.1	14712
871.23	14921
871.36	14910
871.489	14758
871.619	14971
871.749	14971
871.879	14994
872.008	14963
872.138	14899
872.267	14811
872.397	14838
872.526	14705
872.656	14796
872.785	14823
872.915	14975
873.044	15032
873.173	14998
873.303	14994
873.432	15032
873.561	14975
873.69	15051
873.819	14975
873.948	15013
874.077	15013
874.206	14910
874.335	14956
874.464	15249
874.593	15268
874.722	15233
874.851	15310
874.979	15306
875.108	15340
875.237	15230
875.365	15252
875.494	15275
875.623	15401
875.751	15313
875.88	15405
876.008	15488
876.136	15511
876.265	15663
876.393	15823
876.521	15755
876.65	15781
876.778	15713
876.906	15629
877.034	15561
877.162	15755
877.29	15652
877.418	15694
877.546	15652
877.674	15759
877.802	15808
877.93	15705
878.058	15720
878.185	15599
878.313	15720
878.441	15789
878.568	15641
878.696	15667
878.824	15667
878.951	15781
879.079	15846
879.206	15941
879.333	15949
879.461	15739
879.588	15899
879.715	15934
879.842	15922
879.97	15698
880.097	15496
880.224	15580
880.351	15549
880.478	15625
880.605	15450
880.732	15610
880.859	15694
880.986	15644
881.112	15507
881.239	15454
881.366	15431
881.493	15237
881.619	15138
881.746	15203
881.872	15233
881.999	15176
882.125	15249
882.252	15249
882.378	15260
882.505	15428
882.631	15055
882.757	15032
882.883	15116
883.01	15074
883.136	14906
883.262	14941
883.388	14785
883.514	15001
883.64	15112
883.766	14990
883.892	14792
884.018	14910
884.143	14944
884.269	15077
884.395	14777
884.52	14712
884.646	14659
884.772	14632
884.897	14606
885.023	14735
885.148	14868
885.274	14933
885.399	14796
885.524	14769
885.65	14796
885.775	14804
885.9	14769
886.025	14872
886.15	14864
886.275	14724
886.4	14777
886.525	14606
886.65	14667
886.775	14731
886.9	14826
887.025	14929
887.149	14712
887.274	14651
887.399	14530
887.523	14503
887.648	14526
887.773	14450
887.897	14606
888.021	14526
888.146	14530
888.27	14625
888.395	14739
888.519	14598
888.643	14651
888.767	14746
888.891	14446
889.015	14476
889.139	14450
889.263	14362
889.387	14552
889.511	14621
889.635	14602
889.759	14389
889.883	14343
890.006	14438
890.13	14503
890.254	14328
890.377	14336
890.501	14214
890.624	14282
890.748	14248
890.871	14259
890.995	14107
891.118	13989
891.241	14142
891.364	14221
891.488	14191
891.611	14046
891.734	14138
891.857	14237
891.98	14172
892.103	14134
892.226	14214
892.349	14062
892.471	13898
892.594	14142
892.717	14145
892.839	14111
892.962	14142
893.085	14214
893.207	14088
893.33	13989
893.452	14043
893.575	14126
893.697	14043
893.819	14206
893.941	14343
894.064	14225
894.186	14161
894.308	14103
894.43	14278
894.552	14233
894.674	14153
894.796	14039
894.918	14126
895.04	14142
895.161	14317
895.283	14317
895.405	14103
895.526	14305
895.648	14164
895.769	14168
895.891	14385
896.012	14377
896.134	14381
896.255	14256
896.376	14233
896.498	14301
896.619	14457
896.74	14328
896.861	14370
896.982	14682
897.103	14845
897.224	14670
897.345	14545
897.466	14446
897.587	14564
897.708	14621
897.828	14663
897.949	14594
898.07	14469
898.19	14503
898.311	14636
898.431	14583
898.552	14659
898.672	14697
898.792	14590
898.913	14708
899.033	14571
899.153	14465
899.273	14526
899.393	14537
899.513	14461
899.633	14461
899.753	14617
899.873	14503
899.993	14587
900.113	14495
900.232	14575
900.352	14366
900.472	14419
900.591	14271
900.711	14374
900.83	14263
900.95	14488
901.069	14469
901.189	14286
901.308	13978
901.427	14092
901.546	14031
901.665	14084
901.784	14005
901.904	14012
902.023	13849
902.141	13655
902.26	13578
902.379	13643
902.498	13605
902.617	13540
902.735	13616
902.854	13647
902.973	13518
903.091	13320
903.21	13301
903.328	13320
903.446	13331
903.565	13034
903.683	13206
903.801	13152
903.919	13190
904.038	13122
904.156	12958
904.274	13084
904.392	12981
904.51	12970
904.627	13046
904.745	13103
904.863	13152
904.981	12814
905.098	12696
905.216	12616
905.334	12707
905.451	12681
905.569	12612
905.686	12768
905.803	12658
905.921	12604
906.038	12570
906.155	12544
906.272	12483
906.389	12334
906.506	12262
906.623	12262
906.74	12262
906.857	12155
906.974	12186
907.091	12300
907.208	12441
907.324	12296
907.441	12228
907.557	12049
907.674	12022
907.79	11889
907.907	11942
908.023	12007
908.139	12030
908.256	11988
908.372	11988
908.488	11946
908.604	11802
908.72	11646
908.836	11824
908.952	11646
909.068	11775
909.184	11908
909.3	11817
909.415	11794
909.531	11798
909.647	11680
909.762	11570
909.878	11589
909.993	11547
910.108	11505
910.224	11520
910.339	11532
910.454	11482
910.57	11455
910.685	11417
910.8	11680
910.915	11608
911.03	11459
911.145	11246
911.259	11208
911.374	11261
911.489	11159
911.604	11147
911.718	11025
911.833	10934
911.947	10850
912.062	10866
912.176	11018
912.291	10995
912.405	11048
912.519	11185
912.633	11162
912.748	11075
912.862	10972
912.976	10900
913.09	10816
913.204	10866
913.318	10984
913.431	10965
913.545	11003
913.659	10984
913.772	10854
913.886	10778
914	10774
914.113	10889
914.226	10839
914.34	10889
914.453	10653
914.566	10866
914.68	10702
914.793	10679
914.906	10504
915.019	10497
915.132	10356
915.245	10497
915.358	10607
915.47	10489
915.583	10531
915.696	10535
915.809	10660
915.921	10634
916.034	10459
916.146	10565
916.259	10440
916.371	10478
916.483	10580
916.595	10489
916.708	10478
916.82	10478
916.932	10519
917.044	10402
917.156	10527
917.268	10341
917.38	10363
917.491	10360
917.603	10356
917.715	10440
917.826	10470
917.938	10314
918.049	10192
918.161	10276
918.272	10417
918.384	10493
918.495	10265
918.606	10215
918.717	10219
918.828	10265
918.939	10211
919.05	10139
919.161	10166
919.272	10032
919.383	10154
919.494	10306
919.604	10443
919.715	10261
919.826	10120
919.936	10154
920.047	10314
920.157	10261
920.267	10360
920.378	10303
920.488	10192
920.598	10455
920.708	10550
920.818	10360
920.928	10421
921.038	10497
921.148	10554
921.258	10284
921.368	10246
921.477	10071
921.587	10082
921.697	9968
921.806	10105
921.916	10002
922.025	9907
922.134	9835
922.244	9736
922.353	9819
922.462	9660
922.571	9625
922.68	9492
922.789	9340
922.898	9549
923.007	9500
923.116	9435
923.224	9458
923.333	9431
923.442	9447
923.55	9416
923.659	9355
923.767	9389
923.876	9325
923.984	9416
924.092	9291
924.201	9378
924.309	9348
924.417	9439
924.525	9279
924.633	9389
924.741	10261
924.849	9165
924.956	9211
925.064	9154
925.172	9066
925.279	9127
925.387	9100
925.494	9157
925.602	9192
925.709	9176
925.816	9135
925.924	9192
926.031	9176
926.138	9195
926.245	9157
926.352	9017
926.459	9180
926.566	9283
926.673	9108
926.779	9043
926.886	8982
926.993	8887
927.099	8895
927.206	8811
927.312	8773
927.419	8895
927.525	8815
927.631	8910
927.737	8819
927.843	8754
927.95	8625
928.056	8731
928.162	8708
928.267	8819
928.373	9374
928.479	8887
928.585	8583
928.69	8727
928.796	8781
928.901	8655
929.007	8511
929.112	8625
929.218	8625
929.323	8571
929.428	8602
929.533	8701
929.638	8564
929.743	8590
929.848	8602
929.953	8613
930.058	8419
930.163	8347
930.267	8366
930.372	8400
930.477	8347
930.581	8610
930.685	8461
930.79	8263
930.894	8385
930.998	8294
931.103	8389
931.207	8149
931.311	8062
931.415	8016
931.519	7746
931.623	7784
