Data from test_V78500241_3306.txt Node
Date: Fri Mar 25 14:56:44 CST 2022
User: usil
Spectrometer: V785-0024
Trigger mode: 0
Integration Time (sec): 4.000000E-1
Scans to average: 1
Nonlinearity correction enabled: false
Boxcar width: 0
Storing dark spectrum: false
XAxis mode: Wavelengths
Number of Pixels in Spectrum: 1024
>>>>>Begin Spectral Data<<<<<
801.071	22032
801.214	21694
801.356	21633
801.499	21477
801.641	21481
801.783	21291
801.926	21249
802.068	21302
802.211	21211
802.353	21138
802.496	20868
802.638	20842
802.78	20781
802.923	20750
803.065	20648
803.208	20533
803.35	20648
803.492	20838
803.635	20800
803.777	20689
803.919	20663
804.061	21017
804.204	20716
804.346	20533
804.488	20541
804.63	20640
804.773	20545
804.915	20514
805.057	20746
805.199	20454
805.341	20545
805.483	20636
805.626	20511
805.768	20560
805.91	20625
806.052	20438
806.194	20423
806.336	20682
806.478	20511
806.62	20457
806.762	20667
806.904	20792
807.046	20910
807.188	20864
807.33	20857
807.472	20777
807.614	20826
807.756	20735
807.898	20667
808.04	20507
808.182	20560
808.324	20667
808.465	20686
808.607	20842
808.749	20902
808.891	21001
809.033	20948
809.174	20899
809.316	20830
809.458	20956
809.6	20925
809.741	20921
809.883	21039
810.025	21085
810.166	21058
810.308	21085
810.45	21017
810.591	20895
810.733	20883
810.875	20701
811.016	20613
811.158	20530
811.299	20724
811.441	20872
811.582	20762
811.724	20746
811.865	20701
812.007	20587
812.148	20636
812.29	20724
812.431	20773
812.573	21013
812.714	21024
812.855	21142
812.997	21279
813.138	21424
813.279	21317
813.421	21028
813.562	21100
813.703	20967
813.845	20861
813.986	20507
814.127	20286
814.268	20267
814.41	20221
814.551	20271
814.692	20202
814.833	20149
814.974	20202
815.115	20210
815.256	20122
815.397	20119
815.539	19997
815.68	20008
815.821	19818
815.962	20050
816.103	19883
816.244	19746
816.385	19616
816.526	19632
816.666	19472
816.807	19438
816.948	19396
817.089	19556
817.23	19510
817.371	19381
817.512	19304
817.653	19324
817.793	19247
817.934	19369
818.075	19297
818.216	19388
818.356	19190
818.497	19126
818.638	19012
818.778	19095
818.919	19179
819.06	19107
819.2	19175
819.341	19190
819.481	19232
819.622	19304
819.762	19468
819.903	19453
820.043	19396
820.184	19304
820.324	19358
820.465	19441
820.605	19308
820.746	19244
820.886	19270
821.026	19350
821.167	19270
821.307	19304
821.447	19145
821.588	19168
821.728	19072
821.868	18958
822.008	18715
822.149	18802
822.289	18764
822.429	18452
822.569	18357
822.709	18475
822.849	18258
822.99	18190
823.13	18155
823.27	18254
823.41	18003
823.55	17939
823.69	18049
823.83	18098
823.97	17916
824.11	17771
824.25	17748
824.389	17729
824.529	17824
824.669	17809
824.809	17889
824.949	17859
825.089	17699
825.228	17809
825.368	17649
825.508	17615
825.648	17615
825.787	17566
825.927	17577
826.067	17520
826.206	17581
826.346	17623
826.485	17611
826.625	17566
826.765	17615
826.904	17646
827.044	17280
827.183	17395
827.323	17326
827.462	17391
827.601	17216
827.741	17155
827.88	17292
828.02	17147
828.159	17227
828.298	17174
828.437	17315
828.577	17288
828.716	17353
828.855	17341
828.994	17083
829.134	16976
829.273	17003
829.412	16976
829.551	17083
829.69	16957
829.829	17075
829.968	17102
830.107	17159
830.246	17090
830.385	16908
830.524	16927
830.663	16858
830.802	16778
830.941	16702
831.08	16527
831.219	16713
831.357	16710
831.496	16816
831.635	16637
831.774	16508
831.913	16523
832.051	16489
832.19	16451
832.329	16504
832.467	16440
832.606	16310
832.744	16405
832.883	16325
833.022	16318
833.16	16287
833.299	16287
833.437	16405
833.576	16352
833.714	16390
833.852	16447
833.991	16398
834.129	16523
834.267	16413
834.406	16341
834.544	16440
834.682	16405
834.821	16489
834.959	16626
835.097	16299
835.235	16527
835.373	16390
835.511	16348
835.65	16341
835.788	16261
835.926	16211
836.064	16116
836.202	16101
836.34	16417
836.478	16440
836.615	16299
836.753	16306
836.891	16413
837.029	16303
837.167	16287
837.305	16204
837.443	16246
837.58	16207
837.718	16185
837.856	16200
837.993	16166
838.131	16230
838.269	16131
838.406	16166
838.544	16032
838.681	15865
838.819	15808
838.956	15812
839.094	15747
839.231	15698
839.369	15861
839.506	16074
839.643	15983
839.781	15720
839.918	15694
840.055	15857
840.193	15812
840.33	15778
840.467	15800
840.604	15861
840.742	16006
840.879	15599
841.016	15622
841.153	15781
841.29	15865
841.427	15755
841.564	15838
841.701	15739
841.838	15766
841.975	15584
842.112	15732
842.249	15603
842.385	15454
842.522	15781
842.659	15549
842.796	15530
842.933	15485
843.069	15431
843.206	15382
843.343	15682
843.479	15633
843.616	15473
843.752	15370
843.889	15348
844.025	15564
844.162	15298
844.298	15408
844.435	15340
844.571	15218
844.708	15313
844.844	15420
844.98	15477
845.117	15439
845.253	15287
845.389	15123
845.525	15283
845.661	15214
845.798	15154
845.934	15218
846.07	15089
846.206	15085
846.342	15367
846.478	15169
846.614	14880
846.75	14902
846.886	14853
847.022	15013
847.158	14876
847.294	14838
847.429	14971
847.565	14868
847.701	15138
847.837	14583
847.972	14640
848.108	14712
848.244	14724
848.379	14526
848.515	14385
848.65	14412
848.786	14396
848.921	14480
849.057	14598
849.192	14575
849.328	14568
849.463	14484
849.598	14454
849.734	14492
849.869	14358
850.004	14313
850.14	14286
850.275	14385
850.41	14298
850.545	14134
850.68	14294
850.815	14339
850.95	14320
851.085	14480
851.22	14396
851.355	14320
851.49	14206
851.625	14358
851.76	14111
851.895	14256
852.03	14092
852.165	14229
852.299	14252
852.434	14355
852.569	14252
852.703	14309
852.838	14377
852.973	14412
853.107	14294
853.242	14259
853.376	14221
853.511	14134
853.645	14100
853.78	14225
853.914	14142
854.048	14107
854.183	14111
854.317	14145
854.451	14290
854.585	14210
854.72	14149
854.854	14161
854.988	14050
855.122	14054
855.256	13993
855.39	14058
855.524	14218
855.658	14229
855.792	14100
855.926	14199
856.06	14317
856.194	14301
856.327	14134
856.461	14050
856.595	14107
856.729	14107
856.862	14324
856.996	14130
857.13	14233
857.263	14320
857.397	14305
857.53	14126
857.664	14111
857.797	14282
857.931	14294
858.064	14100
858.197	14229
858.331	14119
858.464	14130
858.597	14027
858.731	14164
858.864	14081
858.997	14058
859.13	14202
859.263	14183
859.396	14221
859.529	14187
859.662	14115
859.795	14142
859.928	14229
860.061	14240
860.194	14381
860.327	14134
860.46	14149
860.592	14301
860.725	14263
860.858	14233
860.99	14081
861.123	14103
861.256	14092
861.388	14062
861.521	14979
861.653	14024
861.786	13947
861.918	14020
862.05	14069
862.183	14065
862.315	14081
862.447	14195
862.58	14062
862.712	13955
862.844	13795
862.976	14046
863.108	14020
863.24	14290
863.372	13833
863.504	13902
863.636	13868
863.768	13883
863.9	14001
864.032	13868
864.164	13947
864.296	13944
864.428	14073
864.559	14062
864.691	14024
864.823	14058
864.954	13932
865.086	13902
865.217	13997
865.349	13788
865.48	13921
865.612	13974
865.743	14039
865.875	13944
866.006	13898
866.137	13917
866.269	13879
866.4	13906
866.531	13864
866.662	13818
866.793	13902
866.924	13890
867.055	13909
867.186	13830
867.317	13932
867.448	13837
867.579	13791
867.71	13712
867.841	13765
867.972	13906
868.103	13993
868.233	13871
868.364	13955
868.495	14062
868.625	14168
868.756	14233
868.886	14119
869.017	14180
869.147	14301
869.278	14244
869.408	14168
869.539	14263
869.669	14244
869.799	14229
869.929	14290
870.06	14282
870.19	14571
870.32	14419
870.45	14499
870.58	14606
870.71	14659
870.84	14670
870.97	14549
871.1	14465
871.23	14678
871.36	14765
871.489	14769
871.619	14697
871.749	14762
871.879	14842
872.008	14876
872.138	14781
872.267	14716
872.397	14659
872.526	14640
872.656	14579
872.785	14606
872.915	14800
873.044	14864
873.173	14788
873.303	14804
873.432	14826
873.561	14952
873.69	14731
873.819	14834
873.948	14929
874.077	14864
874.206	14720
874.335	14845
874.464	14948
874.593	15081
874.722	15028
874.851	15211
874.979	15226
875.108	15142
875.237	15074
875.365	15028
875.494	15100
875.623	15195
875.751	15127
875.88	15195
876.008	15336
876.136	15310
876.265	15701
876.393	15743
876.521	15797
876.65	15561
876.778	15599
876.906	15538
877.034	15462
877.162	15652
877.29	15504
877.418	15557
877.546	15538
877.674	15519
877.802	15564
877.93	15610
878.058	15542
878.185	15424
878.313	15538
878.441	15614
878.568	15348
878.696	15549
878.824	15580
878.951	15629
879.079	15766
879.206	15835
879.333	15793
879.461	15606
879.588	15610
879.715	15694
879.842	15812
879.97	15572
880.097	15389
880.224	15428
880.351	15336
880.478	15370
880.605	15477
880.732	15317
880.859	15667
880.986	15424
881.112	15397
881.239	15306
881.366	15264
881.493	15051
881.619	15100
881.746	15173
881.872	15036
881.999	15066
882.125	15138
882.252	15066
882.378	15154
882.505	15237
882.631	14941
882.757	14823
882.883	14933
883.01	14902
883.136	14826
883.262	14769
883.388	14807
883.514	14960
883.64	14967
883.766	14891
883.892	14625
884.018	14746
884.143	14883
884.269	14998
884.395	14693
884.52	14594
884.646	14659
884.772	14568
884.897	14476
885.023	14526
885.148	14606
885.274	14800
885.399	14724
885.524	14629
885.65	14610
885.775	14537
885.9	14606
886.025	14792
886.15	14785
886.275	14484
886.4	14457
886.525	14556
886.65	14457
886.775	14518
886.9	14697
887.025	14823
887.149	14644
887.274	14419
887.399	14393
887.523	14374
887.648	14336
887.773	14290
887.897	14484
888.021	14518
888.146	14355
888.27	14507
888.395	14541
888.519	14492
888.643	14461
888.767	14461
888.891	14396
889.015	14294
889.139	14446
889.263	14199
889.387	14412
889.511	14503
889.635	14446
889.759	14221
889.883	14324
890.006	14263
890.13	14412
890.254	14278
890.377	14218
890.501	14145
890.624	14073
890.748	14138
890.871	14039
890.995	13871
891.118	13921
891.241	14008
891.364	14058
891.488	14046
891.611	14008
891.734	13989
891.857	14054
891.98	13963
892.103	13997
892.226	14073
892.349	13947
892.471	13807
892.594	13921
892.717	13989
892.839	14020
892.962	14054
893.085	13986
893.207	13997
893.33	13921
893.452	13906
893.575	14050
893.697	14050
893.819	14138
893.941	14233
894.064	14161
894.186	14008
894.308	13944
894.43	14145
894.552	14180
894.674	14088
894.796	13951
894.918	14069
895.04	14027
895.161	14062
895.283	14180
895.405	14016
895.526	14088
895.648	14073
895.769	14123
895.891	14191
896.012	14256
896.134	14180
896.255	14126
896.376	14058
896.498	14259
896.619	14187
896.74	14168
896.861	14221
896.982	14473
897.103	14621
897.224	14457
897.345	14370
897.466	14351
897.587	14438
897.708	14541
897.828	14499
897.949	14476
898.07	14328
898.19	14320
898.311	14495
898.431	14412
898.552	14579
898.672	14571
898.792	14610
898.913	14701
899.033	14438
899.153	14328
899.273	14271
899.393	14313
899.513	14404
899.633	14309
899.753	14332
899.873	14366
899.993	14442
900.113	14305
900.232	14423
900.352	14362
900.472	14328
900.591	14294
900.711	14240
900.83	14180
900.95	14332
901.069	14332
901.189	14183
901.308	13860
901.427	13887
901.546	13944
901.665	13928
901.784	13913
901.904	13868
902.023	13761
902.141	13518
902.26	13430
902.379	13586
902.498	13487
902.617	13407
902.735	13472
902.854	13468
902.973	13430
903.091	13255
903.21	13149
903.328	13209
903.446	13088
903.565	13053
903.683	13015
903.801	13000
903.919	13072
904.038	13137
904.156	12863
904.274	12928
904.392	12848
904.51	12863
904.627	12859
904.745	12856
904.863	12821
904.981	12753
905.098	12585
905.216	12509
905.334	12578
905.451	12578
905.569	12498
905.686	12582
905.803	12623
905.921	12384
906.038	12483
906.155	12418
906.272	12266
906.389	12308
906.506	12209
906.623	12136
906.74	12163
906.857	12041
906.974	11977
907.091	12239
907.208	12270
907.324	12319
907.441	12110
907.557	11935
907.674	11843
907.79	11805
907.907	11946
908.023	11961
908.139	12007
908.256	11863
908.372	11893
908.488	11802
908.604	11668
908.72	11604
908.836	11672
908.952	11676
909.068	11714
909.184	11786
909.3	11688
909.415	11695
909.531	11756
909.647	11410
909.762	11455
909.878	11414
909.993	11448
910.108	11482
910.224	11395
910.339	11463
910.454	11299
910.57	11242
910.685	11250
910.8	11463
910.915	11482
911.03	11330
911.145	11181
911.259	11155
911.374	11102
911.489	11098
911.604	10995
911.718	10862
911.833	10957
911.947	10782
912.062	10740
912.176	10889
912.291	10877
912.405	10873
912.519	11037
912.633	11067
912.748	10942
912.862	10763
912.976	10778
913.09	10668
913.204	10729
913.318	10782
913.431	10927
913.545	10892
913.659	10968
913.772	10759
913.886	10626
914	10702
914.113	10778
914.226	10809
914.34	10698
914.453	10542
914.566	10774
914.68	10645
914.793	10611
914.906	10459
915.019	10379
915.132	10253
915.245	10367
915.358	10375
915.47	10398
915.583	10436
915.696	10386
915.809	10565
915.921	10668
916.034	10333
916.146	10371
916.259	10333
916.371	10428
916.483	10398
916.595	10394
916.708	10371
916.82	10379
916.932	10333
917.044	10306
917.156	10299
917.268	10207
917.38	10211
917.491	10192
917.603	10291
917.715	10306
917.826	10314
917.938	10268
918.049	10158
918.161	10219
918.272	10344
918.384	10447
918.495	10253
918.606	10025
918.717	10048
918.828	10181
918.939	10246
919.05	9987
919.161	10158
919.272	9941
919.383	9998
919.494	10135
919.604	10405
919.715	10223
919.826	10116
919.936	10120
920.047	10207
920.157	10169
920.267	10371
920.378	10131
920.488	10169
920.598	10318
920.708	10489
920.818	10352
920.928	10375
921.038	10478
921.148	10489
921.258	10139
921.368	10067
921.477	10021
921.587	9918
921.697	9865
921.806	10017
921.916	9869
922.025	9717
922.134	9675
922.244	9637
922.353	9709
922.462	9595
922.571	9477
922.68	9420
922.789	9401
922.898	9367
923.007	9374
923.116	9412
923.224	9416
923.333	9405
923.442	9340
923.55	9313
923.659	9302
923.767	9348
923.876	9161
923.984	9291
924.092	9226
924.201	9317
924.309	9249
924.417	9237
924.525	9233
924.633	9192
924.741	10128
924.849	8937
924.956	9195
925.064	9066
925.172	9009
925.279	9024
925.387	9009
925.494	9104
925.602	9203
925.709	9077
925.816	8994
925.924	9062
926.031	9154
926.138	9055
926.245	9036
926.352	8933
926.459	9157
926.566	9161
926.673	9066
926.779	8876
926.886	8937
926.993	8845
927.099	8754
927.206	8804
927.312	8689
927.419	8838
927.525	8777
927.631	8811
927.737	8735
927.843	8716
927.95	8511
928.056	8617
928.162	8727
928.267	8788
928.373	9294
928.479	8743
928.585	8503
928.69	8689
928.796	8682
928.901	8598
929.007	8480
929.112	8602
929.218	8568
929.323	8473
929.428	8473
929.533	8670
929.638	8358
929.743	8495
929.848	8514
929.953	8469
930.058	8427
930.163	8263
930.267	8183
930.372	8393
930.477	8157
930.581	8480
930.685	8408
930.79	8107
930.894	8130
930.998	8221
931.103	8332
931.207	7967
931.311	7898
931.415	7890
931.519	7693
931.623	7693
