Data from test_V78500241_745.txt Node
Date: Fri Mar 25 14:38:54 CST 2022
User: usil
Spectrometer: V785-0024
Trigger mode: 0
Integration Time (sec): 4.000000E-1
Scans to average: 1
Nonlinearity correction enabled: false
Boxcar width: 0
Storing dark spectrum: false
XAxis mode: Wavelengths
Number of Pixels in Spectrum: 1024
>>>>>Begin Spectral Data<<<<<
801.071	27157
801.214	27138
801.356	26925
801.499	26754
801.641	26606
801.783	26461
801.926	26453
802.068	26351
802.211	26313
802.353	26142
802.496	25913
802.638	25997
802.78	26027
802.923	26024
803.065	25921
803.208	25944
803.35	25883
803.492	25986
803.635	26176
803.777	26077
803.919	26202
804.061	26450
804.204	26202
804.346	26134
804.488	26244
804.63	26301
804.773	26225
804.915	26347
805.057	26442
805.199	26545
805.341	26590
805.483	26792
805.626	26796
805.768	26746
805.91	26853
806.052	27085
806.194	27077
806.336	27443
806.478	27496
806.62	27595
806.762	28017
806.904	28413
807.046	28968
807.188	29029
807.33	29596
807.472	30445
807.614	30958
807.756	31906
807.898	33093
808.04	34607
808.182	36772
808.324	39523
808.465	42433
808.607	45956
808.749	49076
808.891	50746
809.033	51115
809.174	49388
809.316	46352
809.458	42738
809.6	39146
809.741	36384
809.883	34013
810.025	32514
810.166	31464
810.308	30464
810.45	29729
810.591	29277
810.733	28809
810.875	28337
811.016	28067
811.158	27652
811.299	27751
811.441	27500
811.582	27431
811.724	27203
811.865	26929
812.007	27017
812.148	26982
812.29	26986
812.431	26986
812.573	26899
812.714	27154
812.855	27169
812.997	27321
813.138	27150
813.279	27184
813.421	26838
813.562	26746
813.703	26636
813.845	26396
813.986	26119
814.127	25947
814.268	25860
814.41	25795
814.551	25655
814.692	25723
814.833	25468
814.974	25601
815.115	25662
815.256	25415
815.397	25346
815.539	25403
815.68	25259
815.821	25148
815.962	25221
816.103	25088
816.244	24951
816.385	24924
816.526	24833
816.666	24642
816.807	24570
816.948	24574
817.089	24502
817.23	24540
817.371	24471
817.512	24433
817.653	24517
817.793	24342
817.934	24372
818.075	24380
818.216	24437
818.356	24361
818.497	24140
818.638	24106
818.778	24148
818.919	24140
819.06	24155
819.2	24216
819.341	24254
819.481	24258
819.622	24509
819.762	24578
819.903	24464
820.043	24376
820.184	24315
820.324	24327
820.465	24251
820.605	24323
820.746	24178
820.886	24091
821.026	24083
821.167	24155
821.307	24152
821.447	24038
821.588	24007
821.728	23764
821.868	23630
822.008	23387
822.149	23391
822.289	23497
822.429	23311
822.569	23147
822.709	23086
822.849	23044
822.99	23022
823.13	22881
823.27	22816
823.41	22660
823.55	22592
823.69	22725
823.83	22691
823.97	22550
824.11	22504
824.25	22379
824.389	22474
824.529	22569
824.669	22481
824.809	22523
824.949	22527
825.089	22603
825.228	22512
825.368	22402
825.508	22405
825.648	22257
825.787	22367
825.927	22409
826.067	22249
826.206	22234
826.346	22215
826.485	22268
826.625	22181
826.765	22402
826.904	22306
827.044	21945
827.183	22002
827.323	21941
827.462	21972
827.601	21892
827.741	21888
827.88	21918
828.02	21850
828.159	21998
828.298	21827
828.437	21918
828.577	21827
828.716	21956
828.855	21759
828.994	21488
829.134	21561
829.273	21652
829.412	21553
829.551	21526
829.69	21595
829.829	21542
829.968	21842
830.107	21660
830.246	21545
830.385	21488
830.524	21420
830.663	21336
830.802	21378
830.941	21169
831.08	21150
831.219	21370
831.357	21207
831.496	21469
831.635	21157
831.774	21032
831.913	21055
832.051	21096
832.19	21047
832.329	21062
832.467	21066
832.606	20975
832.744	20963
832.883	21096
833.022	21108
833.16	21363
833.299	21515
833.437	21534
833.576	21614
833.714	21907
833.852	22051
833.991	22242
834.129	22375
834.267	22303
834.406	22284
834.544	22166
834.682	22013
834.821	21842
834.959	21720
835.097	21526
835.235	21530
835.373	21386
835.511	21294
835.65	21214
835.788	21005
835.926	20781
836.064	20739
836.202	20644
836.34	20902
836.478	20899
836.615	20727
836.753	20743
836.891	20807
837.029	20807
837.167	20689
837.305	20594
837.443	20716
837.58	20545
837.718	20625
837.856	20606
837.993	20389
838.131	20583
838.269	20351
838.406	20366
838.544	20271
838.681	20240
838.819	20069
838.956	20062
839.094	19978
839.231	20077
839.369	20050
839.506	20301
839.643	20210
839.781	19967
839.918	19826
840.055	19890
840.193	19917
840.33	19967
840.467	19913
840.604	19932
840.742	20191
840.879	19860
841.016	19807
841.153	19750
841.29	20027
841.427	19913
841.564	20035
841.701	19986
841.838	19898
841.975	19887
842.112	19814
842.249	19704
842.385	19689
842.522	19947
842.659	19685
842.796	19814
842.933	19875
843.069	19712
843.206	19742
843.343	19940
843.479	19890
843.616	19978
843.752	19769
843.889	19875
844.025	20005
844.162	20008
844.298	20138
844.435	20286
844.571	20473
844.708	20708
844.844	21123
844.98	21675
845.117	22261
845.253	23391
845.389	25270
845.525	29098
845.661	35185
845.798	42456
845.934	47676
846.07	49571
846.206	47904
846.342	42943
846.478	35882
846.614	29703
846.75	25742
846.886	23535
847.022	22070
847.158	21302
847.294	20552
847.429	20233
847.565	19875
847.701	19776
847.837	19377
847.972	19320
848.108	19251
848.244	19175
848.379	18966
848.515	18878
848.65	18760
848.786	18810
848.921	18814
849.057	18776
849.192	18817
849.328	18669
849.463	18661
849.598	18688
849.734	18589
849.869	18547
850.004	18342
850.14	18388
850.275	18456
850.41	18281
850.545	18483
850.68	18418
850.815	18388
850.95	18330
851.085	18467
851.22	18437
851.355	18353
851.49	18353
851.625	18350
851.76	18277
851.895	18300
852.03	18220
852.165	18334
852.299	18475
852.434	18452
852.569	18365
852.703	18490
852.838	18456
852.973	18604
853.107	18551
853.242	18357
853.376	18399
853.511	18251
853.645	18433
853.78	18654
853.914	18597
854.048	18517
854.183	18604
854.317	18684
854.451	18760
854.585	18684
854.72	18612
854.854	18620
854.988	18521
855.122	18479
855.256	18247
855.39	18399
855.524	18410
855.658	18407
855.792	18372
855.926	18334
856.06	18319
856.194	18357
856.327	18205
856.461	18197
856.595	18239
856.729	18186
856.862	18323
856.996	18224
857.13	18235
857.263	18315
857.397	18254
857.53	18270
857.664	18247
857.797	18159
857.931	18213
858.064	18171
858.197	18323
858.331	18171
858.464	18060
858.597	18003
858.731	18114
858.864	17977
858.997	18060
859.13	18057
859.263	18007
859.396	18167
859.529	18019
859.662	18045
859.795	18034
859.928	18011
860.061	18224
860.194	18129
860.327	17958
860.46	17908
860.592	18144
860.725	18186
860.858	18155
860.99	18019
861.123	17923
861.256	17961
861.388	17999
861.521	18604
861.653	17912
861.786	17923
861.918	17939
862.05	17935
862.183	17950
862.315	18045
862.447	18117
862.58	17916
862.712	17767
862.844	17687
862.976	17821
863.108	17779
863.24	18098
863.372	17630
863.504	17627
863.636	17680
863.768	17748
863.9	17714
864.032	17535
864.164	17642
864.296	17733
864.428	17695
864.559	17726
864.691	17802
864.823	17665
864.954	17794
865.086	17726
865.217	17566
865.349	17554
865.48	17596
865.612	17630
865.743	17817
865.875	17566
866.006	17596
866.137	17642
866.269	17551
866.4	17532
866.531	17497
866.662	17592
866.793	17547
866.924	17604
867.055	17611
867.186	17505
867.317	17543
867.448	17516
867.579	17497
867.71	17425
867.841	17543
867.972	17676
868.103	17668
868.233	17478
868.364	17604
868.495	17687
868.625	17718
868.756	17866
868.886	17745
869.017	17802
869.147	17870
869.278	17939
869.408	17923
869.539	17927
869.669	17965
869.799	17817
869.929	17969
870.06	17969
870.19	18285
870.32	18197
870.45	18239
870.58	18300
870.71	18437
870.84	18403
870.97	18315
871.1	18300
871.23	18566
871.36	18692
871.489	18456
871.619	18585
871.749	18540
871.879	18707
872.008	18848
872.138	18604
872.267	18688
872.397	18563
872.526	18593
872.656	18551
872.785	18566
872.915	18753
873.044	18802
873.173	18753
873.303	18810
873.432	18707
873.561	18810
873.69	18886
873.819	18947
873.948	18890
874.077	18859
874.206	18924
874.335	19099
874.464	19164
874.593	19266
874.722	19209
874.851	19487
874.979	19472
875.108	19407
875.237	19430
875.365	19358
875.494	19548
875.623	19731
875.751	19643
875.88	19670
876.008	19887
876.136	19967
876.265	20332
876.393	20438
876.521	20415
876.65	20552
876.778	20537
876.906	20549
877.034	20473
877.162	20746
877.29	20644
877.418	20823
877.546	20861
877.674	20883
877.802	21077
877.93	21207
878.058	21481
878.185	21485
878.313	21884
878.441	22200
878.568	22626
878.696	23170
878.824	24038
878.951	25297
879.079	26880
879.206	29071
879.333	31198
879.461	32838
879.588	34219
879.715	34173
879.842	33260
879.97	31293
880.097	29029
880.224	27264
880.351	26138
880.478	25194
880.605	24532
880.732	24079
880.859	24273
880.986	23608
881.112	23604
881.239	23398
881.366	23246
881.493	23265
881.619	23216
881.746	23151
881.872	23200
881.999	23395
882.125	23197
882.252	23258
882.378	23429
882.505	23604
882.631	23372
882.757	23318
882.883	23383
883.01	23204
883.136	23269
883.262	23136
883.388	23083
883.514	23269
883.64	23193
883.766	23105
883.892	22987
884.018	22984
884.143	23136
884.269	23197
884.395	23056
884.52	22915
884.646	22892
884.772	22847
884.897	22797
885.023	22896
885.148	23064
885.274	22892
885.399	22831
885.524	22615
885.65	22653
885.775	22542
885.9	22356
886.025	22226
886.15	22070
886.275	21705
886.4	21519
886.525	21462
886.65	21374
886.775	21233
886.9	21272
887.025	21317
887.149	20975
887.274	20853
887.399	20564
887.523	20450
887.648	20450
887.773	20180
887.897	20404
888.021	20221
888.146	20100
888.27	20218
888.395	20176
888.519	20012
888.643	19913
888.767	19967
888.891	19643
889.015	19552
889.139	19643
889.263	19597
889.387	19643
889.511	19807
889.635	19495
889.759	19266
889.883	19354
890.006	19247
890.13	19377
890.254	19190
890.377	19171
890.501	19080
890.624	18867
890.748	18977
890.871	18901
890.995	18639
891.118	18779
891.241	18684
891.364	18646
891.488	18654
891.611	18513
891.734	18528
891.857	18509
891.98	18502
892.103	18483
892.226	18448
892.349	18338
892.471	18190
892.594	18342
892.717	18292
892.839	18220
892.962	18174
893.085	18186
893.207	18129
893.33	17920
893.452	17984
893.575	18076
893.697	17996
893.819	18083
893.941	18224
894.064	18171
894.186	17923
894.308	17767
894.43	17977
894.552	17954
894.674	17980
894.796	17707
894.918	17870
895.04	17885
895.161	17832
895.283	17790
895.405	17657
895.526	17691
895.648	17672
895.769	17748
895.891	17760
896.012	17878
896.134	17843
896.255	17729
896.376	17680
896.498	17661
896.619	17661
896.74	17767
896.861	17695
896.982	17912
897.103	18155
897.224	17965
897.345	17866
897.466	17916
897.587	17885
897.708	17939
897.828	17870
897.949	17767
898.07	17684
898.19	17741
898.311	17927
898.431	17809
898.552	17958
898.672	17950
898.792	17821
898.913	17939
899.033	17805
899.153	17813
899.273	17672
899.393	17619
899.513	17737
899.633	17687
899.753	17649
899.873	17524
899.993	17707
900.113	17589
900.232	17703
900.352	17501
900.472	17493
900.591	17425
900.711	17581
900.83	17330
900.95	17570
901.069	17668
901.189	17307
901.308	17083
901.427	17079
901.546	16980
901.665	17014
901.784	17003
901.904	16930
902.023	16809
902.141	16569
902.26	16523
902.379	16573
902.498	16485
902.617	16493
902.735	16542
902.854	16489
902.973	16325
903.091	16120
903.21	16025
903.328	16071
903.446	15994
903.565	15937
903.683	15907
903.801	15846
903.919	15865
904.038	15838
904.156	15774
904.274	15732
904.392	15644
904.51	15663
904.627	15587
904.745	15713
904.863	15686
904.981	15443
905.098	15359
905.216	15332
905.334	15291
905.451	15378
905.569	15283
905.686	15401
905.803	15165
905.921	15081
906.038	15218
906.155	15036
906.272	14960
906.389	14891
906.506	14804
906.623	14842
906.74	14834
906.857	14667
906.974	14629
907.091	14902
907.208	14838
907.324	14811
907.441	14735
907.557	14670
907.674	14533
907.79	14469
907.907	14507
908.023	14499
908.139	14442
908.256	14461
908.372	14301
908.488	14404
908.604	14263
908.72	14161
908.836	14294
908.952	14229
909.068	14320
909.184	14419
909.3	14290
909.415	14309
909.531	14290
909.647	14027
909.762	14024
909.878	13947
909.993	13928
910.108	13879
910.224	13970
910.339	13993
910.454	13921
910.57	13856
910.685	13696
910.8	14027
910.915	14005
911.03	13860
911.145	13719
911.259	13651
911.374	13628
911.489	13632
911.604	13563
911.718	13384
911.833	13415
911.947	13289
912.062	13270
912.176	13331
912.291	13343
912.405	13369
912.519	13597
912.633	13533
912.748	13438
912.862	13392
912.976	13217
913.09	13038
913.204	13190
913.318	13301
913.431	13285
913.545	13240
913.659	13228
913.772	13175
913.886	13015
914	13050
914.113	13164
914.226	13221
914.34	13091
914.453	13046
914.566	13122
914.68	12985
914.793	12962
914.906	12894
915.019	12783
915.132	12753
915.245	12833
915.358	12802
915.47	12810
915.583	12806
915.696	12837
915.809	12935
915.921	13027
916.034	12798
916.146	12726
916.259	12745
916.371	12817
916.483	12825
916.595	12700
916.708	12757
916.82	12852
916.932	12768
917.044	12681
917.156	12662
917.268	12582
917.38	12597
917.491	12570
917.603	12555
917.715	12639
917.826	12673
917.938	12551
918.049	12346
918.161	12525
918.272	12639
918.384	12536
918.495	12460
918.606	12357
918.717	12273
918.828	12311
918.939	12372
919.05	12224
919.161	12330
919.272	12129
919.383	12144
919.494	12361
919.604	12471
919.715	12346
919.826	12201
919.936	12125
920.047	12334
920.157	12243
920.267	12391
920.378	12258
920.488	12311
920.598	12395
920.708	12585
920.818	12319
920.928	12376
921.038	12627
921.148	12547
921.258	12232
921.368	12220
921.477	12133
921.587	12106
921.697	12003
921.806	12163
921.916	11942
922.025	11729
922.134	11798
922.244	11668
922.353	11786
922.462	11551
922.571	11554
922.68	11395
922.789	11391
922.898	11482
923.007	11322
923.116	11395
923.224	11356
923.333	11280
923.442	11318
923.55	11235
923.659	11208
923.767	11315
923.876	11166
923.984	11227
924.092	11124
924.201	11197
924.309	11117
924.417	11212
924.525	11151
924.633	11079
924.741	11817
924.849	11018
924.956	11132
925.064	10892
925.172	10828
925.279	10904
925.387	10972
925.494	10927
925.602	11132
925.709	11010
925.816	10831
925.924	10904
926.031	11014
926.138	10866
926.245	10877
926.352	10873
926.459	10908
926.566	10927
926.673	10797
926.779	10812
926.886	10714
926.993	10550
927.099	10660
927.206	10527
927.312	10535
927.419	10618
927.525	10592
927.631	10668
927.737	10402
927.843	10459
927.95	10310
928.056	10424
928.162	10474
928.267	10489
928.373	11006
928.479	10493
928.585	10371
928.69	10314
928.796	10470
928.901	10314
929.007	10166
929.112	10352
929.218	10344
929.323	10211
929.428	10207
929.533	10299
929.638	10120
929.743	10124
929.848	10249
929.953	10131
930.058	10051
930.163	9884
930.267	9899
930.372	10120
930.477	9911
930.581	10128
930.685	9960
930.79	9892
930.894	9831
930.998	9861
931.103	9907
931.207	9606
931.311	9485
931.415	9469
931.519	9351
931.623	9298
