Data from test_V78500241_2954.txt Node
Date: Fri Mar 25 14:54:17 CST 2022
User: usil
Spectrometer: V785-0024
Trigger mode: 0
Integration Time (sec): 4.000000E-1
Scans to average: 1
Nonlinearity correction enabled: false
Boxcar width: 0
Storing dark spectrum: false
XAxis mode: Wavelengths
Number of Pixels in Spectrum: 1024
>>>>>Begin Spectral Data<<<<<
801.071	22048
801.214	21945
801.356	21865
801.499	21656
801.641	21538
801.783	21370
801.926	21401
802.068	21447
802.211	21351
802.353	21214
802.496	21203
802.638	20990
802.78	20868
802.923	20796
803.065	20712
803.208	20781
803.35	20804
803.492	20895
803.635	20891
803.777	20727
803.919	20899
804.061	21211
804.204	20765
804.346	20655
804.488	20651
804.63	20823
804.773	20663
804.915	20693
805.057	20823
805.199	20617
805.341	20746
805.483	20727
805.626	20872
805.768	20648
805.91	20758
806.052	20708
806.194	20564
806.336	20864
806.478	20712
806.62	20648
806.762	20762
806.904	20845
807.046	21116
807.188	20982
807.33	21047
807.472	21047
807.614	20899
807.756	20944
807.898	20788
808.04	20701
808.182	20731
808.324	20689
808.465	20952
808.607	20906
808.749	21100
808.891	21169
809.033	21180
809.174	21165
809.316	21066
809.458	21119
809.6	21089
809.741	21169
809.883	21146
810.025	21306
810.166	21222
810.308	21169
810.45	21173
810.591	21062
810.733	20956
810.875	20853
811.016	20880
811.158	20689
811.299	20929
811.441	20838
811.582	20921
811.724	20876
811.865	20880
812.007	20906
812.148	20880
812.29	20849
812.431	21066
812.573	21222
812.714	21298
812.855	21249
812.997	21454
813.138	21447
813.279	21496
813.421	21214
813.562	21211
813.703	21150
813.845	20910
813.986	20632
814.127	20568
814.268	20415
814.41	20400
814.551	20374
814.692	20419
814.833	20415
814.974	20358
815.115	20358
815.256	20130
815.397	20275
815.539	20187
815.68	20126
815.821	20058
815.962	19989
816.103	20111
816.244	19928
816.385	19951
816.526	19849
816.666	19708
816.807	19628
816.948	19643
817.089	19559
817.23	19594
817.371	19483
817.512	19533
817.653	19369
817.793	19499
817.934	19483
818.075	19483
818.216	19510
818.356	19464
818.497	19297
818.638	19137
818.778	19095
818.919	19217
819.06	19255
819.2	19392
819.341	19354
819.481	19426
819.622	19445
819.762	19632
819.903	19635
820.043	19620
820.184	19575
820.324	19605
820.465	19624
820.605	19411
820.746	19377
820.886	19316
821.026	19362
821.167	19457
821.307	19476
821.447	19339
821.588	19301
821.728	19206
821.868	19008
822.008	18871
822.149	18878
822.289	18867
822.429	18570
822.569	18654
822.709	18570
822.849	18418
822.99	18456
823.13	18334
823.27	18357
823.41	18235
823.55	18106
823.69	18266
823.83	18201
823.97	18205
824.11	18133
824.25	17866
824.389	18045
824.529	18038
824.669	18019
824.809	18022
824.949	18060
825.089	18068
825.228	18045
825.368	17703
825.508	17775
825.648	17824
825.787	17779
825.927	17748
826.067	17813
826.206	17760
826.346	17813
826.485	17821
826.625	17726
826.765	17832
826.904	17764
827.044	17505
827.183	17497
827.323	17509
827.462	17482
827.601	17512
827.741	17433
827.88	17482
828.02	17326
828.159	17417
828.298	17471
828.437	17372
828.577	17345
828.716	17524
828.855	17368
828.994	17132
829.134	17246
829.273	17292
829.412	17151
829.551	17136
829.69	17250
829.829	17185
829.968	17159
830.107	17212
830.246	17288
830.385	17178
830.524	17105
830.663	17098
830.802	16892
830.941	16847
831.08	16782
831.219	16847
831.357	16835
831.496	17071
831.635	16729
831.774	16729
831.913	16675
832.051	16653
832.19	16634
832.329	16615
832.467	16470
832.606	16470
832.744	16508
832.883	16508
833.022	16470
833.16	16603
833.299	16535
833.437	16512
833.576	16588
833.714	16558
833.852	16603
833.991	16546
834.129	16550
834.267	16672
834.406	16634
834.544	16611
834.682	16675
834.821	16531
834.959	16801
835.097	16546
835.235	16569
835.373	16599
835.511	16561
835.65	16504
835.788	16466
835.926	16360
836.064	16299
836.202	16226
836.34	16481
836.478	16550
836.615	16550
836.753	16512
836.891	16535
837.029	16615
837.167	16379
837.305	16402
837.443	16447
837.58	16234
837.718	16402
837.856	16443
837.993	16341
838.131	16318
838.269	16261
838.406	16223
838.544	16204
838.681	16017
838.819	15907
838.956	15781
839.094	15876
839.231	15869
839.369	15937
839.506	16268
839.643	16112
839.781	15903
839.918	15778
840.055	15911
840.193	15816
840.33	15827
840.467	15770
840.604	15819
840.742	16059
840.879	15793
841.016	15705
841.153	15785
841.29	15991
841.427	15972
841.564	15831
841.701	15869
841.838	15846
841.975	15797
842.112	15720
842.249	15747
842.385	15728
842.522	15808
842.659	15671
842.796	15660
842.933	15701
843.069	15580
843.206	15572
843.343	15717
843.479	15766
843.616	15701
843.752	15492
843.889	15416
844.025	15587
844.162	15405
844.298	15500
844.435	15405
844.571	15374
844.708	15534
844.844	15553
844.98	15576
845.117	15496
845.253	15306
845.389	15268
845.525	15367
845.661	15374
845.798	15188
845.934	15222
846.07	15298
846.206	15192
846.342	15340
846.478	15252
846.614	15017
846.75	14960
846.886	15032
847.022	15097
847.158	15085
847.294	15005
847.429	14914
847.565	15036
847.701	15237
847.837	14735
847.972	14777
848.108	14842
848.244	14830
848.379	14716
848.515	14598
848.65	14556
848.786	14522
848.921	14518
849.057	14758
849.192	14708
849.328	14705
849.463	14617
849.598	14537
849.734	14530
849.869	14473
850.004	14412
850.14	14427
850.275	14404
850.41	14286
850.545	14370
850.68	14328
850.815	14317
850.95	14294
851.085	14522
851.22	14465
851.355	14324
851.49	14301
851.625	14328
851.76	14332
851.895	14142
852.03	14324
852.165	14419
852.299	14377
852.434	14492
852.569	14419
852.703	14457
852.838	14480
852.973	14476
853.107	14648
853.242	14275
853.376	14202
853.511	14229
853.645	14088
853.78	14305
853.914	14298
854.048	14168
854.183	14259
854.317	14214
854.451	14351
854.585	14180
854.72	14210
854.854	14298
854.988	14157
855.122	14248
855.256	14164
855.39	14187
855.524	14237
855.658	14134
855.792	14214
855.926	14381
856.06	14244
856.194	14282
856.327	14320
856.461	14123
856.595	14157
856.729	14191
856.862	14396
856.996	14286
857.13	14298
857.263	14298
857.397	14336
857.53	14248
857.664	14305
857.797	14347
857.931	14351
858.064	14282
858.197	14290
858.331	14130
858.464	14214
858.597	14180
858.731	14286
858.864	14320
858.997	14199
859.13	14317
859.263	14248
859.396	14282
859.529	14126
859.662	14195
859.795	14164
859.928	14210
860.061	14412
860.194	14434
860.327	14252
860.46	14214
860.592	14332
860.725	14465
860.858	14309
860.99	14256
861.123	14126
861.256	14161
861.388	14206
861.521	14743
861.653	14134
861.786	14008
861.918	14126
862.05	14107
862.183	14324
862.315	14176
862.447	14199
862.58	14107
862.712	14039
862.844	14043
862.976	14069
863.108	14138
863.24	14431
863.372	13841
863.504	14065
863.636	14012
863.768	14115
863.9	14020
864.032	13955
864.164	13955
864.296	14027
864.428	14123
864.559	14035
864.691	14149
864.823	14115
864.954	14005
865.086	14039
865.217	14016
865.349	13909
865.48	13978
865.612	13970
865.743	14123
865.875	14024
866.006	14005
866.137	13997
866.269	14039
866.4	13917
866.531	13864
866.662	13906
866.793	13959
866.924	13936
867.055	13944
867.186	13936
867.317	13890
867.448	13940
867.579	13845
867.71	13982
867.841	13959
867.972	14024
868.103	14039
868.233	14035
868.364	13978
868.495	14119
868.625	14195
868.756	14301
868.886	14153
869.017	14275
869.147	14301
869.278	14396
869.408	14195
869.539	14275
869.669	14324
869.799	14298
869.929	14336
870.06	14366
870.19	14598
870.32	14575
870.45	14667
870.58	14583
870.71	14701
870.84	14785
870.97	14659
871.1	14583
871.23	14921
871.36	14864
871.489	14754
871.619	14807
871.749	14788
871.879	14906
872.008	15013
872.138	14796
872.267	14819
872.397	14796
872.526	14663
872.656	14674
872.785	14610
872.915	14891
873.044	14971
873.173	14864
873.303	14811
873.432	15001
873.561	15005
873.69	14906
873.819	14876
873.948	14994
874.077	14963
874.206	14765
874.335	14937
874.464	15043
874.593	15184
874.722	15127
874.851	15237
874.979	15081
875.108	15203
875.237	15074
875.365	15074
875.494	15180
875.623	15199
875.751	15165
875.88	15173
876.008	15298
876.136	15370
876.265	15644
876.393	15747
876.521	15713
876.65	15705
876.778	15637
876.906	15652
877.034	15515
877.162	15584
877.29	15485
877.418	15641
877.546	15652
877.674	15568
877.802	15557
877.93	15557
878.058	15549
878.185	15542
878.313	15625
878.441	15679
878.568	15443
878.696	15542
878.824	15717
878.951	15679
879.079	15861
879.206	15968
879.333	15701
879.461	15690
879.588	15770
879.715	15739
879.842	15846
879.97	15709
880.097	15374
880.224	15374
880.351	15530
880.478	15443
880.605	15492
880.732	15428
880.859	15656
880.986	15504
881.112	15473
881.239	15332
881.366	15291
881.493	15211
881.619	15062
881.746	15089
881.872	15207
881.999	15020
882.125	15024
882.252	15165
882.378	15089
882.505	15336
882.631	15070
882.757	14880
882.883	14971
883.01	14990
883.136	14899
883.262	14853
883.388	14697
883.514	14933
883.64	14918
883.766	14823
883.892	14750
884.018	14883
884.143	14998
884.269	15020
884.395	14754
884.52	14625
884.646	14663
884.772	14549
884.897	14549
885.023	14678
885.148	14701
885.274	14826
885.399	14678
885.524	14606
885.65	14625
885.775	14712
885.9	14590
886.025	14811
886.15	14682
886.275	14674
886.4	14537
886.525	14575
886.65	14541
886.775	14606
886.9	14796
887.025	14918
887.149	14587
887.274	14522
887.399	14469
887.523	14469
887.648	14404
887.773	14431
887.897	14469
888.021	14602
888.146	14412
888.27	14579
888.395	14610
888.519	14457
888.643	14537
888.767	14549
888.891	14412
889.015	14248
889.139	14408
889.263	14412
889.387	14423
889.511	14571
889.635	14526
889.759	14309
889.883	14317
890.006	14309
890.13	14469
890.254	14161
890.377	14275
890.501	14168
890.624	14088
890.748	14214
890.871	14130
890.995	13993
891.118	14024
891.241	14039
891.364	14065
891.488	14145
891.611	13925
891.734	14111
891.857	14145
891.98	13967
892.103	14183
892.226	14035
892.349	14024
892.471	13894
892.594	14001
892.717	13974
892.839	14065
892.962	14035
893.085	14039
893.207	14016
893.33	13951
893.452	13932
893.575	14111
893.697	13970
893.819	14191
893.941	14259
894.064	14149
894.186	13951
894.308	14043
894.43	14119
894.552	14317
894.674	14233
894.796	13986
894.918	14073
895.04	14096
895.161	14218
895.283	14191
895.405	14092
895.526	14111
895.648	14092
895.769	14313
895.891	14206
896.012	14233
896.134	14202
896.255	14164
896.376	14164
896.498	14233
896.619	14282
896.74	14317
896.861	14214
896.982	14488
897.103	14670
897.224	14396
897.345	14507
897.466	14389
897.587	14499
897.708	14655
897.828	14457
897.949	14465
898.07	14229
898.19	14442
898.311	14492
898.431	14442
898.552	14617
898.672	14720
898.792	14629
898.913	14625
899.033	14480
899.153	14457
899.273	14278
899.393	14374
899.513	14450
899.633	14351
899.753	14499
899.873	14412
899.993	14377
900.113	14400
900.232	14469
900.352	14454
900.472	14351
900.591	14210
900.711	14393
900.83	14267
900.95	14256
901.069	14495
901.189	14244
901.308	13986
901.427	13982
901.546	13959
901.665	13951
901.784	14027
901.904	13818
902.023	13788
902.141	13548
902.26	13582
902.379	13556
902.498	13559
902.617	13491
902.735	13514
902.854	13514
902.973	13457
903.091	13285
903.21	13259
903.328	13228
903.446	13141
903.565	13114
903.683	13110
903.801	13053
903.919	13091
904.038	13008
904.156	13031
904.274	13019
904.392	12878
904.51	12977
904.627	12913
904.745	13050
904.863	12958
904.981	12745
905.098	12608
905.216	12646
905.334	12627
905.451	12677
905.569	12604
905.686	12730
905.803	12601
905.921	12384
906.038	12525
906.155	12464
906.272	12388
906.389	12334
906.506	12182
906.623	12121
906.74	12171
906.857	12007
906.974	12034
907.091	12277
907.208	12418
907.324	12243
907.441	12114
907.557	11897
907.674	11950
907.79	11893
907.907	11889
908.023	12064
908.139	11939
908.256	11847
908.372	11897
908.488	11786
908.604	11729
908.72	11665
908.836	11767
908.952	11653
909.068	11737
909.184	11821
909.3	11699
909.415	11836
909.531	11767
909.647	11455
909.762	11455
909.878	11509
909.993	11577
910.108	11391
910.224	11459
910.339	11433
910.454	11417
910.57	11406
910.685	11265
910.8	11524
910.915	11509
911.03	11379
911.145	11147
911.259	11155
911.374	11162
911.489	11075
911.604	10965
911.718	10927
911.833	10934
911.947	10854
912.062	10702
912.176	10961
912.291	10889
912.405	11022
912.519	11132
912.633	11159
912.748	11113
912.862	10923
912.976	10759
913.09	10710
913.204	10759
913.318	10748
913.431	10984
913.545	10881
913.659	10911
913.772	10755
913.886	10782
914	10687
914.113	10733
914.226	10824
914.34	10835
914.453	10596
914.566	10782
914.68	10706
914.793	10622
914.906	10455
915.019	10344
915.132	10390
915.245	10436
915.358	10428
915.47	10428
915.583	10402
915.696	10565
915.809	10569
915.921	10740
916.034	10436
916.146	10325
916.259	10398
916.371	10485
916.483	10504
916.595	10318
916.708	10344
916.82	10310
916.932	10344
917.044	10341
917.156	10337
917.268	10204
917.38	10287
917.491	10329
917.603	10227
917.715	10344
917.826	10447
917.938	10227
918.049	10234
918.161	10333
918.272	10428
918.384	10424
918.495	10386
918.606	10109
918.717	10051
918.828	10097
918.939	10158
919.05	10109
919.161	10143
919.272	9949
919.383	10021
919.494	10181
919.604	10314
919.715	10181
919.826	10120
919.936	10211
920.047	10318
920.157	10257
920.267	10421
920.378	10253
920.488	10147
920.598	10398
920.708	10485
920.818	10390
920.928	10341
921.038	10565
921.148	10497
921.258	10200
921.368	10139
921.477	10029
921.587	9972
921.697	9926
921.806	10013
921.916	9842
922.025	9857
922.134	9770
922.244	9694
922.353	9808
922.462	9553
922.571	9530
922.68	9428
922.789	9370
922.898	9443
923.007	9447
923.116	9477
923.224	9466
923.333	9443
923.442	9431
923.55	9264
923.659	9317
923.767	9386
923.876	9302
923.984	9317
924.092	9165
924.201	9279
924.309	9351
924.417	9279
924.525	9272
924.633	9272
924.741	10147
924.849	9100
924.956	9237
925.064	9070
925.172	9020
925.279	8990
925.387	9131
925.494	9036
925.602	9188
925.709	9192
925.816	9032
925.924	9028
926.031	9237
926.138	9058
926.245	9062
926.352	9104
926.459	9169
926.566	9192
926.673	9062
926.779	8986
926.886	8975
926.993	8811
927.099	8830
927.206	8758
927.312	8743
927.419	8891
927.525	8815
927.631	8876
927.737	8712
927.843	8674
927.95	8621
928.056	8629
928.162	8670
928.267	8746
928.373	9321
928.479	8845
928.585	8564
928.69	8678
928.796	8739
928.901	8632
929.007	8533
929.112	8613
929.218	8568
929.323	8545
929.428	8488
929.533	8667
929.638	8473
929.743	8526
929.848	8579
929.953	8556
930.058	8438
930.163	8206
930.267	8244
930.372	8495
930.477	8313
930.581	8469
930.685	8339
930.79	8210
930.894	8313
930.998	8210
931.103	8423
931.207	8077
931.311	8035
931.415	7898
931.519	7757
931.623	7704
