Data from test_V78500241_3478.txt Node
Date: Fri Mar 25 14:57:56 CST 2022
User: usil
Spectrometer: V785-0024
Trigger mode: 0
Integration Time (sec): 4.000000E-1
Scans to average: 1
Nonlinearity correction enabled: false
Boxcar width: 0
Storing dark spectrum: false
XAxis mode: Wavelengths
Number of Pixels in Spectrum: 1024
>>>>>Begin Spectral Data<<<<<
801.071	21926
801.214	21720
801.356	21622
801.499	21435
801.641	21401
801.783	21203
801.926	21237
802.068	21237
802.211	21119
802.353	21081
802.496	20933
802.638	20674
802.78	20667
802.923	20579
803.065	20590
803.208	20705
803.35	20594
803.492	20716
803.635	20682
803.777	20625
803.919	20727
804.061	20994
804.204	20632
804.346	20530
804.488	20480
804.63	20598
804.773	20450
804.915	20606
805.057	20587
805.199	20454
805.341	20488
805.483	20686
805.626	20560
805.768	20370
805.91	20476
806.052	20484
806.194	20438
806.336	20568
806.478	20522
806.62	20454
806.762	20655
806.904	20693
807.046	20921
807.188	20804
807.33	20899
807.472	20765
807.614	20762
807.756	20781
807.898	20632
808.04	20598
808.182	20560
808.324	20511
808.465	20708
808.607	20792
808.749	20906
808.891	20876
809.033	21036
809.174	20876
809.316	20800
809.458	20956
809.6	20872
809.741	20781
809.883	20918
810.025	21028
810.166	20998
810.308	21036
810.45	20842
810.591	20891
810.733	20716
810.875	20575
811.016	20556
811.158	20469
811.299	20602
811.441	20750
811.582	20762
811.724	20621
811.865	20564
812.007	20568
812.148	20648
812.29	20785
812.431	20853
812.573	20929
812.714	21066
812.855	21062
812.997	21241
813.138	21363
813.279	21260
813.421	21112
813.562	21066
813.703	20910
813.845	20674
813.986	20590
814.127	20278
814.268	20275
814.41	20180
814.551	20168
814.692	20282
814.833	20073
814.974	20111
815.115	20024
815.256	20058
815.397	20005
815.539	19959
815.68	20008
815.821	19788
815.962	19921
816.103	19845
816.244	19772
816.385	19677
816.526	19590
816.666	19460
816.807	19312
816.948	19373
817.089	19438
817.23	19362
817.371	19297
817.512	19304
817.653	19358
817.793	19350
817.934	19263
818.075	19373
818.216	19278
818.356	19099
818.497	19156
818.638	18989
818.778	19031
818.919	18905
819.06	19057
819.2	19213
819.341	19118
819.481	19285
819.622	19339
819.762	19438
819.903	19369
820.043	19274
820.184	19316
820.324	19263
820.465	19426
820.605	19259
820.746	19244
820.886	19095
821.026	19327
821.167	19293
821.307	19297
821.447	19088
821.588	19034
821.728	18985
821.868	18848
822.008	18627
822.149	18650
822.289	18650
822.429	18471
822.569	18323
822.709	18311
822.849	18102
822.99	18292
823.13	18167
823.27	18155
823.41	17954
823.55	18019
823.69	17973
823.83	18079
823.97	17885
824.11	17642
824.25	17714
824.389	17824
824.529	17809
824.669	17661
824.809	17828
824.949	17832
825.089	17824
825.228	17710
825.368	17619
825.508	17627
825.648	17539
825.787	17512
825.927	17604
826.067	17505
826.206	17505
826.346	17505
826.485	17573
826.625	17535
826.765	17668
826.904	17535
827.044	17406
827.183	17326
827.323	17204
827.462	17337
827.601	17189
827.741	17220
827.88	17303
828.02	17075
828.159	17231
828.298	17292
828.437	17212
828.577	17277
828.716	17448
828.855	17273
828.994	16991
829.134	16991
829.273	17102
829.412	17014
829.551	17056
829.69	16904
829.829	17029
829.968	17220
830.107	17041
830.246	17075
830.385	17064
830.524	17060
830.663	16930
830.802	16736
830.941	16626
831.08	16607
831.219	16675
831.357	16698
831.496	16881
831.635	16622
831.774	16550
831.913	16596
832.051	16618
832.19	16405
832.329	16531
832.467	16322
832.606	16306
832.744	16417
832.883	16303
833.022	16310
833.16	16303
833.299	16322
833.437	16299
833.576	16390
833.714	16493
833.852	16440
833.991	16443
834.129	16508
834.267	16493
834.406	16402
834.544	16447
834.682	16459
834.821	16390
834.959	16569
835.097	16421
835.235	16451
835.373	16493
835.511	16535
835.65	16344
835.788	16379
835.926	16120
836.064	16207
836.202	16173
836.34	16238
836.478	16348
836.615	16375
836.753	16360
836.891	16504
837.029	16421
837.167	16360
837.305	16272
837.443	16344
837.58	16265
837.718	16242
837.856	16177
837.993	16207
838.131	16272
838.269	16188
838.406	16124
838.544	16101
838.681	15934
838.819	15926
838.956	15728
839.094	15831
839.231	15736
839.369	15934
839.506	16173
839.643	16044
839.781	15823
839.918	15713
840.055	15724
840.193	15759
840.33	15781
840.467	15808
840.604	15698
840.742	16059
840.879	15759
841.016	15701
841.153	15603
841.29	15937
841.427	15797
841.564	15915
841.701	15717
841.838	15838
841.975	15663
842.112	15713
842.249	15587
842.385	15504
842.522	15747
842.659	15606
842.796	15534
842.933	15526
843.069	15580
843.206	15496
843.343	15530
843.479	15580
843.616	15435
843.752	15340
843.889	15450
844.025	15355
844.162	15325
844.298	15462
844.435	15363
844.571	15321
844.708	15469
844.844	15469
844.98	15435
845.117	15416
845.253	15214
845.389	15184
845.525	15249
845.661	15230
845.798	15043
845.934	15180
846.07	15062
846.206	15180
846.342	15230
846.478	15184
846.614	14925
846.75	14914
846.886	14914
847.022	15005
847.158	14880
847.294	14891
847.429	14956
847.565	14963
847.701	15184
847.837	14674
847.972	14632
848.108	14739
848.244	14716
848.379	14545
848.515	14434
848.65	14457
848.786	14476
848.921	14587
849.057	14594
849.192	14651
849.328	14575
849.463	14530
849.598	14511
849.734	14454
849.869	14389
850.004	14305
850.14	14229
850.275	14362
850.41	14263
850.545	14275
850.68	14172
850.815	14286
850.95	14366
851.085	14461
851.22	14427
851.355	14324
851.49	14237
851.625	14161
851.76	14305
851.895	14183
852.03	14191
852.165	14275
852.299	14275
852.434	14396
852.569	14305
852.703	14263
852.838	14317
852.973	14423
853.107	14305
853.242	14218
853.376	14218
853.511	14024
853.645	14058
853.78	14320
853.914	14126
854.048	14123
854.183	14107
854.317	14126
854.451	14294
854.585	14092
854.72	14119
854.854	14164
854.988	13978
855.122	14183
855.256	14035
855.39	14183
855.524	14267
855.658	14195
855.792	14134
855.926	14172
856.06	14126
856.194	14290
856.327	14115
856.461	14134
856.595	14103
856.729	14062
856.862	14282
856.996	14176
857.13	14221
857.263	14290
857.397	14290
857.53	14168
857.664	14248
857.797	14195
857.931	14317
858.064	14225
858.197	14157
858.331	14180
858.464	14073
858.597	14126
858.731	14145
858.864	14069
858.997	14161
859.13	14111
859.263	14115
859.396	14355
859.529	14225
859.662	14111
859.795	14164
859.928	14157
860.061	14271
860.194	14294
860.327	14111
860.46	14081
860.592	14286
860.725	14320
860.858	14298
860.99	14187
861.123	14035
861.256	14092
861.388	14157
861.521	14853
861.653	13974
861.786	13986
861.918	14016
862.05	14005
862.183	14115
862.315	14164
862.447	14161
862.58	14103
862.712	14043
862.844	13833
862.976	14039
863.108	14035
863.24	14431
863.372	13837
863.504	13963
863.636	13883
863.768	13982
863.9	13982
864.032	13959
864.164	13917
864.296	13997
864.428	13898
864.559	14054
864.691	14012
864.823	14039
864.954	14020
865.086	13887
865.217	13947
865.349	13864
865.48	13890
865.612	13894
865.743	13970
865.875	13849
866.006	13921
866.137	13959
866.269	13928
866.4	13841
866.531	13925
866.662	13871
866.793	13860
866.924	13871
867.055	13921
867.186	13902
867.317	13822
867.448	13753
867.579	13944
867.71	13925
867.841	13860
867.972	13852
868.103	13887
868.233	13989
868.364	13993
868.495	13951
868.625	14142
868.756	14286
868.886	14134
869.017	14176
869.147	14381
869.278	14355
869.408	14164
869.539	14084
869.669	14240
869.799	14233
869.929	14244
870.06	14252
870.19	14499
870.32	14419
870.45	14488
870.58	14564
870.71	14648
870.84	14754
870.97	14579
871.1	14503
871.23	14720
871.36	14868
871.489	14663
871.619	14731
871.749	14724
871.879	14857
872.008	14838
872.138	14872
872.267	14773
872.397	14636
872.526	14674
872.656	14484
872.785	14533
872.915	14762
873.044	14921
873.173	14807
873.303	14830
873.432	14880
873.561	14906
873.69	14895
873.819	14762
873.948	14921
874.077	14849
874.206	14861
874.335	14800
874.464	15017
874.593	15165
874.722	15116
874.851	15184
874.979	15150
875.108	15074
875.237	15097
875.365	14994
875.494	15108
875.623	15230
875.751	15077
875.88	15077
876.008	15321
876.136	15336
876.265	15553
876.393	15690
876.521	15557
876.65	15542
876.778	15633
876.906	15515
877.034	15603
877.162	15439
877.29	15466
877.418	15458
877.546	15557
877.674	15553
877.802	15568
877.93	15625
878.058	15595
878.185	15428
878.313	15576
878.441	15462
878.568	15363
878.696	15553
878.824	15519
878.951	15648
879.079	15728
879.206	15835
879.333	15743
879.461	15599
879.588	15637
879.715	15766
879.842	15850
879.97	15629
880.097	15462
880.224	15374
880.351	15416
880.478	15496
880.605	15378
880.732	15363
880.859	15747
880.986	15500
881.112	15408
881.239	15291
881.366	15184
881.493	15070
881.619	15058
881.746	15020
881.872	15024
881.999	14990
882.125	15017
882.252	15074
882.378	14998
882.505	15230
882.631	15066
882.757	14796
882.883	14883
883.01	14948
883.136	14826
883.262	14762
883.388	14712
883.514	14998
883.64	14914
883.766	14880
883.892	14686
884.018	14720
884.143	14933
884.269	15055
884.395	14644
884.52	14533
884.646	14583
884.772	14461
884.897	14514
885.023	14655
885.148	14629
885.274	14708
885.399	14606
885.524	14568
885.65	14644
885.775	14617
885.9	14465
886.025	14697
886.15	14621
886.275	14514
886.4	14488
886.525	14610
886.65	14495
886.775	14492
886.9	14606
887.025	14830
887.149	14537
887.274	14366
887.399	14301
887.523	14457
887.648	14351
887.773	14244
887.897	14537
888.021	14370
888.146	14366
888.27	14476
888.395	14651
888.519	14442
888.643	14461
888.767	14511
888.891	14294
889.015	14301
889.139	14332
889.263	14244
889.387	14355
889.511	14514
889.635	14252
889.759	14343
889.883	14195
890.006	14339
890.13	14396
890.254	14301
890.377	14225
890.501	14164
890.624	14054
890.748	14084
890.871	14001
890.995	14016
891.118	13898
891.241	14020
891.364	14024
891.488	14119
891.611	13993
891.734	13970
891.857	14039
891.98	14012
892.103	14073
892.226	14031
892.349	13883
892.471	13860
892.594	13947
892.717	13970
892.839	14077
892.962	13936
893.085	14039
893.207	14016
893.33	13833
893.452	13959
893.575	14001
893.697	14001
893.819	14020
893.941	14172
894.064	14107
894.186	13978
894.308	14050
894.43	14096
894.552	14301
894.674	14111
894.796	14027
894.918	14054
895.04	14065
895.161	14172
895.283	14206
895.405	13932
895.526	14046
895.648	14123
895.769	14062
895.891	14218
896.012	14202
896.134	14126
896.255	14176
896.376	14111
896.498	14172
896.619	14134
896.74	14130
896.861	14225
896.982	14518
897.103	14629
897.224	14358
897.345	14358
897.466	14229
897.587	14438
897.708	14522
897.828	14533
897.949	14317
898.07	14225
898.19	14370
898.311	14556
898.431	14313
898.552	14537
898.672	14545
898.792	14495
898.913	14598
899.033	14480
899.153	14290
899.273	14286
899.393	14347
899.513	14377
899.633	14396
899.753	14423
899.873	14423
899.993	14415
900.113	14358
900.232	14389
900.352	14362
900.472	14244
900.591	14092
900.711	14339
900.83	14111
900.95	14309
901.069	14324
901.189	14111
901.308	13909
901.427	13967
901.546	13811
901.665	13902
901.784	13909
901.904	13803
902.023	13715
902.141	13548
902.26	13392
902.379	13609
902.498	13457
902.617	13426
902.735	13533
902.854	13464
902.973	13460
903.091	13308
903.21	13168
903.328	13126
903.446	13168
903.565	13015
903.683	12996
903.801	12962
903.919	13038
904.038	13031
904.156	12920
904.274	12844
904.392	12890
904.51	12909
904.627	12859
904.745	12924
904.863	12924
904.981	12631
905.098	12604
905.216	12620
905.334	12540
905.451	12547
905.569	12532
905.686	12578
905.803	12528
905.921	12410
906.038	12521
906.155	12437
906.272	12281
906.389	12270
906.506	12133
906.623	12148
906.74	12182
906.857	11950
906.974	12095
907.091	12239
907.208	12281
907.324	12159
907.441	12091
907.557	11878
907.674	11859
907.79	11767
907.907	11821
908.023	11950
908.139	12007
908.256	11843
908.372	11840
908.488	11809
908.604	11680
908.72	11585
908.836	11668
908.952	11558
909.068	11752
909.184	11745
909.3	11707
909.415	11760
909.531	11752
909.647	11493
909.762	11395
909.878	11448
909.993	11471
910.108	11467
910.224	11433
910.339	11452
910.454	11334
910.57	11315
910.685	11280
910.8	11486
910.915	11356
911.03	11311
911.145	11136
911.259	11071
911.374	11136
911.489	11086
911.604	11048
911.718	10881
911.833	10900
911.947	10812
912.062	10729
912.176	10858
912.291	10885
912.405	10896
912.519	11105
912.633	11075
912.748	10927
912.862	10934
912.976	10763
913.09	10637
913.204	10778
913.318	10805
913.431	10866
913.545	10858
913.659	10961
913.772	10805
913.886	10748
914	10634
914.113	10710
914.226	10790
914.34	10714
914.453	10554
914.566	10714
914.68	10592
914.793	10615
914.906	10443
915.019	10386
915.132	10291
915.245	10379
915.358	10455
915.47	10394
915.583	10440
915.696	10546
915.809	10466
915.921	10622
916.034	10417
916.146	10329
916.259	10257
916.371	10455
916.483	10436
916.595	10287
916.708	10394
916.82	10310
916.932	10314
917.044	10284
917.156	10344
917.268	10265
917.38	10268
917.491	10131
917.603	10272
917.715	10272
917.826	10375
917.938	10227
918.049	10120
918.161	10238
918.272	10363
918.384	10421
918.495	10306
918.606	10090
918.717	10029
918.828	10105
918.939	10093
919.05	10010
919.161	10067
919.272	9903
919.383	10051
919.494	10192
919.604	10333
919.715	10128
919.826	10013
919.936	10150
920.047	10219
920.157	10112
920.267	10356
920.378	10135
920.488	10147
920.598	10360
920.708	10481
920.818	10333
920.928	10341
921.038	10512
921.148	10497
921.258	10185
921.368	10101
921.477	10032
921.587	9945
921.697	9819
921.806	9918
921.916	9888
922.025	9766
922.134	9641
922.244	9660
922.353	9701
922.462	9603
922.571	9526
922.68	9412
922.789	9374
922.898	9363
923.007	9374
923.116	9439
923.224	9367
923.333	9378
923.442	9253
923.55	9226
923.659	9279
923.767	9378
923.876	9302
923.984	9348
924.092	9180
924.201	9169
924.309	9211
924.417	9272
924.525	9157
924.633	9199
924.741	10067
924.849	9077
924.956	9195
925.064	9017
925.172	8921
925.279	9020
925.387	9104
925.494	9043
925.602	9188
925.709	9161
925.816	9005
925.924	9097
926.031	9142
926.138	9058
926.245	9116
926.352	8971
926.459	9127
926.566	9104
926.673	8994
926.779	8914
926.886	8925
926.993	8762
927.099	8781
927.206	8731
927.312	8739
927.419	8746
927.525	8712
927.631	8845
927.737	8708
927.843	8640
927.95	8511
928.056	8560
928.162	8701
928.267	8670
928.373	9256
928.479	8739
928.585	8549
928.69	8659
928.796	8682
928.901	8545
929.007	8446
929.112	8602
929.218	8575
929.323	8549
929.428	8507
929.533	8606
929.638	8404
929.743	8423
929.848	8492
929.953	8503
930.058	8324
930.163	8176
930.267	8290
930.372	8415
930.477	8229
930.581	8476
930.685	8332
930.79	8130
930.894	8263
930.998	8195
931.103	8313
931.207	8050
931.311	7928
931.415	7898
931.519	7715
931.623	7769
