Data from test_V78500241_1596.txt Node
Date: Fri Mar 25 14:44:49 CST 2022
User: usil
Spectrometer: V785-0024
Trigger mode: 0
Integration Time (sec): 4.000000E-1
Scans to average: 1
Nonlinearity correction enabled: false
Boxcar width: 0
Storing dark spectrum: false
XAxis mode: Wavelengths
Number of Pixels in Spectrum: 1024
>>>>>Begin Spectral Data<<<<<
801.071	22306
801.214	22276
801.356	21991
801.499	21918
801.641	21781
801.783	21713
801.926	21732
802.068	21686
802.211	21477
802.353	21481
802.496	21344
802.638	21378
802.78	21264
802.923	21146
803.065	20952
803.208	20941
803.35	21032
803.492	21157
803.635	21291
803.777	21089
803.919	21230
804.061	21386
804.204	21024
804.346	20925
804.488	20910
804.63	21047
804.773	20811
804.915	21058
805.057	21051
805.199	21017
805.341	21028
805.483	21283
805.626	21047
805.768	20861
805.91	20971
806.052	20967
806.194	20944
806.336	21058
806.478	20929
806.62	20853
806.762	21074
806.904	21157
807.046	21439
807.188	21389
807.33	21291
807.472	21370
807.614	21222
807.756	21302
807.898	21138
808.04	21017
808.182	21150
808.324	21146
808.465	21249
808.607	21519
808.749	21336
808.891	21637
809.033	21587
809.174	21500
809.316	21435
809.458	21428
809.6	21416
809.741	21530
809.883	21561
810.025	21663
810.166	21629
810.308	21576
810.45	21553
810.591	21458
810.733	21264
810.875	21249
811.016	21096
811.158	21146
811.299	21268
811.441	21264
811.582	21218
811.724	21135
811.865	21233
812.007	21165
812.148	21184
812.29	21207
812.431	21313
812.573	21481
812.714	21595
812.855	21690
812.997	21842
813.138	21903
813.279	21759
813.421	21595
813.562	21606
813.703	21359
813.845	21325
813.986	21150
814.127	20876
814.268	20746
814.41	20830
814.551	20705
814.692	20686
814.833	20621
814.974	20598
815.115	20720
815.256	20579
815.397	20617
815.539	20499
815.68	20400
815.821	20404
815.962	20457
816.103	20454
816.244	20294
816.385	20275
816.526	20115
816.666	20012
816.807	19932
816.948	19883
817.089	19936
817.23	19879
817.371	19898
817.512	19803
817.653	19780
817.793	19837
817.934	19841
818.075	19906
818.216	19750
818.356	19833
818.497	19628
818.638	19719
818.778	19445
818.919	19457
819.06	19628
819.2	19761
819.341	19696
819.481	19738
819.622	19864
819.762	20050
819.903	19894
820.043	19944
820.184	19837
820.324	19864
820.465	19921
820.605	19856
820.746	19708
820.886	19723
821.026	19833
821.167	19750
821.307	19856
821.447	19753
821.588	19582
821.728	19419
821.868	19343
822.008	19255
822.149	19168
822.289	19164
822.429	18932
822.569	18806
822.709	18848
822.849	18684
822.99	18802
823.13	18677
823.27	18642
823.41	18513
823.55	18525
823.69	18414
823.83	18593
823.97	18410
824.11	18243
824.25	18277
824.389	18300
824.529	18319
824.669	18353
824.809	18353
824.949	18395
825.089	18369
825.228	18266
825.368	18258
825.508	18098
825.648	18171
825.787	18194
825.927	18087
826.067	17988
826.206	18136
826.346	18106
826.485	18152
826.625	18136
826.765	18064
826.904	18133
827.044	17802
827.183	17802
827.323	17764
827.462	17783
827.601	17737
827.741	17737
827.88	17745
828.02	17554
828.159	17699
828.298	17665
828.437	17798
828.577	17707
828.716	17878
828.855	17729
828.994	17535
829.134	17417
829.273	17516
829.412	17452
829.551	17501
829.69	17512
829.829	17429
829.968	17623
830.107	17516
830.246	17490
830.385	17459
830.524	17421
830.663	17223
830.802	17288
830.941	17060
831.08	17056
831.219	17239
831.357	17155
831.496	17250
831.635	17136
831.774	17029
831.913	17022
832.051	16892
832.19	16839
832.329	16904
832.467	16736
832.606	16710
832.744	16847
832.883	16797
833.022	16828
833.16	16911
833.299	16949
833.437	16847
833.576	16930
833.714	16862
833.852	16869
833.991	16873
834.129	16984
834.267	16923
834.406	16801
834.544	16889
834.682	16805
834.821	16778
834.959	16965
835.097	16793
835.235	16892
835.373	16854
835.511	16877
835.65	16710
835.788	16809
835.926	16660
836.064	16516
836.202	16565
836.34	16858
836.478	16809
836.615	16713
836.753	16717
836.891	16828
837.029	16809
837.167	16702
837.305	16637
837.443	16618
837.58	16580
837.718	16622
837.856	16599
837.993	16538
838.131	16535
838.269	16523
838.406	16542
838.544	16417
838.681	16299
838.819	16367
838.956	16074
839.094	16124
839.231	16143
839.369	16249
839.506	16535
839.643	16337
839.781	16101
839.918	16051
840.055	16173
840.193	16120
840.33	16154
840.467	16173
840.604	16086
840.742	16405
840.879	15964
841.016	16135
841.153	16059
841.29	16257
841.427	16173
841.564	16071
841.701	16067
841.838	16086
841.975	16040
842.112	16048
842.249	15888
842.385	15857
842.522	16150
842.659	15972
842.796	15934
842.933	15876
843.069	15934
843.206	15861
843.343	15968
843.479	15911
843.616	15994
843.752	15705
843.889	15709
844.025	15907
844.162	15812
844.298	15781
844.435	15732
844.571	15724
844.708	15762
844.844	15827
844.98	15926
845.117	15838
845.253	15743
845.389	15614
845.525	15591
845.661	15663
845.798	15576
845.934	15774
846.07	15519
846.206	15595
846.342	15743
846.478	15606
846.614	15374
846.75	15283
846.886	15264
847.022	15386
847.158	15317
847.294	15154
847.429	15340
847.565	15203
847.701	15530
847.837	15024
847.972	15001
848.108	15112
848.244	15017
848.379	14925
848.515	14849
848.65	14902
848.786	14785
848.921	14842
849.057	14982
849.192	15047
849.328	14925
849.463	14914
849.598	14826
849.734	14765
849.869	14716
850.004	14663
850.14	14659
850.275	14587
850.41	14594
850.545	14613
850.68	14606
850.815	14640
850.95	14648
851.085	14773
851.22	14727
851.355	14571
851.49	14625
851.625	14621
851.76	14564
851.895	14514
852.03	14480
852.165	14556
852.299	14701
852.434	14693
852.569	14697
852.703	14594
852.838	14716
852.973	14891
853.107	14746
853.242	14617
853.376	14492
853.511	14415
853.645	14389
853.78	14545
853.914	14545
854.048	14545
854.183	14446
854.317	14473
854.451	14758
854.585	14423
854.72	14404
854.854	14518
854.988	14503
855.122	14549
855.256	14366
855.39	14438
855.524	14541
855.658	14495
855.792	14541
855.926	14476
856.06	14541
856.194	14583
856.327	14473
856.461	14400
856.595	14511
856.729	14469
856.862	14613
856.996	14533
857.13	14590
857.263	14663
857.397	14701
857.53	14423
857.664	14514
857.797	14606
857.931	14697
858.064	14568
858.197	14552
858.331	14556
858.464	14530
858.597	14393
858.731	14560
858.864	14533
858.997	14412
859.13	14465
859.263	14499
859.396	14583
859.529	14636
859.662	14514
859.795	14549
859.928	14526
860.061	14613
860.194	14781
860.327	14575
860.46	14552
860.592	14564
860.725	14587
860.858	14537
860.99	14537
861.123	14370
861.256	14442
861.388	14518
861.521	15252
861.653	14423
861.786	14336
861.918	14385
862.05	14408
862.183	14511
862.315	14389
862.447	14507
862.58	14336
862.712	14263
862.844	14317
862.976	14404
863.108	14225
863.24	14724
863.372	14244
863.504	14362
863.636	14358
863.768	14362
863.9	14259
864.032	14256
864.164	14202
864.296	14298
864.428	14336
864.559	14457
864.691	14313
864.823	14336
864.954	14305
865.086	14381
865.217	14294
865.349	14244
865.48	14248
865.612	14267
865.743	14488
865.875	14313
866.006	14248
866.137	14271
866.269	14244
866.4	14225
866.531	14134
866.662	14233
866.793	14191
866.924	14218
867.055	14218
867.186	14176
867.317	14168
867.448	14069
867.579	14183
867.71	14237
867.841	14119
867.972	14313
868.103	14294
868.233	14271
868.364	14271
868.495	14370
868.625	14442
868.756	14571
868.886	14442
869.017	14434
869.147	14549
869.278	14552
869.408	14575
869.539	14533
869.669	14560
869.799	14613
869.929	14625
870.06	14587
870.19	14765
870.32	14712
870.45	14845
870.58	14921
870.71	15020
870.84	15108
870.97	14849
871.1	14906
871.23	15100
871.36	15104
871.489	14933
871.619	15116
871.749	15032
871.879	15066
872.008	15233
872.138	15138
872.267	15001
872.397	14998
872.526	14979
872.656	14830
872.785	15017
872.915	15203
873.044	15214
873.173	15142
873.303	15131
873.432	15146
873.561	15192
873.69	15195
873.819	15192
873.948	15119
874.077	15100
874.206	15184
874.335	15169
874.464	15287
874.593	15477
874.722	15424
874.851	15408
874.979	15466
875.108	15393
875.237	15466
875.365	15340
875.494	15557
875.623	15488
875.751	15466
875.88	15538
876.008	15584
876.136	15759
876.265	15892
876.393	15964
876.521	15953
876.65	15873
876.778	15979
876.906	15915
877.034	15812
877.162	15857
877.29	15812
877.418	15846
877.546	15903
877.674	15778
877.802	15918
877.93	15876
878.058	15823
878.185	15762
878.313	15865
878.441	15846
878.568	15690
878.696	15774
878.824	15842
878.951	15998
879.079	16071
879.206	16196
879.333	16090
879.461	15968
879.588	16025
879.715	16116
879.842	16185
879.97	16010
880.097	15732
880.224	15793
880.351	15793
880.478	15717
880.605	15717
880.732	15724
880.859	15861
880.986	15823
881.112	15690
881.239	15606
881.366	15545
881.493	15485
881.619	15386
881.746	15378
881.872	15401
881.999	15363
882.125	15268
882.252	15431
882.378	15363
882.505	15564
882.631	15317
882.757	15176
882.883	15332
883.01	15135
883.136	15161
883.262	14960
883.388	15051
883.514	15272
883.64	15291
883.766	15131
883.892	14967
884.018	15085
884.143	15203
884.269	15275
884.395	14975
884.52	14826
884.646	14918
884.772	14887
884.897	14788
885.023	14849
885.148	15009
885.274	15001
885.399	14941
885.524	14948
885.65	14910
885.775	14941
885.9	14845
886.025	15097
886.15	15005
886.275	14773
886.4	14872
886.525	14899
886.65	14815
886.775	14807
886.9	15112
887.025	15161
887.149	14895
887.274	14777
887.399	14705
887.523	14769
887.648	14583
887.773	14678
887.897	14765
888.021	14830
888.146	14769
888.27	14838
888.395	14887
888.519	14804
888.643	14762
888.767	14765
888.891	14579
889.015	14492
889.139	14697
889.263	14575
889.387	14735
889.511	14746
889.635	14800
889.759	14625
889.883	14587
890.006	14594
890.13	14708
890.254	14518
890.377	14495
890.501	14336
890.624	14408
890.748	14541
890.871	14473
890.995	14301
891.118	14210
891.241	14282
891.364	14309
891.488	14408
891.611	14271
891.734	14358
891.857	14415
891.98	14423
892.103	14423
892.226	14324
892.349	14309
892.471	14233
892.594	14336
892.717	14240
892.839	14355
892.962	14377
893.085	14465
893.207	14301
893.33	14233
893.452	14248
893.575	14355
893.697	14252
893.819	14396
893.941	14556
894.064	14469
894.186	14263
894.308	14199
894.43	14419
894.552	14476
894.674	14461
894.796	14320
894.918	14351
895.04	14313
895.161	14480
895.283	14404
895.405	14488
895.526	14419
895.648	14366
895.769	14431
895.891	14503
896.012	14602
896.134	14431
896.255	14469
896.376	14480
896.498	14518
896.619	14579
896.74	14514
896.861	14484
896.982	14788
897.103	14967
897.224	14823
897.345	14845
897.466	14640
897.587	14678
897.708	14811
897.828	14769
897.949	14648
898.07	14602
898.19	14678
898.311	14929
898.431	14701
898.552	14834
898.672	14868
898.792	14960
898.913	14830
899.033	14731
899.153	14663
899.273	14594
899.393	14651
899.513	14701
899.633	14579
899.753	14765
899.873	14644
899.993	14701
900.113	14686
900.232	14705
900.352	14651
900.472	14587
900.591	14522
900.711	14552
900.83	14480
900.95	14594
901.069	14705
901.189	14598
901.308	14313
901.427	14119
901.546	14263
901.665	14244
901.784	14221
901.904	14164
902.023	14027
902.141	13807
902.26	13826
902.379	13883
902.498	13719
902.617	13674
902.735	13784
902.854	13791
902.973	13719
903.091	13529
903.21	13487
903.328	13525
903.446	13400
903.565	13430
903.683	13320
903.801	13183
903.919	13304
904.038	13388
904.156	13149
904.274	13274
904.392	13129
904.51	13084
904.627	13118
904.745	13209
904.863	13217
904.981	12947
905.098	12806
905.216	12856
905.334	12840
905.451	12916
905.569	12776
905.686	12897
905.803	12878
905.921	12722
906.038	12741
906.155	12703
906.272	12566
906.389	12555
906.506	12399
906.623	12441
906.74	12334
906.857	12372
906.974	12388
907.091	12513
907.208	12540
907.324	12467
907.441	12323
907.557	12155
907.674	12152
907.79	12072
907.907	12243
908.023	12220
908.139	12197
908.256	12106
908.372	12102
908.488	12106
908.604	12003
908.72	11999
908.836	11916
908.952	11889
909.068	11923
909.184	12030
909.3	11942
909.415	11977
909.531	11885
909.647	11642
909.762	11748
909.878	11646
909.993	11771
910.108	11684
910.224	11665
910.339	11741
910.454	11657
910.57	11554
910.685	11471
910.8	11813
910.915	11630
911.03	11596
911.145	11433
911.259	11463
911.374	11391
911.489	11235
911.604	11246
911.718	11105
911.833	11159
911.947	11128
912.062	11079
912.176	11117
912.291	11185
912.405	11162
912.519	11353
912.633	11387
912.748	11197
912.862	11151
912.976	11037
913.09	10949
913.204	10938
913.318	10968
913.431	11121
913.545	11162
913.659	11124
913.772	11109
913.886	10911
914	10904
914.113	10942
914.226	11105
914.34	11018
914.453	10812
914.566	11010
914.68	10843
914.793	10831
914.906	10649
915.019	10653
915.132	10561
915.245	10694
915.358	10637
915.47	10740
915.583	10717
915.696	10725
915.809	10793
915.921	10847
916.034	10626
916.146	10626
916.259	10512
916.371	10687
916.483	10622
916.595	10577
916.708	10580
916.82	10580
916.932	10618
917.044	10497
917.156	10554
917.268	10470
917.38	10497
917.491	10470
917.603	10481
917.715	10561
917.826	10538
917.938	10436
918.049	10295
918.161	10436
918.272	10561
918.384	10615
918.495	10516
918.606	10325
918.717	10348
918.828	10398
918.939	10386
919.05	10284
919.161	10333
919.272	10181
919.383	10249
919.494	10386
919.604	10592
919.715	10409
919.826	10249
919.936	10291
920.047	10386
920.157	10371
920.267	10584
920.378	10417
920.488	10329
920.598	10527
920.708	10698
920.818	10580
920.928	10588
921.038	10748
921.148	10649
921.258	10428
921.368	10318
921.477	10223
921.587	10261
921.697	10074
921.806	10272
921.916	10082
922.025	9892
922.134	9831
922.244	9964
922.353	9926
922.462	9740
922.571	9781
922.68	9591
922.789	9572
922.898	9629
923.007	9549
923.116	9686
923.224	9553
923.333	9561
923.442	9515
923.55	9507
923.659	9519
923.767	9584
923.876	9488
923.984	9564
924.092	9428
924.201	9466
924.309	9485
924.417	9450
924.525	9443
924.633	9416
924.741	10371
924.849	9275
924.956	9382
925.064	9275
925.172	9146
925.279	9253
925.387	9260
925.494	9226
925.602	9408
925.709	9329
925.816	9222
925.924	9268
926.031	9298
926.138	9253
926.245	9386
926.352	9169
926.459	9287
926.566	9332
926.673	9302
926.779	9150
926.886	9051
926.993	8914
927.099	8849
927.206	8979
927.312	8929
927.419	8967
927.525	8960
927.631	8986
927.737	8899
927.843	8819
927.95	8807
928.056	8804
928.162	8887
928.267	8781
928.373	9431
928.479	8956
928.585	8762
928.69	8811
928.796	8925
928.901	8811
929.007	8712
929.112	8762
929.218	8750
929.323	8724
929.428	8739
929.533	8811
929.638	8613
929.743	8648
929.848	8758
929.953	8705
930.058	8590
930.163	8450
930.267	8503
930.372	8632
930.477	8442
930.581	8720
930.685	8533
930.79	8339
930.894	8408
930.998	8393
931.103	8552
931.207	8164
931.311	8088
931.415	8100
931.519	7993
931.623	7902
