Data from test_V78500241_3088.txt Node
Date: Fri Mar 25 14:55:13 CST 2022
User: usil
Spectrometer: V785-0024
Trigger mode: 0
Integration Time (sec): 4.000000E-1
Scans to average: 1
Nonlinearity correction enabled: false
Boxcar width: 0
Storing dark spectrum: false
XAxis mode: Wavelengths
Number of Pixels in Spectrum: 1024
>>>>>Begin Spectral Data<<<<<
801.071	22112
801.214	22017
801.356	21629
801.499	21572
801.641	21515
801.783	21473
801.926	21420
802.068	21355
802.211	21272
802.353	21199
802.496	20998
802.638	20967
802.78	20872
802.923	20872
803.065	20823
803.208	20727
803.35	20705
803.492	20876
803.635	20849
803.777	20800
803.919	20925
804.061	21074
804.204	20746
804.346	20693
804.488	20636
804.63	20762
804.773	20613
804.915	20731
805.057	20944
805.199	20587
805.341	20625
805.483	20743
805.626	20659
805.768	20724
805.91	20765
806.052	20674
806.194	20579
806.336	20796
806.478	20716
806.62	20575
806.762	20632
806.904	20887
807.046	21051
807.188	20929
807.33	21150
807.472	21032
807.614	21024
807.756	21009
807.898	20861
808.04	20765
808.182	20796
808.324	20727
808.465	20906
808.607	20937
808.749	21112
808.891	21195
809.033	21218
809.174	21138
809.316	20998
809.458	21112
809.6	20891
809.741	21135
809.883	21123
810.025	21207
810.166	21184
810.308	21173
810.45	21157
810.591	21112
810.733	20861
810.875	20918
811.016	20796
811.158	20727
811.299	20765
811.441	20921
811.582	21009
811.724	20758
811.865	20792
812.007	20720
812.148	20910
812.29	20861
812.431	21043
812.573	21055
812.714	21298
812.855	21306
812.997	21363
813.138	21561
813.279	21447
813.421	21241
813.562	21298
813.703	21066
813.845	20952
813.986	20602
814.127	20446
814.268	20389
814.41	20404
814.551	20267
814.692	20396
814.833	20256
814.974	20400
815.115	20434
815.256	20206
815.397	20237
815.539	20168
815.68	20031
815.821	20081
815.962	20073
816.103	20031
816.244	19936
816.385	19784
816.526	19811
816.666	19696
816.807	19480
816.948	19403
817.089	19689
817.23	19635
817.371	19491
817.512	19533
817.653	19472
817.793	19449
817.934	19510
818.075	19571
818.216	19559
818.356	19514
818.497	19293
818.638	19152
818.778	19141
818.919	19206
819.06	19285
819.2	19320
819.341	19293
819.481	19430
819.622	19468
819.762	19651
819.903	19658
820.043	19487
820.184	19464
820.324	19445
820.465	19540
820.605	19457
820.746	19403
820.886	19263
821.026	19388
821.167	19335
821.307	19422
821.447	19445
821.588	19369
821.728	19202
821.868	19000
822.008	18844
822.149	18791
822.289	18814
822.429	18547
822.569	18604
822.709	18483
822.849	18426
822.99	18422
823.13	18407
823.27	18285
823.41	18140
823.55	18049
823.69	18087
823.83	18190
823.97	18098
824.11	17893
824.25	17958
824.389	17950
824.529	18007
824.669	17840
824.809	17996
824.949	17996
825.089	17904
825.228	17927
825.368	17703
825.508	17733
825.648	17718
825.787	17771
825.927	17752
826.067	17718
826.206	17615
826.346	17668
826.485	17714
826.625	17661
826.765	17874
826.904	17737
827.044	17524
827.183	17421
827.323	17364
827.462	17516
827.601	17337
827.741	17402
827.88	17471
828.02	17360
828.159	17280
828.298	17501
828.437	17421
828.577	17330
828.716	17554
828.855	17406
828.994	17170
829.134	17193
829.273	17121
829.412	17071
829.551	17064
829.69	17197
829.829	17204
829.968	17185
830.107	17140
830.246	17143
830.385	17102
830.524	16965
830.663	17014
830.802	16889
830.941	16702
831.08	16725
831.219	16790
831.357	16869
831.496	16850
831.635	16801
831.774	16668
831.913	16603
832.051	16599
832.19	16542
832.329	16542
832.467	16371
832.606	16394
832.744	16466
832.883	16443
833.022	16390
833.16	16493
833.299	16428
833.437	16421
833.576	16558
833.714	16542
833.852	16554
833.991	16474
834.129	16519
834.267	16615
834.406	16508
834.544	16497
834.682	16497
834.821	16436
834.959	16622
835.097	16459
835.235	16573
835.373	16558
835.511	16554
835.65	16489
835.788	16325
835.926	16318
836.064	16166
836.202	16219
836.34	16310
836.478	16504
836.615	16367
836.753	16379
836.891	16478
837.029	16500
837.167	16371
837.305	16318
837.443	16322
837.58	16177
837.718	16337
837.856	16356
837.993	16139
838.131	16272
838.269	16215
838.406	16112
838.544	16188
838.681	15991
838.819	15838
838.956	15759
839.094	15728
839.231	15827
839.369	15880
839.506	16219
839.643	16013
839.781	15819
839.918	15739
840.055	15827
840.193	15816
840.33	15698
840.467	15732
840.604	15762
840.742	16036
840.879	15568
841.016	15686
841.153	15736
841.29	15922
841.427	15774
841.564	15911
841.701	15819
841.838	15694
841.975	15682
842.112	15633
842.249	15511
842.385	15545
842.522	15770
842.659	15625
842.796	15584
842.933	15599
843.069	15526
843.206	15523
843.343	15618
843.479	15644
843.616	15568
843.752	15252
843.889	15355
844.025	15519
844.162	15321
844.298	15450
844.435	15439
844.571	15370
844.708	15469
844.844	15481
844.98	15466
845.117	15374
845.253	15344
845.389	15119
845.525	15367
845.661	15237
845.798	15142
845.934	15207
846.07	15161
846.206	15150
846.342	15317
846.478	15184
846.614	15017
846.75	14842
846.886	14895
847.022	14960
847.158	14952
847.294	14933
847.429	14986
847.565	14887
847.701	15249
847.837	14682
847.972	14735
848.108	14762
848.244	14758
848.379	14598
848.515	14434
848.65	14522
848.786	14526
848.921	14549
849.057	14530
849.192	14644
849.328	14594
849.463	14484
849.598	14503
849.734	14450
849.869	14377
850.004	14396
850.14	14427
850.275	14339
850.41	14237
850.545	14259
850.68	14256
850.815	14271
850.95	14168
851.085	14434
851.22	14351
851.355	14294
851.49	14313
851.625	14252
851.76	14267
851.895	14202
852.03	14187
852.165	14244
852.299	14248
852.434	14278
852.569	14385
852.703	14332
852.838	14434
852.973	14377
853.107	14469
853.242	14294
853.376	14221
853.511	14073
853.645	14149
853.78	14244
853.914	14221
854.048	14202
854.183	14172
854.317	14214
854.451	14358
854.585	14218
854.72	14107
854.854	14138
854.988	14130
855.122	14058
855.256	14016
855.39	14092
855.524	14244
855.658	14286
855.792	14161
855.926	14214
856.06	14206
856.194	14374
856.327	14149
856.461	14115
856.595	13997
856.729	14096
856.862	14278
856.996	14164
857.13	14176
857.263	14271
857.397	14320
857.53	14199
857.664	14199
857.797	14199
857.931	14199
858.064	14134
858.197	14385
858.331	14267
858.464	14138
858.597	14016
858.731	14229
858.864	14096
858.997	14046
859.13	14157
859.263	14149
859.396	14248
859.529	14153
859.662	14187
859.795	14138
859.928	14149
860.061	14218
860.194	14301
860.327	14225
860.46	14259
860.592	14244
860.725	14301
860.858	14229
860.99	14123
861.123	14084
861.256	14142
861.388	14107
861.521	14769
861.653	14008
861.786	14069
861.918	13967
862.05	14092
862.183	14145
862.315	14221
862.447	14130
862.58	14153
862.712	13944
862.844	13776
862.976	14054
863.108	13974
863.24	14328
863.372	13894
863.504	14001
863.636	13944
863.768	14046
863.9	13887
864.032	13871
864.164	13932
864.296	14008
864.428	14020
864.559	14065
864.691	13959
864.823	13986
864.954	13894
865.086	13940
865.217	13917
865.349	13868
865.48	13986
865.612	13906
865.743	14153
865.875	13967
866.006	13849
866.137	13951
866.269	13928
866.4	13879
866.531	13932
866.662	13864
866.793	13925
866.924	13925
867.055	13890
867.186	13902
867.317	13837
867.448	13772
867.579	13890
867.71	13761
867.841	13750
867.972	13944
868.103	13909
868.233	13917
868.364	13974
868.495	14024
868.625	14244
868.756	14168
868.886	14088
869.017	14138
869.147	14256
869.278	14313
869.408	14149
869.539	14187
869.669	14244
869.799	14164
869.929	14336
870.06	14320
870.19	14522
870.32	14366
870.45	14454
870.58	14621
870.71	14693
870.84	14705
870.97	14552
871.1	14629
871.23	14826
871.36	14842
871.489	14674
871.619	14712
871.749	14876
871.879	14807
872.008	14876
872.138	14754
872.267	14739
872.397	14659
872.526	14724
872.656	14606
872.785	14503
872.915	14788
873.044	14921
873.173	14765
873.303	14811
873.432	14838
873.561	14834
873.69	14849
873.819	14834
873.948	14876
874.077	14864
874.206	14785
874.335	14834
874.464	14960
874.593	15085
874.722	15055
874.851	15119
874.979	15260
875.108	15135
875.237	15184
875.365	15020
875.494	15157
875.623	15146
875.751	15199
875.88	15214
876.008	15348
876.136	15363
876.265	15545
876.393	15819
876.521	15622
876.65	15648
876.778	15564
876.906	15481
877.034	15488
877.162	15515
877.29	15526
877.418	15637
877.546	15523
877.674	15557
877.802	15523
877.93	15534
878.058	15485
878.185	15511
878.313	15610
878.441	15564
878.568	15393
878.696	15519
878.824	15549
878.951	15637
879.079	15652
879.206	15892
879.333	15819
879.461	15561
879.588	15644
879.715	15770
879.842	15892
879.97	15629
880.097	15412
880.224	15408
880.351	15477
880.478	15408
880.605	15389
880.732	15374
880.859	15625
880.986	15416
881.112	15507
881.239	15431
881.366	15161
881.493	15066
881.619	15077
881.746	15081
881.872	15020
881.999	14975
882.125	15047
882.252	15127
882.378	15165
882.505	15169
882.631	14944
882.757	14765
882.883	15055
883.01	14842
883.136	14891
883.262	14750
883.388	14785
883.514	14921
883.64	14830
883.766	14914
883.892	14758
884.018	14758
884.143	14883
884.269	14975
884.395	14682
884.52	14598
884.646	14693
884.772	14484
884.897	14552
885.023	14518
885.148	14720
885.274	14807
885.399	14739
885.524	14617
885.65	14640
885.775	14659
885.9	14568
886.025	14682
886.15	14640
886.275	14571
886.4	14396
886.525	14617
886.65	14568
886.775	14549
886.9	14746
887.025	14773
887.149	14598
887.274	14499
887.399	14408
887.523	14412
887.648	14347
887.773	14355
887.897	14613
888.021	14442
888.146	14419
888.27	14583
888.395	14621
888.519	14476
888.643	14450
888.767	14484
888.891	14412
889.015	14278
889.139	14351
889.263	14366
889.387	14393
889.511	14549
889.635	14393
889.759	14225
889.883	14286
890.006	14305
890.13	14423
890.254	14290
890.377	14233
890.501	14123
890.624	14119
890.748	14149
890.871	14092
890.995	13974
891.118	13932
891.241	13909
891.364	14005
891.488	14050
891.611	13974
891.734	14016
891.857	14020
891.98	13974
892.103	14096
892.226	14043
892.349	13978
892.471	13814
892.594	13955
892.717	14043
892.839	13986
892.962	13944
893.085	13978
893.207	13913
893.33	13898
893.452	14043
893.575	14065
893.697	13951
893.819	14142
893.941	14145
894.064	14145
894.186	13925
894.308	13955
894.43	14130
894.552	14187
894.674	14202
894.796	14012
894.918	14016
895.04	14092
895.161	14153
895.283	14168
895.405	14001
895.526	14092
895.648	14016
895.769	14107
895.891	14252
896.012	14256
896.134	14248
896.255	14214
896.376	14134
896.498	14225
896.619	14305
896.74	14172
896.861	14195
896.982	14473
897.103	14655
897.224	14492
897.345	14419
897.466	14412
897.587	14427
897.708	14545
897.828	14457
897.949	14434
898.07	14419
898.19	14412
898.311	14651
898.431	14461
898.552	14461
898.672	14644
898.792	14522
898.913	14583
899.033	14396
899.153	14347
899.273	14244
899.393	14377
899.513	14313
899.633	14374
899.753	14442
899.873	14377
899.993	14442
900.113	14351
900.232	14541
900.352	14393
900.472	14328
900.591	14259
900.711	14339
900.83	14180
900.95	14339
901.069	14290
901.189	14278
901.308	13989
901.427	13887
901.546	13974
901.665	13936
901.784	13982
901.904	13837
902.023	13803
902.141	13533
902.26	13533
902.379	13628
902.498	13464
902.617	13540
902.735	13544
902.854	13514
902.973	13392
903.091	13331
903.21	13175
903.328	13316
903.446	13183
903.565	13114
903.683	13190
903.801	13046
903.919	13084
904.038	12989
904.156	12783
904.274	12977
904.392	12886
904.51	12932
904.627	12882
904.745	12943
904.863	12871
904.981	12669
905.098	12650
905.216	12585
905.334	12582
905.451	12536
905.569	12513
905.686	12570
905.803	12528
905.921	12357
906.038	12471
906.155	12479
906.272	12216
906.389	12235
906.506	12247
906.623	12186
906.74	12133
906.857	12011
906.974	12095
907.091	12296
907.208	12323
907.324	12155
907.441	12072
907.557	11840
907.674	11920
907.79	11920
907.907	11878
908.023	11935
908.139	11931
908.256	11828
908.372	11847
908.488	11821
908.604	11672
908.72	11676
908.836	11745
908.952	11726
909.068	11653
909.184	11760
909.3	11691
909.415	11737
909.531	11752
909.647	11493
909.762	11467
909.878	11406
909.993	11490
910.108	11436
910.224	11425
910.339	11414
910.454	11326
910.57	11269
910.685	11208
910.8	11486
910.915	11444
911.03	11311
911.145	11121
911.259	11166
911.374	11159
911.489	11121
911.604	10999
911.718	10938
911.833	10987
911.947	10862
912.062	10698
912.176	10831
912.291	10946
912.405	10835
912.519	11010
912.633	11143
912.748	11006
912.862	10904
912.976	10755
913.09	10736
913.204	10653
913.318	10911
913.431	10812
913.545	10854
913.659	10885
913.772	10831
913.886	10687
914	10649
914.113	10828
914.226	10759
914.34	10771
914.453	10615
914.566	10691
914.68	10630
914.793	10630
914.906	10413
915.019	10348
915.132	10344
915.245	10428
915.358	10375
915.47	10436
915.583	10451
915.696	10402
915.809	10523
915.921	10611
916.034	10382
916.146	10421
916.259	10363
916.371	10417
916.483	10352
916.595	10360
916.708	10386
916.82	10329
916.932	10268
917.044	10344
917.156	10318
917.268	10238
917.38	10284
917.491	10177
917.603	10291
917.715	10344
917.826	10329
917.938	10150
918.049	10124
918.161	10246
918.272	10352
918.384	10367
918.495	10284
918.606	10158
918.717	10055
918.828	10166
918.939	10173
919.05	10010
919.161	10143
919.272	9964
919.383	9994
919.494	10200
919.604	10394
919.715	10169
919.826	10021
919.936	10162
920.047	10249
920.157	10173
920.267	10356
920.378	10177
920.488	10139
920.598	10303
920.708	10527
920.818	10382
920.928	10409
921.038	10531
921.148	10455
921.258	10223
921.368	10120
921.477	9930
921.587	9949
921.697	9991
921.806	10051
921.916	9964
922.025	9797
922.134	9686
922.244	9618
922.353	9709
922.462	9599
922.571	9553
922.68	9363
922.789	9336
922.898	9416
923.007	9370
923.116	9408
923.224	9359
923.333	9428
923.442	9302
923.55	9218
923.659	9256
923.767	9313
923.876	9287
923.984	9367
924.092	9207
924.201	9275
924.309	9298
924.417	9287
924.525	9207
924.633	9256
924.741	10192
924.849	9028
924.956	9226
925.064	9017
925.172	8994
925.279	9043
925.387	9009
925.494	9119
925.602	9283
925.709	9157
925.816	9100
925.924	9214
926.031	9207
926.138	9055
926.245	9093
926.352	8921
926.459	9188
926.566	9165
926.673	8986
926.779	8849
926.886	8914
926.993	8845
927.099	8705
927.206	8766
927.312	8746
927.419	8823
927.525	8743
927.631	8781
927.737	8682
927.843	8644
927.95	8632
928.056	8663
928.162	8667
928.267	8746
928.373	9393
928.479	8800
928.585	8598
928.69	8648
928.796	8708
928.901	8613
929.007	8518
929.112	8590
929.218	8610
929.323	8499
929.428	8465
929.533	8598
929.638	8423
929.743	8454
929.848	8564
929.953	8434
930.058	8499
930.163	8187
930.267	8229
930.372	8396
930.477	8267
930.581	8480
930.685	8313
930.79	8244
930.894	8214
930.998	8202
931.103	8400
931.207	8005
931.311	7974
931.415	7841
931.519	7753
931.623	7761
