Data from test_V78500241_1720.txt Node
Date: Fri Mar 25 14:45:41 CST 2022
User: usil
Spectrometer: V785-0024
Trigger mode: 0
Integration Time (sec): 4.000000E-1
Scans to average: 1
Nonlinearity correction enabled: false
Boxcar width: 0
Storing dark spectrum: false
XAxis mode: Wavelengths
Number of Pixels in Spectrum: 1024
>>>>>Begin Spectral Data<<<<<
801.071	22291
801.214	22299
801.356	21831
801.499	21793
801.641	21504
801.783	21622
801.926	21694
802.068	21591
802.211	21542
802.353	21408
802.496	21237
802.638	21020
802.78	20929
802.923	20975
803.065	20906
803.208	20826
803.35	20914
803.492	21131
803.635	21017
803.777	20994
803.919	20979
804.061	21268
804.204	20982
804.346	21017
804.488	20826
804.63	20929
804.773	20800
804.915	20857
805.057	20971
805.199	20891
805.341	20944
805.483	20960
805.626	21001
805.768	20804
805.91	20921
806.052	20838
806.194	20853
806.336	21051
806.478	20902
806.62	20788
806.762	21013
806.904	21138
807.046	21317
807.188	21222
807.33	21203
807.472	21154
807.614	21108
807.756	21264
807.898	20849
808.04	20910
808.182	20906
808.324	21074
808.465	20956
808.607	21051
808.749	21275
808.891	21412
809.033	21408
809.174	21249
809.316	21268
809.458	21268
809.6	21180
809.741	21367
809.883	21310
810.025	21397
810.166	21393
810.308	21439
810.45	21481
810.591	21313
810.733	21112
810.875	21020
811.016	20929
811.158	20868
811.299	21131
811.441	21169
811.582	21146
811.724	21020
811.865	20971
812.007	21093
812.148	21032
812.29	21119
812.431	21249
812.573	21378
812.714	21530
812.855	21553
812.997	21481
813.138	21690
813.279	21606
813.421	21561
813.562	21496
813.703	21310
813.845	21279
813.986	20781
814.127	20758
814.268	20712
814.41	20499
814.551	20522
814.692	20762
814.833	20606
814.974	20564
815.115	20564
815.256	20499
815.397	20370
815.539	20484
815.68	20317
815.821	20256
815.962	20370
816.103	20347
816.244	20195
816.385	19978
816.526	20134
816.666	19940
816.807	19875
816.948	19807
817.089	19822
817.23	19799
817.371	19849
817.512	19715
817.653	19727
817.793	19696
817.934	19738
818.075	19727
818.216	19788
818.356	19708
818.497	19438
818.638	19430
818.778	19441
818.919	19419
819.06	19354
819.2	19480
819.341	19571
819.481	19514
819.622	19753
819.762	19883
819.903	19849
820.043	19814
820.184	19746
820.324	19712
820.465	19704
820.605	19723
820.746	19734
820.886	19544
821.026	19658
821.167	19605
821.307	19658
821.447	19548
821.588	19445
821.728	19537
821.868	19168
822.008	19057
822.149	19004
822.289	19072
822.429	18757
822.569	18776
822.709	18871
822.849	18620
822.99	18490
823.13	18486
823.27	18528
823.41	18361
823.55	18319
823.69	18433
823.83	18365
823.97	18452
824.11	18194
824.25	18163
824.389	18243
824.529	18178
824.669	18159
824.809	18228
824.949	18209
825.089	18163
825.228	18129
825.368	18026
825.508	18034
825.648	18034
825.787	17954
825.927	17988
826.067	17931
826.206	17916
826.346	17935
826.485	17866
826.625	17984
826.765	18098
826.904	17977
827.044	17691
827.183	17684
827.323	17547
827.462	17668
827.601	17653
827.741	17672
827.88	17790
828.02	17642
828.159	17615
828.298	17623
828.437	17733
828.577	17657
828.716	17745
828.855	17592
828.994	17459
829.134	17360
829.273	17383
829.412	17368
829.551	17307
829.69	17395
829.829	17459
829.968	17482
830.107	17471
830.246	17337
830.385	17307
830.524	17360
830.663	17143
830.802	17109
830.941	16923
831.08	16949
831.219	16984
831.357	17010
831.496	17280
831.635	16980
831.774	16892
831.913	16812
832.051	16778
832.19	16816
832.329	16820
832.467	16649
832.606	16717
832.744	16660
832.883	16706
833.022	16755
833.16	16630
833.299	16771
833.437	16637
833.576	16729
833.714	16805
833.852	16721
833.991	16736
834.129	16801
834.267	16774
834.406	16812
834.544	16771
834.682	16725
834.821	16748
834.959	16908
835.097	16618
835.235	16881
835.373	16653
835.511	16782
835.65	16630
835.788	16694
835.926	16500
836.064	16459
836.202	16519
836.34	16573
836.478	16679
836.615	16603
836.753	16607
836.891	16717
837.029	16679
837.167	16588
837.305	16546
837.443	16462
837.58	16421
837.718	16497
837.856	16573
837.993	16447
838.131	16462
838.269	16538
838.406	16451
838.544	16306
838.681	16246
838.819	16246
838.956	16021
839.094	16013
839.231	16181
839.369	16204
839.506	16459
839.643	16219
839.781	16128
839.918	16021
840.055	15945
840.193	15998
840.33	16040
840.467	16090
840.604	16090
840.742	16291
840.879	15865
841.016	16002
841.153	15850
841.29	16143
841.427	16063
841.564	16139
841.701	16105
841.838	15895
841.975	16048
842.112	16048
842.249	15846
842.385	15846
842.522	16017
842.659	15819
842.796	15759
842.933	15907
843.069	15854
843.206	15736
843.343	15911
843.479	15831
843.616	15831
843.752	15603
843.889	15606
844.025	15793
844.162	15580
844.298	15709
844.435	15629
844.571	15553
844.708	15663
844.844	15724
844.98	15717
845.117	15804
845.253	15610
845.389	15549
845.525	15553
845.661	15553
845.798	15469
845.934	15545
846.07	15393
846.206	15534
846.342	15686
846.478	15488
846.614	15272
846.75	15218
846.886	15192
847.022	15313
847.158	15279
847.294	15211
847.429	15249
847.565	15112
847.701	15348
847.837	14845
847.972	14845
848.108	15047
848.244	15043
848.379	14792
848.515	14792
848.65	14815
848.786	14708
848.921	14815
849.057	14845
849.192	14853
849.328	14781
849.463	14811
849.598	14762
849.734	14712
849.869	14674
850.004	14552
850.14	14511
850.275	14514
850.41	14469
850.545	14526
850.68	14533
850.815	14518
850.95	14575
851.085	14716
851.22	14621
851.355	14640
851.49	14457
851.625	14488
851.76	14537
851.895	14545
852.03	14358
852.165	14446
852.299	14575
852.434	14590
852.569	14659
852.703	14537
852.838	14651
852.973	14667
853.107	14644
853.242	14549
853.376	14442
853.511	14271
853.645	14423
853.78	14560
853.914	14374
854.048	14473
854.183	14355
854.317	14484
854.451	14598
854.585	14450
854.72	14313
854.854	14606
854.988	14465
855.122	14351
855.256	14294
855.39	14476
855.524	14355
855.658	14495
855.792	14499
855.926	14495
856.06	14499
856.194	14549
856.327	14469
856.461	14332
856.595	14412
856.729	14381
856.862	14571
856.996	14393
857.13	14423
857.263	14575
857.397	14476
857.53	14434
857.664	14495
857.797	14545
857.931	14571
858.064	14457
858.197	14583
858.331	14408
858.464	14366
858.597	14248
858.731	14404
858.864	14469
858.997	14336
859.13	14473
859.263	14488
859.396	14415
859.529	14336
859.662	14431
859.795	14370
859.928	14408
860.061	14590
860.194	14575
860.327	14366
860.46	14362
860.592	14522
860.725	14522
860.858	14499
860.99	14324
861.123	14385
861.256	14381
861.388	14404
861.521	15055
861.653	14233
861.786	14237
861.918	14328
862.05	14343
862.183	14309
862.315	14305
862.447	14590
862.58	14400
862.712	14233
862.844	14153
862.976	14153
863.108	14225
863.24	14636
863.372	14081
863.504	14229
863.636	14328
863.768	14240
863.9	14301
864.032	14225
864.164	14123
864.296	14115
864.428	14301
864.559	14301
864.691	14317
864.823	14294
864.954	14229
865.086	14225
865.217	14244
865.349	14149
865.48	14130
865.612	14233
865.743	14202
865.875	14290
866.006	14149
866.137	14199
866.269	14248
866.4	14267
866.531	14119
866.662	14210
866.793	14183
866.924	14294
867.055	14301
867.186	14210
867.317	14073
867.448	14214
867.579	14206
867.71	14142
867.841	14103
867.972	14233
868.103	14115
868.233	14183
868.364	14161
868.495	14355
868.625	14423
868.756	14476
868.886	14385
869.017	14469
869.147	14564
869.278	14629
869.408	14476
869.539	14461
869.669	14571
869.799	14533
869.929	14545
870.06	14659
870.19	14735
870.32	14686
870.45	14918
870.58	14872
870.71	14994
870.84	14914
870.97	14948
871.1	14773
871.23	14990
871.36	15013
871.489	14994
871.619	15017
871.749	15062
871.879	15036
872.008	15203
872.138	15085
872.267	15058
872.397	14804
872.526	14941
872.656	14838
872.785	14963
872.915	15036
873.044	15157
873.173	15081
873.303	15176
873.432	15154
873.561	15188
873.69	15252
873.819	15074
873.948	15127
874.077	15127
874.206	15066
874.335	15112
874.464	15359
874.593	15405
874.722	15374
874.851	15488
874.979	15466
875.108	15519
875.237	15443
875.365	15313
875.494	15359
875.623	15504
875.751	15355
875.88	15534
876.008	15568
876.136	15622
876.265	15895
876.393	15861
876.521	15934
876.65	15903
876.778	15857
876.906	15835
877.034	15770
877.162	15964
877.29	15732
877.418	15781
877.546	15861
877.674	15812
877.802	15819
877.93	15850
878.058	15823
878.185	15736
878.313	15854
878.441	15934
878.568	15644
878.696	15732
878.824	15774
878.951	15956
879.079	15998
879.206	16128
879.333	15975
879.461	15960
879.588	15926
879.715	15964
879.842	16162
879.97	15812
880.097	15736
880.224	15694
880.351	15781
880.478	15698
880.605	15671
880.732	15576
880.859	15979
880.986	15648
881.112	15709
881.239	15519
881.366	15504
881.493	15416
881.619	15298
881.746	15496
881.872	15279
881.999	15310
882.125	15279
882.252	15367
882.378	15344
882.505	15564
882.631	15321
882.757	15226
882.883	15230
883.01	15142
883.136	15150
883.262	15009
883.388	15066
883.514	15127
883.64	15192
883.766	15203
883.892	14963
884.018	14994
884.143	15150
884.269	15279
884.395	14967
884.52	14849
884.646	14826
884.772	14693
884.897	14807
885.023	14910
885.148	14994
885.274	15051
885.399	15020
885.524	14906
885.65	14750
885.775	14887
885.9	14796
886.025	14979
886.15	14804
886.275	14842
886.4	14727
886.525	14891
886.65	14762
886.775	14758
886.9	14910
887.025	15127
887.149	14765
887.274	14727
887.399	14697
887.523	14663
887.648	14617
887.773	14594
887.897	14807
888.021	14701
888.146	14655
888.27	14773
888.395	14788
888.519	14754
888.643	14746
888.767	14857
888.891	14610
889.015	14533
889.139	14651
889.263	14579
889.387	14571
889.511	14739
889.635	14667
889.759	14606
889.883	14507
890.006	14511
890.13	14636
890.254	14476
890.377	14484
890.501	14374
890.624	14351
890.748	14450
890.871	14332
890.995	14107
891.118	14081
891.241	14271
891.364	14320
891.488	14366
891.611	14244
891.734	14351
891.857	14339
891.98	14237
892.103	14263
892.226	14259
892.349	14218
892.471	14111
892.594	14183
892.717	14282
892.839	14252
892.962	14339
893.085	14309
893.207	14252
893.33	14138
893.452	14237
893.575	14358
893.697	14172
893.819	14442
893.941	14552
894.064	14343
894.186	14180
894.308	14202
894.43	14400
894.552	14454
894.674	14286
894.796	14149
894.918	14294
895.04	14278
895.161	14450
895.283	14355
895.405	14263
895.526	14366
895.648	14298
895.769	14415
895.891	14438
896.012	14434
896.134	14473
896.255	14339
896.376	14465
896.498	14438
896.619	14495
896.74	14332
896.861	14419
896.982	14720
897.103	14895
897.224	14686
897.345	14670
897.466	14648
897.587	14632
897.708	14773
897.828	14739
897.949	14636
898.07	14583
898.19	14667
898.311	14823
898.431	14735
898.552	14773
898.672	14925
898.792	14929
898.913	14819
899.033	14636
899.153	14629
899.273	14526
899.393	14587
899.513	14727
899.633	14678
899.753	14617
899.873	14651
899.993	14693
900.113	14617
900.232	14655
900.352	14644
900.472	14408
900.591	14465
900.711	14579
900.83	14575
900.95	14552
901.069	14629
901.189	14393
901.308	14180
901.427	14183
901.546	14210
901.665	14183
901.784	14157
901.904	14024
902.023	14050
902.141	13852
902.26	13753
902.379	13822
902.498	13734
902.617	13651
902.735	13689
902.854	13643
902.973	13632
903.091	13445
903.21	13502
903.328	13544
903.446	13426
903.565	13301
903.683	13369
903.801	13168
903.919	13274
904.038	13175
904.156	13095
904.274	13236
904.392	13221
904.51	13065
904.627	13110
904.745	13183
904.863	13118
904.981	12852
905.098	12760
905.216	12764
905.334	12760
905.451	12833
905.569	12825
905.686	12806
905.803	12734
905.921	12544
906.038	12798
906.155	12601
906.272	12551
906.389	12582
906.506	12334
906.623	12395
906.74	12391
906.857	12266
906.974	12277
907.091	12437
907.208	12532
907.324	12395
907.441	12270
907.557	12125
907.674	12273
907.79	12095
907.907	12034
908.023	12182
908.139	12171
908.256	12019
908.372	11965
908.488	12030
908.604	11889
908.72	11847
908.836	11863
908.952	11878
909.068	11961
909.184	12015
909.3	11851
909.415	11958
909.531	11904
909.647	11684
909.762	11707
909.878	11726
909.993	11634
910.108	11680
910.224	11615
910.339	11589
910.454	11623
910.57	11497
910.685	11425
910.8	11695
910.915	11691
911.03	11486
911.145	11402
911.259	11379
911.374	11322
911.489	11288
911.604	11254
911.718	11090
911.833	11086
911.947	10991
912.062	10946
912.176	11086
912.291	11094
912.405	11022
912.519	11288
912.633	11284
912.748	11212
912.862	11060
912.976	11010
913.09	10911
913.204	10961
913.318	11018
913.431	11060
913.545	10999
913.659	11090
913.772	10957
913.886	10862
914	10805
914.113	10911
914.226	10999
914.34	10976
914.453	10820
914.566	10889
914.68	10805
914.793	10820
914.906	10645
915.019	10607
915.132	10485
915.245	10599
915.358	10573
915.47	10634
915.583	10580
915.696	10641
915.809	10702
915.921	10733
916.034	10596
916.146	10417
916.259	10584
916.371	10607
916.483	10565
916.595	10451
916.708	10554
916.82	10550
916.932	10500
917.044	10546
917.156	10542
917.268	10424
917.38	10432
917.491	10382
917.603	10447
917.715	10436
917.826	10535
917.938	10394
918.049	10200
918.161	10379
918.272	10538
918.384	10554
918.495	10500
918.606	10272
918.717	10265
918.828	10306
918.939	10379
919.05	10188
919.161	10295
919.272	10063
919.383	10150
919.494	10360
919.604	10527
919.715	10318
919.826	10265
919.936	10265
920.047	10424
920.157	10413
920.267	10508
920.378	10287
920.488	10329
920.598	10527
920.708	10630
920.818	10622
920.928	10459
921.038	10668
921.148	10672
921.258	10417
921.368	10242
921.477	10169
921.587	10109
921.697	10013
921.806	10246
921.916	10032
922.025	9876
922.134	9915
922.244	9892
922.353	9930
922.462	9804
922.571	9694
922.68	9523
922.789	9545
922.898	9614
923.007	9534
923.116	9576
923.224	9599
923.333	9545
923.442	9439
923.55	9454
923.659	9412
923.767	9568
923.876	9428
923.984	9450
924.092	9363
924.201	9488
924.309	9351
924.417	9462
924.525	9378
924.633	9462
924.741	10352
924.849	9214
924.956	9348
925.064	9195
925.172	9161
925.279	9188
925.387	9214
925.494	9237
925.602	9367
925.709	9256
925.816	9157
925.924	9161
926.031	9306
926.138	9211
926.245	9192
926.352	9112
926.459	9256
926.566	9378
926.673	9123
926.779	9142
926.886	9017
926.993	8956
927.099	8842
927.206	8826
927.312	8864
927.419	8933
927.525	8918
927.631	9028
927.737	8906
927.843	8800
927.95	8632
928.056	8826
928.162	8781
928.267	8842
928.373	9500
928.479	8918
928.585	8640
928.69	8792
928.796	8887
928.901	8727
929.007	8560
929.112	8781
929.218	8697
929.323	8602
929.428	8644
929.533	8819
929.638	8507
929.743	8556
929.848	8678
929.953	8598
930.058	8552
930.163	8393
930.267	8473
930.372	8473
930.477	8362
930.581	8594
930.685	8461
930.79	8336
930.894	8328
930.998	8332
931.103	8431
931.207	8191
931.311	8092
931.415	8096
931.519	7864
931.623	7898
