Data from test_V78500241_613.txt Node
Date: Fri Mar 25 14:37:59 CST 2022
User: usil
Spectrometer: V785-0024
Trigger mode: 0
Integration Time (sec): 4.000000E-1
Scans to average: 1
Nonlinearity correction enabled: false
Boxcar width: 0
Storing dark spectrum: false
XAxis mode: Wavelengths
Number of Pixels in Spectrum: 1024
>>>>>Begin Spectral Data<<<<<
801.071	27987
801.214	27846
801.356	27564
801.499	27542
801.641	27348
801.783	27439
801.926	27435
802.068	27085
802.211	27233
802.353	27222
802.496	26849
802.638	26975
802.78	26842
802.923	26705
803.065	26765
803.208	26842
803.35	26826
803.492	26830
803.635	27024
803.777	26956
803.919	27001
804.061	27348
804.204	27077
804.346	27009
804.488	26990
804.63	27142
804.773	26853
804.915	27001
805.057	27176
805.199	27138
805.341	27348
805.483	27359
805.626	27344
805.768	27313
805.91	27397
806.052	27523
806.194	27610
806.336	27895
806.478	28013
806.62	28120
806.762	28333
806.904	28641
807.046	29117
807.188	29117
807.33	29657
807.472	30003
807.614	30403
807.756	31053
807.898	31928
808.04	32929
808.182	34451
808.324	36376
808.465	38552
808.607	40908
808.749	43103
808.891	44172
809.033	44419
809.174	43114
809.316	40885
809.458	38484
809.6	36076
809.741	34124
809.883	32617
810.025	31677
810.166	30783
810.308	30251
810.45	29642
810.591	29368
810.733	28995
810.875	28713
811.016	28478
811.158	28177
811.299	28196
811.441	28265
811.582	28207
811.724	27991
811.865	27724
812.007	27572
812.148	27762
812.29	27629
812.431	27675
812.573	27835
812.714	27770
812.855	27953
812.997	28032
813.138	28048
813.279	28010
813.421	27861
813.562	27751
813.703	27523
813.845	27420
813.986	27047
814.127	26872
814.268	26849
814.41	26621
814.551	26629
814.692	26598
814.833	26556
814.974	26587
815.115	26667
815.256	26499
815.397	26313
815.539	26396
815.68	26343
815.821	26206
815.962	26278
816.103	26259
816.244	25974
816.385	26027
816.526	25849
816.666	25727
816.807	25727
816.948	25670
817.089	25635
817.23	25525
817.371	25502
817.512	25552
817.653	25434
817.793	25464
817.934	25460
818.075	25559
818.216	25426
818.356	25384
818.497	25354
818.638	25103
818.778	25171
818.919	25362
819.06	25080
819.2	25339
819.341	25388
819.481	25434
819.622	25578
819.762	25742
819.903	25510
820.043	25422
820.184	25609
820.324	25304
820.465	25411
820.605	25384
820.746	25327
820.886	25156
821.026	25331
821.167	25213
821.307	25316
821.447	25240
821.588	25046
821.728	25084
821.868	24932
822.008	24631
822.149	24627
822.289	24574
822.429	24380
822.569	24251
822.709	24323
822.849	24045
822.99	24102
823.13	24011
823.27	24018
823.41	23824
823.55	23832
823.69	23855
823.83	23931
823.97	23764
824.11	23592
824.25	23577
824.389	23558
824.529	23562
824.669	23634
824.809	23779
824.949	23699
825.089	23703
825.228	23672
825.368	23539
825.508	23440
825.648	23395
825.787	23395
825.927	23455
826.067	23391
826.206	23341
826.346	23516
826.485	23383
826.625	23356
826.765	23547
826.904	23452
827.044	23242
827.183	23151
827.323	23037
827.462	23029
827.601	23102
827.741	23075
827.88	23128
828.02	22919
828.159	23044
828.298	23029
828.437	23220
828.577	23006
828.716	23010
828.855	22980
828.994	22790
829.134	22668
829.273	22793
829.412	22736
829.551	22641
829.69	22725
829.829	22729
829.968	22850
830.107	22774
830.246	22862
830.385	22679
830.524	22660
830.663	22664
830.802	22325
830.941	22329
831.08	22139
831.219	22455
831.357	22413
831.496	22542
831.635	22333
831.774	22200
831.913	22105
832.051	22173
832.19	22017
832.329	22238
832.467	22116
832.606	22128
832.744	22086
832.883	22002
833.022	22150
833.16	22162
833.299	22386
833.437	22421
833.576	22554
833.714	22672
833.852	22710
833.991	22755
834.129	22953
834.267	22942
834.406	22900
834.544	22740
834.682	22752
834.821	22752
834.959	22698
835.097	22356
835.235	22367
835.373	22287
835.511	22253
835.65	22093
835.788	21975
835.926	21884
836.064	21625
836.202	21850
836.34	21876
836.478	21934
836.615	21816
836.753	21762
836.891	21861
837.029	21838
837.167	21747
837.305	21854
837.443	21698
837.58	21549
837.718	21652
837.856	21690
837.993	21564
838.131	21739
838.269	21420
838.406	21557
838.544	21329
838.681	21222
838.819	21218
838.956	21146
839.094	21005
839.231	21135
839.369	21116
839.506	21439
839.643	21348
839.781	21066
839.918	20918
840.055	20956
840.193	20998
840.33	21017
840.467	21032
840.604	21089
840.742	21329
840.879	20758
841.016	20975
841.153	20933
841.29	21066
841.427	20990
841.564	21116
841.701	21077
841.838	20944
841.975	20910
842.112	20952
842.249	20838
842.385	20815
842.522	20906
842.659	20838
842.796	20640
842.933	20777
843.069	20902
843.206	20830
843.343	20986
843.479	20781
843.616	20857
843.752	20796
843.889	20731
844.025	20914
844.162	20731
844.298	20956
844.435	20876
844.571	20929
844.708	21321
844.844	21698
844.98	21888
845.117	22253
845.253	22991
845.389	24159
845.525	26796
845.661	30741
845.798	35840
845.934	39698
846.07	41197
846.206	40268
846.342	37042
846.478	32027
846.614	27774
846.75	24798
846.886	23216
847.022	22139
847.158	21557
847.294	21074
847.429	20754
847.565	20530
847.701	20788
847.837	20115
847.972	20046
848.108	20058
848.244	20054
848.379	19894
848.515	19658
848.65	19769
848.786	19715
848.921	19559
849.057	19742
849.192	19799
849.328	19723
849.463	19605
849.598	19499
849.734	19506
849.869	19487
850.004	19449
850.14	19354
850.275	19419
850.41	19377
850.545	19244
850.68	19377
850.815	19506
850.95	19274
851.085	19422
851.22	19483
851.355	19289
851.49	19304
851.625	19202
851.76	19232
851.895	19206
852.03	19118
852.165	19320
852.299	19369
852.434	19289
852.569	19354
852.703	19403
852.838	19407
852.973	19464
853.107	19510
853.242	19362
853.376	19327
853.511	19137
853.645	19324
853.78	19373
853.914	19316
854.048	19377
854.183	19384
854.317	19354
854.451	19502
854.585	19362
854.72	19259
854.854	19426
854.988	19255
855.122	19388
855.256	19240
855.39	19304
855.524	19171
855.658	19350
855.792	19293
855.926	19236
856.06	19209
856.194	19266
856.327	19206
856.461	19076
856.595	19133
856.729	19160
856.862	19217
856.996	19244
857.13	19209
857.263	19285
857.397	19206
857.53	19126
857.664	19122
857.797	19076
857.931	19156
858.064	18977
858.197	19171
858.331	19069
858.464	18966
858.597	19012
858.731	19008
858.864	18966
858.997	19031
859.13	19015
859.263	19095
859.396	19057
859.529	19019
859.662	19000
859.795	18935
859.928	18989
860.061	19148
860.194	19168
860.327	19057
860.46	19023
860.592	19031
860.725	19126
860.858	19065
860.99	19004
861.123	18859
861.256	18989
861.388	18878
861.521	19689
861.653	18863
861.786	18760
861.918	18772
862.05	18882
862.183	18958
862.315	18943
862.447	18916
862.58	18970
862.712	18707
862.844	18692
862.976	18700
863.108	18741
863.24	19057
863.372	18627
863.504	18525
863.636	18585
863.768	18711
863.9	18635
864.032	18509
864.164	18642
864.296	18688
864.428	18760
864.559	18688
864.691	18776
864.823	18681
864.954	18730
865.086	18684
865.217	18544
865.349	18494
865.48	18650
865.612	18585
865.743	18646
865.875	18555
866.006	18502
866.137	18650
866.269	18528
866.4	18589
866.531	18536
866.662	18502
866.793	18563
866.924	18467
867.055	18566
867.186	18563
867.317	18650
867.448	18365
867.579	18384
867.71	18426
867.841	18494
867.972	18528
868.103	18601
868.233	18570
868.364	18486
868.495	18601
868.625	18692
868.756	18878
868.886	18642
869.017	18856
869.147	18875
869.278	18837
869.408	18810
869.539	18753
869.669	18837
869.799	18806
869.929	18897
870.06	18924
870.19	19008
870.32	19076
870.45	19057
870.58	19228
870.71	19369
870.84	19476
870.97	19251
871.1	19148
871.23	19346
871.36	19392
871.489	19491
871.619	19419
871.749	19510
871.879	19476
872.008	19658
872.138	19514
872.267	19430
872.397	19369
872.526	19377
872.656	19343
872.785	19331
872.915	19567
873.044	19563
873.173	19586
873.303	19769
873.432	19586
873.561	19803
873.69	19864
873.819	19689
873.948	19856
874.077	19655
874.206	19715
874.335	19765
874.464	20073
874.593	19955
874.722	19989
874.851	20046
874.979	20115
875.108	20161
875.237	20271
875.365	20168
875.494	20183
875.623	20374
875.751	20202
875.88	20256
876.008	20492
876.136	20503
876.265	20842
876.393	20937
876.521	20925
876.65	21096
876.778	21074
876.906	21043
877.034	21009
877.162	21001
877.29	21081
877.418	21199
877.546	21306
877.674	21348
877.802	21557
877.93	21534
878.058	21587
878.185	21778
878.313	21831
878.441	22207
878.568	22432
878.696	22873
878.824	23402
878.951	24254
879.079	25502
879.206	26861
879.333	28436
879.461	29661
879.588	30380
879.715	30509
879.842	30007
879.97	28481
880.097	26819
880.224	25594
880.351	24795
880.478	24159
880.605	23703
880.732	23296
880.859	23528
880.986	23197
881.112	23006
881.239	22968
881.366	22843
881.493	22622
881.619	22679
881.746	22729
881.872	22672
881.999	22725
882.125	22660
882.252	22866
882.378	22793
882.505	22877
882.631	22752
882.757	22653
882.883	22725
883.01	22649
883.136	22500
883.262	22481
883.388	22390
883.514	22557
883.64	22691
883.766	22417
883.892	22375
884.018	22451
884.143	22573
884.269	22615
884.395	22363
884.52	22181
884.646	22295
884.772	22177
884.897	22101
885.023	22116
885.148	22390
885.274	22390
885.399	22188
885.524	22135
885.65	22067
885.775	21915
885.9	21816
886.025	21865
886.15	21660
886.275	21610
886.4	21302
886.525	21188
886.65	21154
886.775	21077
886.9	21093
887.025	21256
887.149	20979
887.274	20697
887.399	20522
887.523	20564
887.648	20446
887.773	20339
887.897	20438
888.021	20355
888.146	20256
888.27	20396
888.395	20263
888.519	20237
888.643	20130
888.767	20134
888.891	19928
889.015	19875
889.139	19864
889.263	19894
889.387	19963
889.511	19917
889.635	19856
889.759	19647
889.883	19597
890.006	19750
890.13	19772
890.254	19441
890.377	19533
890.501	19426
890.624	19194
890.748	19320
890.871	19053
890.995	18985
891.118	19000
891.241	19053
891.364	19103
891.488	19088
891.611	18886
891.734	18981
891.857	18989
891.98	19034
892.103	18993
892.226	18958
892.349	18859
892.471	18642
892.594	18821
892.717	18795
892.839	18654
892.962	18894
893.085	18825
893.207	18722
893.33	18574
893.452	18525
893.575	18635
893.697	18578
893.819	18711
893.941	18715
894.064	18806
894.186	18429
894.308	18540
894.43	18646
894.552	18661
894.674	18532
894.796	18445
894.918	18452
895.04	18460
895.161	18528
895.283	18426
895.405	18372
895.526	18460
895.648	18448
895.769	18338
895.891	18486
896.012	18566
896.134	18433
896.255	18460
896.376	18372
896.498	18418
896.619	18441
896.74	18353
896.861	18422
896.982	18821
897.103	18764
897.224	18696
897.345	18517
897.466	18506
897.587	18639
897.708	18608
897.828	18620
897.949	18528
898.07	18422
898.19	18604
898.311	18513
898.431	18479
898.552	18536
898.672	18631
898.792	18669
898.913	18547
899.033	18452
899.153	18380
899.273	18213
899.393	18357
899.513	18338
899.633	18357
899.753	18334
899.873	18258
899.993	18357
900.113	18334
900.232	18323
900.352	18239
900.472	18174
900.591	18148
900.711	18190
900.83	18133
900.95	18224
901.069	18235
901.189	18095
901.308	17828
901.427	17798
901.546	17733
901.665	17752
901.784	17745
901.904	17573
902.023	17539
902.141	17326
902.26	17102
902.379	17269
902.498	17242
902.617	17105
902.735	17349
902.854	17277
902.973	17090
903.091	16889
903.21	16858
903.328	16843
903.446	16687
903.565	16611
903.683	16675
903.801	16561
903.919	16603
904.038	16599
904.156	16478
904.274	16485
904.392	16314
904.51	16284
904.627	16432
904.745	16367
904.863	16360
904.981	16143
905.098	15960
905.216	15949
905.334	16044
905.451	16120
905.569	15930
905.686	16021
905.803	15979
905.921	15785
906.038	15964
906.155	15774
906.272	15698
906.389	15686
906.506	15473
906.623	15507
906.74	15576
906.857	15382
906.974	15397
907.091	15519
907.208	15656
907.324	15519
907.441	15443
907.557	15344
907.674	15279
907.79	15249
907.907	15108
908.023	15188
908.139	15161
908.256	15180
908.372	15108
908.488	15047
908.604	14979
908.72	14880
908.836	14921
908.952	14952
909.068	14975
909.184	15005
909.3	14952
909.415	14979
909.531	14921
909.647	14750
909.762	14663
909.878	14708
909.993	14667
910.108	14571
910.224	14583
910.339	14678
910.454	14613
910.57	14556
910.685	14419
910.8	14727
910.915	14610
911.03	14499
911.145	14317
911.259	14332
911.374	14130
911.489	14259
911.604	14119
911.718	14123
911.833	14027
911.947	13913
912.062	13868
912.176	13970
912.291	14039
912.405	14031
912.519	14180
912.633	14100
912.748	14126
912.862	14008
912.976	13856
913.09	13761
913.204	13769
913.318	13772
913.431	13932
913.545	13887
913.659	13986
913.772	13769
913.886	13795
914	13712
914.113	13738
914.226	13826
914.34	13723
914.453	13616
914.566	13769
914.68	13628
914.793	13624
914.906	13476
915.019	13377
915.132	13343
915.245	13403
915.358	13377
915.47	13403
915.583	13274
915.696	13358
915.809	13392
915.921	13502
916.034	13373
916.146	13343
916.259	13278
916.371	13438
916.483	13464
916.595	13289
916.708	13255
916.82	13297
916.932	13289
917.044	13266
917.156	13247
917.268	13171
917.38	13137
917.491	13099
917.603	13114
917.715	13149
917.826	13160
917.938	13091
918.049	12954
918.161	13095
918.272	13137
918.384	13179
918.495	13088
918.606	12954
918.717	12837
918.828	12989
918.939	12890
919.05	12783
919.161	12852
919.272	12604
919.383	12776
919.494	12909
919.604	13053
919.715	12825
919.826	12745
919.936	12730
920.047	12909
920.157	12817
920.267	12939
920.378	12867
920.488	12795
920.598	12954
920.708	13118
920.818	12951
920.928	13019
921.038	13038
921.148	13152
921.258	12753
921.368	12662
921.477	12593
921.587	12570
921.697	12441
921.806	12631
921.916	12460
922.025	12285
922.134	12266
922.244	12232
922.353	12251
922.462	12121
922.571	12148
922.68	11836
922.789	11965
922.898	11882
923.007	11893
923.116	11912
923.224	11840
923.333	11805
923.442	11710
923.55	11790
923.659	11767
923.767	11832
923.876	11676
923.984	11840
924.092	11661
924.201	11710
924.309	11672
924.417	11718
924.525	11608
924.633	11684
924.741	12437
924.849	11478
924.956	11570
925.064	11414
925.172	11433
925.279	11364
925.387	11406
925.494	11421
925.602	11497
925.709	11505
925.816	11288
925.924	11440
926.031	11455
926.138	11414
926.245	11387
926.352	11273
926.459	11364
926.566	11436
926.673	11364
926.779	11231
926.886	11174
926.993	11006
927.099	11083
927.206	10946
927.312	10980
927.419	11067
927.525	11010
927.631	11056
927.737	10957
927.843	10892
927.95	10828
928.056	10946
928.162	10850
928.267	10934
928.373	11436
928.479	10965
928.585	10702
928.69	10927
928.796	10816
928.901	10717
929.007	10592
929.112	10801
929.218	10687
929.323	10634
929.428	10622
929.533	10733
929.638	10558
929.743	10596
929.848	10706
929.953	10603
930.058	10497
930.163	10379
930.267	10417
930.372	10485
930.477	10432
930.581	10607
930.685	10428
930.79	10215
930.894	10318
930.998	10196
931.103	10386
931.207	10097
931.311	9911
931.415	9964
931.519	9724
931.623	9728
