Data from test_V78500241_3094.txt Node
Date: Fri Mar 25 14:55:15 CST 2022
User: usil
Spectrometer: V785-0024
Trigger mode: 0
Integration Time (sec): 4.000000E-1
Scans to average: 1
Nonlinearity correction enabled: false
Boxcar width: 0
Storing dark spectrum: false
XAxis mode: Wavelengths
Number of Pixels in Spectrum: 1024
>>>>>Begin Spectral Data<<<<<
801.071	22090
801.214	21949
801.356	21751
801.499	21545
801.641	21439
801.783	21351
801.926	21523
802.068	21389
802.211	21222
802.353	21222
802.496	21032
802.638	20979
802.78	20864
802.923	20804
803.065	20792
803.208	20712
803.35	20830
803.492	20785
803.635	20906
803.777	20781
803.919	20872
804.061	21165
804.204	20739
804.346	20720
804.488	20625
804.63	20754
804.773	20678
804.915	20705
805.057	20830
805.199	20651
805.341	20777
805.483	20845
805.626	20807
805.768	20712
805.91	20762
806.052	20689
806.194	20655
806.336	20785
806.478	20735
806.62	20716
806.762	20788
806.904	20864
807.046	21085
807.188	21047
807.33	20960
807.472	21074
807.614	20883
807.756	20925
807.898	20811
808.04	20765
808.182	20800
808.324	20758
808.465	20941
808.607	20998
808.749	21043
808.891	21283
809.033	21283
809.174	21089
809.316	21051
809.458	21188
809.6	21077
809.741	21154
809.883	21074
810.025	21211
810.166	21203
810.308	21252
810.45	21119
810.591	21043
810.733	20834
810.875	20960
811.016	20792
811.158	20796
811.299	20842
811.441	20899
811.582	20857
811.724	20845
811.865	20823
812.007	20762
812.148	20880
812.29	20785
812.431	20876
812.573	21074
812.714	21104
812.855	21344
812.997	21496
813.138	21488
813.279	21458
813.421	21272
813.562	21397
813.703	21093
813.845	20982
813.986	20708
814.127	20450
814.268	20442
814.41	20457
814.551	20423
814.692	20427
814.833	20400
814.974	20381
815.115	20263
815.256	20153
815.397	20282
815.539	20237
815.68	20111
815.821	20027
815.962	20122
816.103	20050
816.244	19845
816.385	19799
816.526	19902
816.666	19620
816.807	19499
816.948	19655
817.089	19472
817.23	19502
817.371	19601
817.512	19400
817.653	19525
817.793	19430
817.934	19460
818.075	19601
818.216	19540
818.356	19468
818.497	19457
818.638	19202
818.778	19118
818.919	19194
819.06	19183
819.2	19316
819.341	19460
819.481	19419
819.622	19472
819.762	19696
819.903	19723
820.043	19548
820.184	19476
820.324	19449
820.465	19518
820.605	19472
820.746	19464
820.886	19316
821.026	19499
821.167	19388
821.307	19495
821.447	19373
821.588	19373
821.728	19179
821.868	19122
822.008	18848
822.149	18989
822.289	18833
822.429	18612
822.569	18574
822.709	18559
822.849	18357
822.99	18304
823.13	18391
823.27	18353
823.41	18270
823.55	18148
823.69	18140
823.83	18133
823.97	18041
824.11	17973
824.25	17973
824.389	17942
824.529	17980
824.669	17931
824.809	18019
824.949	18045
825.089	18022
825.228	17927
825.368	17874
825.508	17767
825.648	17703
825.787	17695
825.927	17798
826.067	17714
826.206	17687
826.346	17798
826.485	17707
826.625	17786
826.765	17840
826.904	17726
827.044	17433
827.183	17459
827.323	17417
827.462	17547
827.601	17425
827.741	17391
827.88	17417
828.02	17136
828.159	17318
828.298	17455
828.437	17528
828.577	17277
828.716	17509
828.855	17395
828.994	17223
829.134	17151
829.273	17242
829.412	17079
829.551	17018
829.69	17162
829.829	17128
829.968	17345
830.107	17189
830.246	17124
830.385	17109
830.524	17052
830.663	16968
830.802	16953
830.941	16748
831.08	16706
831.219	16820
831.357	16850
831.496	16953
831.635	16706
831.774	16744
831.913	16694
832.051	16577
832.19	16535
832.329	16596
832.467	16459
832.606	16436
832.744	16386
832.883	16508
833.022	16409
833.16	16493
833.299	16489
833.437	16493
833.576	16599
833.714	16538
833.852	16535
833.991	16497
834.129	16455
834.267	16527
834.406	16580
834.544	16561
834.682	16516
834.821	16519
834.959	16615
835.097	16504
835.235	16523
835.373	16500
835.511	16542
835.65	16348
835.788	16451
835.926	16204
836.064	16272
836.202	16299
836.34	16470
836.478	16508
836.615	16428
836.753	16493
836.891	16462
837.029	16451
837.167	16375
837.305	16402
837.443	16268
837.58	16268
837.718	16356
837.856	16265
837.993	16246
838.131	16295
838.269	16211
838.406	16242
838.544	16101
838.681	16044
838.819	15960
838.956	15915
839.094	15724
839.231	15816
839.369	15972
839.506	16249
839.643	16078
839.781	15869
839.918	15751
840.055	15800
840.193	15663
840.33	15869
840.467	15800
840.604	15926
840.742	16109
840.879	15656
841.016	15785
841.153	15739
841.29	16029
841.427	15838
841.564	15835
841.701	15766
841.838	15690
841.975	15633
842.112	15774
842.249	15515
842.385	15667
842.522	15816
842.659	15603
842.796	15534
842.933	15637
843.069	15485
843.206	15534
843.343	15595
843.479	15686
843.616	15785
843.752	15386
843.889	15298
844.025	15568
844.162	15386
844.298	15458
844.435	15329
844.571	15313
844.708	15473
844.844	15488
844.98	15477
845.117	15507
845.253	15393
845.389	15184
845.525	15351
845.661	15230
845.798	15119
845.934	15176
846.07	15123
846.206	15203
846.342	15310
846.478	15157
846.614	14944
846.75	14918
846.886	14906
847.022	15032
847.158	14971
847.294	15009
847.429	14975
847.565	14864
847.701	15070
847.837	14617
847.972	14648
848.108	14796
848.244	14765
848.379	14617
848.515	14598
848.65	14533
848.786	14514
848.921	14518
849.057	14727
849.192	14549
849.328	14590
849.463	14545
849.598	14507
849.734	14454
849.869	14457
850.004	14343
850.14	14385
850.275	14294
850.41	14282
850.545	14256
850.68	14298
850.815	14313
850.95	14404
851.085	14484
851.22	14351
851.355	14317
851.49	14221
851.625	14324
851.76	14275
851.895	14237
852.03	14149
852.165	14278
852.299	14275
852.434	14347
852.569	14343
852.703	14278
852.838	14415
852.973	14431
853.107	14358
853.242	14229
853.376	14214
853.511	14035
853.645	14187
853.78	14278
853.914	14256
854.048	14084
854.183	14134
854.317	14153
854.451	14370
854.585	14103
854.72	14100
854.854	14218
854.988	14130
855.122	14164
855.256	14035
855.39	14138
855.524	14328
855.658	14233
855.792	14126
855.926	14240
856.06	14195
856.194	14313
856.327	14199
856.461	14138
856.595	14126
856.729	14100
856.862	14252
856.996	14240
857.13	14256
857.263	14278
857.397	14286
857.53	14275
857.664	14206
857.797	14199
857.931	14298
858.064	14187
858.197	14263
858.331	14183
858.464	14142
858.597	14043
858.731	14172
858.864	14134
858.997	14123
859.13	14233
859.263	14172
859.396	14278
859.529	14168
859.662	14081
859.795	14092
859.928	14195
860.061	14290
860.194	14400
860.327	14107
860.46	14233
860.592	14294
860.725	14385
860.858	14218
860.99	14206
861.123	14157
861.256	14103
861.388	14183
861.521	14842
861.653	14039
861.786	13993
861.918	14092
862.05	14111
862.183	14039
862.315	14069
862.447	14191
862.58	14062
862.712	13879
862.844	13868
862.976	14020
863.108	14016
863.24	14408
863.372	13890
863.504	13940
863.636	13917
863.768	14035
863.9	13989
864.032	13928
864.164	13894
864.296	13989
864.428	14054
864.559	14016
864.691	14073
864.823	13913
864.954	13917
865.086	13928
865.217	13845
865.349	13875
865.48	13917
865.612	13959
865.743	14024
865.875	13978
866.006	13894
866.137	13955
866.269	13951
866.4	13917
866.531	13860
866.662	13902
866.793	13890
866.924	13871
867.055	13902
867.186	13963
867.317	13913
867.448	13852
867.579	13875
867.71	13875
867.841	13890
867.972	14001
868.103	13818
868.233	13932
868.364	13970
868.495	14062
868.625	14214
868.756	14248
868.886	14031
869.017	14202
869.147	14328
869.278	14320
869.408	14221
869.539	14149
869.669	14240
869.799	14278
869.929	14381
870.06	14240
870.19	14537
870.32	14492
870.45	14541
870.58	14564
870.71	14655
870.84	14667
870.97	14522
871.1	14583
871.23	14758
871.36	14845
871.489	14716
871.619	14743
871.749	14830
871.879	14762
872.008	14800
872.138	14781
872.267	14785
872.397	14758
872.526	14579
872.656	14590
872.785	14617
872.915	14944
873.044	14880
873.173	14838
873.303	14891
873.432	14902
873.561	14937
873.69	14883
873.819	14868
873.948	14899
874.077	14975
874.206	14758
874.335	14838
874.464	15005
874.593	15116
874.722	15081
874.851	15211
874.979	15157
875.108	15146
875.237	15169
875.365	15112
875.494	15131
875.623	15268
875.751	15142
875.88	15127
876.008	15279
876.136	15256
876.265	15538
876.393	15682
876.521	15572
876.65	15667
876.778	15629
876.906	15549
877.034	15538
877.162	15599
877.29	15492
877.418	15545
877.546	15564
877.674	15515
877.802	15576
877.93	15576
878.058	15523
878.185	15401
878.313	15500
878.441	15625
878.568	15386
878.696	15515
878.824	15629
878.951	15736
879.079	15774
879.206	15926
879.333	15789
879.461	15584
879.588	15663
879.715	15762
879.842	15827
879.97	15591
880.097	15405
880.224	15401
880.351	15435
880.478	15397
880.605	15389
880.732	15420
880.859	15603
880.986	15515
881.112	15454
881.239	15348
881.366	15249
881.493	15142
881.619	15081
881.746	15123
881.872	15077
881.999	15032
882.125	15001
882.252	15093
882.378	15066
882.505	15173
882.631	15058
882.757	14975
882.883	15020
883.01	14773
883.136	14834
883.262	14750
883.388	14746
883.514	14830
883.64	14982
883.766	14842
883.892	14735
884.018	14792
884.143	14910
884.269	15028
884.395	14667
884.52	14571
884.646	14564
884.772	14541
884.897	14473
885.023	14598
885.148	14705
885.274	14807
885.399	14716
885.524	14594
885.65	14602
885.775	14682
885.9	14648
886.025	14750
886.15	14629
886.275	14518
886.4	14507
886.525	14594
886.65	14518
886.775	14583
886.9	14727
887.025	14819
887.149	14575
887.274	14408
887.399	14393
887.523	14332
887.648	14381
887.773	14347
887.897	14461
888.021	14522
888.146	14358
888.27	14499
888.395	14530
888.519	14469
888.643	14533
888.767	14442
888.891	14431
889.015	14339
889.139	14343
889.263	14309
889.387	14343
889.511	14404
889.635	14385
889.759	14172
889.883	14339
890.006	14313
890.13	14347
890.254	14298
890.377	14183
890.501	14161
890.624	14058
890.748	14180
890.871	14069
890.995	13894
891.118	13959
891.241	14065
891.364	14001
891.488	14119
891.611	14081
891.734	14024
891.857	14031
891.98	13978
892.103	14100
892.226	14111
892.349	14008
892.471	13837
892.594	13936
892.717	14046
892.839	13967
892.962	14046
893.085	14027
893.207	14084
893.33	13814
893.452	13898
893.575	14008
893.697	13959
893.819	14138
893.941	14187
894.064	14210
894.186	14005
894.308	13978
894.43	14100
894.552	14259
894.674	14138
894.796	14054
894.918	14115
895.04	14058
895.161	14081
895.283	14119
895.405	14008
895.526	14031
895.648	14195
895.769	14157
895.891	14142
896.012	14199
896.134	14275
896.255	14077
896.376	14191
896.498	14244
896.619	14225
896.74	14164
896.861	14252
896.982	14522
897.103	14670
897.224	14484
897.345	14408
897.466	14351
897.587	14473
897.708	14533
897.828	14423
897.949	14465
898.07	14434
898.19	14324
898.311	14552
898.431	14488
898.552	14590
898.672	14636
898.792	14686
898.913	14552
899.033	14457
899.153	14442
899.273	14408
899.393	14343
899.513	14457
899.633	14404
899.753	14374
899.873	14374
899.993	14457
900.113	14450
900.232	14362
900.352	14465
900.472	14275
900.591	14294
900.711	14240
900.83	14210
900.95	14317
901.069	14400
901.189	14157
901.308	13986
901.427	13936
901.546	13986
901.665	13925
901.784	14008
901.904	13875
902.023	13693
902.141	13556
902.26	13480
902.379	13563
902.498	13529
902.617	13544
902.735	13514
902.854	13514
902.973	13457
903.091	13190
903.21	13255
903.328	13168
903.446	13247
903.565	13160
903.683	13141
903.801	12913
903.919	13046
904.038	13042
904.156	12939
904.274	13065
904.392	12863
904.51	12829
904.627	12909
904.745	13012
904.863	12954
904.981	12662
905.098	12612
905.216	12673
905.334	12635
905.451	12551
905.569	12506
905.686	12662
905.803	12544
905.921	12365
906.038	12536
906.155	12445
906.272	12285
906.389	12311
906.506	12228
906.623	12296
906.74	12148
906.857	12011
906.974	12152
907.091	12292
907.208	12270
907.324	12266
907.441	12121
907.557	11942
907.674	11904
907.79	11882
907.907	11855
908.023	11958
908.139	11931
908.256	11904
908.372	11824
908.488	11843
908.604	11718
908.72	11646
908.836	11604
908.952	11707
909.068	11699
909.184	11748
909.3	11668
909.415	11718
909.531	11695
909.647	11433
909.762	11406
909.878	11398
909.993	11474
910.108	11406
910.224	11417
910.339	11551
910.454	11379
910.57	11330
910.685	11220
910.8	11661
910.915	11532
911.03	11242
911.145	11273
911.259	11090
911.374	11227
911.489	11140
911.604	11136
911.718	10900
911.833	10984
911.947	10809
912.062	10786
912.176	10908
912.291	10885
912.405	10824
912.519	11140
912.633	11121
912.748	10946
912.862	10858
912.976	10812
913.09	10694
913.204	10694
913.318	10782
913.431	10831
913.545	10873
913.659	10889
913.772	10748
913.886	10702
914	10622
914.113	10793
914.226	10839
914.34	10771
914.453	10660
914.566	10759
914.68	10618
914.793	10645
914.906	10394
915.019	10310
915.132	10367
915.245	10337
915.358	10394
915.47	10356
915.583	10409
915.696	10554
915.809	10561
915.921	10618
916.034	10390
916.146	10363
916.259	10390
916.371	10500
916.483	10428
916.595	10325
916.708	10356
916.82	10303
916.932	10322
917.044	10379
917.156	10276
917.268	10234
917.38	10238
917.491	10265
917.603	10238
917.715	10295
917.826	10360
917.938	10185
918.049	10162
918.161	10268
918.272	10466
918.384	10363
918.495	10249
918.606	10177
918.717	10101
918.828	10188
918.939	10207
919.05	9994
919.161	10101
919.272	9953
919.383	10029
919.494	10223
919.604	10337
919.715	10196
919.826	10082
919.936	10139
920.047	10238
920.157	10128
920.267	10333
920.378	10196
920.488	10131
920.598	10295
920.708	10554
920.818	10459
920.928	10295
921.038	10550
921.148	10417
921.258	10253
921.368	10093
921.477	10006
921.587	9983
921.697	9827
921.806	10025
921.916	9907
922.025	9732
922.134	9675
922.244	9637
922.353	9785
922.462	9591
922.571	9530
922.68	9420
922.789	9393
922.898	9477
923.007	9393
923.116	9416
923.224	9393
923.333	9340
923.442	9340
923.55	9241
923.659	9344
923.767	9355
923.876	9218
923.984	9283
924.092	9264
924.201	9218
924.309	9302
924.417	9317
924.525	9199
924.633	9233
924.741	10071
924.849	8986
924.956	9211
925.064	8986
925.172	9013
925.279	8998
925.387	9138
925.494	9036
925.602	9142
925.709	9100
925.816	9017
925.924	9085
926.031	9176
926.138	9085
926.245	9089
926.352	9017
926.459	9135
926.566	9188
926.673	9047
926.779	8864
926.886	8952
926.993	8834
927.099	8804
927.206	8758
927.312	8693
927.419	8849
927.525	8804
927.631	8804
927.737	8667
927.843	8644
927.95	8499
928.056	8640
928.162	8636
928.267	8697
928.373	9382
928.479	8758
928.585	8541
928.69	8587
928.796	8727
928.901	8556
929.007	8427
929.112	8648
929.218	8560
929.323	8522
929.428	8484
929.533	8693
929.638	8469
929.743	8434
929.848	8522
929.953	8522
930.058	8370
930.163	8290
930.267	8279
930.372	8351
930.477	8252
930.581	8518
930.685	8355
930.79	8157
930.894	8275
930.998	8206
931.103	8343
931.207	7917
931.311	7959
931.415	7917
931.519	7727
931.623	7712
