Data from test_V78500241_2895.txt Node
Date: Fri Mar 25 14:53:52 CST 2022
User: usil
Spectrometer: V785-0024
Trigger mode: 0
Integration Time (sec): 4.000000E-1
Scans to average: 1
Nonlinearity correction enabled: false
Boxcar width: 0
Storing dark spectrum: false
XAxis mode: Wavelengths
Number of Pixels in Spectrum: 1024
>>>>>Begin Spectral Data<<<<<
801.071	22139
801.214	22032
801.356	21717
801.499	21667
801.641	21492
801.783	21443
801.926	21431
802.068	21466
802.211	21393
802.353	21214
802.496	21062
802.638	20921
802.78	20864
802.923	20883
803.065	20815
803.208	20861
803.35	20746
803.492	20906
803.635	20967
803.777	20781
803.919	20834
804.061	21135
804.204	20708
804.346	20792
804.488	20773
804.63	20720
804.773	20655
804.915	20765
805.057	20724
805.199	20765
805.341	20727
805.483	20705
805.626	20796
805.768	20609
805.91	20739
806.052	20815
806.194	20499
806.336	20758
806.478	20689
806.62	20697
806.762	20769
806.904	20883
807.046	21203
807.188	20979
807.33	21070
807.472	21039
807.614	21039
807.756	21051
807.898	20781
808.04	20788
808.182	20785
808.324	20705
808.465	20918
808.607	20910
808.749	21062
808.891	21100
809.033	21245
809.174	21161
809.316	20899
809.458	21074
809.6	21013
809.741	21119
809.883	21108
810.025	21233
810.166	21169
810.308	21241
810.45	21195
810.591	21112
810.733	21028
810.875	20952
811.016	20754
811.158	20758
811.299	20891
811.441	20967
811.582	20963
811.724	20883
811.865	20811
812.007	20773
812.148	20853
812.29	20918
812.431	21100
812.573	21093
812.714	21074
812.855	21412
812.997	21401
813.138	21667
813.279	21420
813.421	21359
813.562	21260
813.703	21024
813.845	21013
813.986	20697
814.127	20552
814.268	20492
814.41	20396
814.551	20347
814.692	20522
814.833	20408
814.974	20358
815.115	20415
815.256	20298
815.397	20225
815.539	20157
815.68	20100
815.821	20084
815.962	20043
816.103	20259
816.244	19902
816.385	19803
816.526	19738
816.666	19647
816.807	19491
816.948	19658
817.089	19525
817.23	19499
817.371	19430
817.512	19460
817.653	19426
817.793	19571
817.934	19480
818.075	19495
818.216	19529
818.356	19502
818.497	19400
818.638	19156
818.778	19160
818.919	19175
819.06	19145
819.2	19183
819.341	19415
819.481	19335
819.622	19601
819.762	19803
819.903	19582
820.043	19468
820.184	19457
820.324	19495
820.465	19590
820.605	19434
820.746	19434
820.886	19304
821.026	19392
821.167	19457
821.307	19582
821.447	19472
821.588	19339
821.728	19202
821.868	18852
822.008	18939
822.149	18859
822.289	18958
822.429	18620
822.569	18627
822.709	18635
822.849	18433
822.99	18277
823.13	18429
823.27	18433
823.41	18182
823.55	18045
823.69	18315
823.83	18213
823.97	18011
824.11	17999
824.25	17923
824.389	17965
824.529	17996
824.669	17954
824.809	17992
824.949	17984
825.089	18038
825.228	17961
825.368	17805
825.508	17756
825.648	17786
825.787	17851
825.927	17805
826.067	17722
826.206	17764
826.346	17821
826.485	17703
826.625	17771
826.765	17882
826.904	17908
827.044	17554
827.183	17493
827.323	17501
827.462	17474
827.601	17482
827.741	17391
827.88	17410
828.02	17425
828.159	17406
828.298	17402
828.437	17509
828.577	17459
828.716	17657
828.855	17368
828.994	17185
829.134	17151
829.273	17235
829.412	17216
829.551	17151
829.69	17212
829.829	17220
829.968	17395
830.107	17269
830.246	17353
830.385	17220
830.524	17132
830.663	16908
830.802	16980
830.941	16949
831.08	16774
831.219	16980
831.357	16839
831.496	16999
831.635	16854
831.774	16755
831.913	16744
832.051	16656
832.19	16660
832.329	16691
832.467	16645
832.606	16546
832.744	16554
832.883	16485
833.022	16481
833.16	16470
833.299	16634
833.437	16577
833.576	16615
833.714	16527
833.852	16641
833.991	16550
834.129	16607
834.267	16596
834.406	16538
834.544	16615
834.682	16508
834.821	16531
834.959	16668
835.097	16504
835.235	16664
835.373	16691
835.511	16565
835.65	16440
835.788	16504
835.926	16276
836.064	16219
836.202	16363
836.34	16538
836.478	16558
836.615	16497
836.753	16402
836.891	16565
837.029	16512
837.167	16432
837.305	16371
837.443	16253
837.58	16299
837.718	16413
837.856	16360
837.993	16318
838.131	16402
838.269	16226
838.406	16226
838.544	16204
838.681	16090
838.819	16051
838.956	15861
839.094	15755
839.231	15819
839.369	16036
839.506	16291
839.643	16105
839.781	15892
839.918	15808
840.055	15850
840.193	15812
840.33	15884
840.467	15930
840.604	15823
840.742	16067
840.879	15770
841.016	15743
841.153	15766
841.29	15983
841.427	15903
841.564	15884
841.701	15945
841.838	15819
841.975	15816
842.112	15846
842.249	15762
842.385	15606
842.522	15892
842.659	15675
842.796	15568
842.933	15679
843.069	15591
843.206	15507
843.343	15663
843.479	15625
843.616	15713
843.752	15412
843.889	15405
844.025	15561
844.162	15454
844.298	15523
844.435	15405
844.571	15389
844.708	15374
844.844	15603
844.98	15545
845.117	15618
845.253	15462
845.389	15306
845.525	15397
845.661	15408
845.798	15222
845.934	15370
846.07	15176
846.206	15306
846.342	15340
846.478	15142
846.614	15020
846.75	14944
846.886	14944
847.022	14990
847.158	14937
847.294	14963
847.429	15066
847.565	15047
847.701	15252
847.837	14800
847.972	14674
848.108	14823
848.244	14845
848.379	14644
848.515	14545
848.65	14537
848.786	14590
848.921	14663
849.057	14727
849.192	14743
849.328	14587
849.463	14602
849.598	14545
849.734	14469
849.869	14514
850.004	14339
850.14	14438
850.275	14419
850.41	14191
850.545	14263
850.68	14320
850.815	14442
850.95	14244
851.085	14537
851.22	14419
851.355	14469
851.49	14400
851.625	14339
851.76	14278
851.895	14252
852.03	14229
852.165	14290
852.299	14476
852.434	14465
852.569	14332
852.703	14423
852.838	14374
852.973	14629
853.107	14514
853.242	14381
853.376	14298
853.511	14111
853.645	14221
853.78	14252
853.914	14218
854.048	14267
854.183	14195
854.317	14187
854.451	14396
854.585	14263
854.72	14214
854.854	14278
854.988	14153
855.122	14176
855.256	14084
855.39	14191
855.524	14248
855.658	14343
855.792	14271
855.926	14343
856.06	14339
856.194	14339
856.327	14168
856.461	14134
856.595	14134
856.729	14123
856.862	14267
856.996	14275
857.13	14301
857.263	14317
857.397	14328
857.53	14210
857.664	14358
857.797	14286
857.931	14290
858.064	14240
858.197	14298
858.331	14233
858.464	14259
858.597	14126
858.731	14225
858.864	14187
858.997	14202
859.13	14206
859.263	14320
859.396	14271
859.529	14164
859.662	14138
859.795	14126
859.928	14142
860.061	14336
860.194	14408
860.327	14252
860.46	14225
860.592	14267
860.725	14355
860.858	14351
860.99	14210
861.123	14142
861.256	14233
861.388	14275
861.521	14868
861.653	14180
861.786	14058
861.918	14100
862.05	14199
862.183	14210
862.315	14282
862.447	14332
862.58	14153
862.712	14001
862.844	13997
862.976	14012
863.108	14065
863.24	14317
863.372	13955
863.504	14043
863.636	14077
863.768	14081
863.9	14096
864.032	14005
864.164	13978
864.296	14024
864.428	14107
864.559	14088
864.691	14180
864.823	14096
864.954	14050
865.086	14020
865.217	13970
865.349	13902
865.48	13913
865.612	14088
865.743	14130
865.875	14027
866.006	13993
866.137	13978
866.269	13963
866.4	13993
866.531	13928
866.662	13898
866.793	13986
866.924	13963
867.055	13978
867.186	14020
867.317	13913
867.448	13898
867.579	13822
867.71	13925
867.841	13818
867.972	14001
868.103	14058
868.233	13986
868.364	14001
868.495	14058
868.625	14259
868.756	14332
868.886	14168
869.017	14187
869.147	14389
869.278	14362
869.408	14221
869.539	14275
869.669	14237
869.799	14305
869.929	14347
870.06	14298
870.19	14617
870.32	14655
870.45	14617
870.58	14648
870.71	14773
870.84	14708
870.97	14670
871.1	14533
871.23	14868
871.36	14849
871.489	14720
871.619	14819
871.749	14807
871.879	14937
872.008	14944
872.138	14880
872.267	14819
872.397	14758
872.526	14731
872.656	14552
872.785	14678
872.915	14838
873.044	14906
873.173	14804
873.303	14887
873.432	14902
873.561	14918
873.69	14921
873.819	14880
873.948	14963
874.077	14887
874.206	14823
874.335	14975
874.464	15013
874.593	15192
874.722	15036
874.851	15264
874.979	15119
875.108	15211
875.237	15214
875.365	15146
875.494	15214
875.623	15272
875.751	15161
875.88	15344
876.008	15439
876.136	15458
876.265	15580
876.393	15743
876.521	15720
876.65	15671
876.778	15641
876.906	15561
877.034	15534
877.162	15648
877.29	15526
877.418	15736
877.546	15660
877.674	15644
877.802	15625
877.93	15667
878.058	15713
878.185	15526
878.313	15553
878.441	15584
878.568	15492
878.696	15504
878.824	15610
878.951	15614
879.079	15759
879.206	15949
879.333	15747
879.461	15641
879.588	15743
879.715	15762
879.842	15922
879.97	15713
880.097	15397
880.224	15462
880.351	15568
880.478	15549
880.605	15462
880.732	15443
880.859	15698
880.986	15500
881.112	15492
881.239	15325
881.366	15329
881.493	15241
881.619	15066
881.746	15112
881.872	15131
881.999	15211
882.125	15093
882.252	15195
882.378	15218
882.505	15363
882.631	15142
882.757	14990
882.883	14902
883.01	14929
883.136	14792
883.262	14830
883.388	14781
883.514	14830
883.64	14990
883.766	14914
883.892	14781
884.018	14739
884.143	14868
884.269	14941
884.395	14682
884.52	14655
884.646	14590
884.772	14594
884.897	14552
885.023	14644
885.148	14792
885.274	14769
885.399	14754
885.524	14667
885.65	14636
885.775	14758
885.9	14655
886.025	14750
886.15	14788
886.275	14667
886.4	14537
886.525	14545
886.65	14602
886.775	14560
886.9	14804
887.025	14838
887.149	14678
887.274	14427
887.399	14465
887.523	14423
887.648	14469
887.773	14336
887.897	14511
888.021	14495
888.146	14438
888.27	14590
888.395	14670
888.519	14503
888.643	14461
888.767	14476
888.891	14495
889.015	14362
889.139	14351
889.263	14286
889.387	14499
889.511	14488
889.635	14419
889.759	14366
889.883	14256
890.006	14313
890.13	14473
890.254	14336
890.377	14313
890.501	14161
890.624	14107
890.748	14244
890.871	14111
890.995	14027
891.118	13997
891.241	14043
891.364	14050
891.488	14240
891.611	14058
891.734	14050
891.857	14084
891.98	14107
892.103	14157
892.226	14077
892.349	14020
892.471	14008
892.594	14054
892.717	13997
892.839	14005
892.962	14096
893.085	14062
893.207	14043
893.33	13978
893.452	13997
893.575	14024
893.697	14027
893.819	14157
893.941	14237
894.064	14145
894.186	14084
894.308	14039
894.43	14145
894.552	14214
894.674	14233
894.796	13982
894.918	13970
895.04	14058
895.161	14130
895.283	14130
895.405	14050
895.526	14172
895.648	14233
895.769	14202
895.891	14191
896.012	14237
896.134	14263
896.255	14305
896.376	14248
896.498	14240
896.619	14290
896.74	14244
896.861	14301
896.982	14549
897.103	14648
897.224	14594
897.345	14530
897.466	14404
897.587	14465
897.708	14579
897.828	14587
897.949	14484
898.07	14362
898.19	14499
898.311	14606
898.431	14484
898.552	14594
898.672	14689
898.792	14651
898.913	14587
899.033	14469
899.153	14408
899.273	14301
899.393	14408
899.513	14446
899.633	14317
899.753	14427
899.873	14446
899.993	14507
900.113	14400
900.232	14492
900.352	14324
900.472	14294
900.591	14263
900.711	14305
900.83	14278
900.95	14370
901.069	14358
901.189	14233
901.308	14043
901.427	13890
901.546	13928
901.665	14046
901.784	14054
901.904	13887
902.023	13761
902.141	13632
902.26	13491
902.379	13677
902.498	13601
902.617	13495
902.735	13601
902.854	13548
902.973	13483
903.091	13285
903.21	13266
903.328	13228
903.446	13110
903.565	13221
903.683	13133
903.801	12973
903.919	13149
904.038	13156
904.156	12821
904.274	13061
904.392	12886
904.51	12882
904.627	12856
904.745	13000
904.863	12954
904.981	12658
905.098	12589
905.216	12665
905.334	12665
905.451	12589
905.569	12608
905.686	12730
905.803	12582
905.921	12494
906.038	12551
906.155	12403
906.272	12300
906.389	12384
906.506	12220
906.623	12300
906.74	12228
906.857	12079
906.974	12163
907.091	12319
907.208	12304
907.324	12235
907.441	12125
907.557	11923
907.674	12030
907.79	11866
907.907	11897
908.023	11954
908.139	11954
908.256	11821
908.372	11935
908.488	11779
908.604	11760
908.72	11680
908.836	11642
908.952	11611
909.068	11718
909.184	11775
909.3	11691
909.415	11809
909.531	11767
909.647	11482
909.762	11486
909.878	11505
909.993	11581
910.108	11444
910.224	11474
910.339	11444
910.454	11459
910.57	11307
910.685	11353
910.8	11581
910.915	11391
911.03	11318
911.145	11189
911.259	11140
911.374	11159
911.489	11079
911.604	11041
911.718	10919
911.833	10904
911.947	10793
912.062	10771
912.176	10942
912.291	10908
912.405	10927
912.519	11109
912.633	11174
912.748	11109
912.862	10949
912.976	10843
913.09	10733
913.204	10778
913.318	10858
913.431	10938
913.545	10881
913.659	10976
913.772	10881
913.886	10733
914	10733
914.113	10771
914.226	10767
914.34	10862
914.453	10546
914.566	10721
914.68	10691
914.793	10687
914.906	10485
915.019	10493
915.132	10310
915.245	10436
915.358	10523
915.47	10550
915.583	10360
915.696	10459
915.809	10580
915.921	10565
916.034	10371
916.146	10405
916.259	10303
916.371	10493
916.483	10348
916.595	10356
916.708	10379
916.82	10314
916.932	10363
917.044	10337
917.156	10276
917.268	10303
917.38	10238
917.491	10223
917.603	10341
917.715	10318
917.826	10386
917.938	10211
918.049	10154
918.161	10207
918.272	10398
918.384	10432
918.495	10329
918.606	10124
918.717	10147
918.828	10135
918.939	10124
919.05	10021
919.161	10166
919.272	9964
919.383	10021
919.494	10185
919.604	10348
919.715	10143
919.826	10120
919.936	10181
920.047	10272
920.157	10261
920.267	10382
920.378	10242
920.488	10173
920.598	10329
920.708	10512
920.818	10341
920.928	10310
921.038	10538
921.148	10512
921.258	10219
921.368	10143
921.477	9937
921.587	10032
921.697	9903
921.806	10078
921.916	9998
922.025	9762
922.134	9728
922.244	9682
922.353	9778
922.462	9629
922.571	9614
922.68	9405
922.789	9405
922.898	9416
923.007	9408
923.116	9473
923.224	9447
923.333	9351
923.442	9348
923.55	9264
923.659	9325
923.767	9340
923.876	9241
923.984	9298
924.092	9283
924.201	9291
924.309	9378
924.417	9298
924.525	9283
924.633	9272
924.741	10284
924.849	9077
924.956	9176
925.064	9093
925.172	8948
925.279	9017
925.387	9154
925.494	9165
925.602	9214
925.709	9195
925.816	9013
925.924	9074
926.031	9192
926.138	9100
926.245	9131
926.352	9066
926.459	9116
926.566	9226
926.673	9108
926.779	8933
926.886	8944
926.993	8796
927.099	8807
927.206	8693
927.312	8746
927.419	8883
927.525	8785
927.631	8815
927.737	8712
927.843	8724
927.95	8560
928.056	8625
928.162	8739
928.267	8743
928.373	9348
928.479	8800
928.585	8564
928.69	8629
928.796	8750
928.901	8640
929.007	8476
929.112	8640
929.218	8617
929.323	8526
929.428	8533
929.533	8682
929.638	8431
929.743	8560
929.848	8537
929.953	8488
930.058	8454
930.163	8275
930.267	8355
930.372	8434
930.477	8221
930.581	8488
930.685	8332
930.79	8206
930.894	8305
930.998	8221
931.103	8408
931.207	8062
931.311	7932
931.415	7917
931.519	7788
931.623	7719
