Data from test_V78500241_3520.txt Node
Date: Fri Mar 25 14:58:13 CST 2022
User: usil
Spectrometer: V785-0024
Trigger mode: 0
Integration Time (sec): 4.000000E-1
Scans to average: 1
Nonlinearity correction enabled: false
Boxcar width: 0
Storing dark spectrum: false
XAxis mode: Wavelengths
Number of Pixels in Spectrum: 1024
>>>>>Begin Spectral Data<<<<<
801.071	21903
801.214	21793
801.356	21648
801.499	21359
801.641	21298
801.783	21256
801.926	21321
802.068	21218
802.211	21192
802.353	21047
802.496	20823
802.638	20693
802.78	20708
802.923	20507
803.065	20602
803.208	20549
803.35	20488
803.492	20735
803.635	20678
803.777	20571
803.919	20636
804.061	20868
804.204	20731
804.346	20492
804.488	20590
804.63	20617
804.773	20396
804.915	20518
805.057	20602
805.199	20431
805.341	20583
805.483	20488
805.626	20549
805.768	20423
805.91	20537
806.052	20537
806.194	20438
806.336	20549
806.478	20446
806.62	20431
806.762	20568
806.904	20640
807.046	20902
807.188	20743
807.33	20777
807.472	20853
807.614	20617
807.756	20777
807.898	20682
808.04	20583
808.182	20625
808.324	20495
808.465	20686
808.607	20693
808.749	20857
808.891	20925
809.033	20994
809.174	20796
809.316	20899
809.458	20823
809.6	20781
809.741	20925
809.883	20899
810.025	20929
810.166	20876
810.308	20910
810.45	20880
810.591	20918
810.733	20644
810.875	20625
811.016	20556
811.158	20358
811.299	20708
811.441	20842
811.582	20842
811.724	20648
811.865	20625
812.007	20560
812.148	20480
812.29	20689
812.431	20708
812.573	20925
812.714	21024
812.855	21123
812.997	21100
813.138	21268
813.279	21192
813.421	21104
813.562	20941
813.703	20758
813.845	20785
813.986	20503
814.127	20259
814.268	20202
814.41	20240
814.551	20065
814.692	20107
814.833	19982
814.974	20020
815.115	20111
815.256	19978
815.397	19909
815.539	20069
815.68	19841
815.821	19795
815.962	19852
816.103	19731
816.244	19742
816.385	19696
816.526	19624
816.666	19388
816.807	19312
816.948	19358
817.089	19354
817.23	19221
817.371	19335
817.512	19358
817.653	19202
817.793	19225
817.934	19293
818.075	19320
818.216	19187
818.356	19198
818.497	19118
818.638	18924
818.778	18939
818.919	19027
819.06	18939
819.2	19228
819.341	19171
819.481	19236
819.622	19244
819.762	19384
819.903	19373
820.043	19289
820.184	19285
820.324	19278
820.465	19278
820.605	19232
820.746	19244
820.886	18996
821.026	19213
821.167	19171
821.307	19209
821.447	19228
821.588	19065
821.728	18916
821.868	18779
822.008	18665
822.149	18677
822.289	18589
822.429	18452
822.569	18388
822.709	18327
822.849	18102
822.99	18114
823.13	18144
823.27	18140
823.41	18034
823.55	17893
823.69	17954
823.83	18049
823.97	17901
824.11	17642
824.25	17718
824.389	17752
824.529	17771
824.669	17813
824.809	17923
824.949	17847
825.089	17843
825.228	17817
825.368	17570
825.508	17482
825.648	17448
825.787	17558
825.927	17623
826.067	17440
826.206	17509
826.346	17566
826.485	17585
826.625	17471
826.765	17520
826.904	17543
827.044	17326
827.183	17444
827.323	17128
827.462	17223
827.601	17151
827.741	17223
827.88	17181
828.02	17025
828.159	17170
828.298	17296
828.437	17250
828.577	17143
828.716	17265
828.855	17128
828.994	17033
829.134	16957
829.273	16995
829.412	16923
829.551	16896
829.69	16953
829.829	16976
829.968	17060
830.107	16938
830.246	17060
830.385	16862
830.524	16847
830.663	16854
830.802	16691
830.941	16573
831.08	16596
831.219	16645
831.357	16660
831.496	16866
831.635	16611
831.774	16493
831.913	16504
832.051	16405
832.19	16348
832.329	16554
832.467	16268
832.606	16295
832.744	16154
832.883	16265
833.022	16295
833.16	16215
833.299	16390
833.437	16249
833.576	16280
833.714	16428
833.852	16386
833.991	16261
834.129	16390
834.267	16447
834.406	16421
834.544	16360
834.682	16360
834.821	16394
834.959	16573
835.097	16455
835.235	16440
835.373	16485
835.511	16375
835.65	16200
835.788	16234
835.926	16154
836.064	16082
836.202	16097
836.34	16272
836.478	16390
836.615	16284
836.753	16360
836.891	16382
837.029	16200
837.167	16268
837.305	16219
837.443	16093
837.58	16147
837.718	16211
837.856	16131
837.993	16074
838.131	16185
838.269	16082
838.406	16185
838.544	16067
838.681	15960
838.819	15766
838.956	15728
839.094	15705
839.231	15850
839.369	15880
839.506	16112
839.643	15941
839.781	15671
839.918	15648
840.055	15812
840.193	15709
840.33	15717
840.467	15690
840.604	15652
840.742	15907
840.879	15553
841.016	15675
841.153	15584
841.29	15831
841.427	15724
841.564	15781
841.701	15770
841.838	15671
841.975	15599
842.112	15576
842.249	15599
842.385	15428
842.522	15724
842.659	15534
842.796	15443
842.933	15553
843.069	15523
843.206	15507
843.343	15515
843.479	15561
843.616	15443
843.752	15344
843.889	15287
844.025	15367
844.162	15283
844.298	15382
844.435	15351
844.571	15359
844.708	15378
844.844	15462
844.98	15439
845.117	15435
845.253	15176
845.389	15108
845.525	15169
845.661	15043
845.798	15108
845.934	15097
846.07	15043
846.206	15093
846.342	15237
846.478	14971
846.614	14902
846.75	14899
846.886	14788
847.022	14906
847.158	14952
847.294	14895
847.429	14868
847.565	14804
847.701	15070
847.837	14644
847.972	14545
848.108	14693
848.244	14686
848.379	14606
848.515	14473
848.65	14461
848.786	14476
848.921	14442
849.057	14568
849.192	14526
849.328	14522
849.463	14438
849.598	14355
849.734	14336
849.869	14309
850.004	14256
850.14	14347
850.275	14252
850.41	14176
850.545	14202
850.68	14176
850.815	14259
850.95	14180
851.085	14343
851.22	14381
851.355	14313
851.49	14164
851.625	14138
851.76	14183
851.895	14126
852.03	14016
852.165	14157
852.299	14176
852.434	14282
852.569	14210
852.703	14134
852.838	14313
852.973	14313
853.107	14358
853.242	14202
853.376	14126
853.511	13970
853.645	14062
853.78	14202
853.914	14096
854.048	14062
854.183	14058
854.317	14062
854.451	14244
854.585	14046
854.72	14073
854.854	14138
854.988	14043
855.122	14077
855.256	13978
855.39	14149
855.524	14134
855.658	14183
855.792	14103
855.926	14084
856.06	14225
856.194	14183
856.327	14046
856.461	14119
856.595	14119
856.729	14092
856.862	14206
856.996	14126
857.13	14176
857.263	14305
857.397	14187
857.53	14130
857.664	14123
857.797	14237
857.931	14164
858.064	14046
858.197	14180
858.331	14031
858.464	14050
858.597	14050
858.731	14069
858.864	14111
858.997	14031
859.13	14130
859.263	14088
859.396	14164
859.529	14134
859.662	14092
859.795	14130
859.928	14054
860.061	14282
860.194	14282
860.327	14225
860.46	14142
860.592	14229
860.725	14153
860.858	14259
860.99	14077
861.123	14103
861.256	14077
861.388	14214
861.521	14902
861.653	14050
861.786	14005
861.918	13925
862.05	14043
862.183	14119
862.315	14043
862.447	14111
862.58	13997
862.712	13951
862.844	13818
862.976	13955
863.108	13947
863.24	14244
863.372	13894
863.504	13879
863.636	13868
863.768	13955
863.9	13864
864.032	13852
864.164	13871
864.296	13928
864.428	14031
864.559	13902
864.691	13917
864.823	13928
864.954	13906
865.086	13921
865.217	13963
865.349	13833
865.48	13822
865.612	13906
865.743	14024
865.875	13951
866.006	13826
866.137	13845
866.269	13856
866.4	13955
866.531	13887
866.662	13795
866.793	13791
866.924	13837
867.055	13932
867.186	13849
867.317	13879
867.448	13818
867.579	13833
867.71	13902
867.841	13818
867.972	13928
868.103	13913
868.233	13822
868.364	13841
868.495	13970
868.625	14092
868.756	14221
868.886	14001
869.017	14107
869.147	14240
869.278	14309
869.408	14130
869.539	14191
869.669	14240
869.799	14142
869.929	14195
870.06	14233
870.19	14431
870.32	14351
870.45	14412
870.58	14499
870.71	14518
870.84	14613
870.97	14514
871.1	14427
871.23	14754
871.36	14678
871.489	14705
871.619	14788
871.749	14735
871.879	14716
872.008	14956
872.138	14746
872.267	14781
872.397	14613
872.526	14499
872.656	14568
872.785	14583
872.915	14788
873.044	14815
873.173	14800
873.303	14834
873.432	14777
873.561	14944
873.69	14823
873.819	14743
873.948	14857
874.077	14769
874.206	14712
874.335	14727
874.464	14880
874.593	15195
874.722	14971
874.851	15131
874.979	15093
875.108	15089
875.237	15104
875.365	14994
875.494	15081
875.623	15249
875.751	15112
875.88	15169
876.008	15211
876.136	15325
876.265	15584
876.393	15686
876.521	15622
876.65	15595
876.778	15549
876.906	15462
877.034	15485
877.162	15614
877.29	15443
877.418	15538
877.546	15526
877.674	15606
877.802	15473
877.93	15538
878.058	15553
878.185	15386
878.313	15435
878.441	15500
878.568	15367
878.696	15496
878.824	15454
878.951	15572
879.079	15728
879.206	15709
879.333	15648
879.461	15504
879.588	15660
879.715	15618
879.842	15880
879.97	15603
880.097	15313
880.224	15355
880.351	15348
880.478	15450
880.605	15317
880.732	15386
880.859	15542
880.986	15386
881.112	15359
881.239	15275
881.366	15146
881.493	15119
881.619	15032
881.746	14952
881.872	15154
881.999	15028
882.125	15051
882.252	15146
882.378	15062
882.505	15138
882.631	15024
882.757	14838
882.883	14921
883.01	14830
883.136	14815
883.262	14842
883.388	14674
883.514	14785
883.64	14830
883.766	14823
883.892	14705
884.018	14701
884.143	14876
884.269	14883
884.395	14712
884.52	14442
884.646	14465
884.772	14507
884.897	14431
885.023	14552
885.148	14796
885.274	14773
885.399	14636
885.524	14590
885.65	14556
885.775	14651
885.9	14518
886.025	14617
886.15	14568
886.275	14564
886.4	14408
886.525	14549
886.65	14537
886.775	14473
886.9	14667
887.025	14724
887.149	14594
887.274	14355
887.399	14332
887.523	14358
887.648	14263
887.773	14290
887.897	14526
888.021	14408
888.146	14377
888.27	14503
888.395	14522
888.519	14419
888.643	14442
888.767	14450
888.891	14355
889.015	14286
889.139	14355
889.263	14183
889.387	14328
889.511	14415
889.635	14442
889.759	14256
889.883	14233
890.006	14385
890.13	14431
890.254	14199
890.377	14259
890.501	14084
890.624	14130
890.748	14202
890.871	14039
890.995	13932
891.118	13879
891.241	13944
891.364	13982
891.488	14054
891.611	13928
891.734	13913
891.857	14020
891.98	13989
892.103	13917
892.226	14054
892.349	13947
892.471	13811
892.594	13906
892.717	14054
892.839	13936
892.962	13940
893.085	13997
893.207	13982
893.33	13902
893.452	13860
893.575	13997
893.697	13837
893.819	14149
893.941	14252
894.064	14206
894.186	13932
894.308	13947
894.43	14111
894.552	14229
894.674	14180
894.796	14073
894.918	14035
895.04	13909
895.161	14077
895.283	14043
895.405	13967
895.526	14046
895.648	14058
895.769	14126
895.891	14157
896.012	14176
896.134	14180
896.255	14039
896.376	14077
896.498	14164
896.619	14225
896.74	14073
896.861	14096
896.982	14503
897.103	14617
897.224	14412
897.345	14313
897.466	14305
897.587	14484
897.708	14492
897.828	14389
897.949	14358
898.07	14233
898.19	14347
898.311	14522
898.431	14423
898.552	14530
898.672	14583
898.792	14492
898.913	14541
899.033	14415
899.153	14336
899.273	14286
899.393	14336
899.513	14362
899.633	14362
899.753	14366
899.873	14347
899.993	14396
900.113	14336
900.232	14366
900.352	14305
900.472	14271
900.591	14191
900.711	14180
900.83	14180
900.95	14309
901.069	14290
901.189	14134
901.308	13868
901.427	13753
901.546	13902
901.665	13921
901.784	13868
901.904	13712
902.023	13734
902.141	13426
902.26	13377
902.379	13518
902.498	13388
902.617	13411
902.735	13483
902.854	13438
902.973	13392
903.091	13183
903.21	13069
903.328	13168
903.446	13084
903.565	12985
903.683	13129
903.801	12981
903.919	13015
904.038	13065
904.156	12913
904.274	12920
904.392	12913
904.51	12768
904.627	12886
904.745	12916
904.863	12894
904.981	12677
905.098	12532
905.216	12563
905.334	12509
905.451	12597
905.569	12441
905.686	12502
905.803	12479
905.921	12319
906.038	12365
906.155	12372
906.272	12152
906.389	12372
906.506	12087
906.623	12121
906.74	12102
906.857	12011
906.974	12060
907.091	12182
907.208	12270
907.324	12159
907.441	12121
907.557	11870
907.674	11973
907.79	11840
907.907	11802
908.023	11889
908.139	11802
908.256	11748
908.372	11843
908.488	11741
908.604	11752
908.72	11535
908.836	11680
908.952	11642
909.068	11577
909.184	11760
909.3	11672
909.415	11695
909.531	11680
909.647	11478
909.762	11421
909.878	11356
909.993	11433
910.108	11273
910.224	11364
910.339	11360
910.454	11322
910.57	11303
910.685	11280
910.8	11463
910.915	11486
911.03	11353
911.145	11174
911.259	11109
911.374	11178
911.489	11060
911.604	10984
911.718	10869
911.833	10828
911.947	10801
912.062	10683
912.176	10904
912.291	10858
912.405	10881
912.519	11079
912.633	11109
912.748	10869
912.862	10892
912.976	10797
913.09	10675
913.204	10698
913.318	10740
913.431	10793
913.545	10889
913.659	10858
913.772	10736
913.886	10660
914	10637
914.113	10744
914.226	10809
914.34	10759
914.453	10512
914.566	10698
914.68	10573
914.793	10542
914.906	10405
915.019	10386
915.132	10303
915.245	10344
915.358	10280
915.47	10386
915.583	10413
915.696	10432
915.809	10542
915.921	10554
916.034	10432
916.146	10352
916.259	10325
916.371	10451
916.483	10424
916.595	10363
916.708	10352
916.82	10329
916.932	10348
917.044	10322
917.156	10257
917.268	10257
917.38	10154
917.491	10230
917.603	10287
917.715	10253
917.826	10280
917.938	10284
918.049	10090
918.161	10284
918.272	10344
918.384	10386
918.495	10280
918.606	10082
918.717	10067
918.828	10135
918.939	10139
919.05	9964
919.161	10131
919.272	9892
919.383	9956
919.494	10234
919.604	10341
919.715	10112
919.826	10021
919.936	10021
920.047	10211
920.157	10128
920.267	10295
920.378	10131
920.488	10093
920.598	10268
920.708	10394
920.818	10436
920.928	10322
921.038	10500
921.148	10497
921.258	10067
921.368	10105
921.477	10002
921.587	9975
921.697	9895
921.806	10036
921.916	9903
922.025	9755
922.134	9648
922.244	9587
922.353	9618
922.462	9587
922.571	9530
922.68	9386
922.789	9393
922.898	9397
923.007	9355
923.116	9340
923.224	9363
923.333	9359
923.442	9313
923.55	9199
923.659	9310
923.767	9313
923.876	9211
923.984	9317
924.092	9173
924.201	9306
924.309	9211
924.417	9241
924.525	9131
924.633	9298
924.741	9918
924.849	9009
924.956	9138
925.064	9028
925.172	8899
925.279	9020
925.387	9085
925.494	8963
925.602	9150
925.709	9176
925.816	8975
925.924	9074
926.031	9146
926.138	8986
926.245	9051
926.352	8956
926.459	8994
926.566	9142
926.673	9032
926.779	8895
926.886	8887
926.993	8766
927.099	8739
927.206	8739
927.312	8678
927.419	8861
927.525	8777
927.631	8830
927.737	8632
927.843	8602
927.95	8552
928.056	8659
928.162	8743
928.267	8674
928.373	9287
928.479	8811
928.585	8518
928.69	8644
928.796	8648
928.901	8549
929.007	8507
929.112	8575
929.218	8564
929.323	8465
929.428	8457
929.533	8636
929.638	8431
929.743	8419
929.848	8499
929.953	8450
930.058	8320
930.163	8279
930.267	8271
930.372	8393
930.477	8176
930.581	8484
930.685	8358
930.79	8176
930.894	8161
930.998	8161
931.103	8347
931.207	8016
931.311	7947
931.415	7894
931.519	7674
931.623	7666
