Data from test_V78500241_3107.txt Node
Date: Fri Mar 25 14:55:20 CST 2022
User: usil
Spectrometer: V785-0024
Trigger mode: 0
Integration Time (sec): 4.000000E-1
Scans to average: 1
Nonlinearity correction enabled: false
Boxcar width: 0
Storing dark spectrum: false
XAxis mode: Wavelengths
Number of Pixels in Spectrum: 1024
>>>>>Begin Spectral Data<<<<<
801.071	22036
801.214	21937
801.356	21755
801.499	21614
801.641	21504
801.783	21340
801.926	21458
802.068	21378
802.211	21336
802.353	21188
802.496	20960
802.638	20765
802.78	20918
802.923	20648
803.065	20796
803.208	20705
803.35	20804
803.492	20902
803.635	20918
803.777	20788
803.919	20891
804.061	21070
804.204	20796
804.346	20708
804.488	20655
804.63	20693
804.773	20670
804.915	20708
805.057	20674
805.199	20609
805.341	20705
805.483	20765
805.626	20792
805.768	20575
805.91	20712
806.052	20640
806.194	20644
806.336	20842
806.478	20712
806.62	20621
806.762	20686
806.904	20773
807.046	20967
807.188	20906
807.33	20990
807.472	21055
807.614	20864
807.756	20914
807.898	20762
808.04	20750
808.182	20785
808.324	20644
808.465	20807
808.607	21043
808.749	21024
808.891	21096
809.033	21211
809.174	20971
809.316	21017
809.458	21032
809.6	20941
809.741	21119
809.883	21161
810.025	21192
810.166	21157
810.308	21192
810.45	21249
810.591	21047
810.733	20941
810.875	20857
811.016	20693
811.158	20701
811.299	20880
811.441	20918
811.582	20845
811.724	20777
811.865	20792
812.007	20838
812.148	20689
812.29	20777
812.431	20979
812.573	21032
812.714	21074
812.855	21211
812.997	21344
813.138	21488
813.279	21336
813.421	21275
813.562	21256
813.703	21089
813.845	20902
813.986	20564
814.127	20381
814.268	20404
814.41	20351
814.551	20332
814.692	20358
814.833	20301
814.974	20336
815.115	20309
815.256	20214
815.397	20122
815.539	20145
815.68	20100
815.821	20058
815.962	20187
816.103	20016
816.244	19871
816.385	19852
816.526	19811
816.666	19700
816.807	19499
816.948	19567
817.089	19647
817.23	19518
817.371	19483
817.512	19514
817.653	19445
817.793	19381
817.934	19426
818.075	19396
818.216	19548
818.356	19373
818.497	19266
818.638	19118
818.778	19088
818.919	19225
819.06	19148
819.2	19293
819.341	19400
819.481	19251
819.622	19445
819.762	19689
819.903	19578
820.043	19518
820.184	19453
820.324	19453
820.465	19415
820.605	19506
820.746	19415
820.886	19312
821.026	19521
821.167	19407
821.307	19514
821.447	19274
821.588	19312
821.728	19057
821.868	18981
822.008	18817
822.149	18844
822.289	18814
822.429	18650
822.569	18452
822.709	18536
822.849	18372
822.99	18315
823.13	18315
823.27	18251
823.41	18060
823.55	18072
823.69	18163
823.83	18155
823.97	18083
824.11	17939
824.25	17916
824.389	17893
824.529	17908
824.669	17920
824.809	17973
824.949	18007
825.089	17935
825.228	17916
825.368	17684
825.508	17783
825.648	17646
825.787	17729
825.927	17726
826.067	17634
826.206	17573
826.346	17676
826.485	17722
826.625	17551
826.765	17832
826.904	17756
827.044	17406
827.183	17452
827.323	17353
827.462	17554
827.601	17402
827.741	17337
827.88	17379
828.02	17311
828.159	17387
828.298	17444
828.437	17463
828.577	17349
828.716	17532
828.855	17383
828.994	17174
829.134	17109
829.273	17143
829.412	17037
829.551	17045
829.69	17075
829.829	17109
829.968	17246
830.107	17174
830.246	17204
830.385	17052
830.524	17121
830.663	16892
830.802	16900
830.941	16755
831.08	16691
831.219	16820
831.357	16767
831.496	16911
831.635	16721
831.774	16641
831.913	16615
832.051	16497
832.19	16489
832.329	16554
832.467	16413
832.606	16478
832.744	16371
832.883	16375
833.022	16352
833.16	16466
833.299	16386
833.437	16386
833.576	16481
833.714	16523
833.852	16398
833.991	16565
834.129	16599
834.267	16413
834.406	16424
834.544	16379
834.682	16447
834.821	16421
834.959	16672
835.097	16569
835.235	16508
835.373	16558
835.511	16489
835.65	16402
835.788	16322
835.926	16192
836.064	16150
836.202	16188
836.34	16371
836.478	16519
836.615	16379
836.753	16386
836.891	16512
837.029	16489
837.167	16333
837.305	16223
837.443	16306
837.58	16242
837.718	16402
837.856	16280
837.993	16230
838.131	16276
838.269	16211
838.406	16124
838.544	16185
838.681	15941
838.819	15956
838.956	15823
839.094	15850
839.231	15808
839.369	15888
839.506	16086
839.643	16048
839.781	15797
839.918	15690
840.055	15804
840.193	15793
840.33	15736
840.467	15732
840.604	15793
840.742	16101
840.879	15694
841.016	15675
841.153	15587
841.29	15949
841.427	15873
841.564	15869
841.701	15717
841.838	15736
841.975	15671
842.112	15713
842.249	15606
842.385	15553
842.522	15633
842.659	15526
842.796	15500
842.933	15538
843.069	15584
843.206	15584
843.343	15644
843.479	15553
843.616	15671
843.752	15469
843.889	15291
844.025	15557
844.162	15298
844.298	15428
844.435	15348
844.571	15310
844.708	15386
844.844	15511
844.98	15542
845.117	15561
845.253	15317
845.389	15188
845.525	15252
845.661	15256
845.798	15180
845.934	15207
846.07	15100
846.206	15195
846.342	15226
846.478	15142
846.614	15051
846.75	14933
846.886	14944
847.022	15032
847.158	14941
847.294	15024
847.429	14944
847.565	14929
847.701	15146
847.837	14663
847.972	14648
848.108	14785
848.244	14781
848.379	14606
848.515	14484
848.65	14541
848.786	14476
848.921	14476
849.057	14678
849.192	14587
849.328	14537
849.463	14473
849.598	14522
849.734	14450
849.869	14412
850.004	14355
850.14	14294
850.275	14290
850.41	14183
850.545	14183
850.68	14271
850.815	14233
850.95	14328
851.085	14484
851.22	14423
851.355	14313
851.49	14263
851.625	14225
851.76	14259
851.895	14164
852.03	14237
852.165	14347
852.299	14278
852.434	14309
852.569	14351
852.703	14355
852.838	14282
852.973	14427
853.107	14324
853.242	14233
853.376	14153
853.511	14024
853.645	14123
853.78	14351
853.914	14191
854.048	14149
854.183	14005
854.317	14168
854.451	14328
854.585	14088
854.72	14138
854.854	14237
854.988	14081
855.122	14126
855.256	14092
855.39	14199
855.524	14240
855.658	14126
855.792	14244
855.926	14157
856.06	14282
856.194	14187
856.327	14172
856.461	14084
856.595	14027
856.729	14077
856.862	14271
856.996	14237
857.13	14256
857.263	14309
857.397	14309
857.53	14126
857.664	14294
857.797	14290
857.931	14191
858.064	14180
858.197	14202
858.331	14100
858.464	14176
858.597	14050
858.731	14084
858.864	14233
858.997	14134
859.13	14161
859.263	14206
859.396	14278
859.529	14126
859.662	14081
859.795	14084
859.928	14267
860.061	14358
860.194	14317
860.327	14145
860.46	14142
860.592	14180
860.725	14252
860.858	14237
860.99	14130
861.123	14187
861.256	14096
861.388	14172
861.521	14921
861.653	14062
861.786	13986
861.918	13925
862.05	14164
862.183	14081
862.315	14172
862.447	14046
862.58	14103
862.712	13902
862.844	13841
862.976	14054
863.108	14088
863.24	14256
863.372	13826
863.504	13951
863.636	13921
863.768	13978
863.9	13909
864.032	13795
864.164	13970
864.296	13951
864.428	14008
864.559	14103
864.691	14020
864.823	13944
864.954	13978
865.086	13902
865.217	13868
865.349	13879
865.48	13936
865.612	13947
865.743	14084
865.875	13864
866.006	13856
866.137	13925
866.269	13860
866.4	13967
866.531	13913
866.662	13822
866.793	13917
866.924	13906
867.055	13951
867.186	13906
867.317	13830
867.448	13833
867.579	13887
867.71	13849
867.841	13852
867.972	14001
868.103	13883
868.233	13841
868.364	13841
868.495	14001
868.625	14206
868.756	14195
868.886	14100
869.017	14107
869.147	14252
869.278	14286
869.408	14187
869.539	14130
869.669	14237
869.799	14256
869.929	14229
870.06	14172
870.19	14514
870.32	14473
870.45	14492
870.58	14503
870.71	14781
870.84	14716
870.97	14583
871.1	14480
871.23	14819
871.36	14792
871.489	14701
871.619	14731
871.749	14849
871.879	14849
872.008	14815
872.138	14636
872.267	14762
872.397	14648
872.526	14617
872.656	14537
872.785	14583
872.915	14830
873.044	14944
873.173	14746
873.303	14838
873.432	14895
873.561	14948
873.69	14857
873.819	14849
873.948	14883
874.077	14788
874.206	14765
874.335	14868
874.464	14899
874.593	15173
874.722	15032
874.851	15161
874.979	15211
875.108	15097
875.237	15123
875.365	15047
875.494	15116
875.623	15249
875.751	15272
875.88	15161
876.008	15298
876.136	15287
876.265	15622
876.393	15671
876.521	15557
876.65	15732
876.778	15591
876.906	15549
877.034	15580
877.162	15587
877.29	15576
877.418	15580
877.546	15549
877.674	15526
877.802	15633
877.93	15614
878.058	15488
878.185	15393
878.313	15542
878.441	15515
878.568	15310
878.696	15572
878.824	15523
878.951	15698
879.079	15759
879.206	15941
879.333	15789
879.461	15557
879.588	15595
879.715	15720
879.842	15873
879.97	15641
880.097	15443
880.224	15431
880.351	15477
880.478	15439
880.605	15332
880.732	15420
880.859	15690
880.986	15397
881.112	15359
881.239	15351
881.366	15214
881.493	15157
881.619	15005
881.746	15150
881.872	15055
881.999	15051
882.125	15066
882.252	15116
882.378	15039
882.505	15241
882.631	15013
882.757	14842
882.883	14910
883.01	14933
883.136	14811
883.262	14663
883.388	14640
883.514	14868
883.64	14944
883.766	14933
883.892	14693
884.018	14579
884.143	14918
884.269	14971
884.395	14583
884.52	14549
884.646	14648
884.772	14545
884.897	14446
885.023	14568
885.148	14758
885.274	14754
885.399	14667
885.524	14632
885.65	14526
885.775	14686
885.9	14484
886.025	14693
886.15	14682
886.275	14583
886.4	14537
886.525	14587
886.65	14499
886.775	14495
886.9	14682
887.025	14830
887.149	14632
887.274	14461
887.399	14419
887.523	14358
887.648	14377
887.773	14248
887.897	14579
888.021	14465
888.146	14408
888.27	14530
888.395	14575
888.519	14503
888.643	14499
888.767	14530
888.891	14263
889.015	14267
889.139	14252
889.263	14225
889.387	14309
889.511	14522
889.635	14446
889.759	14294
889.883	14309
890.006	14309
890.13	14317
890.254	14256
890.377	14229
890.501	14092
890.624	14043
890.748	14218
890.871	14024
890.995	13955
891.118	14024
891.241	13959
891.364	13989
891.488	14016
891.611	14001
891.734	14035
891.857	14107
891.98	13963
892.103	14062
892.226	13951
892.349	13890
892.471	13791
892.594	13913
892.717	13951
892.839	13997
892.962	14020
893.085	14016
893.207	13890
893.33	13761
893.452	13883
893.575	14092
893.697	13989
893.819	14134
893.941	14126
894.064	14183
894.186	13955
894.308	13982
894.43	14058
894.552	14172
894.674	14046
894.796	13936
894.918	14005
895.04	14062
895.161	14206
895.283	14008
895.405	13932
895.526	14077
895.648	14187
895.769	14161
895.891	14195
896.012	14172
896.134	14267
896.255	14134
896.376	14142
896.498	14164
896.619	14164
896.74	14199
896.861	14298
896.982	14511
897.103	14659
897.224	14446
897.345	14370
897.466	14415
897.587	14404
897.708	14602
897.828	14385
897.949	14434
898.07	14123
898.19	14381
898.311	14602
898.431	14450
898.552	14454
898.672	14629
898.792	14610
898.913	14583
899.033	14442
899.153	14434
899.273	14267
899.393	14377
899.513	14393
899.633	14480
899.753	14404
899.873	14404
899.993	14412
900.113	14358
900.232	14366
900.352	14404
900.472	14221
900.591	14157
900.711	14324
900.83	14233
900.95	14362
901.069	14400
901.189	14157
901.308	13997
901.427	13917
901.546	13982
901.665	14035
901.784	14016
901.904	13776
902.023	13776
902.141	13518
902.26	13476
902.379	13578
902.498	13552
902.617	13480
902.735	13540
902.854	13468
902.973	13472
903.091	13270
903.21	13179
903.328	13247
903.446	13160
903.565	13122
903.683	13160
903.801	12871
903.919	13042
904.038	13012
904.156	12840
904.274	12996
904.392	12810
904.51	12856
904.627	12890
904.745	13004
904.863	12951
904.981	12715
905.098	12536
905.216	12589
905.334	12559
905.451	12639
905.569	12460
905.686	12639
905.803	12551
905.921	12407
906.038	12525
906.155	12388
906.272	12277
906.389	12258
906.506	12194
906.623	12171
906.74	12140
906.857	12045
906.974	11996
907.091	12140
907.208	12304
907.324	12148
907.441	12057
907.557	11885
907.674	11889
907.79	11878
907.907	11893
908.023	11893
908.139	11901
908.256	11771
908.372	11840
908.488	11710
908.604	11634
908.72	11657
908.836	11661
908.952	11642
909.068	11646
909.184	11745
909.3	11748
909.415	11779
909.531	11627
909.647	11490
909.762	11402
909.878	11448
909.993	11360
910.108	11478
910.224	11433
910.339	11512
910.454	11391
910.57	11322
910.685	11212
910.8	11535
910.915	11360
911.03	11337
911.145	11223
911.259	11147
911.374	11128
911.489	11075
911.604	11071
911.718	10927
911.833	10850
911.947	10812
912.062	10786
912.176	10900
912.291	10934
912.405	10919
912.519	11033
912.633	11067
912.748	10976
912.862	10885
912.976	10820
913.09	10637
913.204	10778
913.318	10763
913.431	10889
913.545	10873
913.659	10908
913.772	10805
913.886	10649
914	10675
914.113	10790
914.226	10801
914.34	10797
914.453	10599
914.566	10706
914.68	10706
914.793	10573
914.906	10424
915.019	10409
915.132	10348
915.245	10390
915.358	10443
915.47	10386
915.583	10379
915.696	10443
915.809	10527
915.921	10462
916.034	10436
916.146	10352
916.259	10257
916.371	10466
916.483	10443
916.595	10310
916.708	10363
916.82	10352
916.932	10325
917.044	10299
917.156	10284
917.268	10211
917.38	10276
917.491	10154
917.603	10291
917.715	10303
917.826	10299
917.938	10253
918.049	10112
918.161	10223
918.272	10382
918.384	10375
918.495	10234
918.606	10162
918.717	10025
918.828	10196
918.939	10181
919.05	10097
919.161	10074
919.272	9895
919.383	9975
919.494	10280
919.604	10398
919.715	10154
919.826	10051
919.936	10150
920.047	10211
920.157	10249
920.267	10284
920.378	10181
920.488	10215
920.598	10329
920.708	10485
920.818	10405
920.928	10379
921.038	10497
921.148	10470
921.258	10188
921.368	10097
921.477	9945
921.587	9956
921.697	9850
921.806	10025
921.916	9842
922.025	9728
922.134	9724
922.244	9675
922.353	9812
922.462	9637
922.571	9507
922.68	9458
922.789	9370
922.898	9450
923.007	9329
923.116	9435
923.224	9420
923.333	9447
923.442	9382
923.55	9188
923.659	9272
923.767	9340
923.876	9214
923.984	9355
924.092	9222
924.201	9298
924.309	9233
924.417	9260
924.525	9211
924.633	9180
924.741	10188
924.849	9051
924.956	9233
925.064	9047
925.172	8998
925.279	8998
925.387	9070
925.494	9055
925.602	9184
925.709	9165
925.816	8975
925.924	9081
926.031	9154
926.138	9055
926.245	9066
926.352	9043
926.459	9112
926.566	9127
926.673	9005
926.779	8967
926.886	8880
926.993	8785
927.099	8785
927.206	8762
927.312	8701
927.419	8807
927.525	8762
927.631	8815
927.737	8724
927.843	8739
927.95	8644
928.056	8670
928.162	8655
928.267	8777
928.373	9195
928.479	8750
928.585	8537
928.69	8636
928.796	8689
928.901	8560
929.007	8438
929.112	8541
929.218	8590
929.323	8518
929.428	8488
929.533	8602
929.638	8461
929.743	8476
929.848	8537
929.953	8484
930.058	8370
930.163	8252
930.267	8294
930.372	8457
930.477	8286
930.581	8415
930.685	8427
930.79	8202
930.894	8225
930.998	8161
931.103	8374
931.207	8035
931.311	7890
931.415	7879
931.519	7731
931.623	7746
