Data from test_V78500241_3424.txt Node
Date: Fri Mar 25 14:57:33 CST 2022
User: usil
Spectrometer: V785-0024
Trigger mode: 0
Integration Time (sec): 4.000000E-1
Scans to average: 1
Nonlinearity correction enabled: false
Boxcar width: 0
Storing dark spectrum: false
XAxis mode: Wavelengths
Number of Pixels in Spectrum: 1024
>>>>>Begin Spectral Data<<<<<
801.071	21854
801.214	21861
801.356	21599
801.499	21481
801.641	21211
801.783	21310
801.926	21298
802.068	21310
802.211	21150
802.353	21081
802.496	20929
802.638	20758
802.78	20705
802.923	20750
803.065	20545
803.208	20606
803.35	20526
803.492	20887
803.635	20819
803.777	20545
803.919	20769
804.061	20944
804.204	20655
804.346	20629
804.488	20476
804.63	20594
804.773	20507
804.915	20484
805.057	20678
805.199	20541
805.341	20499
805.483	20674
805.626	20549
805.768	20446
805.91	20492
806.052	20640
806.194	20377
806.336	20602
806.478	20495
806.62	20393
806.762	20434
806.904	20689
807.046	20842
807.188	20769
807.33	20758
807.472	20979
807.614	20765
807.756	20735
807.898	20678
808.04	20545
808.182	20476
808.324	20552
808.465	20651
808.607	20735
808.749	20914
808.891	21051
809.033	20975
809.174	20891
809.316	20739
809.458	20910
809.6	20716
809.741	20956
809.883	20941
810.025	21081
810.166	21055
810.308	20975
810.45	20960
810.591	20872
810.733	20727
810.875	20621
811.016	20598
811.158	20381
811.299	20651
811.441	20727
811.582	20758
811.724	20678
811.865	20625
812.007	20609
812.148	20663
812.29	20708
812.431	20720
812.573	20823
812.714	20967
812.855	21081
812.997	21222
813.138	21306
813.279	21195
813.421	21161
813.562	21001
813.703	20891
813.845	20746
813.986	20461
814.127	20427
814.268	20263
814.41	20248
814.551	20126
814.692	20252
814.833	20161
814.974	20081
815.115	20145
815.256	19970
815.397	20035
815.539	20043
815.68	19761
815.821	19860
815.962	19959
816.103	19826
816.244	19651
816.385	19582
816.526	19521
816.666	19453
816.807	19354
816.948	19419
817.089	19434
817.23	19453
817.371	19301
817.512	19190
817.653	19316
817.793	19301
817.934	19278
818.075	19293
818.216	19407
818.356	19240
818.497	19118
818.638	18973
818.778	19015
818.919	18977
819.06	18981
819.2	19076
819.341	19285
819.481	19206
819.622	19232
819.762	19464
819.903	19373
820.043	19297
820.184	19396
820.324	19232
820.465	19285
820.605	19255
820.746	19266
820.886	19145
821.026	19198
821.167	19122
821.307	19232
821.447	19209
821.588	19095
821.728	19031
821.868	18882
822.008	18597
822.149	18711
822.289	18650
822.429	18361
822.569	18407
822.709	18429
822.849	18102
822.99	18209
823.13	18209
823.27	18140
823.41	17935
823.55	17984
823.69	18159
823.83	18049
823.97	17999
824.11	17726
824.25	17745
824.389	17748
824.529	17942
824.669	17771
824.809	17908
824.949	17767
825.089	17901
825.228	17783
825.368	17505
825.508	17512
825.648	17570
825.787	17592
825.927	17596
826.067	17512
826.206	17471
826.346	17516
826.485	17589
826.625	17493
826.765	17676
826.904	17619
827.044	17284
827.183	17318
827.323	17261
827.462	17349
827.601	17250
827.741	17216
827.88	17216
828.02	17117
828.159	17231
828.298	17166
828.437	17265
828.577	17315
828.716	17303
828.855	17174
828.994	16991
829.134	16972
829.273	17060
829.412	16904
829.551	16930
829.69	16976
829.829	16953
829.968	17064
830.107	17014
830.246	16976
830.385	16900
830.524	16915
830.663	16881
830.802	16782
830.941	16645
831.08	16611
831.219	16569
831.357	16656
831.496	16866
831.635	16691
831.774	16542
831.913	16554
832.051	16504
832.19	16447
832.329	16466
832.467	16371
832.606	16185
832.744	16417
832.883	16261
833.022	16287
833.16	16348
833.299	16344
833.437	16379
833.576	16363
833.714	16337
833.852	16447
833.991	16409
834.129	16440
834.267	16386
834.406	16379
834.544	16489
834.682	16261
834.821	16356
834.959	16504
835.097	16257
835.235	16535
835.373	16394
835.511	16417
835.65	16337
835.788	16272
835.926	16109
836.064	16044
836.202	16135
836.34	16272
836.478	16413
836.615	16246
836.753	16265
836.891	16402
837.029	16261
837.167	16215
837.305	16261
837.443	16181
837.58	16150
837.718	16299
837.856	16223
837.993	16131
838.131	16143
838.269	16166
838.406	16158
838.544	16025
838.681	15876
838.819	15892
838.956	15789
839.094	15808
839.231	15728
839.369	15949
839.506	16101
839.643	15930
839.781	15675
839.918	15724
840.055	15759
840.193	15720
840.33	15747
840.467	15736
840.604	15743
840.742	15972
840.879	15568
841.016	15747
841.153	15724
841.29	15804
841.427	15770
841.564	15846
841.701	15789
841.838	15690
841.975	15557
842.112	15648
842.249	15625
842.385	15469
842.522	15747
842.659	15614
842.796	15492
842.933	15625
843.069	15469
843.206	15416
843.343	15679
843.479	15549
843.616	15610
843.752	15241
843.889	15298
844.025	15477
844.162	15279
844.298	15401
844.435	15230
844.571	15260
844.708	15313
844.844	15401
844.98	15477
845.117	15363
845.253	15256
845.389	15195
845.525	15222
845.661	15203
845.798	15062
845.934	15093
846.07	15138
846.206	15100
846.342	15249
846.478	15138
846.614	14853
846.75	14872
846.886	14895
847.022	15097
847.158	14937
847.294	14864
847.429	14906
847.565	14861
847.701	15127
847.837	14693
847.972	14495
848.108	14674
848.244	14636
848.379	14583
848.515	14465
848.65	14419
848.786	14374
848.921	14423
849.057	14454
849.192	14632
849.328	14503
849.463	14446
849.598	14385
849.734	14408
849.869	14328
850.004	14218
850.14	14374
850.275	14237
850.41	14168
850.545	14180
850.68	14210
850.815	14199
850.95	14278
851.085	14389
851.22	14309
851.355	14332
851.49	14164
851.625	14233
851.76	14214
851.895	14088
852.03	14107
852.165	14214
852.299	14320
852.434	14347
852.569	14275
852.703	14237
852.838	14214
852.973	14374
853.107	14374
853.242	14130
853.376	14062
853.511	13967
853.645	14107
853.78	14282
853.914	14126
854.048	14088
854.183	14107
854.317	14054
854.451	14290
854.585	14092
854.72	14069
854.854	14206
854.988	13967
855.122	14050
855.256	14020
855.39	14058
855.524	14271
855.658	14202
855.792	14126
855.926	14206
856.06	14214
856.194	14183
856.327	14092
856.461	14100
856.595	14062
856.729	14084
856.862	14225
856.996	14195
857.13	14176
857.263	14244
857.397	14180
857.53	14077
857.664	14225
857.797	14187
857.931	14229
858.064	14142
858.197	14180
858.331	14142
858.464	14069
858.597	13928
858.731	14180
858.864	14103
858.997	14058
859.13	14157
859.263	14145
859.396	14248
859.529	14062
859.662	14073
859.795	14096
859.928	14130
860.061	14320
860.194	14305
860.327	14164
860.46	14119
860.592	14202
860.725	14294
860.858	14157
860.99	14088
861.123	14103
861.256	14123
861.388	14111
861.521	14792
861.653	14035
861.786	13925
861.918	13936
862.05	14005
862.183	13993
862.315	14130
862.447	14168
862.58	14077
862.712	13875
862.844	13757
862.976	13978
863.108	13982
863.24	14450
863.372	13928
863.504	13932
863.636	13830
863.768	13925
863.9	13898
864.032	13856
864.164	13860
864.296	13902
864.428	14020
864.559	13940
864.691	14050
864.823	13951
864.954	13947
865.086	13902
865.217	13909
865.349	13734
865.48	13902
865.612	13936
865.743	13963
865.875	13894
866.006	13856
866.137	13887
866.269	13875
866.4	13849
866.531	13814
866.662	13845
866.793	13852
866.924	13944
867.055	13967
867.186	13879
867.317	13803
867.448	13826
867.579	13898
867.71	13849
867.841	13799
867.972	13940
868.103	13902
868.233	13818
868.364	13955
868.495	13989
868.625	14107
868.756	14263
868.886	14088
869.017	14111
869.147	14210
869.278	14218
869.408	14161
869.539	14138
869.669	14191
869.799	14164
869.929	14282
870.06	14252
870.19	14454
870.32	14503
870.45	14377
870.58	14606
870.71	14625
870.84	14689
870.97	14594
871.1	14575
871.23	14727
871.36	14746
871.489	14651
871.619	14651
871.749	14743
871.879	14724
872.008	14967
872.138	14701
872.267	14708
872.397	14526
872.526	14556
872.656	14651
872.785	14659
872.915	14731
873.044	14853
873.173	14785
873.303	14807
873.432	14834
873.561	14826
873.69	14781
873.819	14769
873.948	14857
874.077	14788
874.206	14819
874.335	14804
874.464	14925
874.593	15093
874.722	15024
874.851	15089
874.979	15104
875.108	15112
875.237	15089
875.365	14994
875.494	15039
875.623	15245
875.751	15070
875.88	15207
876.008	15211
876.136	15466
876.265	15576
876.393	15652
876.521	15519
876.65	15644
876.778	15526
876.906	15454
877.034	15439
877.162	15542
877.29	15416
877.418	15488
877.546	15515
877.674	15545
877.802	15542
877.93	15557
878.058	15469
878.185	15332
878.313	15389
878.441	15534
878.568	15408
878.696	15454
878.824	15595
878.951	15625
879.079	15637
879.206	15899
879.333	15587
879.461	15637
879.588	15648
879.715	15751
879.842	15835
879.97	15625
880.097	15291
880.224	15367
880.351	15374
880.478	15329
880.605	15348
880.732	15481
880.859	15599
880.986	15469
881.112	15473
881.239	15222
881.366	15192
881.493	15051
881.619	15066
881.746	15070
881.872	15009
881.999	15013
882.125	15009
882.252	15043
882.378	15097
882.505	15146
882.631	14914
882.757	14902
882.883	14891
883.01	14785
883.136	14720
883.262	14724
883.388	14769
883.514	14906
883.64	14899
883.766	14788
883.892	14644
884.018	14758
884.143	14902
884.269	14918
884.395	14606
884.52	14499
884.646	14552
884.772	14507
884.897	14488
885.023	14610
885.148	14697
885.274	14697
885.399	14613
885.524	14526
885.65	14651
885.775	14568
885.9	14583
886.025	14670
886.15	14560
886.275	14606
886.4	14522
886.525	14469
886.65	14545
886.775	14427
886.9	14724
887.025	14773
887.149	14537
887.274	14454
887.399	14412
887.523	14404
887.648	14377
887.773	14332
887.897	14499
888.021	14450
888.146	14298
888.27	14404
888.395	14518
888.519	14385
888.643	14499
888.767	14450
888.891	14366
889.015	14317
889.139	14225
889.263	14298
889.387	14408
889.511	14511
889.635	14412
889.759	14172
889.883	14275
890.006	14431
890.13	14358
890.254	14199
890.377	14206
890.501	14138
890.624	14046
890.748	14214
890.871	13989
890.995	14005
891.118	13890
891.241	14008
891.364	14005
891.488	14142
891.611	13993
891.734	13982
891.857	13993
891.98	14043
892.103	14024
892.226	14027
892.349	14024
892.471	13875
892.594	13993
892.717	14073
892.839	13951
892.962	13967
893.085	14027
893.207	14008
893.33	13898
893.452	13970
893.575	14069
893.697	13898
893.819	14199
893.941	14157
894.064	14062
894.186	13890
894.308	14008
894.43	14043
894.552	14130
894.674	14176
894.796	13883
894.918	13967
895.04	14008
895.161	14084
895.283	14039
895.405	14043
895.526	14119
895.648	14111
895.769	14153
895.891	14149
896.012	14149
896.134	14187
896.255	14084
896.376	14084
896.498	14202
896.619	14191
896.74	14214
896.861	14195
896.982	14522
897.103	14598
897.224	14568
897.345	14301
897.466	14278
897.587	14457
897.708	14533
897.828	14469
897.949	14347
898.07	14282
898.19	14336
898.311	14492
898.431	14355
898.552	14541
898.672	14590
898.792	14617
898.913	14507
899.033	14419
899.153	14320
899.273	14290
899.393	14332
899.513	14343
899.633	14343
899.753	14278
899.873	14324
899.993	14358
900.113	14320
900.232	14389
900.352	14351
900.472	14210
900.591	14218
900.711	14275
900.83	14180
900.95	14278
901.069	14301
901.189	14263
901.308	13951
901.427	13879
901.546	13902
901.665	13928
901.784	13986
901.904	13803
902.023	13753
902.141	13506
902.26	13411
902.379	13453
902.498	13430
902.617	13331
902.735	13434
902.854	13495
902.973	13392
903.091	13190
903.21	13171
903.328	13179
903.446	13080
903.565	13061
903.683	13091
903.801	12848
903.919	13031
904.038	12932
904.156	12859
904.274	12939
904.392	12863
904.51	12882
904.627	12840
904.745	12856
904.863	12840
904.981	12658
905.098	12627
905.216	12509
905.334	12502
905.451	12517
905.569	12479
905.686	12547
905.803	12547
905.921	12410
906.038	12464
906.155	12353
906.272	12281
906.389	12262
906.506	12117
906.623	12148
906.74	12064
906.857	11980
906.974	12030
907.091	12163
907.208	12323
907.324	12247
907.441	12079
907.557	11946
907.674	11866
907.79	11809
907.907	11794
908.023	11950
908.139	11882
908.256	11840
908.372	11805
908.488	11805
908.604	11691
908.72	11573
908.836	11688
908.952	11623
909.068	11649
909.184	11851
909.3	11653
909.415	11710
909.531	11665
909.647	11417
909.762	11455
909.878	11436
909.993	11444
910.108	11349
910.224	11356
910.339	11440
910.454	11326
910.57	11277
910.685	11155
910.8	11520
910.915	11478
911.03	11402
911.145	11147
911.259	11105
911.374	11132
911.489	11060
911.604	11010
911.718	10854
911.833	10919
911.947	10793
912.062	10694
912.176	10805
912.291	10885
912.405	10854
912.519	11098
912.633	11094
912.748	10938
912.862	10850
912.976	10763
913.09	10702
913.204	10736
913.318	10809
913.431	10793
913.545	10828
913.659	10923
913.772	10763
913.886	10637
914	10672
914.113	10725
914.226	10786
914.34	10668
914.453	10565
914.566	10714
914.68	10558
914.793	10607
914.906	10390
915.019	10333
915.132	10322
915.245	10382
915.358	10322
915.47	10382
915.583	10474
915.696	10432
915.809	10558
915.921	10626
916.034	10379
916.146	10363
916.259	10246
916.371	10413
916.483	10375
916.595	10291
916.708	10318
916.82	10333
916.932	10341
917.044	10367
917.156	10276
917.268	10219
917.38	10249
917.491	10242
917.603	10230
917.715	10310
917.826	10341
917.938	10207
918.049	10059
918.161	10215
918.272	10382
918.384	10363
918.495	10242
918.606	10139
918.717	10120
918.828	10116
918.939	10192
919.05	10025
919.161	10025
919.272	9941
919.383	9949
919.494	10169
919.604	10375
919.715	10162
919.826	10025
919.936	10105
920.047	10177
920.157	10090
920.267	10363
920.378	10192
920.488	10158
920.598	10341
920.708	10493
920.818	10432
920.928	10303
921.038	10516
921.148	10405
921.258	10097
921.368	10112
921.477	10025
921.587	9964
921.697	9854
921.806	10036
921.916	9888
922.025	9713
922.134	9778
922.244	9599
922.353	9759
922.462	9675
922.571	9519
922.68	9439
922.789	9313
922.898	9363
923.007	9291
923.116	9428
923.224	9386
923.333	9332
923.442	9283
923.55	9256
923.659	9317
923.767	9302
923.876	9260
923.984	9325
924.092	9150
924.201	9253
924.309	9241
924.417	9218
924.525	9222
924.633	9268
924.741	10196
924.849	9055
924.956	9222
925.064	9039
925.172	8975
925.279	8937
925.387	9081
925.494	8952
925.602	9112
925.709	9100
925.816	9005
925.924	9032
926.031	9131
926.138	9062
926.245	9081
926.352	8960
926.459	9116
926.566	9188
926.673	9024
926.779	8921
926.886	8906
926.993	8788
927.099	8754
927.206	8720
927.312	8701
927.419	8838
927.525	8758
927.631	8838
927.737	8697
927.843	8716
927.95	8484
928.056	8667
928.162	8644
928.267	8731
928.373	9226
928.479	8746
928.585	8480
928.69	8610
928.796	8697
928.901	8545
929.007	8454
929.112	8590
929.218	8552
929.323	8514
929.428	8438
929.533	8629
929.638	8347
929.743	8434
929.848	8560
929.953	8522
930.058	8389
930.163	8256
930.267	8271
930.372	8351
930.477	8180
930.581	8450
930.685	8374
930.79	8256
930.894	8210
930.998	8305
931.103	8294
931.207	7989
931.311	7925
931.415	7909
931.519	7647
931.623	7700
