Data from test_V78500241_731.txt Node
Date: Fri Mar 25 14:38:48 CST 2022
User: usil
Spectrometer: V785-0024
Trigger mode: 0
Integration Time (sec): 4.000000E-1
Scans to average: 1
Nonlinearity correction enabled: false
Boxcar width: 0
Storing dark spectrum: false
XAxis mode: Wavelengths
Number of Pixels in Spectrum: 1024
>>>>>Begin Spectral Data<<<<<
801.071	27591
801.214	27363
801.356	27165
801.499	27085
801.641	26804
801.783	26823
801.926	26815
802.068	26842
802.211	26473
802.353	26560
802.496	26450
802.638	26294
802.78	26286
802.923	26465
803.065	26286
803.208	26286
803.35	26221
803.492	26336
803.635	26564
803.777	26415
803.919	26606
804.061	26834
804.204	26575
804.346	26541
804.488	26568
804.63	26587
804.773	26499
804.915	26621
805.057	26864
805.199	26876
805.341	26979
805.483	27036
805.626	27165
805.768	26963
805.91	27195
806.052	27378
806.194	27519
806.336	27770
806.478	27846
806.62	28021
806.762	28390
806.904	28634
807.046	29296
807.188	29455
807.33	29942
807.472	30525
807.614	31263
807.756	32377
807.898	33268
808.04	34805
808.182	37148
808.324	39930
808.465	42966
808.607	46242
808.749	49472
808.891	51089
809.033	51427
809.174	49616
809.316	46710
809.458	43110
809.6	39679
809.741	36623
809.883	34443
810.025	32929
810.166	31856
810.308	30798
810.45	30311
810.591	29482
810.733	29029
810.875	28615
811.016	28272
811.158	28181
811.299	28059
811.441	28070
811.582	27751
811.724	27694
811.865	27545
812.007	27408
812.148	27401
812.29	27173
812.431	27233
812.573	27302
812.714	27355
812.855	27393
812.997	27397
813.138	27641
813.279	27416
813.421	27241
813.562	27207
813.703	27047
813.845	26739
813.986	26480
814.127	26229
814.268	26058
814.41	26259
814.551	26054
814.692	26046
814.833	25936
814.974	25826
815.115	25928
815.256	25750
815.397	25700
815.539	25723
815.68	25620
815.821	25441
815.962	25605
816.103	25373
816.244	25384
816.385	25304
816.526	25129
816.666	24924
816.807	24795
816.948	24909
817.089	24970
817.23	24779
817.371	24795
817.512	24840
817.653	24856
817.793	24661
817.934	24779
818.075	24715
818.216	24875
818.356	24665
818.497	24494
818.638	24513
818.778	24403
818.919	24441
819.06	24429
819.2	24661
819.341	24563
819.481	24658
819.622	24798
819.762	24958
819.903	24764
820.043	24852
820.184	24684
820.324	24779
820.465	24646
820.605	24532
820.746	24532
820.886	24270
821.026	24677
821.167	24513
821.307	24517
821.447	24471
821.588	24365
821.728	24182
821.868	23999
822.008	23847
822.149	23863
822.289	23882
822.429	23516
822.569	23444
822.709	23463
822.849	23337
822.99	23265
823.13	23220
823.27	23258
823.41	23010
823.55	22991
823.69	23071
823.83	23037
823.97	22980
824.11	22850
824.25	22733
824.389	22923
824.529	22896
824.669	22892
824.809	22881
824.949	22896
825.089	22980
825.228	22816
825.368	22561
825.508	22573
825.648	22683
825.787	22694
825.927	22748
826.067	22611
826.206	22565
826.346	22580
826.485	22577
826.625	22596
826.765	22656
826.904	22759
827.044	22371
827.183	22344
827.323	22154
827.462	22242
827.601	22249
827.741	22348
827.88	22287
828.02	22124
828.159	22196
828.298	22226
828.437	22276
828.577	22112
828.716	22265
828.855	22090
828.994	21987
829.134	21994
829.273	21953
829.412	21865
829.551	21816
829.69	21869
829.829	21964
829.968	21926
830.107	22032
830.246	22040
830.385	21759
830.524	21930
830.663	21720
830.802	21545
830.941	21576
831.08	21591
831.219	21641
831.357	21713
831.496	21831
831.635	21549
831.774	21367
831.913	21374
832.051	21291
832.19	21382
832.329	21378
832.467	21378
832.606	21260
832.744	21317
832.883	21523
833.022	21439
833.16	21675
833.299	21675
833.437	21911
833.576	22010
833.714	22093
833.852	22470
833.991	22455
834.129	22622
834.267	22683
834.406	22508
834.544	22519
834.682	22333
834.821	22116
834.959	22188
835.097	21835
835.235	21876
835.373	21713
835.511	21587
835.65	21420
835.788	21272
835.926	21062
836.064	21081
836.202	21116
836.34	21089
836.478	21180
836.615	21039
836.753	21074
836.891	21051
837.029	21108
837.167	20921
837.305	21005
837.443	20815
837.58	20990
837.718	20990
837.856	20880
837.993	20758
838.131	20796
838.269	20651
838.406	20815
838.544	20682
838.681	20499
838.819	20511
838.956	20286
839.094	20259
839.231	20461
839.369	20541
839.506	20731
839.643	20499
839.781	20313
839.918	20278
840.055	20301
840.193	20309
840.33	20237
840.467	20233
840.604	20320
840.742	20514
840.879	20081
841.016	20100
841.153	20088
841.29	20374
841.427	20278
841.564	20237
841.701	20233
841.838	20278
841.975	20081
842.112	20149
842.249	20084
842.385	20058
842.522	20218
842.659	20039
842.796	19982
842.933	20130
843.069	20134
843.206	20084
843.343	20168
843.479	20317
843.616	20218
843.752	20103
843.889	20225
844.025	20267
844.162	20225
844.298	20400
844.435	20533
844.571	20739
844.708	21104
844.844	21526
844.98	21972
845.117	22531
845.253	23585
845.389	25544
845.525	29414
845.661	35668
845.798	42563
845.934	48022
846.07	49799
846.206	48323
846.342	43411
846.478	36144
846.614	30045
846.75	26122
846.886	23649
847.022	22325
847.158	21542
847.294	20880
847.429	20480
847.565	20138
847.701	20240
847.837	19670
847.972	19476
848.108	19578
848.244	19434
848.379	19293
848.515	19190
848.65	19122
848.786	19129
848.921	19080
849.057	19122
849.192	19103
849.328	18966
849.463	18863
849.598	18916
849.734	18924
849.869	18783
850.004	18707
850.14	18844
850.275	18669
850.41	18513
850.545	18673
850.68	18627
850.815	18703
850.95	18639
851.085	18810
851.22	18741
851.355	18722
851.49	18547
851.625	18623
851.76	18635
851.895	18623
852.03	18658
852.165	18593
852.299	18631
852.434	18814
852.569	18730
852.703	18829
852.838	18848
852.973	18806
853.107	18878
853.242	18798
853.376	18696
853.511	18734
853.645	18795
853.78	18875
853.914	18920
854.048	18932
854.183	18882
854.317	18920
854.451	19023
854.585	19034
854.72	19008
854.854	18993
854.988	18840
855.122	18707
855.256	18604
855.39	18741
855.524	18871
855.658	18703
855.792	18654
855.926	18631
856.06	18665
856.194	18741
856.327	18490
856.461	18410
856.595	18585
856.729	18506
856.862	18661
856.996	18483
857.13	18479
857.263	18570
857.397	18536
857.53	18418
857.664	18597
857.797	18566
857.931	18593
858.064	18456
858.197	18502
858.331	18395
858.464	18372
858.597	18273
858.731	18433
858.864	18403
858.997	18330
859.13	18376
859.263	18376
859.396	18346
859.529	18319
859.662	18346
859.795	18251
859.928	18327
860.061	18429
860.194	18536
860.327	18353
860.46	18448
860.592	18399
860.725	18262
860.858	18422
860.99	18232
861.123	18220
861.256	18201
861.388	18342
861.521	18981
861.653	18201
861.786	18106
861.918	18098
862.05	18315
862.183	18254
862.315	18220
862.447	18342
862.58	18129
862.712	18019
862.844	17973
862.976	18015
863.108	18171
863.24	18525
863.372	17794
863.504	18064
863.636	17950
863.768	17999
863.9	18030
864.032	17935
864.164	17931
864.296	17946
864.428	18098
864.559	18030
864.691	17992
864.823	17954
864.954	18083
865.086	17923
865.217	17863
865.349	17866
865.48	17885
865.612	17855
865.743	18060
865.875	17950
866.006	17851
866.137	17828
866.269	17790
866.4	17969
866.531	17859
866.662	17752
866.793	17843
866.924	17904
867.055	17958
867.186	17889
867.317	17794
867.448	17726
867.579	17843
867.71	17828
867.841	17855
867.972	17832
868.103	17847
868.233	17843
868.364	18015
868.495	17954
868.625	17999
868.756	18194
868.886	18083
869.017	18060
869.147	18171
869.278	18258
869.408	18121
869.539	18251
869.669	18266
869.799	18285
869.929	18292
870.06	18247
870.19	18410
870.32	18475
870.45	18517
870.58	18544
870.71	18612
870.84	18711
870.97	18719
871.1	18536
871.23	18916
871.36	18837
871.489	18757
871.619	18871
871.749	18817
871.879	18916
872.008	18859
872.138	18939
872.267	18977
872.397	18741
872.526	18665
872.656	18817
872.785	18890
872.915	19023
873.044	19160
873.173	18913
873.303	18970
873.432	19171
873.561	19183
873.69	19213
873.819	19129
873.948	19251
874.077	19156
874.206	19202
874.335	19297
874.464	19346
874.593	19548
874.722	19472
874.851	19670
874.979	19674
875.108	19712
875.237	19830
875.365	19750
875.494	19753
875.623	19841
875.751	19944
875.88	19986
876.008	20096
876.136	20149
876.265	20461
876.393	20625
876.521	20651
876.65	20701
876.778	20602
876.906	20663
877.034	20796
877.162	20895
877.29	20883
877.418	21009
877.546	21089
877.674	21268
877.802	21378
877.93	21462
878.058	21698
878.185	21743
878.313	22215
878.441	22481
878.568	22782
878.696	23524
878.824	24292
878.951	25540
879.079	27161
879.206	29128
879.333	31438
879.461	33165
879.588	34280
879.715	34455
879.842	33599
879.97	31487
880.097	29170
880.224	27595
880.351	26358
880.478	25362
880.605	24749
880.732	24433
880.859	24395
880.986	24007
881.112	23878
881.239	23649
881.366	23478
881.493	23467
881.619	23406
881.746	23326
881.872	23410
881.999	23463
882.125	23497
882.252	23627
882.378	23589
882.505	23824
882.631	23562
882.757	23627
882.883	23444
883.01	23455
883.136	23349
883.262	23303
883.388	23292
883.514	23452
883.64	23505
883.766	23543
883.892	23235
884.018	23162
884.143	23395
884.269	23608
884.395	23159
884.52	23105
884.646	23239
884.772	23151
884.897	23159
885.023	23235
885.148	23208
885.274	23174
885.399	23117
885.524	22953
885.65	22885
885.775	22733
885.9	22554
886.025	22462
886.15	22280
886.275	21907
886.4	21804
886.525	21937
886.65	21644
886.775	21496
886.9	21557
887.025	21580
887.149	21135
887.274	20937
887.399	20906
887.523	20746
887.648	20590
887.773	20537
887.897	20457
888.021	20408
888.146	20473
888.27	20408
888.395	20434
888.519	20351
888.643	20237
888.767	20138
888.891	19947
889.015	19753
889.139	19795
889.263	19635
889.387	19723
889.511	19921
889.635	19784
889.759	19563
889.883	19632
890.006	19620
890.13	19605
890.254	19411
890.377	19354
890.501	19072
890.624	19187
890.748	19263
890.871	19023
890.995	18859
891.118	18867
891.241	18859
891.364	18905
891.488	18894
891.611	18711
891.734	18867
891.857	18749
891.98	18764
892.103	18707
892.226	18559
892.349	18616
892.471	18456
892.594	18475
892.717	18437
892.839	18437
892.962	18391
893.085	18441
893.207	18376
893.33	18281
893.452	18239
893.575	18350
893.697	18273
893.819	18372
893.941	18426
894.064	18323
894.186	18057
894.308	18091
894.43	18266
894.552	18353
894.674	18163
894.796	17851
894.918	17984
895.04	18045
895.161	18117
895.283	18022
895.405	18049
895.526	17935
895.648	18007
895.769	18083
895.891	18026
896.012	18083
896.134	17977
896.255	17805
896.376	17817
896.498	17843
896.619	17916
896.74	17874
896.861	17965
896.982	18133
897.103	18395
897.224	18148
897.345	18102
897.466	18087
897.587	18095
897.708	18140
897.828	18140
897.949	18019
898.07	17866
898.19	18011
898.311	18220
898.431	18019
898.552	18011
898.672	18045
898.792	18133
898.913	18026
899.033	17923
899.153	17855
899.273	17783
899.393	17874
899.513	17893
899.633	17920
899.753	17843
899.873	17859
899.993	17836
900.113	17901
900.232	17802
900.352	17817
900.472	17630
900.591	17699
900.711	17638
900.83	17592
900.95	17638
901.069	17805
901.189	17520
901.308	17368
901.427	17250
901.546	17200
901.665	17223
901.784	17277
901.904	17029
902.023	17037
902.141	16835
902.26	16637
902.379	16786
902.498	16706
902.617	16645
902.735	16687
902.854	16554
902.973	16531
903.091	16265
903.21	16325
903.328	16325
903.446	16249
903.565	16090
903.683	16101
903.801	15983
903.919	15949
904.038	16120
904.156	15842
904.274	15911
904.392	15797
904.51	15762
904.627	15823
904.745	15846
904.863	15892
904.981	15671
905.098	15526
905.216	15523
905.334	15496
905.451	15431
905.569	15428
905.686	15496
905.803	15504
905.921	15252
906.038	15382
906.155	15321
906.272	15077
906.389	15150
906.506	14990
906.623	15009
906.74	15009
906.857	14906
906.974	14925
907.091	15119
907.208	15131
907.324	14933
907.441	14777
907.557	14712
907.674	14807
907.79	14598
907.907	14659
908.023	14712
908.139	14667
908.256	14686
908.372	14541
908.488	14541
908.604	14412
908.72	14377
908.836	14358
908.952	14366
909.068	14434
909.184	14549
909.3	14377
909.415	14408
909.531	14317
909.647	14096
909.762	14172
909.878	14111
909.993	14157
910.108	14142
910.224	14138
910.339	14191
910.454	13955
910.57	13917
910.685	13925
910.8	14252
910.915	14115
911.03	13940
911.145	13803
911.259	13769
911.374	13772
911.489	13731
911.604	13632
911.718	13525
911.833	13514
911.947	13377
912.062	13430
912.176	13506
912.291	13464
912.405	13521
912.519	13674
912.633	13704
912.748	13567
912.862	13556
912.976	13396
913.09	13285
913.204	13285
913.318	13453
913.431	13449
913.545	13430
913.659	13529
913.772	13327
913.886	13190
914	13209
914.113	13247
914.226	13327
914.34	13346
914.453	13217
914.566	13358
914.68	13171
914.793	13133
914.906	13023
915.019	12932
915.132	12840
915.245	12966
915.358	13008
915.47	12913
915.583	12897
915.696	12970
915.809	13099
915.921	13076
916.034	12973
916.146	12916
916.259	12901
916.371	13000
916.483	12928
916.595	12802
916.708	12958
916.82	12943
916.932	12779
917.044	12928
917.156	12760
917.268	12730
917.38	12703
917.491	12719
917.603	12734
917.715	12776
917.826	12779
917.938	12627
918.049	12494
918.161	12639
918.272	12764
918.384	12829
918.495	12578
918.606	12490
918.717	12365
918.828	12448
918.939	12426
919.05	12346
919.161	12422
919.272	12304
919.383	12243
919.494	12483
919.604	12658
919.715	12376
919.826	12304
919.936	12441
920.047	12494
920.157	12388
920.267	12608
920.378	12388
920.488	12426
920.598	12589
920.708	12852
920.818	12547
920.928	12608
921.038	12673
921.148	12658
921.258	12456
921.368	12258
921.477	12201
921.587	12224
921.697	12133
921.806	12197
921.916	12121
922.025	12007
922.134	11916
922.244	11874
922.353	11824
922.462	11783
922.571	11558
922.68	11566
922.789	11535
922.898	11551
923.007	11486
923.116	11577
923.224	11577
923.333	11490
923.442	11398
923.55	11486
923.659	11410
923.767	11547
923.876	11322
923.984	11398
924.092	11326
924.201	11353
924.309	11360
924.417	11353
924.525	11273
924.633	11334
924.741	12220
924.849	11052
924.956	11261
925.064	11178
925.172	10965
925.279	10965
925.387	11105
925.494	11113
925.602	11204
925.709	11178
925.816	10968
925.924	11041
926.031	11136
926.138	11006
926.245	11113
926.352	10919
926.459	11124
926.566	11178
926.673	10934
926.779	10908
926.886	10911
926.993	10824
927.099	10725
927.206	10710
927.312	10641
927.419	10748
927.525	10733
927.631	10774
927.737	10615
927.843	10618
927.95	10508
928.056	10664
928.162	10603
928.267	10653
928.373	11067
928.479	10691
928.585	10440
928.69	10565
928.796	10531
928.901	10432
929.007	10314
929.112	10432
929.218	10508
929.323	10417
929.428	10344
929.533	10447
929.638	10272
929.743	10310
929.848	10329
929.953	10268
930.058	10188
930.163	10048
930.267	10067
930.372	10196
930.477	10013
930.581	10310
930.685	10131
930.79	9937
930.894	10036
930.998	9972
931.103	10093
931.207	9743
931.311	9675
931.415	9591
931.519	9405
931.623	9408
