Data from test_V78500241_3219.txt Node
Date: Fri Mar 25 14:56:07 CST 2022
User: usil
Spectrometer: V785-0024
Trigger mode: 0
Integration Time (sec): 4.000000E-1
Scans to average: 1
Nonlinearity correction enabled: false
Boxcar width: 0
Storing dark spectrum: false
XAxis mode: Wavelengths
Number of Pixels in Spectrum: 1024
>>>>>Begin Spectral Data<<<<<
801.071	21968
801.214	21873
801.356	21633
801.499	21443
801.641	21351
801.783	21378
801.926	21382
802.068	21264
802.211	21317
802.353	21131
802.496	21013
802.638	20876
802.78	20663
802.923	20701
803.065	20526
803.208	20678
803.35	20590
803.492	20750
803.635	20979
803.777	20674
803.919	20788
804.061	20952
804.204	20693
804.346	20587
804.488	20537
804.63	20640
804.773	20507
804.915	20522
805.057	20648
805.199	20473
805.341	20537
805.483	20651
805.626	20712
805.768	20533
805.91	20625
806.052	20632
806.194	20431
806.336	20804
806.478	20511
806.62	20415
806.762	20533
806.904	20727
807.046	20952
807.188	20906
807.33	20868
807.472	21032
807.614	20902
807.756	20872
807.898	20678
808.04	20549
808.182	20758
808.324	20655
808.465	20598
808.607	20895
808.749	20986
808.891	20948
809.033	21169
809.174	21089
809.316	20895
809.458	20891
809.6	20834
809.741	20891
809.883	20956
810.025	21036
810.166	21085
810.308	21108
810.45	21066
810.591	20887
810.733	20712
810.875	20712
811.016	20686
811.158	20575
811.299	20830
811.441	20800
811.582	20727
811.724	20663
811.865	20735
812.007	20746
812.148	20701
812.29	20689
812.431	20800
812.573	20933
812.714	21043
812.855	21218
812.997	21214
813.138	21310
813.279	21306
813.421	21192
813.562	21066
813.703	21009
813.845	20807
813.986	20617
814.127	20408
814.268	20355
814.41	20244
814.551	20339
814.692	20244
814.833	20256
814.974	20210
815.115	20294
815.256	20088
815.397	20077
815.539	19989
815.68	19967
815.821	19932
815.962	19909
816.103	19955
816.244	19818
816.385	19677
816.526	19628
816.666	19453
816.807	19430
816.948	19586
817.089	19430
817.23	19384
817.371	19411
817.512	19373
817.653	19343
817.793	19251
817.934	19270
818.075	19377
818.216	19320
818.356	19411
818.497	19160
818.638	19027
818.778	18996
818.919	18985
819.06	19065
819.2	19171
819.341	19308
819.481	19133
819.622	19377
819.762	19563
819.903	19449
820.043	19400
820.184	19377
820.324	19270
820.465	19384
820.605	19415
820.746	19255
820.886	19164
821.026	19244
821.167	19266
821.307	19426
821.447	19247
821.588	19156
821.728	19012
821.868	18810
822.008	18806
822.149	18829
822.289	18760
822.429	18498
822.569	18471
822.709	18544
822.849	18232
822.99	18194
823.13	18251
823.27	18228
823.41	18079
823.55	18019
823.69	18174
823.83	17973
823.97	17996
824.11	17866
824.25	17802
824.389	17859
824.529	17840
824.669	17767
824.809	18030
824.949	17889
825.089	17897
825.228	17798
825.368	17657
825.508	17539
825.648	17619
825.787	17657
825.927	17653
826.067	17665
826.206	17486
826.346	17691
826.485	17512
826.625	17634
826.765	17699
826.904	17596
827.044	17467
827.183	17273
827.323	17372
827.462	17440
827.601	17341
827.741	17280
827.88	17242
828.02	17132
828.159	17303
828.298	17326
828.437	17497
828.577	17273
828.716	17467
828.855	17208
828.994	17086
829.134	17117
829.273	17151
829.412	17052
829.551	17048
829.69	17048
829.829	17083
829.968	17162
830.107	17109
830.246	17090
830.385	16972
830.524	16946
830.663	16980
830.802	16854
830.941	16565
831.08	16607
831.219	16725
831.357	16634
831.496	16862
831.635	16687
831.774	16675
831.913	16653
832.051	16451
832.19	16481
832.329	16443
832.467	16432
832.606	16284
832.744	16379
832.883	16382
833.022	16223
833.16	16402
833.299	16519
833.437	16295
833.576	16382
833.714	16474
833.852	16436
833.991	16337
834.129	16542
834.267	16466
834.406	16459
834.544	16421
834.682	16421
834.821	16386
834.959	16573
835.097	16367
835.235	16493
835.373	16462
835.511	16417
835.65	16287
835.788	16341
835.926	16196
836.064	16246
836.202	16139
836.34	16466
836.478	16481
836.615	16253
836.753	16375
836.891	16382
837.029	16363
837.167	16318
837.305	16265
837.443	16238
837.58	16207
837.718	16272
837.856	16204
837.993	16112
838.131	16230
838.269	16109
838.406	16093
838.544	16139
838.681	16010
838.819	15838
838.956	15800
839.094	15804
839.231	15800
839.369	15869
839.506	16154
839.643	16036
839.781	15774
839.918	15656
840.055	15827
840.193	15816
840.33	15694
840.467	15667
840.604	15713
840.742	16002
840.879	15644
841.016	15701
841.153	15648
841.29	15876
841.427	15774
841.564	15838
841.701	15709
841.838	15698
841.975	15652
842.112	15633
842.249	15622
842.385	15500
842.522	15739
842.659	15553
842.796	15488
842.933	15572
843.069	15587
843.206	15488
843.343	15663
843.479	15504
843.616	15561
843.752	15351
843.889	15313
844.025	15561
844.162	15374
844.298	15485
844.435	15325
844.571	15283
844.708	15386
844.844	15435
844.98	15511
845.117	15378
845.253	15321
845.389	15192
845.525	15233
845.661	15294
845.798	15032
845.934	15218
846.07	15154
846.206	15184
846.342	15313
846.478	15119
846.614	14998
846.75	14861
846.886	14819
847.022	14933
847.158	14982
847.294	14857
847.429	14956
847.565	14781
847.701	15005
847.837	14670
847.972	14667
848.108	14716
848.244	14750
848.379	14571
848.515	14537
848.65	14454
848.786	14461
848.921	14427
849.057	14682
849.192	14518
849.328	14537
849.463	14511
849.598	14438
849.734	14415
849.869	14339
850.004	14358
850.14	14320
850.275	14305
850.41	14248
850.545	14259
850.68	14218
850.815	14290
850.95	14195
851.085	14377
851.22	14328
851.355	14313
851.49	14317
851.625	14199
851.76	14267
851.895	14069
852.03	14142
852.165	14313
852.299	14317
852.434	14294
852.569	14267
852.703	14290
852.838	14355
852.973	14438
853.107	14408
853.242	14195
853.376	14244
853.511	13978
853.645	14016
853.78	14244
853.914	14134
854.048	14187
854.183	14134
854.317	14164
854.451	14290
854.585	14195
854.72	14096
854.854	14103
854.988	14100
855.122	14126
855.256	14027
855.39	14073
855.524	14153
855.658	14157
855.792	14164
855.926	14157
856.06	14214
856.194	14278
856.327	14100
856.461	14134
856.595	14084
856.729	14084
856.862	14267
856.996	14149
857.13	14183
857.263	14278
857.397	14313
857.53	14183
857.664	14259
857.797	14206
857.931	14172
858.064	14218
858.197	14233
858.331	14107
858.464	14008
858.597	13963
858.731	14176
858.864	14225
858.997	14138
859.13	14123
859.263	14199
859.396	14145
859.529	14115
859.662	14035
859.795	14138
859.928	14187
860.061	14229
860.194	14355
860.327	14233
860.46	14134
860.592	14259
860.725	14271
860.858	14263
860.99	14062
861.123	14065
861.256	14168
861.388	14183
861.521	14937
861.653	13989
861.786	13925
861.918	13947
862.05	14103
862.183	14168
862.315	14130
862.447	14206
862.58	14077
862.712	13833
862.844	13856
862.976	13917
863.108	14005
863.24	14366
863.372	13894
863.504	13826
863.636	13868
863.768	14001
863.9	13917
864.032	13753
864.164	13917
864.296	13906
864.428	13997
864.559	14054
864.691	13970
864.823	14035
864.954	13860
865.086	14012
865.217	13986
865.349	13830
865.48	13852
865.612	13898
865.743	14005
865.875	13955
866.006	13890
866.137	13921
866.269	13955
866.4	13883
866.531	13906
866.662	13830
866.793	13860
866.924	13868
867.055	13909
867.186	13986
867.317	13826
867.448	13849
867.579	13860
867.71	13757
867.841	13769
867.972	13868
868.103	13894
868.233	13890
868.364	13909
868.495	13955
868.625	14172
868.756	14256
868.886	14092
869.017	14172
869.147	14237
869.278	14290
869.408	14183
869.539	14180
869.669	14221
869.799	14107
869.929	14278
870.06	14278
870.19	14552
870.32	14393
870.45	14499
870.58	14522
870.71	14655
870.84	14648
870.97	14568
871.1	14564
871.23	14705
871.36	14648
871.489	14693
871.619	14727
871.749	14689
871.879	14762
872.008	14819
872.138	14819
872.267	14712
872.397	14602
872.526	14625
872.656	14556
872.785	14716
872.915	14746
873.044	14857
873.173	14800
873.303	14781
873.432	14868
873.561	14891
873.69	14883
873.819	14887
873.948	14849
874.077	14819
874.206	14781
874.335	14857
874.464	15024
874.593	15085
874.722	15100
874.851	15112
874.979	15173
875.108	15230
875.237	15108
875.365	14975
875.494	15085
875.623	15135
875.751	15123
875.88	15237
876.008	15226
876.136	15378
876.265	15507
876.393	15652
876.521	15667
876.65	15564
876.778	15557
876.906	15523
877.034	15450
877.162	15523
877.29	15450
877.418	15511
877.546	15534
877.674	15477
877.802	15553
877.93	15526
878.058	15561
878.185	15492
878.313	15507
878.441	15534
878.568	15477
878.696	15515
878.824	15564
878.951	15580
879.079	15713
879.206	15781
879.333	15587
879.461	15622
879.588	15591
879.715	15739
879.842	15823
879.97	15561
880.097	15466
880.224	15382
880.351	15458
880.478	15363
880.605	15386
880.732	15348
880.859	15561
880.986	15488
881.112	15378
881.239	15252
881.366	15043
881.493	15173
881.619	15089
881.746	15085
881.872	14971
881.999	15020
882.125	15020
882.252	15150
882.378	15074
882.505	15249
882.631	14994
882.757	14842
882.883	14944
883.01	14899
883.136	14864
883.262	14773
883.388	14697
883.514	14918
883.64	14902
883.766	14804
883.892	14648
884.018	14693
884.143	14823
884.269	14864
884.395	14560
884.52	14571
884.646	14636
884.772	14518
884.897	14465
885.023	14640
885.148	14678
885.274	14746
885.399	14708
885.524	14590
885.65	14530
885.775	14606
885.9	14556
886.025	14667
886.15	14674
886.275	14556
886.4	14434
886.525	14552
886.65	14503
886.775	14556
886.9	14659
887.025	14849
887.149	14670
887.274	14423
887.399	14400
887.523	14347
887.648	14225
887.773	14298
887.897	14389
888.021	14446
888.146	14351
888.27	14583
888.395	14507
888.519	14419
888.643	14328
888.767	14488
888.891	14396
889.015	14229
889.139	14412
889.263	14225
889.387	14324
889.511	14393
889.635	14309
889.759	14240
889.883	14290
890.006	14324
890.13	14434
890.254	14252
890.377	14286
890.501	14130
890.624	14107
890.748	14111
890.871	14054
890.995	13936
891.118	13833
891.241	13928
891.364	13986
891.488	14031
891.611	14016
891.734	14134
891.857	14024
891.98	14027
892.103	14084
892.226	13997
892.349	13947
892.471	13845
892.594	13883
892.717	14012
892.839	13913
892.962	13989
893.085	14046
893.207	13951
893.33	13837
893.452	13917
893.575	14050
893.697	13959
893.819	14103
893.941	14195
894.064	14176
894.186	13932
894.308	13902
894.43	14130
894.552	14221
894.674	14088
894.796	13989
894.918	14001
895.04	14012
895.161	14157
895.283	14058
895.405	14039
895.526	14039
895.648	14069
895.769	14103
895.891	14153
896.012	14248
896.134	14161
896.255	14153
896.376	14111
896.498	14130
896.619	14195
896.74	14126
896.861	14267
896.982	14503
897.103	14640
897.224	14469
897.345	14476
897.466	14355
897.587	14461
897.708	14575
897.828	14400
897.949	14358
898.07	14305
898.19	14434
898.311	14560
898.431	14400
898.552	14511
898.672	14583
898.792	14712
898.913	14522
899.033	14461
899.153	14309
899.273	14259
899.393	14358
899.513	14324
899.633	14320
899.753	14278
899.873	14423
899.993	14370
900.113	14320
900.232	14336
900.352	14351
900.472	14256
900.591	14248
900.711	14218
900.83	14225
900.95	14301
901.069	14332
901.189	14195
901.308	13989
901.427	13883
901.546	13883
901.665	13967
901.784	13921
901.904	13791
902.023	13719
902.141	13601
902.26	13483
902.379	13525
902.498	13476
902.617	13381
902.735	13506
902.854	13529
902.973	13384
903.091	13190
903.21	13228
903.328	13217
903.446	13202
903.565	13103
903.683	13031
903.801	12924
903.919	12993
904.038	13088
904.156	12859
904.274	12837
904.392	12829
904.51	12867
904.627	12863
904.745	12916
904.863	12875
904.981	12658
905.098	12585
905.216	12642
905.334	12665
905.451	12635
905.569	12483
905.686	12631
905.803	12585
905.921	12426
906.038	12517
906.155	12296
906.272	12327
906.389	12327
906.506	12136
906.623	12152
906.74	12087
906.857	11996
906.974	12083
907.091	12235
907.208	12251
907.324	12182
907.441	12079
907.557	11878
907.674	11859
907.79	11745
907.907	11843
908.023	11950
908.139	11870
908.256	11878
908.372	11847
908.488	11752
908.604	11695
908.72	11638
908.836	11649
908.952	11611
909.068	11714
909.184	11824
909.3	11680
909.415	11619
909.531	11611
909.647	11406
909.762	11417
909.878	11425
909.993	11429
910.108	11368
910.224	11406
910.339	11421
910.454	11376
910.57	11303
910.685	11246
910.8	11486
910.915	11455
911.03	11318
911.145	11117
911.259	11041
911.374	11113
911.489	11124
911.604	10934
911.718	10873
911.833	10858
911.947	10812
912.062	10797
912.176	10820
912.291	10831
912.405	10896
912.519	11045
912.633	11128
912.748	10965
912.862	10904
912.976	10801
913.09	10691
913.204	10763
913.318	10850
913.431	10812
913.545	10812
913.659	10889
913.772	10835
913.886	10702
914	10660
914.113	10653
914.226	10786
914.34	10805
914.453	10577
914.566	10694
914.68	10607
914.793	10694
914.906	10497
915.019	10424
915.132	10310
915.245	10462
915.358	10375
915.47	10424
915.583	10371
915.696	10481
915.809	10516
915.921	10618
916.034	10428
916.146	10405
916.259	10287
916.371	10409
916.483	10409
916.595	10314
916.708	10443
916.82	10348
916.932	10306
917.044	10257
917.156	10341
917.268	10192
917.38	10204
917.491	10177
917.603	10207
917.715	10318
917.826	10367
917.938	10169
918.049	10166
918.161	10204
918.272	10344
918.384	10375
918.495	10295
918.606	10105
918.717	10074
918.828	10219
918.939	10173
919.05	10002
919.161	10051
919.272	9846
919.383	9907
919.494	10166
919.604	10306
919.715	10120
919.826	10086
919.936	10116
920.047	10207
920.157	10173
920.267	10363
920.378	10242
920.488	10036
920.598	10371
920.708	10497
920.818	10394
920.928	10284
921.038	10478
921.148	10417
921.258	10051
921.368	10059
921.477	10032
921.587	9956
921.697	9903
921.806	9991
921.916	9972
922.025	9747
922.134	9793
922.244	9652
922.353	9694
922.462	9618
922.571	9500
922.68	9439
922.789	9389
922.898	9401
923.007	9370
923.116	9473
923.224	9332
923.333	9336
923.442	9207
923.55	9245
923.659	9253
923.767	9298
923.876	9188
923.984	9359
924.092	9154
924.201	9230
924.309	9313
924.417	9283
924.525	9173
924.633	9249
924.741	10150
924.849	9058
924.956	9108
925.064	9047
925.172	8971
925.279	9013
925.387	9081
925.494	9085
925.602	9207
925.709	9199
925.816	9013
925.924	9017
926.031	9112
926.138	9055
926.245	9062
926.352	8990
926.459	9169
926.566	9131
926.673	9032
926.779	8963
926.886	8880
926.993	8800
927.099	8746
927.206	8712
927.312	8655
927.419	8880
927.525	8739
927.631	8834
927.737	8686
927.843	8575
927.95	8632
928.056	8667
928.162	8659
928.267	8678
928.373	9211
928.479	8720
928.585	8514
928.69	8667
928.796	8651
928.901	8541
929.007	8465
929.112	8629
929.218	8522
929.323	8511
929.428	8461
929.533	8621
929.638	8385
929.743	8473
929.848	8484
929.953	8465
930.058	8423
930.163	8252
930.267	8275
930.372	8438
930.477	8221
930.581	8533
930.685	8400
930.79	8195
930.894	8282
930.998	8199
931.103	8320
931.207	7993
931.311	7936
931.415	7887
931.519	7727
931.623	7677
