Data from test_V78500241_628.txt Node
Date: Fri Mar 25 14:38:05 CST 2022
User: usil
Spectrometer: V785-0024
Trigger mode: 0
Integration Time (sec): 4.000000E-1
Scans to average: 1
Nonlinearity correction enabled: false
Boxcar width: 0
Storing dark spectrum: false
XAxis mode: Wavelengths
Number of Pixels in Spectrum: 1024
>>>>>Begin Spectral Data<<<<<
801.071	27884
801.214	27816
801.356	27667
801.499	27454
801.641	27412
801.783	27268
801.926	27370
802.068	27222
802.211	27085
802.353	27100
802.496	26979
802.638	26777
802.78	26762
802.923	26834
803.065	26796
803.208	26876
803.35	26811
803.492	26994
803.635	26990
803.777	26842
803.919	27127
804.061	27344
804.204	27066
804.346	27074
804.488	26937
804.63	27020
804.773	26982
804.915	27135
805.057	27237
805.199	27211
805.341	27351
805.483	27412
805.626	27374
805.768	27450
805.91	27500
806.052	27572
806.194	27557
806.336	27930
806.478	27972
806.62	28029
806.762	28386
806.904	28717
807.046	29105
807.188	29334
807.33	29824
807.472	30228
807.614	30635
807.756	31362
807.898	32111
808.04	33477
808.182	34934
808.324	36779
808.465	39416
808.607	41817
808.749	44149
808.891	45679
809.033	45618
809.174	44183
809.316	42106
809.458	39291
809.6	36631
809.741	34653
809.883	32963
810.025	31902
810.166	30962
810.308	30426
810.45	29760
810.591	29547
810.733	29006
810.875	28801
811.016	28360
811.158	28226
811.299	28196
811.441	28181
811.582	28169
811.724	27835
811.865	27797
812.007	27747
812.148	27633
812.29	27644
812.431	27739
812.573	27701
812.714	27724
812.855	28059
812.997	27983
813.138	28093
813.279	27884
813.421	27892
813.562	27701
813.703	27595
813.845	27325
813.986	27013
814.127	26910
814.268	26712
814.41	26564
814.551	26583
814.692	26678
814.833	26438
814.974	26533
815.115	26712
815.256	26355
815.397	26225
815.539	26408
815.68	26153
815.821	26103
815.962	26214
816.103	26180
816.244	26058
816.385	25978
816.526	25875
816.666	25772
816.807	25518
816.948	25677
817.089	25635
817.23	25525
817.371	25449
817.512	25464
817.653	25502
817.793	25320
817.934	25460
818.075	25426
818.216	25499
818.356	25449
818.497	25145
818.638	25164
818.778	25080
818.919	25095
819.06	25225
819.2	25244
819.341	25274
819.481	25392
819.622	25468
819.762	25700
819.903	25616
820.043	25441
820.184	25354
820.324	25255
820.465	25327
820.605	25354
820.746	25324
820.886	25034
821.026	25304
821.167	25194
821.307	25297
821.447	25213
821.588	25099
821.728	24852
821.868	24734
822.008	24566
822.149	24494
822.289	24509
822.429	24361
822.569	24258
822.709	24064
822.849	24117
822.99	23954
823.13	23988
823.27	24076
823.41	23840
823.55	23748
823.69	23809
823.83	23798
823.97	23771
824.11	23589
824.25	23497
824.389	23649
824.529	23695
824.669	23509
824.809	23828
824.949	23703
825.089	23623
825.228	23524
825.368	23356
825.508	23288
825.648	23452
825.787	23505
825.927	23501
826.067	23349
826.206	23258
826.346	23398
826.485	23448
826.625	23231
826.765	23467
826.904	23417
827.044	23086
827.183	23056
827.323	23094
827.462	23147
827.601	23052
827.741	23025
827.88	23033
828.02	22930
828.159	23037
828.298	23014
828.437	22938
828.577	22881
828.716	23105
828.855	22934
828.994	22656
829.134	22755
829.273	22790
829.412	22679
829.551	22615
829.69	22664
829.829	22725
829.968	22748
830.107	22717
830.246	22596
830.385	22675
830.524	22618
830.663	22656
830.802	22413
830.941	22211
831.08	22322
831.219	22375
831.357	22181
831.496	22485
831.635	22325
831.774	22139
831.913	22200
832.051	22105
832.19	22120
832.329	22246
832.467	22063
832.606	22082
832.744	21964
832.883	22086
833.022	22230
833.16	22341
833.299	22398
833.437	22440
833.576	22649
833.714	22599
833.852	22820
833.991	22934
834.129	22968
834.267	22995
834.406	22873
834.544	22869
834.682	22752
834.821	22584
834.959	22736
835.097	22470
835.235	22569
835.373	22325
835.511	22272
835.65	22082
835.788	22021
835.926	21846
836.064	21759
836.202	21835
836.34	21778
836.478	21869
836.615	21766
836.753	21785
836.891	21739
837.029	21869
837.167	21827
837.305	21656
837.443	21698
837.58	21663
837.718	21671
837.856	21671
837.993	21682
838.131	21580
838.269	21549
838.406	21583
838.544	21431
838.681	21348
838.819	21272
838.956	21142
839.094	21032
839.231	21199
839.369	21306
839.506	21393
839.643	21222
839.781	21020
839.918	20994
840.055	21043
840.193	20982
840.33	20918
840.467	20979
840.604	21058
840.742	21207
840.879	20864
841.016	20823
841.153	20883
841.29	20967
841.427	21001
841.564	20952
841.701	20811
841.838	20906
841.975	20925
842.112	20899
842.249	20811
842.385	20720
842.522	20979
842.659	20830
842.796	20777
842.933	20815
843.069	20659
843.206	20750
843.343	20910
843.479	20823
843.616	20845
843.752	20765
843.889	20731
844.025	20857
844.162	20880
844.298	20990
844.435	21096
844.571	21180
844.708	21450
844.844	21778
844.98	22139
845.117	22504
845.253	23208
845.389	24635
845.525	27275
845.661	31700
845.798	36989
845.934	41090
846.07	42688
846.206	41630
846.342	38191
846.478	32918
846.614	28135
846.75	25141
846.886	23299
847.022	22398
847.158	21633
847.294	21173
847.429	20815
847.565	20549
847.701	20739
847.837	20134
847.972	20054
848.108	20138
848.244	20054
848.379	19784
848.515	19788
848.65	19715
848.786	19788
848.921	19715
849.057	19772
849.192	19639
849.328	19616
849.463	19571
849.598	19571
849.734	19460
849.869	19514
850.004	19324
850.14	19426
850.275	19377
850.41	19232
850.545	19339
850.68	19316
850.815	19384
850.95	19312
851.085	19464
851.22	19464
851.355	19403
851.49	19285
851.625	19263
851.76	19187
851.895	19236
852.03	19206
852.165	19308
852.299	19362
852.434	19495
852.569	19392
852.703	19327
852.838	19400
852.973	19552
853.107	19426
853.242	19354
853.376	19270
853.511	19232
853.645	19327
853.78	19540
853.914	19434
854.048	19491
854.183	19403
854.317	19476
854.451	19628
854.585	19510
854.72	19377
854.854	19483
854.988	19301
855.122	19426
855.256	19232
855.39	19381
855.524	19365
855.658	19343
855.792	19213
855.926	19133
856.06	19209
856.194	19255
856.327	19175
856.461	19148
856.595	19133
856.729	19088
856.862	19278
856.996	19156
857.13	19179
857.263	19282
857.397	19190
857.53	19072
857.664	19183
857.797	19259
857.931	19232
858.064	19080
858.197	19152
858.331	19038
858.464	18958
858.597	18905
858.731	18901
858.864	19019
858.997	19015
859.13	18901
859.263	18985
859.396	19042
859.529	18920
859.662	18951
859.795	18935
859.928	19152
860.061	19179
860.194	19141
860.327	18916
860.46	18928
860.592	19027
860.725	19095
860.858	19171
860.99	19012
861.123	18806
861.256	18947
861.388	18966
861.521	19658
861.653	18909
861.786	18753
861.918	18783
862.05	18837
862.183	18916
862.315	19015
862.447	19046
862.58	18905
862.712	18688
862.844	18711
862.976	18722
863.108	18700
863.24	18966
863.372	18547
863.504	18623
863.636	18650
863.768	18760
863.9	18654
864.032	18502
864.164	18498
864.296	18688
864.428	18734
864.559	18623
864.691	18654
864.823	18719
864.954	18730
865.086	18665
865.217	18574
865.349	18433
865.48	18574
865.612	18555
865.743	18730
865.875	18631
866.006	18452
866.137	18593
866.269	18608
866.4	18654
866.531	18536
866.662	18380
866.793	18437
866.924	18525
867.055	18502
867.186	18502
867.317	18479
867.448	18429
867.579	18498
867.71	18418
867.841	18471
867.972	18441
868.103	18490
868.233	18616
868.364	18627
868.495	18661
868.625	18703
868.756	18764
868.886	18817
869.017	18692
869.147	18852
869.278	18867
869.408	18829
869.539	18810
869.669	18928
869.799	18829
869.929	18909
870.06	18844
870.19	19057
870.32	19099
870.45	19194
870.58	19190
870.71	19441
870.84	19362
870.97	19194
871.1	19263
871.23	19422
871.36	19525
871.489	19400
871.619	19445
871.749	19556
871.879	19476
872.008	19655
872.138	19540
872.267	19483
872.397	19369
872.526	19225
872.656	19403
872.785	19263
872.915	19586
873.044	19757
873.173	19658
873.303	19643
873.432	19643
873.561	19704
873.69	19689
873.819	19704
873.948	19750
874.077	19731
874.206	19856
874.335	19731
874.464	20054
874.593	20039
874.722	20050
874.851	20161
874.979	20130
875.108	20199
875.237	20153
875.365	20168
875.494	20290
875.623	20423
875.751	20347
875.88	20370
876.008	20370
876.136	20640
876.265	20804
876.393	21100
876.521	20952
876.65	21051
876.778	21081
876.906	21062
877.034	21146
877.162	21123
877.29	21173
877.418	21241
877.546	21336
877.674	21454
877.802	21420
877.93	21675
878.058	21637
878.185	21819
878.313	22013
878.441	22371
878.568	22561
878.696	23033
878.824	23661
878.951	24601
879.079	25784
879.206	27526
879.333	28919
879.461	30251
879.588	31156
879.715	31396
879.842	30711
879.97	29132
880.097	27439
880.224	26020
880.351	25160
880.478	24498
880.605	23961
880.732	23691
880.859	23752
880.986	23433
881.112	23372
881.239	23197
881.366	22995
881.493	22980
881.619	22915
881.746	23037
881.872	22980
881.999	22881
882.125	22854
882.252	23029
882.378	23166
882.505	23113
882.631	22961
882.757	22843
882.883	22987
883.01	22850
883.136	22930
883.262	22721
883.388	22645
883.514	22866
883.64	22801
883.766	22763
883.892	22615
884.018	22675
884.143	22736
884.269	22911
884.395	22527
884.52	22611
884.646	22672
884.772	22421
884.897	22405
885.023	22485
885.148	22569
885.274	22584
885.399	22535
885.524	22371
885.65	22230
885.775	21991
885.9	22040
886.025	21998
886.15	21865
886.275	21705
886.4	21447
886.525	21378
886.65	21370
886.775	21313
886.9	21329
887.025	21275
887.149	21081
887.274	20834
887.399	20800
887.523	20602
887.648	20533
887.773	20423
887.897	20609
888.021	20549
888.146	20294
888.27	20389
888.395	20454
888.519	20290
888.643	20301
888.767	20244
888.891	20142
889.015	19978
889.139	20001
889.263	19860
889.387	19951
889.511	20111
889.635	19925
889.759	19715
889.883	19651
890.006	19830
890.13	19856
890.254	19567
890.377	19502
890.501	19441
890.624	19381
890.748	19430
890.871	19236
890.995	19133
891.118	19164
891.241	19050
891.364	19061
891.488	19194
891.611	19069
891.734	19065
891.857	19065
891.98	18966
892.103	19091
892.226	18939
892.349	18810
892.471	18722
892.594	18795
892.717	18825
892.839	18875
892.962	18726
893.085	18806
893.207	18722
893.33	18684
893.452	18658
893.575	18677
893.697	18559
893.819	18707
893.941	18894
894.064	18753
894.186	18547
894.308	18429
894.43	18677
894.552	18544
894.674	18578
894.796	18517
894.918	18407
895.04	18509
895.161	18521
895.283	18521
895.405	18502
895.526	18407
895.648	18467
895.769	18448
895.891	18433
896.012	18532
896.134	18388
896.255	18346
896.376	18311
896.498	18346
896.619	18479
896.74	18410
896.861	18540
896.982	18715
897.103	18863
897.224	18631
897.345	18578
897.466	18544
897.587	18502
897.708	18707
897.828	18585
897.949	18578
898.07	18399
898.19	18544
898.311	18566
898.431	18574
898.552	18623
898.672	18555
898.792	18661
898.913	18429
899.033	18498
899.153	18376
899.273	18361
899.393	18308
899.513	18483
899.633	18361
899.753	18399
899.873	18277
899.993	18338
900.113	18311
900.232	18304
900.352	18194
900.472	18163
900.591	18121
900.711	18121
900.83	18060
900.95	18285
901.069	18220
901.189	17977
901.308	17760
901.427	17653
901.546	17661
901.665	17832
901.784	17824
901.904	17547
902.023	17391
902.141	17193
902.26	17261
902.379	17296
902.498	17227
902.617	17067
902.735	17185
902.854	17170
902.973	17052
903.091	16946
903.21	16896
903.328	16778
903.446	16626
903.565	16675
903.683	16611
903.801	16485
903.919	16565
904.038	16592
904.156	16470
904.274	16348
904.392	16360
904.51	16268
904.627	16386
904.745	16470
904.863	16386
904.981	16071
905.098	16002
905.216	15907
905.334	15987
905.451	16006
905.569	15979
905.686	16032
905.803	16105
905.921	15774
906.038	15842
906.155	15789
906.272	15705
906.389	15690
906.506	15462
906.623	15469
906.74	15523
906.857	15443
906.974	15412
907.091	15625
907.208	15584
907.324	15519
907.441	15340
907.557	15302
907.674	15249
907.79	15199
907.907	15245
908.023	15199
908.139	15218
908.256	15146
908.372	15161
908.488	15100
908.604	14956
908.72	14800
908.836	14941
908.952	14849
909.068	14952
909.184	14960
909.3	14902
909.415	14914
909.531	14948
909.647	14743
909.762	14610
909.878	14617
909.993	14617
910.108	14640
910.224	14617
910.339	14636
910.454	14549
910.57	14488
910.685	14298
910.8	14640
910.915	14644
911.03	14446
911.145	14278
911.259	14290
911.374	14286
911.489	14138
911.604	14183
911.718	14107
911.833	13986
911.947	13925
912.062	13826
912.176	14005
912.291	13970
912.405	13879
912.519	14202
912.633	14176
912.748	14031
912.862	13936
912.976	13830
913.09	13750
913.204	13791
913.318	13940
913.431	13841
913.545	13978
913.659	13963
913.772	13849
913.886	13685
914	13685
914.113	13811
914.226	13765
914.34	13772
914.453	13582
914.566	13765
914.68	13491
914.793	13597
914.906	13422
915.019	13362
915.132	13320
915.245	13304
915.358	13346
915.47	13381
915.583	13411
915.696	13365
915.809	13506
915.921	13529
916.034	13388
916.146	13285
916.259	13293
916.371	13392
916.483	13354
916.595	13263
916.708	13202
916.82	13278
916.932	13289
917.044	13388
917.156	13255
917.268	13091
917.38	13084
917.491	13118
917.603	13183
917.715	13175
917.826	13160
917.938	13031
918.049	12901
918.161	12989
918.272	13164
918.384	13110
918.495	13091
918.606	12894
918.717	12829
918.828	12856
918.939	12867
919.05	12779
919.161	12776
919.272	12608
919.383	12669
919.494	12890
919.604	13027
919.715	12882
919.826	12692
919.936	12726
920.047	12875
920.157	12730
920.267	12989
920.378	12837
920.488	12715
920.598	12966
920.708	13084
920.818	13034
920.928	12905
921.038	13053
921.148	12985
921.258	12783
921.368	12658
921.477	12532
921.587	12570
921.697	12426
921.806	12593
921.916	12448
922.025	12334
922.134	12300
922.244	12129
922.353	12289
922.462	12083
922.571	12121
922.68	11916
922.789	11923
922.898	11847
923.007	11840
923.116	11927
923.224	11859
923.333	11840
923.442	11821
923.55	11748
923.659	11760
923.767	11783
923.876	11737
923.984	11672
924.092	11623
924.201	11672
924.309	11707
924.417	11688
924.525	11608
924.633	11558
924.741	12376
924.849	11429
924.956	11558
925.064	11436
925.172	11345
925.279	11372
925.387	11463
925.494	11353
925.602	11490
925.709	11478
925.816	11391
925.924	11383
926.031	11440
926.138	11448
926.245	11433
926.352	11303
926.459	11414
926.566	11402
926.673	11292
926.779	11102
926.886	11117
926.993	11045
927.099	11045
927.206	11060
927.312	10904
927.419	11079
927.525	11060
927.631	11056
927.737	10881
927.843	10911
927.95	10885
928.056	10915
928.162	10885
928.267	10919
928.373	11455
928.479	10942
928.585	10755
928.69	10847
928.796	10900
928.901	10744
929.007	10542
929.112	10767
929.218	10714
929.323	10622
929.428	10649
929.533	10725
929.638	10546
929.743	10447
929.848	10588
929.953	10550
930.058	10470
930.163	10325
930.267	10360
930.372	10497
930.477	10276
930.581	10554
930.685	10363
930.79	10344
930.894	10234
930.998	10303
931.103	10306
931.207	10078
931.311	9964
931.415	9850
931.519	9675
931.623	9705
