Data from test_V78500241_499.txt Node
Date: Fri Mar 25 14:37:11 CST 2022
User: usil
Spectrometer: V785-0024
Trigger mode: 0
Integration Time (sec): 4.000000E-1
Scans to average: 1
Nonlinearity correction enabled: false
Boxcar width: 0
Storing dark spectrum: false
XAxis mode: Wavelengths
Number of Pixels in Spectrum: 1024
>>>>>Begin Spectral Data<<<<<
801.071	26785
801.214	26750
801.356	26408
801.499	26476
801.641	26237
801.783	26161
801.926	26305
802.068	26081
802.211	26122
802.353	26001
802.496	25639
802.638	25742
802.78	25795
802.923	25655
803.065	25506
803.208	25613
803.35	25666
803.492	25727
803.635	25860
803.777	25635
803.919	25616
804.061	26020
804.204	25658
804.346	25689
804.488	25613
804.63	25624
804.773	25624
804.915	25582
805.057	25761
805.199	25666
805.341	25708
805.483	25662
805.626	25750
805.768	25655
805.91	25723
806.052	25567
806.194	25639
806.336	25875
806.478	25727
806.62	25620
806.762	25852
806.904	25997
807.046	26244
807.188	26256
807.33	26278
807.472	26301
807.614	26119
807.756	25993
807.898	26157
808.04	26126
808.182	26336
808.324	26381
808.465	26488
808.607	26910
808.749	27287
808.891	27283
809.033	27329
809.174	27116
809.316	26899
809.458	26800
809.6	26469
809.741	26526
809.883	26457
810.025	26560
810.166	26495
810.308	26530
810.45	26396
810.591	26324
810.733	26145
810.875	26096
811.016	26111
811.158	26005
811.299	26031
811.441	26100
811.582	26130
811.724	26008
811.865	25928
812.007	25959
812.148	25932
812.29	25940
812.431	26100
812.573	26282
812.714	26568
812.855	26434
812.997	26606
813.138	26781
813.279	26613
813.421	26434
813.562	26275
813.703	26278
813.845	26020
813.986	25818
814.127	25670
814.268	25552
814.41	25544
814.551	25552
814.692	25734
814.833	25377
814.974	25582
815.115	25441
815.256	25384
815.397	25327
815.539	25468
815.68	25293
815.821	25110
815.962	25251
816.103	25251
816.244	25084
816.385	24970
816.526	24932
816.666	24817
816.807	24627
816.948	24703
817.089	24719
817.23	24665
817.371	24521
817.512	24566
817.653	24559
817.793	24498
817.934	24585
818.075	24665
818.216	24582
818.356	24593
818.497	24376
818.638	24190
818.778	24285
818.919	24323
819.06	24357
819.2	24372
819.341	24582
819.481	24494
819.622	24715
819.762	24837
819.903	24772
820.043	24658
820.184	24597
820.324	24563
820.465	24654
820.605	24593
820.746	24601
820.886	24483
821.026	24414
821.167	24467
821.307	24513
821.447	24582
821.588	24273
821.728	24308
821.868	24072
822.008	23828
822.149	23992
822.289	23885
822.429	23566
822.569	23608
822.709	23509
822.849	23303
822.99	23379
823.13	23269
823.27	23299
823.41	23223
823.55	23056
823.69	23296
823.83	23147
823.97	23064
824.11	22927
824.25	22927
824.389	22942
824.529	22949
824.669	22984
824.809	23037
824.949	23010
825.089	23022
825.228	22911
825.368	22790
825.508	22675
825.648	22721
825.787	22748
825.927	22774
826.067	22725
826.206	22634
826.346	22774
826.485	22748
826.625	22740
826.765	22847
826.904	22717
827.044	22462
827.183	22417
827.323	22303
827.462	22390
827.601	22489
827.741	22417
827.88	22360
828.02	22169
828.159	22329
828.298	22242
828.437	22371
828.577	22280
828.716	22363
828.855	22322
828.994	22124
829.134	22150
829.273	22158
829.412	21991
829.551	22010
829.69	21953
829.829	21991
829.968	22070
830.107	22120
830.246	22078
830.385	22067
830.524	21945
830.663	21873
830.802	21705
830.941	21622
831.08	21625
831.219	21720
831.357	21622
831.496	21819
831.635	21618
831.774	21530
831.913	21450
832.051	21405
832.19	21294
832.329	21420
832.467	21363
832.606	21302
832.744	21264
832.883	21306
833.022	21268
833.16	21291
833.299	21310
833.437	21260
833.576	21340
833.714	21378
833.852	21416
833.991	21332
834.129	21431
834.267	21496
834.406	21275
834.544	21313
834.682	21222
834.821	21336
834.959	21469
835.097	21157
835.235	21428
835.373	21245
835.511	21245
835.65	21108
835.788	21009
835.926	21001
836.064	21009
836.202	21020
836.34	21211
836.478	21112
836.615	21195
836.753	21089
836.891	21096
837.029	21135
837.167	21081
837.305	20998
837.443	20960
837.58	20994
837.718	21066
837.856	20921
837.993	20956
838.131	20994
838.269	20986
838.406	20899
838.544	20800
838.681	20659
838.819	20609
838.956	20377
839.094	20431
839.231	20606
839.369	20571
839.506	20804
839.643	20571
839.781	20385
839.918	20446
840.055	20480
840.193	20377
840.33	20305
840.467	20385
840.604	20347
840.742	20594
840.879	20157
841.016	20218
841.153	20172
841.29	20522
841.427	20267
841.564	20351
841.701	20309
841.838	20221
841.975	20119
842.112	20218
842.249	20027
842.385	20183
842.522	20202
842.659	20164
842.796	19982
842.933	20119
843.069	19967
843.206	19989
843.343	20142
843.479	20065
843.616	20103
843.752	19864
843.889	19928
844.025	19887
844.162	19776
844.298	19925
844.435	19689
844.571	19788
844.708	19742
844.844	19978
844.98	20039
845.117	19989
845.253	20008
845.389	19803
845.525	20077
845.661	20290
845.798	20431
845.934	20777
846.07	20914
846.206	20845
846.342	20773
846.478	20389
846.614	19868
846.75	19594
846.886	19480
847.022	19552
847.158	19476
847.294	19377
847.429	19312
847.565	19221
847.701	19476
847.837	19103
847.972	19057
848.108	19046
848.244	19084
848.379	19057
848.515	18909
848.65	18882
848.786	18844
848.921	18825
849.057	18958
849.192	18916
849.328	18806
849.463	18871
849.598	18677
849.734	18711
849.869	18684
850.004	18623
850.14	18593
850.275	18578
850.41	18490
850.545	18528
850.68	18559
850.815	18673
850.95	18612
851.085	18753
851.22	18604
851.355	18589
851.49	18707
851.625	18422
851.76	18456
851.895	18483
852.03	18448
852.165	18490
852.299	18578
852.434	18532
852.569	18574
852.703	18684
852.838	18532
852.973	18768
853.107	18703
853.242	18479
853.376	18403
853.511	18292
853.645	18281
853.78	18582
853.914	18407
854.048	18380
854.183	18277
854.317	18330
854.451	18517
854.585	18304
854.72	18395
854.854	18369
854.988	18403
855.122	18357
855.256	18357
855.39	18471
855.524	18429
855.658	18418
855.792	18403
855.926	18414
856.06	18334
856.194	18445
856.327	18407
856.461	18281
856.595	18235
856.729	18323
856.862	18513
856.996	18498
857.13	18422
857.263	18395
857.397	18418
857.53	18270
857.664	18369
857.797	18369
857.931	18486
858.064	18399
858.197	18464
858.331	18361
858.464	18270
858.597	18258
858.731	18300
858.864	18254
858.997	18224
859.13	18315
859.263	18391
859.396	18296
859.529	18228
859.662	18235
859.795	18197
859.928	18330
860.061	18407
860.194	18498
860.327	18289
860.46	18296
860.592	18414
860.725	18441
860.858	18365
860.99	18311
861.123	18209
861.256	18209
861.388	18270
861.521	19072
861.653	18205
861.786	18171
861.918	18220
862.05	18224
862.183	18315
862.315	18311
862.447	18506
862.58	18342
862.712	17992
862.844	17992
862.976	18163
863.108	18076
863.24	18483
863.372	18030
863.504	18106
863.636	18064
863.768	18087
863.9	17897
864.032	17942
864.164	18038
864.296	18030
864.428	18106
864.559	18079
864.691	18019
864.823	18022
864.954	17935
865.086	18038
865.217	18030
865.349	17901
865.48	18003
865.612	17996
865.743	18049
865.875	18007
866.006	17901
866.137	17912
866.269	17969
866.4	17878
866.531	17874
866.662	17859
866.793	17885
866.924	17912
867.055	17980
867.186	17786
867.317	17916
867.448	17863
867.579	17897
867.71	17828
867.841	17813
867.972	17920
868.103	17817
868.233	17969
868.364	17973
868.495	18007
868.625	18224
868.756	18182
868.886	18190
869.017	18110
869.147	18243
869.278	18140
869.408	18209
869.539	18136
869.669	18266
869.799	18144
869.929	18213
870.06	18155
870.19	18422
870.32	18391
870.45	18448
870.58	18578
870.71	18585
870.84	18620
870.97	18528
871.1	18448
871.23	18730
871.36	18825
871.489	18631
871.619	18650
871.749	18779
871.879	18875
872.008	18863
872.138	18791
872.267	18711
872.397	18528
872.526	18604
872.656	18540
872.785	18608
872.915	18760
873.044	18840
873.173	18764
873.303	18806
873.432	18829
873.561	18928
873.69	18768
873.819	18738
873.948	18886
874.077	18863
874.206	18738
874.335	18783
874.464	18962
874.593	19095
874.722	18928
874.851	19168
874.979	19000
875.108	19065
875.237	19012
875.365	19008
875.494	19091
875.623	19152
875.751	18989
875.88	19148
876.008	19160
876.136	19270
876.265	19605
876.393	19586
876.521	19734
876.65	19632
876.778	19472
876.906	19419
877.034	19457
877.162	19453
877.29	19335
877.418	19609
877.546	19567
877.674	19540
877.802	19552
877.93	19510
878.058	19430
878.185	19502
878.313	19575
878.441	19502
878.568	19434
878.696	19502
878.824	19677
878.951	19674
879.079	19849
879.206	20168
879.333	20142
879.461	20096
879.588	20145
879.715	20195
879.842	20286
879.97	19959
880.097	19727
880.224	19518
880.351	19689
880.478	19616
880.605	19472
880.732	19403
880.859	19712
880.986	19476
881.112	19415
881.239	19396
881.366	19236
881.493	19042
881.619	19053
881.746	19110
881.872	19084
881.999	19065
882.125	18996
882.252	19221
882.378	19122
882.505	19209
882.631	18920
882.757	18958
882.883	18783
883.01	18897
883.136	18878
883.262	18787
883.388	18673
883.514	18928
883.64	18897
883.766	18681
883.892	18616
884.018	18757
884.143	18791
884.269	19034
884.395	18631
884.52	18536
884.646	18589
884.772	18570
884.897	18486
885.023	18532
885.148	18597
885.274	18688
885.399	18642
885.524	18555
885.65	18506
885.775	18559
885.9	18464
886.025	18525
886.15	18582
886.275	18388
886.4	18391
886.525	18414
886.65	18369
886.775	18353
886.9	18464
887.025	18616
887.149	18342
887.274	18270
887.399	18098
887.523	18194
887.648	18148
887.773	18072
887.897	18232
888.021	18258
888.146	18125
888.27	18247
888.395	18292
888.519	18194
888.643	18311
888.767	18178
888.891	18026
889.015	17977
889.139	18102
889.263	18003
889.387	18102
889.511	18262
889.635	18155
889.759	17988
889.883	17920
890.006	17897
890.13	18007
890.254	17942
890.377	17882
890.501	17760
890.624	17726
890.748	17802
890.871	17558
890.995	17528
891.118	17585
891.241	17611
891.364	17581
891.488	17630
891.611	17653
891.734	17547
891.857	17657
891.98	17585
892.103	17722
892.226	17539
892.349	17509
892.471	17486
892.594	17566
892.717	17551
892.839	17532
892.962	17516
893.085	17585
893.207	17554
893.33	17395
893.452	17486
893.575	17551
893.697	17581
893.819	17668
893.941	17745
894.064	17566
894.186	17471
894.308	17387
894.43	17608
894.552	17585
894.674	17619
894.796	17364
894.918	17410
895.04	17395
895.161	17627
895.283	17581
895.405	17421
895.526	17551
895.648	17604
895.769	17524
895.891	17619
896.012	17703
896.134	17680
896.255	17554
896.376	17573
896.498	17547
896.619	17592
896.74	17630
896.861	17649
896.982	17965
897.103	18129
897.224	17889
897.345	17863
897.466	17813
897.587	17802
897.708	17984
897.828	17901
897.949	17870
898.07	17771
898.19	17714
898.311	17893
898.431	17813
898.552	17824
898.672	17950
898.792	17961
898.913	17821
899.033	17707
899.153	17718
899.273	17608
899.393	17627
899.513	17695
899.633	17581
899.753	17722
899.873	17653
899.993	17630
900.113	17551
900.232	17695
900.352	17524
900.472	17493
900.591	17455
900.711	17532
900.83	17520
900.95	17562
901.069	17596
901.189	17429
901.308	17105
901.427	17121
901.546	17045
901.665	17151
901.784	17025
901.904	16987
902.023	16767
902.141	16653
902.26	16592
902.379	16801
902.498	16546
902.617	16588
902.735	16588
902.854	16675
902.973	16455
903.091	16196
903.21	16257
903.328	16306
903.446	16139
903.565	16192
903.683	16139
903.801	15983
903.919	16006
904.038	16112
904.156	15903
904.274	15968
904.392	15842
904.51	15888
904.627	15895
904.745	15838
904.863	15941
904.981	15736
905.098	15526
905.216	15599
905.334	15587
905.451	15538
905.569	15477
905.686	15500
905.803	15625
905.921	15317
906.038	15462
906.155	15386
906.272	15180
906.389	15233
906.506	15081
906.623	15055
906.74	14979
906.857	14994
906.974	14937
907.091	15100
907.208	15272
907.324	14982
907.441	14971
907.557	14902
907.674	14815
907.79	14697
907.907	14750
908.023	14792
908.139	14701
908.256	14800
908.372	14682
908.488	14678
908.604	14404
908.72	14533
908.836	14457
908.952	14393
909.068	14457
909.184	14564
909.3	14419
909.415	14461
909.531	14396
909.647	14233
909.762	14267
909.878	14134
909.993	14161
910.108	14195
910.224	14149
910.339	14180
910.454	14115
910.57	13936
910.685	14012
910.8	14229
910.915	14244
911.03	14077
911.145	13871
911.259	13780
911.374	13868
911.489	13780
911.604	13685
911.718	13499
911.833	13518
911.947	13468
912.062	13350
912.176	13575
912.291	13518
912.405	13472
912.519	13753
912.633	13670
912.748	13582
912.862	13445
912.976	13396
913.09	13270
913.204	13434
913.318	13472
913.431	13480
913.545	13453
913.659	13434
913.772	13354
913.886	13289
914	13274
914.113	13350
914.226	13403
914.34	13335
914.453	13160
914.566	13255
914.68	13114
914.793	13141
914.906	13034
915.019	12943
915.132	12844
915.245	12985
915.358	12947
915.47	12962
915.583	12947
915.696	13027
915.809	13061
915.921	13023
916.034	12852
916.146	12859
916.259	12875
916.371	12939
916.483	12966
916.595	12840
916.708	12696
916.82	12859
916.932	12764
917.044	12772
917.156	12776
917.268	12700
917.38	12635
917.491	12696
917.603	12696
917.715	12810
917.826	12726
917.938	12703
918.049	12471
918.161	12688
918.272	12768
918.384	12745
918.495	12650
918.606	12509
918.717	12399
918.828	12441
918.939	12498
919.05	12399
919.161	12467
919.272	12270
919.383	12289
919.494	12521
919.604	12692
919.715	12338
919.826	12357
919.936	12388
920.047	12509
920.157	12384
920.267	12658
920.378	12498
920.488	12452
920.598	12639
920.708	12741
920.818	12677
920.928	12551
921.038	12688
921.148	12654
921.258	12437
921.368	12323
921.477	12163
921.587	12102
921.697	11996
921.806	12216
921.916	12015
922.025	11901
922.134	11874
922.244	11813
922.353	11942
922.462	11737
922.571	11809
922.68	11592
922.789	11474
922.898	11551
923.007	11615
923.116	11516
923.224	11562
923.333	11516
923.442	11376
923.55	11330
923.659	11387
923.767	11402
923.876	11341
923.984	11387
924.092	11201
924.201	11349
924.309	11356
924.417	11353
924.525	11239
924.633	11303
924.741	12167
924.849	11090
924.956	11349
925.064	11105
925.172	11003
925.279	11041
925.387	11162
925.494	11048
925.602	11143
925.709	11208
925.816	10980
925.924	11022
926.031	11079
926.138	11033
926.245	11113
926.352	10934
926.459	11033
926.566	11136
926.673	10968
926.779	10904
926.886	10930
926.993	10721
927.099	10752
927.206	10687
927.312	10683
927.419	10664
927.525	10767
927.631	10691
927.737	10611
927.843	10538
927.95	10485
928.056	10519
928.162	10538
928.267	10584
928.373	11048
928.479	10672
928.585	10417
928.69	10523
928.796	10615
928.901	10382
929.007	10265
929.112	10436
929.218	10360
929.323	10272
929.428	10325
929.533	10436
929.638	10280
929.743	10246
929.848	10360
929.953	10265
930.058	10280
930.163	10040
930.267	9926
930.372	10181
930.477	9960
930.581	10211
930.685	10112
930.79	9991
930.894	9968
930.998	9922
931.103	10101
931.207	9728
931.311	9698
931.415	9568
931.519	9412
931.623	9428
