Data from test_V78500241_897.txt Node
Date: Fri Mar 25 14:39:57 CST 2022
User: usil
Spectrometer: V785-0024
Trigger mode: 0
Integration Time (sec): 4.000000E-1
Scans to average: 1
Nonlinearity correction enabled: false
Boxcar width: 0
Storing dark spectrum: false
XAxis mode: Wavelengths
Number of Pixels in Spectrum: 1024
>>>>>Begin Spectral Data<<<<<
801.071	25251
801.214	24954
801.356	24825
801.499	24783
801.641	24627
801.783	24410
801.926	24422
802.068	24407
802.211	24357
802.353	24319
802.496	24098
802.638	23958
802.78	23802
802.923	23939
803.065	23908
803.208	23855
803.35	23851
803.492	23977
803.635	23996
803.777	23870
803.919	23961
804.061	24190
804.204	23916
804.346	23695
804.488	23729
804.63	23893
804.773	23722
804.915	23851
805.057	23923
805.199	23901
805.341	24098
805.483	23988
805.626	23996
805.768	23885
805.91	24117
806.052	24087
806.194	24083
806.336	24296
806.478	24174
806.62	24342
806.762	24395
806.904	24525
807.046	24924
807.188	24798
807.33	24890
807.472	25137
807.614	25263
807.756	25575
807.898	25696
808.04	25921
808.182	26499
808.324	27192
808.465	27599
808.607	28577
808.749	29467
808.891	29729
809.033	29984
809.174	29368
809.316	28607
809.458	27903
809.6	26990
809.741	26461
809.883	26027
810.025	25784
810.166	25468
810.308	25343
810.45	25126
810.591	24878
810.733	24741
810.875	24642
811.016	24448
811.158	24388
811.299	24483
811.441	24544
811.582	24380
811.724	24361
811.865	24315
812.007	24155
812.148	24171
812.29	24365
812.431	24369
812.573	24551
812.714	24604
812.855	24749
812.997	24791
813.138	24715
813.279	24669
813.421	24707
813.562	24601
813.703	24323
813.845	24262
813.986	23916
814.127	23802
814.268	23805
814.41	23832
814.551	23520
814.692	23653
814.833	23573
814.974	23528
815.115	23547
815.256	23482
815.397	23444
815.539	23425
815.68	23478
815.821	23273
815.962	23395
816.103	23242
816.244	23147
816.385	23060
816.526	22953
816.666	22683
816.807	22763
816.948	22831
817.089	22820
817.23	22702
817.371	22778
817.512	22755
817.653	22744
817.793	22736
817.934	22637
818.075	22668
818.216	22702
818.356	22862
818.497	22512
818.638	22310
818.778	22500
818.919	22489
819.06	22405
819.2	22500
819.341	22546
819.481	22485
819.622	22702
819.762	22744
819.903	22790
820.043	22687
820.184	22687
820.324	22675
820.465	22656
820.605	22660
820.746	22607
820.886	22276
821.026	22504
821.167	22405
821.307	22561
821.447	22443
821.588	22398
821.728	22284
821.868	22029
822.008	21979
822.149	22025
822.289	21755
822.429	21717
822.569	21660
822.709	21739
822.849	21401
822.99	21428
823.13	21447
823.27	21393
823.41	21176
823.55	21116
823.69	21283
823.83	21260
823.97	21161
824.11	21009
824.25	20914
824.389	20933
824.529	21093
824.669	21081
824.809	21062
824.949	21062
825.089	21112
825.228	21173
825.368	20769
825.508	20868
825.648	20849
825.787	20895
825.927	20785
826.067	20823
826.206	20762
826.346	20765
826.485	20735
826.625	20705
826.765	20960
826.904	20735
827.044	20518
827.183	20461
827.323	20476
827.462	20457
827.601	20476
827.741	20400
827.88	20366
828.02	20320
828.159	20518
828.298	20412
828.437	20461
828.577	20450
828.716	20484
828.855	20328
828.994	20218
829.134	20191
829.273	20233
829.412	20149
829.551	20153
829.69	20191
829.829	20153
829.968	20244
830.107	20278
830.246	20077
830.385	20058
830.524	20035
830.663	20027
830.802	19814
830.941	19849
831.08	19757
831.219	19788
831.357	19830
831.496	20005
831.635	19841
831.774	19594
831.913	19506
832.051	19586
832.19	19632
832.329	19499
832.467	19392
832.606	19396
832.744	19381
832.883	19529
833.022	19510
833.16	19487
833.299	19655
833.437	19597
833.576	19620
833.714	19639
833.852	19635
833.991	19689
834.129	19761
834.267	19845
834.406	19643
834.544	19803
834.682	19594
834.821	19586
834.959	19658
835.097	19460
835.235	19582
835.373	19590
835.511	19369
835.65	19343
835.788	19320
835.926	19324
836.064	19141
836.202	19141
836.34	19358
836.478	19274
836.615	19114
836.753	19278
836.891	19373
837.029	19285
837.167	19141
837.305	19225
837.443	19107
837.58	19091
837.718	19129
837.856	19072
837.993	19072
838.131	19213
838.269	19023
838.406	19103
838.544	18882
838.681	18814
838.819	18616
838.956	18650
839.094	18570
839.231	18646
839.369	18726
839.506	18962
839.643	18882
839.781	18623
839.918	18551
840.055	18528
840.193	18555
840.33	18639
840.467	18513
840.604	18574
840.742	18741
840.879	18380
841.016	18467
841.153	18467
841.29	18658
841.427	18566
841.564	18547
841.701	18490
841.838	18525
841.975	18388
842.112	18391
842.249	18289
842.385	18300
842.522	18544
842.659	18254
842.796	18311
842.933	18353
843.069	18292
843.206	18171
843.343	18441
843.479	18391
843.616	18304
843.752	18152
843.889	18155
844.025	18235
844.162	18083
844.298	18174
844.435	18216
844.571	18273
844.708	18365
844.844	18479
844.98	18601
845.117	18772
845.253	18726
845.389	19137
845.525	19917
845.661	21108
845.798	22466
845.934	23840
846.07	24441
846.206	24273
846.342	23391
846.478	21625
846.614	20149
846.75	19160
846.886	18559
847.022	18338
847.158	17961
847.294	17832
847.429	17863
847.565	17764
847.701	17897
847.837	17452
847.972	17311
848.108	17497
848.244	17425
848.379	17174
848.515	17155
848.65	17128
848.786	17098
848.921	17212
849.057	17273
849.192	17242
849.328	17193
849.463	17140
849.598	17132
849.734	17064
849.869	16965
850.004	16999
850.14	17003
850.275	16934
850.41	16885
850.545	16835
850.68	16839
850.815	16942
850.95	16786
851.085	17113
851.22	16892
851.355	16904
851.49	16873
851.625	16900
851.76	16957
851.895	16778
852.03	16824
852.165	16816
852.299	16930
852.434	16968
852.569	16927
852.703	16953
852.838	16930
852.973	17105
853.107	17067
853.242	16847
853.376	16812
853.511	16656
853.645	16729
853.78	16812
853.914	16831
854.048	16740
854.183	16664
854.317	16801
854.451	17041
854.585	16713
854.72	16713
854.854	16828
854.988	16660
855.122	16824
855.256	16626
855.39	16843
855.524	16930
855.658	16847
855.792	16839
855.926	16805
856.06	16816
856.194	16801
856.327	16679
856.461	16721
856.595	16706
856.729	16748
856.862	16809
856.996	16763
857.13	16767
857.263	16877
857.397	16843
857.53	16694
857.664	16721
857.797	16873
857.931	16759
858.064	16748
858.197	16797
858.331	16679
858.464	16668
858.597	16607
858.731	16698
858.864	16641
858.997	16641
859.13	16542
859.263	16763
859.396	16710
859.529	16622
859.662	16622
859.795	16558
859.928	16752
860.061	16847
860.194	16816
860.327	16672
860.46	16634
860.592	16721
860.725	16850
860.858	16752
860.99	16672
861.123	16584
861.256	16569
861.388	16683
861.521	17254
861.653	16485
861.786	16424
861.918	16523
862.05	16660
862.183	16672
862.315	16618
862.447	16683
862.58	16599
862.712	16481
862.844	16295
862.976	16462
863.108	16470
863.24	16816
863.372	16356
863.504	16322
863.636	16318
863.768	16440
863.9	16337
864.032	16284
864.164	16360
864.296	16314
864.428	16424
864.559	16421
864.691	16405
864.823	16436
864.954	16341
865.086	16443
865.217	16325
865.349	16322
865.48	16341
865.612	16295
865.743	16390
865.875	16443
866.006	16242
866.137	16451
866.269	16424
866.4	16344
866.531	16272
866.662	16200
866.793	16242
866.924	16246
867.055	16413
867.186	16268
867.317	16306
867.448	16234
867.579	16246
867.71	16322
867.841	16238
867.972	16295
868.103	16337
868.233	16303
868.364	16379
868.495	16325
868.625	16512
868.756	16592
868.886	16375
869.017	16542
869.147	16656
869.278	16736
869.408	16493
869.539	16523
869.669	16577
869.799	16641
869.929	16672
870.06	16626
870.19	16942
870.32	16881
870.45	17010
870.58	17041
870.71	17136
870.84	17060
870.97	16896
871.1	16873
871.23	17033
871.36	17178
871.489	17151
871.619	17090
871.749	17174
871.879	17223
872.008	17193
872.138	17208
872.267	17098
872.397	17098
872.526	16987
872.656	17010
872.785	17006
872.915	17151
873.044	17250
873.173	17193
873.303	17227
873.432	17292
873.561	17349
873.69	17227
873.819	17220
873.948	17524
874.077	17181
874.206	17220
874.335	17311
874.464	17406
874.593	17436
874.722	17539
874.851	17672
874.979	17619
875.108	17707
875.237	17615
875.365	17509
875.494	17581
875.623	17798
875.751	17638
875.88	17718
876.008	17855
876.136	17859
876.265	18133
876.393	18243
876.521	18133
876.65	18178
876.778	18091
876.906	18030
877.034	18076
877.162	18117
877.29	18098
877.418	18220
877.546	18163
877.674	18220
877.802	18296
877.93	18296
878.058	18258
878.185	18426
878.313	18509
878.441	18566
878.568	18506
878.696	18646
878.824	18981
878.951	19225
879.079	19609
879.206	20252
879.333	20609
879.461	20975
879.588	21237
879.715	21397
879.842	21203
879.97	20636
880.097	19917
880.224	19514
880.351	19297
880.478	19027
880.605	18867
880.732	18779
880.859	18932
880.986	18833
881.112	18688
881.239	18646
881.366	18456
881.493	18410
881.619	18258
881.746	18308
881.872	18273
881.999	18289
882.125	18292
882.252	18388
882.378	18395
882.505	18612
882.631	18262
882.757	18205
882.883	18300
883.01	18182
883.136	18079
883.262	17969
883.388	18011
883.514	18125
883.64	18201
883.766	18019
883.892	18083
884.018	18041
884.143	18163
884.269	18220
884.395	17847
884.52	17855
884.646	17939
884.772	17809
884.897	17741
885.023	17836
885.148	17904
885.274	17904
885.399	17851
885.524	17767
885.65	17703
885.775	17684
885.9	17745
886.025	17809
886.15	17748
886.275	17501
886.4	17528
886.525	17516
886.65	17414
886.775	17421
886.9	17562
887.025	17653
887.149	17467
887.274	17318
887.399	17330
887.523	17170
887.648	17098
887.773	17098
887.897	17178
888.021	17124
888.146	16999
888.27	17064
888.395	17322
888.519	17166
888.643	17227
888.767	17048
888.891	17006
889.015	16873
889.139	16961
889.263	16790
889.387	16923
889.511	16968
889.635	16984
889.759	16683
889.883	16771
890.006	16862
890.13	16740
890.254	16687
890.377	16744
890.501	16622
890.624	16603
890.748	16565
890.871	16504
890.995	16314
891.118	16398
891.241	16356
891.364	16455
891.488	16592
891.611	16402
891.734	16314
891.857	16481
891.98	16322
892.103	16462
892.226	16337
892.349	16318
892.471	16215
892.594	16344
892.717	16367
892.839	16261
892.962	16325
893.085	16371
893.207	16287
893.33	16074
893.452	16223
893.575	16287
893.697	16226
893.819	16344
893.941	16371
894.064	16398
894.186	16215
894.308	16215
894.43	16344
894.552	16284
894.674	16443
894.796	16230
894.918	16230
895.04	16207
895.161	16428
895.283	16169
895.405	16284
895.526	16200
895.648	16291
895.769	16291
895.891	16234
896.012	16394
896.134	16325
896.255	16382
896.376	16352
896.498	16314
896.619	16390
896.74	16306
896.861	16318
896.982	16626
897.103	16828
897.224	16489
897.345	16538
897.466	16481
897.587	16508
897.708	16710
897.828	16607
897.949	16481
898.07	16443
898.19	16436
898.311	16626
898.431	16622
898.552	16702
898.672	16668
898.792	16607
898.913	16637
899.033	16527
899.153	16428
899.273	16291
899.393	16382
899.513	16466
899.633	16447
899.753	16596
899.873	16451
899.993	16497
900.113	16405
900.232	16413
900.352	16500
900.472	16337
900.591	16234
900.711	16310
900.83	16348
900.95	16405
901.069	16379
901.189	16253
901.308	15983
901.427	15972
901.546	15956
901.665	16017
901.784	15941
901.904	15804
902.023	15686
902.141	15568
902.26	15553
902.379	15568
902.498	15378
902.617	15431
902.735	15424
902.854	15374
902.973	15355
903.091	15123
903.21	15135
903.328	15093
903.446	15043
903.565	14887
903.683	15017
903.801	14914
903.919	14918
904.038	14842
904.156	14735
904.274	14857
904.392	14659
904.51	14697
904.627	14697
904.745	14735
904.863	14716
904.981	14545
905.098	14366
905.216	14438
905.334	14358
905.451	14415
905.569	14374
905.686	14412
905.803	14301
905.921	14195
906.038	14290
906.155	14309
906.272	14119
906.389	14065
906.506	13860
906.623	14024
906.74	13921
906.857	13799
906.974	13757
907.091	13982
907.208	14065
907.324	13967
907.441	13769
907.557	13715
907.674	13624
907.79	13616
907.907	13693
908.023	13605
908.139	13731
908.256	13609
908.372	13548
908.488	13518
908.604	13419
908.72	13304
908.836	13396
908.952	13293
909.068	13476
909.184	13453
909.3	13327
909.415	13430
909.531	13476
909.647	13069
909.762	13164
909.878	13034
909.993	13099
910.108	13126
910.224	13152
910.339	13053
910.454	13053
910.57	12932
910.685	12935
910.8	13126
910.915	13080
911.03	12928
911.145	12802
911.259	12722
911.374	12745
911.489	12707
911.604	12722
911.718	12528
911.833	12490
911.947	12380
912.062	12361
912.176	12467
912.291	12528
912.405	12509
912.519	12616
912.633	12726
912.748	12536
912.862	12513
912.976	12266
913.09	12319
913.204	12334
913.318	12357
913.431	12464
913.545	12441
913.659	12414
913.772	12388
913.886	12281
914	12270
914.113	12292
914.226	12334
914.34	12247
914.453	12110
914.566	12228
914.68	12182
914.793	12125
914.906	11977
915.019	11863
915.132	11821
915.245	11954
915.358	11893
915.47	11954
915.583	11942
915.696	11908
915.809	12034
915.921	12030
916.034	11912
916.146	11794
916.259	11794
916.371	11969
916.483	11878
916.595	11745
916.708	11840
916.82	11878
916.932	11874
917.044	11798
917.156	11718
917.268	11737
917.38	11718
917.491	11653
917.603	11668
917.715	11668
917.826	11767
917.938	11604
918.049	11634
918.161	11695
918.272	11893
918.384	11847
918.495	11699
918.606	11532
918.717	11497
918.828	11501
918.939	11611
919.05	11444
919.161	11524
919.272	11258
919.383	11341
919.494	11570
919.604	11745
919.715	11501
919.826	11467
919.936	11516
920.047	11585
920.157	11497
920.267	11680
920.378	11471
920.488	11474
920.598	11756
920.708	11745
920.818	11722
920.928	11699
921.038	11840
921.148	11790
921.258	11596
921.368	11410
921.477	11334
921.587	11353
921.697	11216
921.806	11322
921.916	11269
922.025	11018
922.134	10980
922.244	10957
922.353	11064
922.462	10896
922.571	10721
922.68	10668
922.789	10622
922.898	10710
923.007	10580
923.116	10710
923.224	10634
923.333	10630
923.442	10584
923.55	10512
923.659	10588
923.767	10611
923.876	10569
923.984	10504
924.092	10512
924.201	10512
924.309	10481
924.417	10428
924.525	10428
924.633	10451
924.741	11181
924.849	10280
924.956	10375
925.064	10299
925.172	10287
925.279	10207
925.387	10333
925.494	10284
925.602	10443
925.709	10424
925.816	10181
925.924	10344
926.031	10295
926.138	10257
926.245	10287
926.352	10230
926.459	10356
926.566	10398
926.673	10207
926.779	10112
926.886	10128
926.993	9998
927.099	10002
927.206	9861
927.312	9892
927.419	10021
927.525	9922
927.631	9960
927.737	9861
927.843	9816
927.95	9709
928.056	9823
928.162	9922
928.267	9854
928.373	10455
928.479	9854
928.585	9587
928.69	9740
928.796	9804
928.901	9713
929.007	9614
929.112	9663
929.218	9747
929.323	9644
929.428	9553
929.533	9762
929.638	9492
929.743	9530
929.848	9587
929.953	9644
930.058	9481
930.163	9298
930.267	9313
930.372	9542
930.477	9317
930.581	9580
930.685	9424
930.79	9321
930.894	9260
930.998	9253
931.103	9408
931.207	9066
931.311	9058
931.415	9066
931.519	8834
931.623	8800
