Data from test_V78500241_941.txt Node
Date: Fri Mar 25 14:40:16 CST 2022
User: usil
Spectrometer: V785-0024
Trigger mode: 0
Integration Time (sec): 4.000000E-1
Scans to average: 1
Nonlinearity correction enabled: false
Boxcar width: 0
Storing dark spectrum: false
XAxis mode: Wavelengths
Number of Pixels in Spectrum: 1024
>>>>>Begin Spectral Data<<<<<
801.071	24422
801.214	24220
801.356	23927
801.499	23885
801.641	23786
801.783	23710
801.926	23748
802.068	23646
802.211	23531
802.353	23395
802.496	23288
802.638	23212
802.78	23220
802.923	23109
803.065	23022
803.208	22881
803.35	23109
803.492	23162
803.635	23174
803.777	23056
803.919	23128
804.061	23376
804.204	23197
804.346	23098
804.488	23018
804.63	23102
804.773	22968
804.915	23014
805.057	23128
805.199	23018
805.341	23197
805.483	23136
805.626	23269
805.768	23022
805.91	23056
806.052	23124
806.194	23113
806.336	23296
806.478	23239
806.62	23060
806.762	23197
806.904	23471
807.046	23832
807.188	23680
807.33	23646
807.472	23878
807.614	23889
807.756	24038
807.898	23961
808.04	24079
808.182	24266
808.324	24753
808.465	24954
808.607	25411
808.749	26027
808.891	26164
809.033	26298
809.174	25826
809.316	25434
809.458	25156
809.6	24901
809.741	24467
809.883	24270
810.025	24296
810.166	24205
810.308	24197
810.45	23908
810.591	23802
810.733	23668
810.875	23512
811.016	23307
811.158	23444
811.299	23448
811.441	23493
811.582	23467
811.724	23372
811.865	23334
812.007	23326
812.148	23292
812.29	23448
812.431	23592
812.573	23665
812.714	23767
812.855	23935
812.997	23969
813.138	23999
813.279	23939
813.421	23790
813.562	23767
813.703	23505
813.845	23440
813.986	23296
814.127	22987
814.268	22854
814.41	22896
814.551	22862
814.692	22866
814.833	22752
814.974	22809
815.115	22949
815.256	22603
815.397	22645
815.539	22577
815.68	22641
815.821	22478
815.962	22493
816.103	22577
816.244	22413
816.385	22455
816.526	22272
816.666	22109
816.807	21964
816.948	22105
817.089	22055
817.23	22006
817.371	21930
817.512	21930
817.653	21949
817.793	21911
817.934	21930
818.075	22010
818.216	21895
818.356	21930
818.497	21739
818.638	21679
818.778	21633
818.919	21515
819.06	21793
819.2	21831
819.341	21747
819.481	21698
819.622	21975
819.762	22048
819.903	22139
820.043	21937
820.184	21899
820.324	21857
820.465	21979
820.605	21842
820.746	21888
820.886	21720
821.026	21831
821.167	21892
821.307	21876
821.447	21819
821.588	21587
821.728	21526
821.868	21389
822.008	21264
822.149	21252
822.289	21298
822.429	21039
822.569	20899
822.709	20826
822.849	20705
822.99	20754
823.13	20724
823.27	20769
823.41	20617
823.55	20385
823.69	20594
823.83	20469
823.97	20442
824.11	20324
824.25	20195
824.389	20267
824.529	20309
824.669	20366
824.809	20339
824.949	20400
825.089	20351
825.228	20237
825.368	20142
825.508	20111
825.648	20092
825.787	20054
825.927	20187
826.067	20103
826.206	19955
826.346	20073
826.485	20202
826.625	20149
826.765	20176
826.904	20115
827.044	19936
827.183	19864
827.323	19723
827.462	19811
827.601	19719
827.741	19769
827.88	19818
828.02	19712
828.159	19704
828.298	19780
828.437	19734
828.577	19830
828.716	19879
828.855	19719
828.994	19529
829.134	19529
829.273	19495
829.412	19411
829.551	19434
829.69	19521
829.829	19514
829.968	19613
830.107	19426
830.246	19525
830.385	19327
830.524	19388
830.663	19263
830.802	19187
830.941	19065
831.08	19046
831.219	19099
831.357	19084
831.496	19247
831.635	19053
831.774	19019
831.913	18916
832.051	18806
832.19	18848
832.329	18886
832.467	18703
832.606	18726
832.744	18696
832.883	18795
833.022	18722
833.16	18730
833.299	18734
833.437	18810
833.576	18848
833.714	18871
833.852	18905
833.991	18867
834.129	18886
834.267	18825
834.406	18913
834.544	18985
834.682	18852
834.821	18700
834.959	18981
835.097	18833
835.235	18886
835.373	18882
835.511	18783
835.65	18692
835.788	18544
835.926	18566
836.064	18471
836.202	18479
836.34	18654
836.478	18768
836.615	18627
836.753	18620
836.891	18783
837.029	18578
837.167	18604
837.305	18559
837.443	18525
837.58	18467
837.718	18661
837.856	18486
837.993	18399
838.131	18566
838.269	18456
838.406	18361
838.544	18273
838.681	18171
838.819	18136
838.956	17935
839.094	17992
839.231	18076
839.369	18087
839.506	18285
839.643	18216
839.781	17950
839.918	17897
840.055	17942
840.193	17882
840.33	17874
840.467	17920
840.604	17920
840.742	18190
840.879	17745
841.016	17836
841.153	17813
841.29	17958
841.427	18152
841.564	18030
841.701	17904
841.838	17897
841.975	17843
842.112	17783
842.249	17802
842.385	17745
842.522	17961
842.659	17714
842.796	17661
842.933	17748
843.069	17600
843.206	17592
843.343	17745
843.479	17703
843.616	17661
843.752	17493
843.889	17490
844.025	17634
844.162	17551
844.298	17566
844.435	17482
844.571	17520
844.708	17554
844.844	17805
844.98	17790
845.117	17809
845.253	17771
845.389	17836
845.525	18289
845.661	18760
845.798	19491
845.934	20161
846.07	20396
846.206	20282
846.342	19928
846.478	19126
846.614	18277
846.75	17710
846.886	17402
847.022	17383
847.158	17181
847.294	17170
847.429	17216
847.565	17067
847.701	17258
847.837	16877
847.972	16748
848.108	16782
848.244	16755
848.379	16558
848.515	16519
848.65	16588
848.786	16618
848.921	16615
849.057	16691
849.192	16679
849.328	16596
849.463	16599
849.598	16523
849.734	16523
849.869	16386
850.004	16405
850.14	16379
850.275	16413
850.41	16299
850.545	16284
850.68	16341
850.815	16352
850.95	16322
851.085	16474
851.22	16363
851.355	16360
851.49	16299
851.625	16242
851.76	16246
851.895	16169
852.03	16128
852.165	16276
852.299	16325
852.434	16265
852.569	16424
852.703	16325
852.838	16466
852.973	16516
853.107	16405
853.242	16257
853.376	16211
853.511	16097
853.645	16169
853.78	16386
853.914	16253
854.048	16185
854.183	16154
854.317	16181
854.451	16356
854.585	16268
854.72	16211
854.854	16299
854.988	16124
855.122	16192
855.256	15945
855.39	16097
855.524	16249
855.658	16280
855.792	16120
855.926	16185
856.06	16223
856.194	16314
856.327	16150
856.461	16147
856.595	16025
856.729	16147
856.862	16223
856.996	16207
857.13	16242
857.263	16215
857.397	16242
857.53	16105
857.664	16215
857.797	16261
857.931	16356
858.064	16204
858.197	16234
858.331	16249
858.464	16150
858.597	16032
858.731	16105
858.864	16112
858.997	16139
859.13	16029
859.263	16112
859.396	16154
859.529	16036
859.662	16162
859.795	16112
859.928	16207
860.061	16242
860.194	16390
860.327	16196
860.46	16150
860.592	16329
860.725	16306
860.858	16276
860.99	16215
861.123	16116
861.256	16006
861.388	16101
861.521	16885
861.653	16082
861.786	15964
861.918	15964
862.05	16074
862.183	16002
862.315	16040
862.447	16162
862.58	16048
862.712	15873
862.844	15972
862.976	16006
863.108	16017
863.24	16363
863.372	15888
863.504	15785
863.636	15823
863.768	15907
863.9	15884
864.032	15728
864.164	15823
864.296	15895
864.428	15987
864.559	15937
864.691	15949
864.823	15956
864.954	15895
865.086	15888
865.217	15903
865.349	15713
865.48	15793
865.612	15899
865.743	15895
865.875	15876
866.006	15762
866.137	15895
866.269	15804
866.4	15759
866.531	15759
866.662	15717
866.793	15789
866.924	15793
867.055	15926
867.186	15831
867.317	15819
867.448	15762
867.579	15751
867.71	15785
867.841	15739
867.972	15800
868.103	15835
868.233	15823
868.364	15861
868.495	15998
868.625	16059
868.756	16181
868.886	15895
869.017	16063
869.147	16204
869.278	16139
869.408	16177
869.539	16078
869.669	16143
869.799	16158
869.929	16249
870.06	16192
870.19	16249
870.32	16341
870.45	16341
870.58	16470
870.71	16546
870.84	16580
870.97	16470
871.1	16405
871.23	16721
871.36	16641
871.489	16649
871.619	16577
871.749	16664
871.879	16664
872.008	16721
872.138	16729
872.267	16656
872.397	16554
872.526	16622
872.656	16436
872.785	16512
872.915	16660
873.044	16763
873.173	16672
873.303	16744
873.432	16675
873.561	16782
873.69	16710
873.819	16748
873.948	16736
874.077	16839
874.206	16656
874.335	16706
874.464	16854
874.593	16881
874.722	16987
874.851	17102
874.979	17014
875.108	17204
875.237	17128
875.365	16908
875.494	17060
875.623	17155
875.751	16949
875.88	17052
876.008	17174
876.136	17265
876.265	17467
876.393	17600
876.521	17668
876.65	17589
876.778	17532
876.906	17516
877.034	17535
877.162	17493
877.29	17452
877.418	17577
877.546	17509
877.674	17501
877.802	17562
877.93	17577
878.058	17638
878.185	17471
878.313	17737
878.441	17707
878.568	17535
878.696	17775
878.824	17916
878.951	18152
879.079	18243
879.206	18764
879.333	18768
879.461	18856
879.588	19118
879.715	19183
879.842	19107
879.97	18753
880.097	18220
880.224	18064
880.351	17965
880.478	17821
880.605	17707
880.732	17695
880.859	17992
880.986	17668
881.112	17710
881.239	17505
881.366	17379
881.493	17391
881.619	17288
881.746	17429
881.872	17296
881.999	17216
882.125	17239
882.252	17337
882.378	17296
882.505	17505
882.631	17288
882.757	17166
882.883	17178
883.01	17178
883.136	17052
883.262	17121
883.388	17033
883.514	17132
883.64	17132
883.766	17113
883.892	16965
884.018	16972
884.143	17064
884.269	17208
884.395	16915
884.52	16759
884.646	16877
884.772	16763
884.897	16763
885.023	16831
885.148	16896
885.274	16885
885.399	16892
885.524	16793
885.65	16889
885.775	16858
885.9	16854
886.025	16809
886.15	16771
886.275	16698
886.4	16538
886.525	16641
886.65	16607
886.775	16691
886.9	16812
887.025	16946
887.149	16618
887.274	16584
887.399	16428
887.523	16390
887.648	16329
887.773	16291
887.897	16466
888.021	16466
888.146	16318
888.27	16382
888.395	16512
888.519	16489
888.643	16318
888.767	16371
888.891	16268
889.015	16333
889.139	16242
889.263	16200
889.387	16310
889.511	16516
889.635	16348
889.759	16196
889.883	16261
890.006	16185
890.13	16150
890.254	16059
890.377	16143
890.501	15869
890.624	15926
890.748	15972
890.871	15842
890.995	15857
891.118	15766
891.241	15778
891.364	15759
891.488	15956
891.611	15804
891.734	15778
891.857	15793
891.98	15911
892.103	15857
892.226	15781
892.349	15831
892.471	15652
892.594	15690
892.717	15755
892.839	15766
892.962	15800
893.085	15759
893.207	15717
893.33	15614
893.452	15622
893.575	15812
893.697	15698
893.819	15861
893.941	15911
894.064	15774
894.186	15804
894.308	15671
894.43	15827
894.552	15899
894.674	15857
894.796	15660
894.918	15698
895.04	15663
895.161	15846
895.283	15789
895.405	15755
895.526	15713
895.648	15804
895.769	15732
895.891	15835
896.012	15922
896.134	15869
896.255	15766
896.376	15850
896.498	15774
896.619	15926
896.74	15800
896.861	15934
896.982	16211
897.103	16272
897.224	16112
897.345	15987
897.466	16025
897.587	16059
897.708	16325
897.828	16154
897.949	15975
898.07	15888
898.19	15994
898.311	16276
898.431	16044
898.552	16188
898.672	16265
898.792	16268
898.913	16188
899.033	16032
899.153	16032
899.273	15918
899.393	16029
899.513	15998
899.633	16051
899.753	16067
899.873	15998
899.993	16055
900.113	15968
900.232	16029
900.352	16013
900.472	15899
900.591	15842
900.711	15827
900.83	15774
900.95	15960
901.069	15911
901.189	15785
901.308	15580
901.427	15477
901.546	15538
901.665	15504
901.784	15370
901.904	15420
902.023	15218
902.141	15150
902.26	14979
902.379	15074
902.498	15070
902.617	15013
902.735	14990
902.854	14975
902.973	14921
903.091	14819
903.21	14621
903.328	14720
903.446	14594
903.565	14556
903.683	14590
903.801	14438
903.919	14484
904.038	14434
904.156	14377
904.274	14374
904.392	14339
904.51	14256
904.627	14332
904.745	14431
904.863	14298
904.981	14206
905.098	14008
905.216	14058
905.334	14039
905.451	14031
905.569	13944
905.686	14016
905.803	13997
905.921	13833
906.038	13845
906.155	13788
906.272	13681
906.389	13795
906.506	13529
906.623	13586
906.74	13552
906.857	13430
906.974	13506
907.091	13578
907.208	13689
907.324	13658
907.441	13499
907.557	13213
907.674	13327
907.79	13251
907.907	13270
908.023	13312
908.139	13274
908.256	13312
908.372	13209
908.488	13145
908.604	13061
908.72	12928
908.836	12985
908.952	12935
909.068	13069
909.184	13141
909.3	12928
909.415	13004
909.531	13023
909.647	12768
909.762	12753
909.878	12791
909.993	12749
910.108	12768
910.224	12757
910.339	12753
910.454	12707
910.57	12525
910.685	12532
910.8	12821
910.915	12730
911.03	12574
911.145	12433
911.259	12422
911.374	12418
911.489	12323
911.604	12273
911.718	12190
911.833	12194
911.947	11977
912.062	12057
912.176	12171
912.291	12121
912.405	12110
912.519	12357
912.633	12323
912.748	12209
912.862	12060
912.976	12041
913.09	11946
913.204	11977
913.318	12041
913.431	12049
913.545	12125
913.659	12186
913.772	12011
913.886	11851
914	11908
914.113	12003
914.226	11992
914.34	12007
914.453	11866
914.566	11961
914.68	11870
914.793	11813
914.906	11657
915.019	11589
915.132	11562
915.245	11691
915.358	11589
915.47	11630
915.583	11630
915.696	11668
915.809	11729
915.921	11748
916.034	11577
916.146	11554
916.259	11497
916.371	11589
916.483	11737
916.595	11535
916.708	11566
916.82	11482
916.932	11486
917.044	11509
917.156	11535
917.268	11436
917.38	11429
917.491	11474
917.603	11360
917.715	11490
917.826	11604
917.938	11330
918.049	11204
918.161	11414
918.272	11535
918.384	11516
918.495	11280
918.606	11223
918.717	11166
918.828	11250
918.939	11277
919.05	11201
919.161	11220
919.272	11086
919.383	11090
919.494	11311
919.604	11417
919.715	11265
919.826	11212
919.936	11220
920.047	11318
920.157	11254
920.267	11402
920.378	11246
920.488	11208
920.598	11433
920.708	11589
920.818	11414
920.928	11455
921.038	11558
921.148	11520
921.258	11356
921.368	11136
921.477	11067
921.587	11010
921.697	10972
921.806	11143
921.916	10957
922.025	10763
922.134	10748
922.244	10672
922.353	10782
922.462	10687
922.571	10558
922.68	10489
922.789	10390
922.898	10500
923.007	10360
923.116	10516
923.224	10390
923.333	10474
923.442	10344
923.55	10352
923.659	10398
923.767	10390
923.876	10234
923.984	10352
924.092	10204
924.201	10318
924.309	10314
924.417	10291
924.525	10246
924.633	10261
924.741	10965
924.849	10032
924.956	10173
925.064	10032
925.172	9991
925.279	10010
925.387	10082
925.494	10025
925.602	10158
925.709	10177
925.816	10002
925.924	10013
926.031	10135
926.138	9979
926.245	10071
926.352	9926
926.459	10051
926.566	10116
926.673	9941
926.779	9838
926.886	9854
926.993	9724
927.099	9686
927.206	9660
927.312	9663
927.419	9720
927.525	9694
927.631	9759
927.737	9644
927.843	9549
927.95	9466
928.056	9622
928.162	9614
928.267	9667
928.373	10150
928.479	9671
928.585	9488
928.69	9526
928.796	9618
928.901	9439
929.007	9412
929.112	9485
929.218	9534
929.323	9393
929.428	9397
929.533	9496
929.638	9283
929.743	9397
929.848	9382
929.953	9359
930.058	9249
930.163	9089
930.267	9142
930.372	9275
930.477	9089
930.581	9405
930.685	9222
930.79	9077
930.894	9116
930.998	9017
931.103	9180
931.207	8838
931.311	8811
931.415	8712
931.519	8507
931.623	8492
