Data from test_V78500241_2672.txt Node
Date: Fri Mar 25 14:52:19 CST 2022
User: usil
Spectrometer: V785-0024
Trigger mode: 0
Integration Time (sec): 4.000000E-1
Scans to average: 1
Nonlinearity correction enabled: false
Boxcar width: 0
Storing dark spectrum: false
XAxis mode: Wavelengths
Number of Pixels in Spectrum: 1024
>>>>>Begin Spectral Data<<<<<
801.071	22135
801.214	21812
801.356	21713
801.499	21568
801.641	21408
801.783	21332
801.926	21435
802.068	21150
802.211	21332
802.353	21195
802.496	21036
802.638	20956
802.78	20769
802.923	20754
803.065	20754
803.208	20727
803.35	20651
803.492	20773
803.635	20883
803.777	20727
803.919	20785
804.061	21055
804.204	20769
804.346	20606
804.488	20450
804.63	20750
804.773	20613
804.915	20606
805.057	20731
805.199	20564
805.341	20571
805.483	20651
805.626	20754
805.768	20560
805.91	20541
806.052	20701
806.194	20549
806.336	20708
806.478	20480
806.62	20568
806.762	20648
806.904	20667
807.046	21074
807.188	20902
807.33	20853
807.472	20937
807.614	20785
807.756	20887
807.898	20792
808.04	20708
808.182	20636
808.324	20716
808.465	20819
808.607	20876
808.749	20944
808.891	21195
809.033	21169
809.174	21028
809.316	20910
809.458	20967
809.6	20902
809.741	20952
809.883	20994
810.025	21127
810.166	21135
810.308	21207
810.45	21237
810.591	20864
810.733	20819
810.875	20727
811.016	20678
811.158	20640
811.299	20682
811.441	20861
811.582	20921
811.724	20724
811.865	20667
812.007	20746
812.148	20655
812.29	20796
812.431	20861
812.573	21146
812.714	21195
812.855	21188
812.997	21439
813.138	21443
813.279	21359
813.421	21233
813.562	21089
813.703	21055
813.845	20857
813.986	20537
814.127	20328
814.268	20389
814.41	20343
814.551	20187
814.692	20309
814.833	20233
814.974	20267
815.115	20233
815.256	20172
815.397	20024
815.539	20119
815.68	20062
815.821	20001
815.962	20073
816.103	20054
816.244	19951
816.385	19666
816.526	19597
816.666	19590
816.807	19407
816.948	19464
817.089	19540
817.23	19544
817.371	19400
817.512	19445
817.653	19289
817.793	19373
817.934	19365
818.075	19324
818.216	19331
818.356	19392
818.497	19308
818.638	19099
818.778	19129
818.919	19095
819.06	19133
819.2	19190
819.341	19316
819.481	19152
819.622	19392
819.762	19525
819.903	19495
820.043	19403
820.184	19453
820.324	19384
820.465	19460
820.605	19445
820.746	19346
820.886	19202
821.026	19335
821.167	19346
821.307	19559
821.447	19434
821.588	19164
821.728	19065
821.868	18939
822.008	18848
822.149	18837
822.289	18745
822.429	18486
822.569	18517
822.709	18525
822.849	18361
822.99	18285
823.13	18251
823.27	18182
823.41	18095
823.55	18125
823.69	18144
823.83	18057
823.97	18003
824.11	17874
824.25	17878
824.389	17843
824.529	17946
824.669	17767
824.809	17931
824.949	17980
825.089	17920
825.228	17935
825.368	17707
825.508	17737
825.648	17634
825.787	17661
825.927	17661
826.067	17608
826.206	17649
826.346	17676
826.485	17714
826.625	17577
826.765	17764
826.904	17798
827.044	17524
827.183	17493
827.323	17444
827.462	17482
827.601	17410
827.741	17299
827.88	17303
828.02	17197
828.159	17250
828.298	17326
828.437	17421
828.577	17379
828.716	17452
828.855	17398
828.994	17128
829.134	17113
829.273	17315
829.412	17121
829.551	17079
829.69	17143
829.829	17174
829.968	17334
830.107	17235
830.246	17269
830.385	17102
830.524	17033
830.663	16995
830.802	16911
830.941	16733
831.08	16706
831.219	16957
831.357	16710
831.496	16968
831.635	16831
831.774	16694
831.913	16649
832.051	16542
832.19	16550
832.329	16672
832.467	16485
832.606	16428
832.744	16493
832.883	16485
833.022	16527
833.16	16478
833.299	16462
833.437	16432
833.576	16546
833.714	16558
833.852	16497
833.991	16569
834.129	16615
834.267	16592
834.406	16500
834.544	16580
834.682	16535
834.821	16577
834.959	16691
835.097	16417
835.235	16634
835.373	16523
835.511	16542
835.65	16379
835.788	16386
835.926	16261
836.064	16181
836.202	16265
836.34	16516
836.478	16440
836.615	16478
836.753	16527
836.891	16565
837.029	16455
837.167	16409
837.305	16341
837.443	16329
837.58	16188
837.718	16417
837.856	16363
837.993	16219
838.131	16375
838.269	16219
838.406	16329
838.544	16333
838.681	16063
838.819	15953
838.956	15869
839.094	15819
839.231	15880
839.369	16112
839.506	16230
839.643	16158
839.781	15930
839.918	15812
840.055	15922
840.193	15926
840.33	15819
840.467	15854
840.604	15972
840.742	16044
840.879	15831
841.016	15793
841.153	15823
841.29	16002
841.427	16002
841.564	15876
841.701	15857
841.838	15823
841.975	15698
842.112	15953
842.249	15625
842.385	15625
842.522	15827
842.659	15641
842.796	15679
842.933	15667
843.069	15584
843.206	15526
843.343	15717
843.479	15614
843.616	15641
843.752	15420
843.889	15340
844.025	15618
844.162	15428
844.298	15629
844.435	15454
844.571	15420
844.708	15454
844.844	15618
844.98	15701
845.117	15561
845.253	15454
845.389	15306
845.525	15321
845.661	15370
845.798	15256
845.934	15272
846.07	15131
846.206	15287
846.342	15374
846.478	15287
846.614	15093
846.75	15017
846.886	14990
847.022	15055
847.158	15009
847.294	14994
847.429	15127
847.565	15009
847.701	15310
847.837	14800
847.972	14769
848.108	14773
848.244	14823
848.379	14655
848.515	14648
848.65	14610
848.786	14621
848.921	14625
849.057	14629
849.192	14762
849.328	14644
849.463	14670
849.598	14617
849.734	14606
849.869	14492
850.004	14381
850.14	14358
850.275	14381
850.41	14298
850.545	14248
850.68	14339
850.815	14400
850.95	14412
851.085	14518
851.22	14404
851.355	14385
851.49	14404
851.625	14351
851.76	14298
851.895	14248
852.03	14278
852.165	14339
852.299	14362
852.434	14427
852.569	14294
852.703	14385
852.838	14530
852.973	14454
853.107	14431
853.242	14358
853.376	14237
853.511	14142
853.645	14248
853.78	14377
853.914	14202
854.048	14206
854.183	14259
854.317	14290
854.451	14339
854.585	14237
854.72	14153
854.854	14309
854.988	14161
855.122	14214
855.256	14153
855.39	14172
855.524	14358
855.658	14282
855.792	14218
855.926	14290
856.06	14347
856.194	14328
856.327	14252
856.461	14195
856.595	14161
856.729	14263
856.862	14317
856.996	14259
857.13	14259
857.263	14225
857.397	14400
857.53	14301
857.664	14286
857.797	14305
857.931	14355
858.064	14332
858.197	14347
858.331	14210
858.464	14202
858.597	14145
858.731	14256
858.864	14229
858.997	14225
859.13	14240
859.263	14286
859.396	14343
859.529	14278
859.662	14191
859.795	14164
859.928	14267
860.061	14415
860.194	14427
860.327	14259
860.46	14225
860.592	14377
860.725	14400
860.858	14355
860.99	14130
861.123	14187
861.256	14058
861.388	14168
861.521	14804
861.653	14096
861.786	14119
861.918	14088
862.05	14187
862.183	14191
862.315	14191
862.447	14336
862.58	14206
862.712	14054
862.844	14024
862.976	13970
863.108	14115
863.24	14427
863.372	13913
863.504	13951
863.636	13967
863.768	14077
863.9	14046
864.032	13940
864.164	13963
864.296	14012
864.428	14123
864.559	14134
864.691	14153
864.823	13997
864.954	14035
865.086	14008
865.217	14012
865.349	13982
865.48	13955
865.612	14081
865.743	14069
865.875	13982
866.006	13932
866.137	13955
866.269	14001
866.4	13917
866.531	13982
866.662	13894
866.793	13928
866.924	13906
867.055	13974
867.186	14069
867.317	13986
867.448	13959
867.579	13970
867.71	13906
867.841	13978
867.972	13997
868.103	13986
868.233	14077
868.364	13940
868.495	14130
868.625	14221
868.756	14305
868.886	14157
869.017	14218
869.147	14362
869.278	14408
869.408	14259
869.539	14275
869.669	14343
869.799	14298
869.929	14400
870.06	14320
870.19	14587
870.32	14575
870.45	14530
870.58	14606
870.71	14689
870.84	14663
870.97	14598
871.1	14613
871.23	14762
871.36	14853
871.489	14716
871.619	14826
871.749	14823
871.879	14788
872.008	15074
872.138	14887
872.267	14941
872.397	14750
872.526	14621
872.656	14590
872.785	14606
872.915	14849
873.044	14998
873.173	14899
873.303	14925
873.432	15020
873.561	15017
873.69	15001
873.819	14899
873.948	15036
874.077	14853
874.206	14944
874.335	14975
874.464	14956
874.593	15310
874.722	15165
874.851	15283
874.979	15306
875.108	15268
875.237	15173
875.365	15146
875.494	15142
875.623	15249
875.751	15237
875.88	15218
876.008	15306
876.136	15405
876.265	15682
876.393	15728
876.521	15736
876.65	15770
876.778	15679
876.906	15671
877.034	15523
877.162	15587
877.29	15561
877.418	15584
877.546	15660
877.674	15667
877.802	15618
877.93	15637
878.058	15542
878.185	15515
878.313	15652
878.441	15648
878.568	15511
878.696	15603
878.824	15797
878.951	15694
879.079	15800
879.206	16002
879.333	15816
879.461	15690
879.588	15835
879.715	15823
879.842	15888
879.97	15667
880.097	15504
880.224	15481
880.351	15477
880.478	15428
880.605	15424
880.732	15458
880.859	15641
880.986	15405
881.112	15485
881.239	15416
881.366	15249
881.493	15237
881.619	15108
881.746	15173
881.872	15154
881.999	15100
882.125	15043
882.252	15252
882.378	15211
882.505	15245
882.631	15085
882.757	15028
882.883	15074
883.01	15005
883.136	14921
883.262	14777
883.388	14823
883.514	14921
883.64	15039
883.766	14963
883.892	14678
884.018	14765
884.143	14941
884.269	15074
884.395	14701
884.52	14670
884.646	14682
884.772	14590
884.897	14594
885.023	14670
885.148	14800
885.274	14819
885.399	14705
885.524	14731
885.65	14651
885.775	14754
885.9	14708
886.025	14769
886.15	14731
886.275	14613
886.4	14606
886.525	14594
886.65	14579
886.775	14625
886.9	14682
887.025	14895
887.149	14655
887.274	14484
887.399	14400
887.523	14507
887.648	14400
887.773	14457
887.897	14552
888.021	14484
888.146	14431
888.27	14568
888.395	14655
888.519	14549
888.643	14594
888.767	14564
888.891	14454
889.015	14328
889.139	14309
889.263	14298
889.387	14438
889.511	14568
889.635	14587
889.759	14343
889.883	14400
890.006	14374
890.13	14503
890.254	14309
890.377	14305
890.501	14142
890.624	14180
890.748	14240
890.871	14054
890.995	14012
891.118	13940
891.241	14043
891.364	14001
891.488	14153
891.611	14054
891.734	14123
891.857	14134
891.98	13989
892.103	14157
892.226	14081
892.349	14065
892.471	13868
892.594	14134
892.717	14008
892.839	14012
892.962	14043
893.085	14134
893.207	14081
893.33	13982
893.452	13959
893.575	14123
893.697	14043
893.819	14199
893.941	14282
894.064	14339
894.186	14027
894.308	14016
894.43	14195
894.552	14298
894.674	14187
894.796	14024
894.918	14077
895.04	14005
895.161	14183
895.283	14145
895.405	14046
895.526	14218
895.648	14252
895.769	14210
895.891	14286
896.012	14298
896.134	14206
896.255	14271
896.376	14218
896.498	14237
896.619	14263
896.74	14301
896.861	14282
896.982	14644
897.103	14613
897.224	14423
897.345	14560
897.466	14495
897.587	14533
897.708	14549
897.828	14503
897.949	14457
898.07	14366
898.19	14434
898.311	14556
898.431	14511
898.552	14560
898.672	14739
898.792	14689
898.913	14625
899.033	14404
899.153	14404
899.273	14320
899.393	14389
899.513	14339
899.633	14522
899.753	14495
899.873	14537
899.993	14514
900.113	14400
900.232	14499
900.352	14332
900.472	14393
900.591	14286
900.711	14351
900.83	14275
900.95	14294
901.069	14431
901.189	14237
901.308	14084
901.427	14012
901.546	13936
901.665	14024
901.784	13955
901.904	13849
902.023	13765
902.141	13658
902.26	13556
902.379	13647
902.498	13457
902.617	13457
902.735	13544
902.854	13624
902.973	13411
903.091	13217
903.21	13244
903.328	13247
903.446	13301
903.565	13088
903.683	13190
903.801	13065
903.919	13038
904.038	13095
904.156	12871
904.274	13000
904.392	12924
904.51	12890
904.627	12932
904.745	12947
904.863	12920
904.981	12757
905.098	12635
905.216	12642
905.334	12658
905.451	12570
905.569	12635
905.686	12635
905.803	12738
905.921	12441
906.038	12551
906.155	12391
906.272	12384
906.389	12281
906.506	12281
906.623	12224
906.74	12186
906.857	12114
906.974	12114
907.091	12224
907.208	12391
907.324	12285
907.441	12129
907.557	12003
907.674	11950
907.79	11882
907.907	11969
908.023	12034
908.139	12011
908.256	11882
908.372	11923
908.488	11840
908.604	11726
908.72	11714
908.836	11786
908.952	11688
909.068	11703
909.184	11840
909.3	11741
909.415	11775
909.531	11756
909.647	11463
909.762	11433
909.878	11448
909.993	11520
910.108	11417
910.224	11471
910.339	11497
910.454	11448
910.57	11334
910.685	11326
910.8	11562
910.915	11444
911.03	11322
911.145	11284
911.259	11227
911.374	11242
911.489	11075
911.604	11113
911.718	10999
911.833	11022
911.947	10755
912.062	10782
912.176	10862
912.291	11010
912.405	10980
912.519	11060
912.633	11102
912.748	11003
912.862	10904
912.976	10824
913.09	10820
913.204	10839
913.318	10824
913.431	10923
913.545	10889
913.659	10980
913.772	10816
913.886	10717
914	10706
914.113	10740
914.226	10839
914.34	10797
914.453	10660
914.566	10786
914.68	10717
914.793	10615
914.906	10500
915.019	10417
915.132	10360
915.245	10466
915.358	10500
915.47	10523
915.583	10413
915.696	10508
915.809	10577
915.921	10668
916.034	10344
916.146	10382
916.259	10363
916.371	10500
916.483	10417
916.595	10363
916.708	10371
916.82	10424
916.932	10329
917.044	10325
917.156	10402
917.268	10318
917.38	10230
917.491	10234
917.603	10348
917.715	10337
917.826	10375
917.938	10253
918.049	10143
918.161	10249
918.272	10379
918.384	10405
918.495	10333
918.606	10234
918.717	10116
918.828	10215
918.939	10204
919.05	10158
919.161	10135
919.272	9998
919.383	10063
919.494	10230
919.604	10333
919.715	10177
919.826	10090
919.936	10200
920.047	10257
920.157	10257
920.267	10356
920.378	10227
920.488	10158
920.598	10402
920.708	10569
920.818	10352
920.928	10390
921.038	10489
921.148	10462
921.258	10169
921.368	10116
921.477	10032
921.587	10025
921.697	9918
921.806	10063
921.916	9899
922.025	9751
922.134	9751
922.244	9679
922.353	9838
922.462	9618
922.571	9488
922.68	9458
922.789	9351
922.898	9462
923.007	9454
923.116	9469
923.224	9374
923.333	9420
923.442	9332
923.55	9336
923.659	9431
923.767	9348
923.876	9317
923.984	9408
924.092	9214
924.201	9329
924.309	9348
924.417	9291
924.525	9203
924.633	9275
924.741	10097
924.849	9074
924.956	9321
925.064	9062
925.172	9047
925.279	9077
925.387	9165
925.494	9036
925.602	9256
925.709	9135
925.816	9009
925.924	9093
926.031	9157
926.138	9001
926.245	9138
926.352	9024
926.459	9173
926.566	9192
926.673	9100
926.779	8967
926.886	8933
926.993	8792
927.099	8788
927.206	8716
927.312	8712
927.419	8857
927.525	8792
927.631	8830
927.737	8746
927.843	8678
927.95	8590
928.056	8693
928.162	8712
928.267	8762
928.373	9382
928.479	8819
928.585	8598
928.69	8758
928.796	8773
928.901	8655
929.007	8473
929.112	8651
929.218	8629
929.323	8579
929.428	8552
929.533	8674
929.638	8495
929.743	8461
929.848	8560
929.953	8457
930.058	8377
930.163	8248
930.267	8324
930.372	8377
930.477	8279
930.581	8484
930.685	8419
930.79	8164
930.894	8252
930.998	8259
931.103	8343
931.207	8027
931.311	7963
931.415	7875
931.519	7750
931.623	7700
