Data from test_V78500241_3118.txt Node
Date: Fri Mar 25 14:55:25 CST 2022
User: usil
Spectrometer: V785-0024
Trigger mode: 0
Integration Time (sec): 4.000000E-1
Scans to average: 1
Nonlinearity correction enabled: false
Boxcar width: 0
Storing dark spectrum: false
XAxis mode: Wavelengths
Number of Pixels in Spectrum: 1024
>>>>>Begin Spectral Data<<<<<
801.071	22040
801.214	21968
801.356	21720
801.499	21606
801.641	21466
801.783	21344
801.926	21458
802.068	21310
802.211	21405
802.353	21188
802.496	20933
802.638	21013
802.78	20929
802.923	20754
803.065	20697
803.208	20697
803.35	20796
803.492	20868
803.635	20842
803.777	20720
803.919	20830
804.061	21074
804.204	20811
804.346	20655
804.488	20552
804.63	20815
804.773	20720
804.915	20670
805.057	20743
805.199	20594
805.341	20724
805.483	20758
805.626	20731
805.768	20697
805.91	20651
806.052	20655
806.194	20621
806.336	20697
806.478	20530
806.62	20686
806.762	20670
806.904	20883
807.046	21123
807.188	20971
807.33	21013
807.472	21108
807.614	20842
807.756	20819
807.898	20750
808.04	20667
808.182	20689
808.324	20724
808.465	20800
808.607	21009
808.749	21039
808.891	21165
809.033	21131
809.174	21081
809.316	21055
809.458	21009
809.6	21001
809.741	21062
809.883	21085
810.025	21351
810.166	21218
810.308	21089
810.45	21154
810.591	21089
810.733	20929
810.875	20689
811.016	20796
811.158	20613
811.299	20807
811.441	20906
811.582	20887
811.724	20807
811.865	20731
812.007	20648
812.148	20849
812.29	20899
812.431	21009
812.573	21127
812.714	21218
812.855	21359
812.997	21344
813.138	21515
813.279	21485
813.421	21233
813.562	21161
813.703	21005
813.845	20883
813.986	20674
814.127	20412
814.268	20427
814.41	20298
814.551	20252
814.692	20476
814.833	20195
814.974	20294
815.115	20225
815.256	20267
815.397	20221
815.539	20233
815.68	20115
815.821	20008
815.962	20096
816.103	20012
816.244	19879
816.385	19833
816.526	19757
816.666	19575
816.807	19529
816.948	19514
817.089	19499
817.23	19655
817.371	19499
817.512	19502
817.653	19438
817.793	19434
817.934	19533
818.075	19586
818.216	19365
818.356	19396
818.497	19114
818.638	19304
818.778	19137
818.919	19126
819.06	19213
819.2	19301
819.341	19324
819.481	19278
819.622	19510
819.762	19677
819.903	19506
820.043	19495
820.184	19381
820.324	19468
820.465	19521
820.605	19540
820.746	19468
820.886	19297
821.026	19430
821.167	19403
821.307	19457
821.447	19354
821.588	19293
821.728	19168
821.868	18996
822.008	18875
822.149	18852
822.289	18878
822.429	18601
822.569	18494
822.709	18532
822.849	18353
822.99	18353
823.13	18346
823.27	18319
823.41	18171
823.55	18159
823.69	18171
823.83	18216
823.97	17988
824.11	17897
824.25	17961
824.389	17942
824.529	18038
824.669	17984
824.809	17999
824.949	18007
825.089	17954
825.228	17916
825.368	17737
825.508	17813
825.648	17752
825.787	17802
825.927	17722
826.067	17638
826.206	17687
826.346	17756
826.485	17676
826.625	17752
826.765	17813
826.904	17665
827.044	17490
827.183	17467
827.323	17387
827.462	17455
827.601	17322
827.741	17398
827.88	17444
828.02	17330
828.159	17395
828.298	17425
828.437	17467
828.577	17387
828.716	17570
828.855	17376
828.994	17147
829.134	17159
829.273	17197
829.412	17018
829.551	17117
829.69	17102
829.829	17121
829.968	17208
830.107	17147
830.246	17086
830.385	17003
830.524	17037
830.663	16889
830.802	16904
830.941	16767
831.08	16759
831.219	16839
831.357	16835
831.496	16965
831.635	16771
831.774	16675
831.913	16588
832.051	16493
832.19	16550
832.329	16615
832.467	16519
832.606	16417
832.744	16508
832.883	16371
833.022	16402
833.16	16375
833.299	16523
833.437	16493
833.576	16390
833.714	16493
833.852	16466
833.991	16580
834.129	16637
834.267	16580
834.406	16489
834.544	16535
834.682	16531
834.821	16630
834.959	16698
835.097	16542
835.235	16618
835.373	16565
835.511	16550
835.65	16481
835.788	16390
835.926	16360
836.064	16207
836.202	16242
836.34	16527
836.478	16462
836.615	16360
836.753	16367
836.891	16554
837.029	16462
837.167	16287
837.305	16341
837.443	16303
837.58	16249
837.718	16394
837.856	16367
837.993	16188
838.131	16223
838.269	16139
838.406	16291
838.544	16112
838.681	15994
838.819	15960
838.956	15854
839.094	15869
839.231	15876
839.369	16006
839.506	16268
839.643	16017
839.781	15934
839.918	15816
840.055	15785
840.193	15835
840.33	15762
840.467	15850
840.604	15720
840.742	16093
840.879	15724
841.016	15698
841.153	15671
841.29	15953
841.427	15854
841.564	15899
841.701	15884
841.838	15762
841.975	15675
842.112	15694
842.249	15648
842.385	15595
842.522	15819
842.659	15644
842.796	15629
842.933	15591
843.069	15561
843.206	15481
843.343	15739
843.479	15652
843.616	15705
843.752	15359
843.889	15389
844.025	15584
844.162	15420
844.298	15507
844.435	15439
844.571	15256
844.708	15504
844.844	15469
844.98	15530
845.117	15519
845.253	15237
845.389	15184
845.525	15359
845.661	15294
845.798	15211
845.934	15336
846.07	15142
846.206	15260
846.342	15279
846.478	15214
846.614	14986
846.75	14998
846.886	14845
847.022	15036
847.158	14944
847.294	15055
847.429	14960
847.565	14887
847.701	15226
847.837	14625
847.972	14651
848.108	14777
848.244	14678
848.379	14629
848.515	14465
848.65	14549
848.786	14503
848.921	14533
849.057	14594
849.192	14663
849.328	14575
849.463	14598
849.598	14438
849.734	14446
849.869	14446
850.004	14282
850.14	14473
850.275	14210
850.41	14290
850.545	14259
850.68	14229
850.815	14404
850.95	14313
851.085	14465
851.22	14362
851.355	14393
851.49	14240
851.625	14218
851.76	14248
851.895	14218
852.03	14195
852.165	14233
852.299	14366
852.434	14389
852.569	14305
852.703	14332
852.838	14396
852.973	14415
853.107	14473
853.242	14271
853.376	14286
853.511	14020
853.645	14123
853.78	14282
853.914	14180
854.048	14161
854.183	14191
854.317	14126
854.451	14370
854.585	14103
854.72	14202
854.854	14191
854.988	14046
855.122	14126
855.256	14027
855.39	14153
855.524	14286
855.658	14248
855.792	14221
855.926	14290
856.06	14259
856.194	14229
856.327	14164
856.461	14073
856.595	14138
856.729	14126
856.862	14244
856.996	14138
857.13	14244
857.263	14358
857.397	14218
857.53	14153
857.664	14206
857.797	14259
857.931	14263
858.064	14218
858.197	14282
858.331	14142
858.464	14157
858.597	14062
858.731	14161
858.864	14202
858.997	14153
859.13	14263
859.263	14199
859.396	14233
859.529	14210
859.662	14195
859.795	14123
859.928	14233
860.061	14396
860.194	14393
860.327	14244
860.46	14149
860.592	14313
860.725	14355
860.858	14355
860.99	14176
861.123	14233
861.256	14119
861.388	14081
861.521	14861
861.653	14020
861.786	14024
861.918	14111
862.05	14050
862.183	14240
862.315	14168
862.447	14210
862.58	14065
862.712	13993
862.844	13932
862.976	14073
863.108	14065
863.24	14313
863.372	13940
863.504	13967
863.636	13970
863.768	13928
863.9	13913
864.032	13875
864.164	13947
864.296	13936
864.428	14027
864.559	14069
864.691	14111
864.823	13917
864.954	14065
865.086	13982
865.217	13928
865.349	13909
865.48	13947
865.612	13970
865.743	14031
865.875	14024
866.006	13913
866.137	13928
866.269	13856
866.4	13970
866.531	14012
866.662	13921
866.793	13967
866.924	13890
867.055	13947
867.186	13989
867.317	13909
867.448	13868
867.579	13928
867.71	13849
867.841	13864
867.972	13921
868.103	13936
868.233	14005
868.364	13883
868.495	14073
868.625	14187
868.756	14286
868.886	14107
869.017	14229
869.147	14290
869.278	14347
869.408	14259
869.539	14240
869.669	14278
869.799	14248
869.929	14362
870.06	14389
870.19	14571
870.32	14484
870.45	14533
870.58	14731
870.71	14712
870.84	14651
870.97	14602
871.1	14629
871.23	14743
871.36	14857
871.489	14739
871.619	14785
871.749	14796
871.879	14773
872.008	14929
872.138	14819
872.267	14762
872.397	14564
872.526	14636
872.656	14606
872.785	14693
872.915	14861
873.044	14826
873.173	14804
873.303	14906
873.432	14826
873.561	14921
873.69	14925
873.819	14861
873.948	14925
874.077	14899
874.206	14834
874.335	14868
874.464	15005
874.593	15047
874.722	15100
874.851	15165
874.979	15207
875.108	15237
875.237	15112
875.365	15146
875.494	15207
875.623	15176
875.751	15062
875.88	15214
876.008	15203
876.136	15355
876.265	15591
876.393	15831
876.521	15652
876.65	15549
876.778	15568
876.906	15504
877.034	15561
877.162	15587
877.29	15462
877.418	15553
877.546	15637
877.674	15606
877.802	15549
877.93	15466
878.058	15587
878.185	15553
878.313	15584
878.441	15648
878.568	15401
878.696	15458
878.824	15603
878.951	15606
879.079	15690
879.206	15930
879.333	15804
879.461	15644
879.588	15690
879.715	15686
879.842	15846
879.97	15637
880.097	15428
880.224	15473
880.351	15462
880.478	15435
880.605	15412
880.732	15447
880.859	15713
880.986	15374
881.112	15408
881.239	15344
881.366	15142
881.493	15123
881.619	15039
881.746	15066
881.872	15085
881.999	14998
882.125	14929
882.252	15032
882.378	15020
882.505	15218
882.631	15047
882.757	14979
882.883	14906
883.01	14914
883.136	14823
883.262	14746
883.388	14712
883.514	14788
883.64	14948
883.766	14807
883.892	14727
884.018	14655
884.143	14861
884.269	14998
884.395	14644
884.52	14571
884.646	14670
884.772	14636
884.897	14522
885.023	14495
885.148	14762
885.274	14788
885.399	14682
885.524	14625
885.65	14606
885.775	14663
885.9	14526
886.025	14758
886.15	14613
886.275	14655
886.4	14488
886.525	14606
886.65	14556
886.775	14518
886.9	14705
887.025	14906
887.149	14629
887.274	14560
887.399	14442
887.523	14461
887.648	14400
887.773	14377
887.897	14533
888.021	14545
888.146	14507
888.27	14499
888.395	14564
888.519	14423
888.643	14465
888.767	14636
888.891	14492
889.015	14332
889.139	14328
889.263	14290
889.387	14438
889.511	14533
889.635	14404
889.759	14267
889.883	14320
890.006	14454
890.13	14412
890.254	14202
890.377	14252
890.501	14111
890.624	14138
890.748	14164
890.871	14126
890.995	13982
891.118	14001
891.241	13982
891.364	14073
891.488	14058
891.611	13932
891.734	14031
891.857	14180
891.98	14123
892.103	14100
892.226	14092
892.349	13993
892.471	13894
892.594	13963
892.717	14012
892.839	14008
892.962	14001
893.085	14084
893.207	14001
893.33	13852
893.452	13944
893.575	14043
893.697	13940
893.819	14195
893.941	14244
894.064	14248
894.186	13993
894.308	13986
894.43	14115
894.552	14263
894.674	14172
894.796	14020
894.918	13967
895.04	14027
895.161	14111
895.283	14126
895.405	14092
895.526	14191
895.648	14168
895.769	14191
895.891	14195
896.012	14252
896.134	14187
896.255	14164
896.376	14065
896.498	14183
896.619	14218
896.74	14210
896.861	14282
896.982	14526
897.103	14632
897.224	14526
897.345	14415
897.466	14343
897.587	14351
897.708	14568
897.828	14476
897.949	14381
898.07	14400
898.19	14393
898.311	14575
898.431	14408
898.552	14492
898.672	14629
898.792	14629
898.913	14564
899.033	14465
899.153	14374
899.273	14252
899.393	14324
899.513	14408
899.633	14381
899.753	14355
899.873	14415
899.993	14389
900.113	14389
900.232	14385
900.352	14366
900.472	14278
900.591	14271
900.711	14252
900.83	14206
900.95	14370
901.069	14320
901.189	14248
901.308	14008
901.427	13890
901.546	13879
901.665	13989
901.784	13986
901.904	13871
902.023	13655
902.141	13662
902.26	13468
902.379	13525
902.498	13453
902.617	13460
902.735	13540
902.854	13499
902.973	13491
903.091	13228
903.21	13175
903.328	13168
903.446	13168
903.565	13065
903.683	13069
903.801	13019
903.919	13061
904.038	13031
904.156	12852
904.274	13046
904.392	12943
904.51	12920
904.627	12840
904.745	12996
904.863	12916
904.981	12726
905.098	12498
905.216	12620
905.334	12521
905.451	12555
905.569	12612
905.686	12574
905.803	12585
905.921	12426
906.038	12483
906.155	12513
906.272	12273
906.389	12361
906.506	12159
906.623	12197
906.74	12152
906.857	12098
906.974	12068
907.091	12247
907.208	12319
907.324	12159
907.441	12079
907.557	11961
907.674	11863
907.79	11813
907.907	11893
908.023	11942
908.139	11973
908.256	11920
908.372	11882
908.488	11748
908.604	11668
908.72	11608
908.836	11661
908.952	11547
909.068	11748
909.184	11809
909.3	11684
909.415	11790
909.531	11710
909.647	11512
909.762	11402
909.878	11459
909.993	11455
910.108	11417
910.224	11364
910.339	11417
910.454	11414
910.57	11265
910.685	11204
910.8	11478
910.915	11478
911.03	11337
911.145	11170
911.259	11136
911.374	11136
911.489	11060
911.604	10980
911.718	10942
911.833	10946
911.947	10812
912.062	10778
912.176	10904
912.291	10889
912.405	10965
912.519	11048
912.633	11079
912.748	10946
912.862	10953
912.976	10752
913.09	10641
913.204	10706
913.318	10733
913.431	10919
913.545	10889
913.659	10892
913.772	10828
913.886	10755
914	10767
914.113	10691
914.226	10752
914.34	10771
914.453	10500
914.566	10752
914.68	10683
914.793	10626
914.906	10485
915.019	10394
915.132	10337
915.245	10348
915.358	10424
915.47	10481
915.583	10462
915.696	10466
915.809	10565
915.921	10569
916.034	10417
916.146	10329
916.259	10268
916.371	10424
916.483	10386
916.595	10318
916.708	10363
916.82	10352
916.932	10314
917.044	10333
917.156	10337
917.268	10169
917.38	10257
917.491	10109
917.603	10207
917.715	10367
917.826	10341
917.938	10234
918.049	10112
918.161	10246
918.272	10348
918.384	10352
918.495	10265
918.606	10131
918.717	10101
918.828	10074
918.939	10169
919.05	9953
919.161	10143
919.272	9945
919.383	10063
919.494	10154
919.604	10284
919.715	10135
919.826	10074
919.936	10097
920.047	10230
920.157	10219
920.267	10352
920.378	10230
920.488	10173
920.598	10413
920.708	10432
920.818	10379
920.928	10363
921.038	10531
921.148	10478
921.258	10204
921.368	10105
921.477	9968
921.587	10086
921.697	9915
921.806	10051
921.916	9956
922.025	9724
922.134	9747
922.244	9728
922.353	9728
922.462	9618
922.571	9599
922.68	9431
922.789	9363
922.898	9428
923.007	9332
923.116	9458
923.224	9378
923.333	9310
923.442	9389
923.55	9329
923.659	9291
923.767	9386
923.876	9253
923.984	9389
924.092	9291
924.201	9237
924.309	9275
924.417	9275
924.525	9180
924.633	9241
924.741	10185
924.849	9020
924.956	9165
925.064	9116
925.172	8941
925.279	9089
925.387	9070
925.494	9043
925.602	9279
925.709	9119
925.816	9036
925.924	9081
926.031	9161
926.138	9055
926.245	9127
926.352	9009
926.459	9097
926.566	9173
926.673	9024
926.779	8891
926.886	8956
926.993	8815
927.099	8766
927.206	8785
927.312	8705
927.419	8826
927.525	8826
927.631	8777
927.737	8758
927.843	8644
927.95	8530
928.056	8648
928.162	8750
928.267	8762
928.373	9222
928.479	8762
928.585	8560
928.69	8739
928.796	8663
928.901	8644
929.007	8438
929.112	8640
929.218	8571
929.323	8503
929.428	8438
929.533	8594
929.638	8492
929.743	8461
929.848	8549
929.953	8568
930.058	8423
930.163	8286
930.267	8248
930.372	8347
930.477	8225
930.581	8488
930.685	8275
930.79	8221
930.894	8138
930.998	8237
931.103	8328
931.207	7978
931.311	7944
931.415	7909
931.519	7715
931.623	7693
