Data from test_V78500241_375.txt Node
Date: Fri Mar 25 14:36:20 CST 2022
User: usil
Spectrometer: V785-0024
Trigger mode: 0
Integration Time (sec): 4.000000E-1
Scans to average: 1
Nonlinearity correction enabled: false
Boxcar width: 0
Storing dark spectrum: false
XAxis mode: Wavelengths
Number of Pixels in Spectrum: 1024
>>>>>Begin Spectral Data<<<<<
801.071	26842
801.214	26788
801.356	26537
801.499	26419
801.641	26336
801.783	26355
801.926	26229
802.068	26058
802.211	26115
802.353	26084
802.496	25826
802.638	25841
802.78	25822
802.923	25917
803.065	25662
803.208	25776
803.35	25696
803.492	25852
803.635	25753
803.777	25772
803.919	25966
804.061	26050
804.204	25868
804.346	25624
804.488	25708
804.63	25772
804.773	25643
804.915	25772
805.057	25974
805.199	25761
805.341	25742
805.483	25887
805.626	25753
805.768	25734
805.91	25841
806.052	25784
806.194	25693
806.336	25928
806.478	25795
806.62	25738
806.762	25997
806.904	26084
807.046	26157
807.188	26161
807.33	26043
807.472	26145
807.614	26191
807.756	26122
807.898	25917
808.04	25791
808.182	25951
808.324	25997
808.465	25955
808.607	26237
808.749	26347
808.891	26389
809.033	26450
809.174	26313
809.316	26332
809.458	26317
809.6	26248
809.741	26282
809.883	26248
810.025	26503
810.166	26473
810.308	26484
810.45	26476
810.591	26294
810.733	26218
810.875	26092
811.016	26111
811.158	26024
811.299	26240
811.441	26142
811.582	26195
811.724	26142
811.865	26031
812.007	26062
812.148	26210
812.29	26172
812.431	26111
812.573	26442
812.714	26526
812.855	26518
812.997	26621
813.138	26868
813.279	26701
813.421	26693
813.562	26419
813.703	26366
813.845	26362
813.986	26020
814.127	25818
814.268	25643
814.41	25708
814.551	25628
814.692	25742
814.833	25609
814.974	25696
815.115	25704
815.256	25479
815.397	25483
815.539	25422
815.68	25499
815.821	25266
815.962	25457
816.103	25373
816.244	25270
816.385	25061
816.526	25152
816.666	24817
816.807	24772
816.948	24791
817.089	24897
817.23	24859
817.371	24833
817.512	24821
817.653	24665
817.793	24631
817.934	24875
818.075	24913
818.216	24814
818.356	24566
818.497	24578
818.638	24601
818.778	24471
818.919	24494
819.06	24559
819.2	24646
819.341	24639
819.481	24635
819.622	24970
819.762	25065
819.903	24932
820.043	24970
820.184	24757
820.324	24688
820.465	24795
820.605	24715
820.746	24745
820.886	24593
821.026	24665
821.167	24749
821.307	24833
821.447	24707
821.588	24372
821.728	24471
821.868	24258
822.008	24136
822.149	24209
822.289	24030
822.429	23859
822.569	23756
822.709	23790
822.849	23649
822.99	23512
823.13	23474
823.27	23410
823.41	23337
823.55	23109
823.69	23311
823.83	23421
823.97	23269
824.11	23216
824.25	23170
824.389	23143
824.529	23250
824.669	23113
824.809	23132
824.949	23105
825.089	23360
825.228	23250
825.368	22904
825.508	22999
825.648	22923
825.787	22957
825.927	22911
826.067	22946
826.206	22896
826.346	22949
826.485	22835
826.625	22904
826.765	22984
826.904	23025
827.044	22706
827.183	22679
827.323	22504
827.462	22637
827.601	22748
827.741	22599
827.88	22683
828.02	22428
828.159	22455
828.298	22557
828.437	22733
828.577	22451
828.716	22531
828.855	22462
828.994	22379
829.134	22322
829.273	22310
829.412	22295
829.551	22234
829.69	22314
829.829	22284
829.968	22440
830.107	22306
830.246	22226
830.385	22158
830.524	22284
830.663	22097
830.802	22010
830.941	22040
831.08	21888
831.219	21960
831.357	21899
831.496	22029
831.635	21816
831.774	21785
831.913	21675
832.051	21637
832.19	21618
832.329	21606
832.467	21481
832.606	21447
832.744	21492
832.883	21462
833.022	21542
833.16	21481
833.299	21515
833.437	21370
833.576	21515
833.714	21496
833.852	21599
833.991	21519
834.129	21591
834.267	21599
834.406	21534
834.544	21466
834.682	21580
834.821	21526
834.959	21755
835.097	21428
835.235	21511
835.373	21458
835.511	21515
835.65	21382
835.788	21317
835.926	21218
836.064	21203
836.202	21131
836.34	21359
836.478	21496
836.615	21321
836.753	21374
836.891	21351
837.029	21306
837.167	21291
837.305	21287
837.443	21287
837.58	21123
837.718	21283
837.856	21233
837.993	21081
838.131	21211
838.269	21005
838.406	21142
838.544	20948
838.681	20887
838.819	20853
838.956	20663
839.094	20552
839.231	20598
839.369	20807
839.506	20948
839.643	20925
839.781	20556
839.918	20682
840.055	20625
840.193	20659
840.33	20571
840.467	20507
840.604	20575
840.742	20872
840.879	20442
841.016	20427
841.153	20351
841.29	20663
841.427	20533
841.564	20522
841.701	20518
841.838	20488
841.975	20400
842.112	20473
842.249	20374
842.385	20172
842.522	20488
842.659	20347
842.796	20351
842.933	20278
843.069	20252
843.206	20119
843.343	20351
843.479	20320
843.616	20286
843.752	20058
843.889	20035
844.025	20096
844.162	19906
844.298	20172
844.435	20054
844.571	20103
844.708	20058
844.844	20199
844.98	20149
845.117	20088
845.253	19875
845.389	20043
845.525	19993
845.661	19967
845.798	19921
845.934	19887
846.07	19841
846.206	19894
846.342	20024
846.478	19803
846.614	19723
846.75	19540
846.886	19540
847.022	19639
847.158	19601
847.294	19464
847.429	19586
847.565	19491
847.701	19609
847.837	19209
847.972	19122
848.108	19274
848.244	19244
848.379	19129
848.515	19084
848.65	19122
848.786	19069
848.921	19126
849.057	19244
849.192	19126
849.328	19133
849.463	19141
849.598	19034
849.734	18996
849.869	18894
850.004	18844
850.14	18966
850.275	18875
850.41	18768
850.545	18745
850.68	18779
850.815	18749
850.95	18642
851.085	18935
851.22	18829
851.355	18882
851.49	18768
851.625	18711
851.76	18726
851.895	18673
852.03	18658
852.165	18650
852.299	18840
852.434	18875
852.569	18840
852.703	18791
852.838	18947
852.973	18943
853.107	18916
853.242	18726
853.376	18707
853.511	18555
853.645	18726
853.78	18776
853.914	18650
854.048	18608
854.183	18563
854.317	18681
854.451	18673
854.585	18696
854.72	18597
854.854	18646
854.988	18521
855.122	18540
855.256	18528
855.39	18593
855.524	18757
855.658	18597
855.792	18688
855.926	18578
856.06	18642
856.194	18661
856.327	18502
856.461	18525
856.595	18437
856.729	18574
856.862	18677
856.996	18563
857.13	18654
857.263	18776
857.397	18760
857.53	18582
857.664	18654
857.797	18681
857.931	18635
858.064	18616
858.197	18684
858.331	18589
858.464	18540
858.597	18467
858.731	18566
858.864	18559
858.997	18395
859.13	18646
859.263	18498
859.396	18696
859.529	18620
859.662	18570
859.795	18540
859.928	18551
860.061	18616
860.194	18719
860.327	18650
860.46	18513
860.592	18585
860.725	18711
860.858	18582
860.99	18509
861.123	18509
861.256	18410
861.388	18574
861.521	19251
861.653	18433
861.786	18471
861.918	18452
862.05	18460
862.183	18563
862.315	18601
862.447	18620
862.58	18612
862.712	18342
862.844	18338
862.976	18342
863.108	18372
863.24	18738
863.372	18273
863.504	18270
863.636	18251
863.768	18266
863.9	18270
864.032	18213
864.164	18136
864.296	18254
864.428	18311
864.559	18395
864.691	18372
864.823	18266
864.954	18216
865.086	18380
865.217	18201
865.349	18235
865.48	18235
865.612	18285
865.743	18296
865.875	18148
866.006	18167
866.137	18285
866.269	18232
866.4	18258
866.531	18235
866.662	18102
866.793	18140
866.924	18178
867.055	18209
867.186	18174
867.317	17996
867.448	18022
867.579	18129
867.71	17969
867.841	18106
867.972	18251
868.103	18045
868.233	18083
868.364	18194
868.495	18201
868.625	18357
868.756	18460
868.886	18273
869.017	18391
869.147	18509
869.278	18418
869.408	18289
869.539	18338
869.669	18452
869.799	18471
869.929	18490
870.06	18399
870.19	18730
870.32	18585
870.45	18719
870.58	18745
870.71	18810
870.84	18856
870.97	18688
871.1	18696
871.23	18989
871.36	18985
871.489	18837
871.619	18856
871.749	18977
871.879	18966
872.008	19023
872.138	18996
872.267	18848
872.397	18776
872.526	18681
872.656	18859
872.785	18776
872.915	19031
873.044	19084
873.173	19069
873.303	19080
873.432	19065
873.561	19046
873.69	19015
873.819	19034
873.948	19110
874.077	19141
874.206	18852
874.335	19004
874.464	19076
874.593	19213
874.722	19198
874.851	19343
874.979	19247
875.108	19392
875.237	19266
875.365	19194
875.494	19225
875.623	19472
875.751	19209
875.88	19285
876.008	19518
876.136	19495
876.265	19666
876.393	19811
876.521	19613
876.65	19765
876.778	19628
876.906	19613
877.034	19559
877.162	19594
877.29	19609
877.418	19811
877.546	19715
877.674	19795
877.802	19655
877.93	19666
878.058	19662
878.185	19525
878.313	19616
878.441	19597
878.568	19476
878.696	19620
878.824	19731
878.951	19753
879.079	19928
879.206	19970
879.333	19845
879.461	19693
879.588	19860
879.715	19856
879.842	19864
879.97	19696
880.097	19677
880.224	19445
880.351	19381
880.478	19529
880.605	19411
880.732	19533
880.859	19723
880.986	19430
881.112	19476
881.239	19449
881.366	19255
881.493	19171
881.619	19099
881.746	19232
881.872	19015
881.999	19042
882.125	19000
882.252	19187
882.378	19251
882.505	19232
882.631	18985
882.757	18989
882.883	19004
883.01	18821
883.136	18760
883.262	18703
883.388	18791
883.514	18905
883.64	18996
883.766	18856
883.892	18719
884.018	18684
884.143	18848
884.269	19000
884.395	18616
884.52	18509
884.646	18570
884.772	18399
884.897	18498
885.023	18601
885.148	18635
885.274	18544
885.399	18589
885.524	18407
885.65	18608
885.775	18597
885.9	18555
886.025	18627
886.15	18658
886.275	18399
886.4	18479
886.525	18471
886.65	18338
886.775	18532
886.9	18509
887.025	18688
887.149	18551
887.274	18270
887.399	18182
887.523	18262
887.648	18167
887.773	18121
887.897	18422
888.021	18456
888.146	18213
888.27	18388
888.395	18426
888.519	18296
888.643	18403
888.767	18357
888.891	18254
889.015	18129
889.139	18083
889.263	18129
889.387	18292
889.511	18300
889.635	18220
889.759	18064
889.883	18114
890.006	18034
890.13	18266
890.254	18026
890.377	18068
890.501	17916
890.624	17885
890.748	17992
890.871	17863
890.995	17657
891.118	17783
891.241	17817
891.364	17741
891.488	17752
891.611	17786
891.734	17764
891.857	17764
891.98	17767
892.103	17821
892.226	17646
892.349	17680
892.471	17535
892.594	17672
892.717	17756
892.839	17729
892.962	17805
893.085	17821
893.207	17741
893.33	17592
893.452	17699
893.575	17630
893.697	17729
893.819	17908
893.941	17935
894.064	17798
894.186	17722
894.308	17710
894.43	17756
894.552	17920
894.674	17824
894.796	17600
894.918	17748
895.04	17684
895.161	17756
895.283	17809
895.405	17691
895.526	17718
895.648	17703
895.769	17836
895.891	17851
896.012	17878
896.134	17790
896.255	17760
896.376	17775
896.498	17859
896.619	17916
896.74	17805
896.861	17904
896.982	18163
897.103	18254
897.224	18076
897.345	17950
897.466	18003
897.587	18038
897.708	18182
897.828	18106
897.949	17961
898.07	17802
898.19	17946
898.311	18003
898.431	18011
898.552	17996
898.672	18182
898.792	18053
898.913	18102
899.033	17912
899.153	17767
899.273	17836
899.393	17786
899.513	17954
899.633	17889
899.753	17756
899.873	17821
899.993	17863
900.113	17794
900.232	17741
900.352	17707
900.472	17592
900.591	17570
900.711	17570
900.83	17524
900.95	17630
901.069	17657
901.189	17642
901.308	17379
901.427	17356
901.546	17299
901.665	17265
901.784	17292
901.904	17075
902.023	17155
902.141	16927
902.26	16771
902.379	16801
902.498	16740
902.617	16687
902.735	16801
902.854	16634
902.973	16634
903.091	16413
903.21	16478
903.328	16428
903.446	16398
903.565	16291
903.683	16341
903.801	16131
903.919	16246
904.038	16150
904.156	16051
904.274	16086
904.392	16139
904.51	15972
904.627	16120
904.745	16051
904.863	16002
904.981	15937
905.098	15682
905.216	15759
905.334	15812
905.451	15667
905.569	15705
905.686	15739
905.803	15717
905.921	15466
906.038	15622
906.155	15488
906.272	15473
906.389	15393
906.506	15336
906.623	15344
906.74	15169
906.857	15070
906.974	15142
907.091	15317
907.208	15268
907.324	15302
907.441	15176
907.557	14944
907.674	15036
907.79	14899
907.907	15001
908.023	15047
908.139	14883
908.256	14925
908.372	14800
908.488	14876
908.604	14731
908.72	14682
908.836	14629
908.952	14716
909.068	14693
909.184	14800
909.3	14644
909.415	14708
909.531	14549
909.647	14507
909.762	14442
909.878	14374
909.993	14419
910.108	14446
910.224	14332
910.339	14381
910.454	14282
910.57	14221
910.685	14191
910.8	14419
910.915	14339
911.03	14187
911.145	14092
911.259	14096
911.374	14024
911.489	13883
911.604	13871
911.718	13734
911.833	13807
911.947	13670
912.062	13674
912.176	13788
912.291	13780
912.405	13780
912.519	13986
912.633	13898
912.748	13807
912.862	13761
912.976	13563
913.09	13483
913.204	13571
913.318	13533
913.431	13605
913.545	13700
913.659	13738
913.772	13544
913.886	13419
914	13350
914.113	13533
914.226	13616
914.34	13480
914.453	13434
914.566	13495
914.68	13392
914.793	13358
914.906	13187
915.019	13038
915.132	13046
915.245	13099
915.358	13160
915.47	13168
915.583	13118
915.696	13228
915.809	13308
915.921	13278
916.034	13095
916.146	12985
916.259	13141
916.371	13065
916.483	13027
916.595	12916
916.708	12901
916.82	13107
916.932	12890
917.044	12981
917.156	12958
917.268	12897
917.38	12738
917.491	12791
917.603	12863
917.715	12882
917.826	12977
917.938	12791
918.049	12703
918.161	12863
918.272	12939
918.384	12913
918.495	12764
918.606	12692
918.717	12574
918.828	12719
918.939	12639
919.05	12471
919.161	12555
919.272	12467
919.383	12441
919.494	12658
919.604	12852
919.715	12623
919.826	12490
919.936	12483
920.047	12650
920.157	12566
920.267	12806
920.378	12612
920.488	12486
920.598	12673
920.708	12897
920.818	12753
920.928	12665
921.038	12905
921.148	12764
921.258	12566
921.368	12483
921.477	12308
921.587	12315
921.697	12311
921.806	12395
921.916	12224
922.025	12114
922.134	12049
922.244	11988
922.353	12072
922.462	11942
922.571	11767
922.68	11714
922.789	11680
922.898	11714
923.007	11570
923.116	11695
923.224	11646
923.333	11589
923.442	11516
923.55	11528
923.659	11566
923.767	11539
923.876	11528
923.984	11615
924.092	11528
924.201	11551
924.309	11448
924.417	11493
924.525	11364
924.633	11406
924.741	12315
924.849	11174
924.956	11402
925.064	11239
925.172	11128
925.279	11147
925.387	11292
925.494	11242
925.602	11269
925.709	11212
925.816	11075
925.924	11235
926.031	11231
926.138	11239
926.245	11322
926.352	11166
926.459	11155
926.566	11288
926.673	11086
926.779	10980
926.886	11064
926.993	10911
927.099	10881
927.206	10862
927.312	10717
927.419	10805
927.525	10889
927.631	10858
927.737	10763
927.843	10683
927.95	10580
928.056	10630
928.162	10641
928.267	10759
928.373	11341
928.479	10698
928.585	10493
928.69	10649
928.796	10710
928.901	10577
929.007	10451
929.112	10538
929.218	10516
929.323	10466
929.428	10470
929.533	10546
929.638	10386
929.743	10459
929.848	10500
929.953	10386
930.058	10386
930.163	10192
930.267	10192
930.372	10310
930.477	10131
930.581	10329
930.685	10242
930.79	10048
930.894	10086
930.998	10040
931.103	10196
931.207	9854
931.311	9831
931.415	9671
931.519	9530
931.623	9485
