Data from test_V78500241_543.txt Node
Date: Fri Mar 25 14:37:30 CST 2022
User: usil
Spectrometer: V785-0024
Trigger mode: 0
Integration Time (sec): 4.000000E-1
Scans to average: 1
Nonlinearity correction enabled: false
Boxcar width: 0
Storing dark spectrum: false
XAxis mode: Wavelengths
Number of Pixels in Spectrum: 1024
>>>>>Begin Spectral Data<<<<<
801.071	27291
801.214	27260
801.356	27020
801.499	26994
801.641	26849
801.783	26921
801.926	26914
802.068	26739
802.211	26552
802.353	26571
802.496	26461
802.638	26286
802.78	26278
802.923	26263
803.065	26138
803.208	26282
803.35	26218
803.492	26278
803.635	26362
803.777	26332
803.919	26453
804.061	26712
804.204	26476
804.346	26408
804.488	26271
804.63	26355
804.773	26225
804.915	26396
805.057	26465
805.199	26427
805.341	26469
805.483	26659
805.626	26537
805.768	26495
805.91	26575
806.052	26705
806.194	26621
806.336	26895
806.478	26891
806.62	26830
806.762	27074
806.904	27321
807.046	27682
807.188	27823
807.33	27819
807.472	28192
807.614	28360
807.756	28683
807.898	28968
808.04	29478
808.182	30323
808.324	31354
808.465	32366
808.607	33766
808.749	34744
808.891	35235
809.033	35330
809.174	34778
809.316	33576
809.458	32294
809.6	30962
809.741	30125
809.883	29375
810.025	29109
810.166	28672
810.308	28295
810.45	27994
810.591	27907
810.733	27542
810.875	27321
811.016	27131
811.158	27005
811.299	27081
811.441	27173
811.582	27100
811.724	26944
811.865	26864
812.007	26887
812.148	26895
812.29	26937
812.431	26864
812.573	27047
812.714	27150
812.855	27291
812.997	27332
813.138	27397
813.279	27374
813.421	27268
813.562	26994
813.703	26952
813.845	26857
813.986	26518
814.127	26237
814.268	26248
814.41	26252
814.551	26081
814.692	26282
814.833	26115
814.974	25921
815.115	26027
815.256	25902
815.397	25871
815.539	25921
815.68	25803
815.821	25742
815.962	25780
816.103	25845
816.244	25571
816.385	25594
816.526	25293
816.666	25270
816.807	25148
816.948	25206
817.089	25331
817.23	25160
817.371	25209
817.512	25103
817.653	25118
817.793	25126
817.934	25133
818.075	25183
818.216	25008
818.356	25076
818.497	24905
818.638	24787
818.778	24878
818.919	24821
819.06	24901
819.2	24878
819.341	25114
819.481	25080
819.622	25247
819.762	25282
819.903	25263
820.043	25206
820.184	25050
820.324	25084
820.465	25179
820.605	25137
820.746	24939
820.886	25012
821.026	24951
821.167	24901
821.307	25076
821.447	24989
821.588	24810
821.728	24661
821.868	24544
822.008	24441
822.149	24334
822.289	24285
822.429	24114
822.569	23931
822.709	24045
822.849	23843
822.99	23897
823.13	23779
823.27	23608
823.41	23535
823.55	23516
823.69	23638
823.83	23668
823.97	23535
824.11	23368
824.25	23242
824.389	23402
824.529	23395
824.669	23387
824.809	23463
824.949	23383
825.089	23493
825.228	23391
825.368	23105
825.508	23223
825.648	23174
825.787	23258
825.927	23216
826.067	23075
826.206	23086
826.346	23170
826.485	23025
826.625	23079
826.765	23341
826.904	23159
827.044	22877
827.183	22816
827.323	22801
827.462	22839
827.601	22862
827.741	22824
827.88	22782
828.02	22573
828.159	22672
828.298	22805
828.437	22820
828.577	22733
828.716	22801
828.855	22592
828.994	22481
829.134	22508
829.273	22436
829.412	22565
829.551	22344
829.69	22398
829.829	22557
829.968	22497
830.107	22451
830.246	22367
830.385	22367
830.524	22375
830.663	22253
830.802	22135
830.941	22051
831.08	22120
831.219	22055
831.357	22090
831.496	22291
831.635	22040
831.774	21953
831.913	21869
832.051	21861
832.19	21857
832.329	21895
832.467	21831
832.606	21660
832.744	21736
832.883	21816
833.022	21720
833.16	21751
833.299	21892
833.437	21975
833.576	22070
833.714	22101
833.852	22120
833.991	22158
834.129	22253
834.267	22188
834.406	22284
834.544	22131
834.682	22120
834.821	21979
834.959	22131
835.097	21895
835.235	21949
835.373	21930
835.511	21873
835.65	21648
835.788	21720
835.926	21538
836.064	21367
836.202	21557
836.34	21629
836.478	21606
836.615	21458
836.753	21625
836.891	21622
837.029	21644
837.167	21424
837.305	21431
837.443	21416
837.58	21389
837.718	21382
837.856	21363
837.993	21275
838.131	21363
838.269	21367
838.406	21230
838.544	21237
838.681	21009
838.819	20906
838.956	20925
839.094	20891
839.231	20842
839.369	20895
839.506	21245
839.643	21047
839.781	20887
839.918	20644
840.055	20705
840.193	20765
840.33	20697
840.467	20735
840.604	20792
840.742	20986
840.879	20644
841.016	20701
841.153	20705
841.29	20857
841.427	20819
841.564	20792
841.701	20800
841.838	20659
841.975	20629
842.112	20594
842.249	20575
842.385	20575
842.522	20769
842.659	20499
842.796	20499
842.933	20545
843.069	20450
843.206	20495
843.343	20598
843.479	20583
843.616	20549
843.752	20271
843.889	20244
844.025	20423
844.162	20412
844.298	20465
844.435	20488
844.571	20564
844.708	20609
844.844	20914
844.98	21032
845.117	21180
845.253	21454
845.389	21880
845.525	23090
845.661	25160
845.798	27614
845.934	29783
846.07	30441
846.206	30159
846.342	28660
846.478	25970
846.614	23745
846.75	22272
846.886	21332
847.022	20963
847.158	20454
847.294	20210
847.429	20081
847.565	20012
847.701	20130
847.837	19639
847.972	19563
848.108	19590
848.244	19658
848.379	19457
848.515	19396
848.65	19331
848.786	19308
848.921	19289
849.057	19369
849.192	19476
849.328	19438
849.463	19392
849.598	19221
849.734	19194
849.869	19160
850.004	19034
850.14	18973
850.275	19076
850.41	18973
850.545	18920
850.68	19019
850.815	19065
850.95	18989
851.085	19225
851.22	19114
851.355	19038
851.49	19122
851.625	18970
851.76	18859
851.895	18837
852.03	18856
852.165	18913
852.299	19091
852.434	19019
852.569	19012
852.703	19023
852.838	19072
852.973	19168
853.107	19209
853.242	18878
853.376	18890
853.511	18840
853.645	18928
853.78	19122
853.914	19015
854.048	18973
854.183	18920
854.317	18989
854.451	19072
854.585	18890
854.72	19019
854.854	19061
854.988	18852
855.122	18833
855.256	18726
855.39	18897
855.524	19110
855.658	18954
855.792	18848
855.926	18825
856.06	19088
856.194	18973
856.327	18837
856.461	18768
856.595	18787
856.729	18894
856.862	18947
856.996	18867
857.13	18806
857.263	18897
857.397	18981
857.53	18730
857.664	18844
857.797	18894
857.931	18943
858.064	18859
858.197	18913
858.331	18783
858.464	18719
858.597	18764
858.731	18783
858.864	18715
858.997	18787
859.13	18810
859.263	18795
859.396	18939
859.529	18764
859.662	18745
859.795	18779
859.928	18772
860.061	18840
860.194	18935
860.327	18821
860.46	18639
860.592	18882
860.725	18939
860.858	18730
860.99	18760
861.123	18616
861.256	18783
861.388	18760
861.521	19597
861.653	18620
861.786	18681
861.918	18703
862.05	18738
862.183	18738
862.315	18817
862.447	18844
862.58	18749
862.712	18654
862.844	18479
862.976	18635
863.108	18593
863.24	18890
863.372	18388
863.504	18369
863.636	18506
863.768	18544
863.9	18407
864.032	18228
864.164	18445
864.296	18544
864.428	18593
864.559	18486
864.691	18654
864.823	18498
864.954	18418
865.086	18574
865.217	18525
865.349	18292
865.48	18494
865.612	18414
865.743	18479
865.875	18407
866.006	18357
866.137	18483
866.269	18403
866.4	18395
866.531	18296
866.662	18251
866.793	18369
866.924	18380
867.055	18285
867.186	18338
867.317	18224
867.448	18304
867.579	18380
867.71	18228
867.841	18178
867.972	18285
868.103	18365
868.233	18410
868.364	18407
868.495	18456
868.625	18502
868.756	18749
868.886	18517
869.017	18604
869.147	18681
869.278	18825
869.408	18536
869.539	18604
869.669	18650
869.799	18673
869.929	18749
870.06	18593
870.19	18928
870.32	18894
870.45	18951
870.58	18916
870.71	19046
870.84	19034
870.97	18951
871.1	19050
871.23	19088
871.36	19141
871.489	19099
871.619	19129
871.749	19255
871.879	19225
872.008	19285
872.138	19236
872.267	19335
872.397	19103
872.526	19057
872.656	19107
872.785	19061
872.915	19190
873.044	19316
873.173	19324
873.303	19339
873.432	19381
873.561	19354
873.69	19221
873.819	19320
873.948	19460
874.077	19400
874.206	19438
874.335	19480
874.464	19514
874.593	19700
874.722	19674
874.851	19727
874.979	19628
875.108	19860
875.237	19613
875.365	19620
875.494	19742
875.623	19746
875.751	19700
875.88	19761
876.008	19860
876.136	20111
876.265	20153
876.393	20473
876.521	20298
876.65	20438
876.778	20400
876.906	20317
877.034	20317
877.162	20191
877.29	20404
877.418	20336
877.546	20412
877.674	20358
877.802	20336
877.93	20667
878.058	20579
878.185	20651
878.313	20724
878.441	20876
878.568	20857
878.696	21241
878.824	21583
878.951	21888
879.079	22805
879.206	23448
879.333	24144
879.461	24825
879.588	25213
879.715	25206
879.842	25061
879.97	24270
880.097	23277
880.224	22531
880.351	22192
880.478	21915
880.605	21591
880.732	21428
880.859	21530
880.986	21325
881.112	21332
881.239	21203
881.366	20895
881.493	21005
881.619	20918
881.746	20952
881.872	20853
881.999	20902
882.125	20933
882.252	21039
882.378	20834
882.505	21135
882.631	20921
882.757	20720
882.883	20819
883.01	20724
883.136	20648
883.262	20632
883.388	20568
883.514	20625
883.64	20849
883.766	20621
883.892	20568
884.018	20518
884.143	20686
884.269	20705
884.395	20594
884.52	20518
884.646	20351
884.772	20358
884.897	20374
885.023	20495
885.148	20518
885.274	20587
885.399	20488
885.524	20294
885.65	20309
885.775	20267
885.9	20210
886.025	20240
886.15	20096
886.275	20046
886.4	19811
886.525	19803
886.65	19746
886.775	19784
886.9	19837
887.025	19944
887.149	19826
887.274	19495
887.399	19521
887.523	19362
887.648	19343
887.773	19285
887.897	19270
888.021	19225
888.146	19274
888.27	19373
888.395	19358
888.519	19358
888.643	19194
888.767	19354
888.891	19129
889.015	18977
889.139	18977
889.263	18909
889.387	19107
889.511	19027
889.635	19012
889.759	18973
889.883	18886
890.006	18935
890.13	19031
890.254	18741
890.377	18829
890.501	18715
890.624	18620
890.748	18604
890.871	18536
890.995	18471
891.118	18350
891.241	18410
891.364	18395
891.488	18426
891.611	18350
891.734	18350
891.857	18384
891.98	18346
892.103	18334
892.226	18327
892.349	18266
892.471	18133
892.594	18216
892.717	18182
892.839	18300
892.962	18213
893.085	18205
893.207	18182
893.33	18041
893.452	18068
893.575	18300
893.697	18129
893.819	18159
893.941	18426
894.064	18209
894.186	17969
894.308	18034
894.43	18144
894.552	18209
894.674	18235
894.796	18003
894.918	18041
895.04	18003
895.161	18098
895.283	18136
895.405	17961
895.526	18239
895.648	17980
895.769	18098
895.891	18136
896.012	18178
896.134	18072
896.255	17988
896.376	18015
896.498	17965
896.619	18121
896.74	17996
896.861	18136
896.982	18304
897.103	18601
897.224	18369
897.345	18308
897.466	18224
897.587	18186
897.708	18365
897.828	18403
897.949	18239
898.07	18064
898.19	18270
898.311	18437
898.431	18190
898.552	18281
898.672	18395
898.792	18251
898.913	18235
899.033	18239
899.153	18129
899.273	17916
899.393	17946
899.513	18117
899.633	18144
899.753	18068
899.873	18019
899.993	18144
900.113	18011
900.232	18049
900.352	17942
900.472	17973
900.591	17878
900.711	18022
900.83	17863
900.95	18038
901.069	17893
901.189	17764
901.308	17551
901.427	17395
901.546	17387
901.665	17516
901.784	17493
901.904	17349
902.023	17242
902.141	17018
902.26	17045
902.379	17090
902.498	16999
902.617	16915
902.735	17037
902.854	16847
902.973	16877
903.091	16740
903.21	16634
903.328	16596
903.446	16596
903.565	16485
903.683	16436
903.801	16318
903.919	16356
904.038	16386
904.156	16253
904.274	16318
904.392	16253
904.51	16188
904.627	16268
904.745	16185
904.863	16238
904.981	16025
905.098	15918
905.216	15823
905.334	15854
905.451	15835
905.569	15819
905.686	15873
905.803	15831
905.921	15637
906.038	15713
906.155	15633
906.272	15507
906.389	15641
906.506	15405
906.623	15370
906.74	15302
906.857	15317
906.974	15260
907.091	15485
907.208	15553
907.324	15287
907.441	15332
907.557	15062
907.674	15176
907.79	15066
907.907	14979
908.023	15184
908.139	15108
908.256	14994
908.372	14914
908.488	14876
908.604	14853
908.72	14758
908.836	14826
908.952	14674
909.068	14773
909.184	14941
909.3	14769
909.415	14777
909.531	14754
909.647	14606
909.762	14571
909.878	14545
909.993	14495
910.108	14400
910.224	14488
910.339	14492
910.454	14355
910.57	14438
910.685	14313
910.8	14533
910.915	14526
911.03	14332
911.145	14191
911.259	14054
911.374	14183
911.489	14134
911.604	14020
911.718	13868
911.833	13936
911.947	13803
912.062	13712
912.176	13837
912.291	13799
912.405	13871
912.519	14001
912.633	14046
912.748	13833
912.862	13898
912.976	13761
913.09	13582
913.204	13586
913.318	13685
913.431	13826
913.545	13693
913.659	13826
913.772	13689
913.886	13613
914	13506
914.113	13670
914.226	13647
914.34	13605
914.453	13533
914.566	13582
914.68	13487
914.793	13346
914.906	13304
915.019	13274
915.132	13221
915.245	13164
915.358	13251
915.47	13301
915.583	13228
915.696	13270
915.809	13293
915.921	13392
916.034	13141
916.146	13103
916.259	13110
916.371	13251
916.483	13137
916.595	13152
916.708	13103
916.82	13095
916.932	13088
917.044	13095
917.156	13088
917.268	12958
917.38	12985
917.491	12951
917.603	12924
917.715	13034
917.826	13042
917.938	12856
918.049	12764
918.161	12943
918.272	13080
918.384	12996
918.495	12837
918.606	12760
918.717	12711
918.828	12757
918.939	12722
919.05	12631
919.161	12673
919.272	12509
919.383	12559
919.494	12764
919.604	12897
919.715	12825
919.826	12623
919.936	12654
920.047	12722
920.157	12700
920.267	12852
920.378	12768
920.488	12612
920.598	12844
920.708	13008
920.818	12886
920.928	12848
921.038	12886
921.148	12958
921.258	12631
921.368	12547
921.477	12521
921.587	12506
921.697	12361
921.806	12452
921.916	12327
922.025	12129
922.134	12197
922.244	12072
922.353	12148
922.462	11977
922.571	11954
922.68	11794
922.789	11817
922.898	11764
923.007	11722
923.116	11863
923.224	11790
923.333	11680
923.442	11695
923.55	11619
923.659	11646
923.767	11619
923.876	11638
923.984	11642
924.092	11551
924.201	11649
924.309	11600
924.417	11581
924.525	11459
924.633	11543
924.741	12270
924.849	11239
924.956	11566
925.064	11345
925.172	11273
925.279	11258
925.387	11292
925.494	11269
925.602	11452
925.709	11356
925.816	11204
925.924	11231
926.031	11341
926.138	11284
926.245	11303
926.352	11265
926.459	11284
926.566	11379
926.673	11231
926.779	11064
926.886	11193
926.993	10984
927.099	10957
927.206	10858
927.312	10839
927.419	10949
927.525	10896
927.631	10965
927.737	10858
927.843	10717
927.95	10653
928.056	10729
928.162	10809
928.267	10839
928.373	11360
928.479	10847
928.585	10630
928.69	10717
928.796	10809
928.901	10675
929.007	10470
929.112	10702
929.218	10588
929.323	10603
929.428	10481
929.533	10683
929.638	10542
929.743	10599
929.848	10504
929.953	10535
930.058	10405
930.163	10227
930.267	10265
930.372	10386
930.477	10318
930.581	10470
930.685	10284
930.79	10124
930.894	10154
930.998	10204
931.103	10295
931.207	9941
931.311	9888
931.415	9728
931.519	9644
931.623	9618
