Data from test_V78500241_2567.txt Node
Date: Fri Mar 25 14:51:35 CST 2022
User: usil
Spectrometer: V785-0024
Trigger mode: 0
Integration Time (sec): 4.000000E-1
Scans to average: 1
Nonlinearity correction enabled: false
Boxcar width: 0
Storing dark spectrum: false
XAxis mode: Wavelengths
Number of Pixels in Spectrum: 1024
>>>>>Begin Spectral Data<<<<<
801.071	22090
801.214	21964
801.356	21747
801.499	21618
801.641	21412
801.783	21454
801.926	21458
802.068	21454
802.211	21268
802.353	21192
802.496	21058
802.638	20937
802.78	20956
802.923	20781
803.065	20693
803.208	20697
803.35	20735
803.492	20872
803.635	20819
803.777	20762
803.919	20872
804.061	21104
804.204	20743
804.346	20579
804.488	20651
804.63	20636
804.773	20556
804.915	20720
805.057	20667
805.199	20663
805.341	20754
805.483	20777
805.626	20697
805.768	20590
805.91	20693
806.052	20777
806.194	20499
806.336	20735
806.478	20575
806.62	20488
806.762	20629
806.904	20864
807.046	21024
807.188	21013
807.33	21032
807.472	20971
807.614	20769
807.756	20899
807.898	20739
808.04	20781
808.182	20720
808.324	20773
808.465	20727
808.607	20823
808.749	21039
808.891	21009
809.033	21119
809.174	21058
809.316	20998
809.458	20895
809.6	20960
809.741	21005
809.883	21275
810.025	21241
810.166	21226
810.308	21241
810.45	21207
810.591	21074
810.733	20906
810.875	20762
811.016	20655
811.158	20708
811.299	20849
811.441	20834
811.582	20899
811.724	20838
811.865	20739
812.007	20773
812.148	20754
812.29	20693
812.431	20872
812.573	21047
812.714	21256
812.855	21363
812.997	21370
813.138	21549
813.279	21291
813.421	21245
813.562	21142
813.703	21070
813.845	20857
813.986	20644
814.127	20522
814.268	20396
814.41	20332
814.551	20400
814.692	20282
814.833	20305
814.974	20229
815.115	20347
815.256	20237
815.397	20183
815.539	20187
815.68	20145
815.821	19928
815.962	20103
816.103	20054
816.244	19932
816.385	19746
816.526	19803
816.666	19480
816.807	19483
816.948	19559
817.089	19605
817.23	19460
817.371	19472
817.512	19533
817.653	19358
817.793	19396
817.934	19384
818.075	19468
818.216	19548
818.356	19415
818.497	19297
818.638	19160
818.778	19114
818.919	19190
819.06	19156
819.2	19270
819.341	19327
819.481	19388
819.622	19563
819.762	19624
819.903	19506
820.043	19533
820.184	19453
820.324	19312
820.465	19464
820.605	19438
820.746	19430
820.886	19346
821.026	19339
821.167	19529
821.307	19335
821.447	19403
821.588	19327
821.728	19141
821.868	18913
822.008	18776
822.149	18844
822.289	18829
822.429	18627
822.569	18551
822.709	18532
822.849	18342
822.99	18308
823.13	18182
823.27	18346
823.41	18239
823.55	18110
823.69	18224
823.83	18087
823.97	18022
824.11	17904
824.25	17893
824.389	17889
824.529	18022
824.669	17939
824.809	18098
824.949	18022
825.089	17889
825.228	17920
825.368	17665
825.508	17733
825.648	17684
825.787	17710
825.927	17722
826.067	17691
826.206	17718
826.346	17859
826.485	17684
826.625	17668
826.765	17855
826.904	17638
827.044	17532
827.183	17497
827.323	17345
827.462	17630
827.601	17410
827.741	17299
827.88	17364
828.02	17277
828.159	17395
828.298	17467
828.437	17520
828.577	17330
828.716	17524
828.855	17406
828.994	17102
829.134	17128
829.273	17220
829.412	17071
829.551	17128
829.69	17071
829.829	17132
829.968	17170
830.107	17284
830.246	17159
830.385	17079
830.524	17041
830.663	16900
830.802	16889
830.941	16752
831.08	16717
831.219	16828
831.357	16774
831.496	16999
831.635	16771
831.774	16683
831.913	16596
832.051	16615
832.19	16504
832.329	16592
832.467	16455
832.606	16379
832.744	16413
832.883	16363
833.022	16440
833.16	16527
833.299	16462
833.437	16493
833.576	16432
833.714	16497
833.852	16584
833.991	16554
834.129	16596
834.267	16561
834.406	16462
834.544	16607
834.682	16516
834.821	16508
834.959	16656
835.097	16497
835.235	16512
835.373	16569
835.511	16478
835.65	16474
835.788	16443
835.926	16360
836.064	16257
836.202	16291
836.34	16489
836.478	16519
836.615	16409
836.753	16394
836.891	16493
837.029	16497
837.167	16421
837.305	16379
837.443	16310
837.58	16242
837.718	16348
837.856	16310
837.993	16169
838.131	16268
838.269	16291
838.406	16291
838.544	16253
838.681	15975
838.819	15956
838.956	15842
839.094	15797
839.231	15884
839.369	16013
839.506	16223
839.643	16154
839.781	15915
839.918	15911
840.055	15949
840.193	15804
840.33	15838
840.467	15789
840.604	15835
840.742	16166
840.879	15743
841.016	15800
841.153	15736
841.29	15964
841.427	15964
841.564	15812
841.701	15903
841.838	15781
841.975	15793
842.112	15804
842.249	15629
842.385	15614
842.522	15755
842.659	15644
842.796	15644
842.933	15701
843.069	15584
843.206	15656
843.343	15812
843.479	15622
843.616	15667
843.752	15389
843.889	15389
844.025	15603
844.162	15397
844.298	15496
844.435	15367
844.571	15313
844.708	15545
844.844	15530
844.98	15549
845.117	15538
845.253	15389
845.389	15218
845.525	15252
845.661	15363
845.798	15218
845.934	15306
846.07	15245
846.206	15192
846.342	15428
846.478	15230
846.614	15017
846.75	14971
846.886	14994
847.022	15055
847.158	14960
847.294	14906
847.429	14956
847.565	14998
847.701	15180
847.837	14716
847.972	14815
848.108	14861
848.244	14823
848.379	14621
848.515	14640
848.65	14541
848.786	14541
848.921	14556
849.057	14731
849.192	14754
849.328	14579
849.463	14644
849.598	14632
849.734	14442
849.869	14423
850.004	14294
850.14	14503
850.275	14381
850.41	14248
850.545	14366
850.68	14290
850.815	14381
850.95	14225
851.085	14526
851.22	14385
851.355	14320
851.49	14294
851.625	14244
851.76	14343
851.895	14191
852.03	14130
852.165	14191
852.299	14396
852.434	14434
852.569	14454
852.703	14446
852.838	14461
852.973	14514
853.107	14454
853.242	14229
853.376	14225
853.511	14039
853.645	14248
853.78	14290
853.914	14309
854.048	14267
854.183	14065
854.317	14172
854.451	14317
854.585	14267
854.72	14210
854.854	14328
854.988	14100
855.122	14218
855.256	14092
855.39	14240
855.524	14377
855.658	14225
855.792	14218
855.926	14248
856.06	14256
856.194	14317
856.327	14271
856.461	14157
856.595	14195
856.729	14180
856.862	14298
856.996	14290
857.13	14347
857.263	14286
857.397	14389
857.53	14244
857.664	14263
857.797	14202
857.931	14385
858.064	14278
858.197	14328
858.331	14199
858.464	14221
858.597	14084
858.731	14244
858.864	14252
858.997	14218
859.13	14328
859.263	14157
859.396	14324
859.529	14210
859.662	14214
859.795	14271
859.928	14183
860.061	14374
860.194	14450
860.327	14210
860.46	14191
860.592	14298
860.725	14237
860.858	14381
860.99	14233
861.123	14134
861.256	14081
861.388	14233
861.521	14929
861.653	14153
861.786	14142
861.918	14020
862.05	14073
862.183	14176
862.315	14130
862.447	14313
862.58	14180
862.712	13978
862.844	13944
862.976	14024
863.108	13959
863.24	14442
863.372	13970
863.504	14005
863.636	14050
863.768	14069
863.9	13986
864.032	13917
864.164	13864
864.296	13978
864.428	14183
864.559	14103
864.691	14123
864.823	14073
864.954	14062
865.086	14103
865.217	14054
865.349	13970
865.48	13959
865.612	13997
865.743	14123
865.875	13913
866.006	13959
866.137	14050
866.269	13993
866.4	13955
866.531	13906
866.662	13890
866.793	13894
866.924	13982
867.055	14069
867.186	14005
867.317	13974
867.448	13791
867.579	13967
867.71	13944
867.841	13906
867.972	14008
868.103	14081
868.233	13993
868.364	14062
868.495	14043
868.625	14275
868.756	14313
868.886	14199
869.017	14271
869.147	14339
869.278	14454
869.408	14282
869.539	14358
869.669	14347
869.799	14240
869.929	14461
870.06	14434
870.19	14632
870.32	14613
870.45	14606
870.58	14689
870.71	14807
870.84	14815
870.97	14701
871.1	14655
871.23	14792
871.36	14902
871.489	14811
871.619	14735
871.749	14845
871.879	14990
872.008	14990
872.138	14948
872.267	14994
872.397	14739
872.526	14701
872.656	14674
872.785	14743
872.915	14925
873.044	15013
873.173	14967
873.303	14975
873.432	14975
873.561	15062
873.69	14933
873.819	14944
873.948	15032
874.077	14918
874.206	14899
874.335	14960
874.464	15074
874.593	15256
874.722	15169
874.851	15260
874.979	15340
875.108	15310
875.237	15074
875.365	15199
875.494	15302
875.623	15359
875.751	15188
875.88	15233
876.008	15439
876.136	15454
876.265	15675
876.393	15789
876.521	15694
876.65	15728
876.778	15660
876.906	15564
877.034	15774
877.162	15568
877.29	15584
877.418	15755
877.546	15648
877.674	15701
877.802	15713
877.93	15641
878.058	15648
878.185	15564
878.313	15606
878.441	15606
878.568	15504
878.696	15625
878.824	15743
878.951	15732
879.079	15838
879.206	15941
879.333	15751
879.461	15690
879.588	15854
879.715	15774
879.842	15903
879.97	15797
880.097	15492
880.224	15454
880.351	15561
880.478	15542
880.605	15408
880.732	15473
880.859	15698
880.986	15622
881.112	15526
881.239	15405
881.366	15249
881.493	15207
881.619	15245
881.746	15222
881.872	15131
881.999	15142
882.125	15176
882.252	15222
882.378	15085
882.505	15321
882.631	15146
882.757	15013
882.883	15020
883.01	15051
883.136	14956
883.262	14918
883.388	14857
883.514	15009
883.64	14986
883.766	14929
883.892	14792
884.018	14944
884.143	14941
884.269	15058
884.395	14800
884.52	14716
884.646	14667
884.772	14564
884.897	14613
885.023	14701
885.148	14830
885.274	14872
885.399	14765
885.524	14678
885.65	14701
885.775	14754
885.9	14735
886.025	14815
886.15	14632
886.275	14640
886.4	14568
886.525	14659
886.65	14678
886.775	14701
886.9	14819
887.025	14986
887.149	14625
887.274	14492
887.399	14454
887.523	14503
887.648	14461
887.773	14476
887.897	14667
888.021	14583
888.146	14438
888.27	14625
888.395	14610
888.519	14590
888.643	14602
888.767	14606
888.891	14396
889.015	14408
889.139	14415
889.263	14343
889.387	14385
889.511	14667
889.635	14454
889.759	14339
889.883	14317
890.006	14336
890.13	14480
890.254	14317
890.377	14278
890.501	14187
890.624	14142
890.748	14214
890.871	14149
890.995	14039
891.118	14107
891.241	14157
891.364	14153
891.488	14206
891.611	14138
891.734	14077
891.857	14187
891.98	14142
892.103	14180
892.226	14176
892.349	14050
892.471	13989
892.594	13993
892.717	14069
892.839	14016
892.962	14126
893.085	14248
893.207	14081
893.33	13978
893.452	14081
893.575	14111
893.697	14100
893.819	14286
893.941	14385
894.064	14138
894.186	14035
894.308	13978
894.43	14248
894.552	14320
894.674	14237
894.796	14115
894.918	14123
895.04	14149
895.161	14248
895.283	14248
895.405	14107
895.526	14210
895.648	14119
895.769	14233
895.891	14377
896.012	14298
896.134	14347
896.255	14343
896.376	14210
896.498	14248
896.619	14351
896.74	14206
896.861	14301
896.982	14564
897.103	14800
897.224	14594
897.345	14556
897.466	14332
897.587	14473
897.708	14640
897.828	14564
897.949	14423
898.07	14351
898.19	14552
898.311	14659
898.431	14568
898.552	14686
898.672	14682
898.792	14587
898.913	14640
899.033	14484
899.153	14492
899.273	14252
899.393	14389
899.513	14446
899.633	14522
899.753	14457
899.873	14442
899.993	14492
900.113	14461
900.232	14484
900.352	14366
900.472	14370
900.591	14301
900.711	14377
900.83	14214
900.95	14457
901.069	14431
901.189	14240
901.308	14107
901.427	13879
901.546	13986
901.665	13993
901.784	14001
901.904	13871
902.023	13761
902.141	13624
902.26	13559
902.379	13719
902.498	13559
902.617	13499
902.735	13609
902.854	13567
902.973	13529
903.091	13335
903.21	13285
903.328	13324
903.446	13278
903.565	13069
903.683	13137
903.801	12985
903.919	13164
904.038	13084
904.156	12958
904.274	13042
904.392	12951
904.51	12924
904.627	12962
904.745	13050
904.863	13065
904.981	12715
905.098	12551
905.216	12631
905.334	12760
905.451	12608
905.569	12700
905.686	12654
905.803	12662
905.921	12369
906.038	12570
906.155	12483
906.272	12342
906.389	12365
906.506	12228
906.623	12232
906.74	12171
906.857	12178
906.974	12171
907.091	12292
907.208	12346
907.324	12262
907.441	12167
907.557	11954
907.674	12091
907.79	11897
907.907	11961
908.023	12026
908.139	11946
908.256	11866
908.372	11920
908.488	11912
908.604	11832
908.72	11718
908.836	11737
908.952	11680
909.068	11840
909.184	11775
909.3	11714
909.415	11824
909.531	11752
909.647	11581
909.762	11600
909.878	11493
909.993	11562
910.108	11509
910.224	11493
910.339	11425
910.454	11421
910.57	11387
910.685	11296
910.8	11600
910.915	11547
911.03	11372
911.145	11288
911.259	11136
911.374	11071
911.489	11045
911.604	11102
911.718	11003
911.833	11052
911.947	10835
912.062	10816
912.176	10991
912.291	10938
912.405	10908
912.519	11193
912.633	11261
912.748	10934
912.862	10991
912.976	10892
913.09	10706
913.204	10862
913.318	10949
913.431	10949
913.545	11003
913.659	11025
913.772	10915
913.886	10717
914	10660
914.113	10809
914.226	10885
914.34	10889
914.453	10744
914.566	10862
914.68	10649
914.793	10649
914.906	10474
915.019	10402
915.132	10474
915.245	10371
915.358	10512
915.47	10512
915.583	10550
915.696	10569
915.809	10584
915.921	10641
916.034	10421
916.146	10382
916.259	10390
916.371	10569
916.483	10443
916.595	10390
916.708	10390
916.82	10394
916.932	10325
917.044	10398
917.156	10310
917.268	10272
917.38	10314
917.491	10291
917.603	10280
917.715	10470
917.826	10421
917.938	10265
918.049	10162
918.161	10405
918.272	10436
918.384	10474
918.495	10375
918.606	10196
918.717	10207
918.828	10207
918.939	10207
919.05	10029
919.161	10181
919.272	10006
919.383	10109
919.494	10230
919.604	10424
919.715	10211
919.826	10166
919.936	10215
920.047	10276
920.157	10246
920.267	10409
920.378	10238
920.488	10143
920.598	10341
920.708	10546
920.818	10402
920.928	10451
921.038	10546
921.148	10493
921.258	10211
921.368	10242
921.477	10116
921.587	10059
921.697	9975
921.806	10109
921.916	9854
922.025	9785
922.134	9732
922.244	9766
922.353	9819
922.462	9648
922.571	9682
922.68	9416
922.789	9382
922.898	9545
923.007	9359
923.116	9545
923.224	9443
923.333	9401
923.442	9389
923.55	9298
923.659	9443
923.767	9416
923.876	9325
923.984	9332
924.092	9218
924.201	9325
924.309	9363
924.417	9306
924.525	9249
924.633	9306
924.741	10090
924.849	9077
924.956	9287
925.064	9150
925.172	9085
925.279	9135
925.387	9108
925.494	9127
925.602	9272
925.709	9165
925.816	9020
925.924	9142
926.031	9245
926.138	9112
926.245	9131
926.352	9024
926.459	9207
926.566	9310
926.673	9024
926.779	8944
926.886	8975
926.993	8807
927.099	8785
927.206	8804
927.312	8716
927.419	8918
927.525	8880
927.631	8857
927.737	8697
927.843	8697
927.95	8625
928.056	8644
928.162	8712
928.267	8754
928.373	9355
928.479	8857
928.585	8610
928.69	8678
928.796	8777
928.901	8629
929.007	8511
929.112	8594
929.218	8602
929.323	8560
929.428	8522
929.533	8758
929.638	8465
929.743	8617
929.848	8530
929.953	8549
930.058	8423
930.163	8282
930.267	8324
930.372	8438
930.477	8240
930.581	8568
930.685	8324
930.79	8290
930.894	8267
930.998	8324
931.103	8404
931.207	8069
931.311	8016
931.415	7970
931.519	7792
931.623	7731
