Data from test_V78500241_1616.txt Node
Date: Fri Mar 25 14:44:57 CST 2022
User: usil
Spectrometer: V785-0024
Trigger mode: 0
Integration Time (sec): 4.000000E-1
Scans to average: 1
Nonlinearity correction enabled: false
Boxcar width: 0
Storing dark spectrum: false
XAxis mode: Wavelengths
Number of Pixels in Spectrum: 1024
>>>>>Begin Spectral Data<<<<<
801.071	22318
801.214	22276
801.356	22048
801.499	21953
801.641	21762
801.783	21671
801.926	21781
802.068	21667
802.211	21545
802.353	21553
802.496	21310
802.638	21207
802.78	21195
802.923	21173
803.065	20979
803.208	20994
803.35	21024
803.492	21116
803.635	21199
803.777	21077
803.919	21165
804.061	21401
804.204	21093
804.346	21043
804.488	20895
804.63	21081
804.773	20956
804.915	20868
805.057	20990
805.199	20952
805.341	21039
805.483	21020
805.626	21036
805.768	20883
805.91	21013
806.052	21017
806.194	20925
806.336	21043
806.478	20986
806.62	20914
806.762	21020
806.904	21135
807.046	21329
807.188	21431
807.33	21363
807.472	21389
807.614	21188
807.756	21230
807.898	21176
808.04	21081
808.182	21066
808.324	21294
808.465	21237
808.607	21428
808.749	21496
808.891	21492
809.033	21595
809.174	21496
809.316	21523
809.458	21454
809.6	21374
809.741	21412
809.883	21450
810.025	21572
810.166	21561
810.308	21622
810.45	21477
810.591	21355
810.733	21321
810.875	21173
811.016	21062
811.158	21135
811.299	21093
811.441	21249
811.582	21469
811.724	21116
811.865	21260
812.007	21218
812.148	21032
812.29	21233
812.431	21359
812.573	21435
812.714	21603
812.855	21789
812.997	21724
813.138	21930
813.279	21880
813.421	21583
813.562	21622
813.703	21386
813.845	21279
813.986	21028
814.127	20887
814.268	20701
814.41	20750
814.551	20762
814.692	20849
814.833	20659
814.974	20465
815.115	20781
815.256	20499
815.397	20507
815.539	20598
815.68	20301
815.821	20370
815.962	20583
816.103	20476
816.244	20149
816.385	20229
816.526	20027
816.666	20031
816.807	19902
816.948	19936
817.089	19913
817.23	19833
817.371	19841
817.512	19795
817.653	19913
817.793	19712
817.934	19871
818.075	19677
818.216	19883
818.356	19841
818.497	19693
818.638	19441
818.778	19495
818.919	19502
819.06	19457
819.2	19582
819.341	19639
819.481	19734
819.622	19841
819.762	20107
819.903	19944
820.043	19898
820.184	19856
820.324	19708
820.465	20039
820.605	19868
820.746	19799
820.886	19662
821.026	19826
821.167	19681
821.307	19776
821.447	19620
821.588	19639
821.728	19476
821.868	19301
822.008	19103
822.149	19236
822.289	19217
822.429	18943
822.569	18897
822.709	18935
822.849	18711
822.99	18715
823.13	18627
823.27	18673
823.41	18589
823.55	18464
823.69	18528
823.83	18536
823.97	18410
824.11	18311
824.25	18228
824.389	18254
824.529	18494
824.669	18300
824.809	18414
824.949	18448
825.089	18247
825.228	18327
825.368	18117
825.508	18003
825.648	17988
825.787	18121
825.927	18117
826.067	17931
826.206	18007
826.346	18129
826.485	17996
826.625	18022
826.765	18167
826.904	18079
827.044	17874
827.183	17722
827.323	17764
827.462	17851
827.601	17627
827.741	17672
827.88	17714
828.02	17611
828.159	17726
828.298	17821
828.437	17790
828.577	17726
828.716	17813
828.855	17665
828.994	17501
829.134	17524
829.273	17520
829.412	17478
829.551	17326
829.69	17501
829.829	17448
829.968	17490
830.107	17490
830.246	17505
830.385	17444
830.524	17379
830.663	17299
830.802	17193
830.941	17105
831.08	17136
831.219	17235
831.357	17178
831.496	17303
831.635	17147
831.774	17018
831.913	16968
832.051	16847
832.19	16915
832.329	16957
832.467	16812
832.606	16664
832.744	16752
832.883	16820
833.022	16702
833.16	16809
833.299	16892
833.437	16896
833.576	16847
833.714	16885
833.852	16900
833.991	16911
834.129	16873
834.267	16850
834.406	16854
834.544	16744
834.682	16881
834.821	16767
834.959	17041
835.097	16733
835.235	17006
835.373	16923
835.511	16809
835.65	16786
835.788	16611
835.926	16573
836.064	16462
836.202	16565
836.34	16702
836.478	16774
836.615	16790
836.753	16717
836.891	16835
837.029	16706
837.167	16618
837.305	16634
837.443	16664
837.58	16611
837.718	16580
837.856	16573
837.993	16535
838.131	16584
838.269	16504
838.406	16489
838.544	16402
838.681	16246
838.819	16253
838.956	16211
839.094	16124
839.231	16135
839.369	16181
839.506	16516
839.643	16337
839.781	16238
839.918	16040
840.055	16154
840.193	16086
840.33	16162
840.467	16044
840.604	16158
840.742	16481
840.879	16071
841.016	16044
841.153	16071
841.29	16253
841.427	16124
841.564	16223
841.701	16112
841.838	16101
841.975	15972
842.112	16010
842.249	15903
842.385	15808
842.522	16109
842.659	15953
842.796	15869
842.933	15918
843.069	15880
843.206	15937
843.343	16036
843.479	15911
843.616	15949
843.752	15694
843.889	15736
844.025	15846
844.162	15709
844.298	15774
844.435	15675
844.571	15648
844.708	15770
844.844	15850
844.98	15762
845.117	15747
845.253	15679
845.389	15485
845.525	15622
845.661	15595
845.798	15500
845.934	15549
846.07	15603
846.206	15724
846.342	15743
846.478	15561
846.614	15378
846.75	15260
846.886	15188
847.022	15367
847.158	15237
847.294	15226
847.429	15382
847.565	15222
847.701	15485
847.837	15013
847.972	15051
848.108	15112
848.244	15100
848.379	14910
848.515	14883
848.65	14716
848.786	14838
848.921	14830
849.057	14998
849.192	14963
849.328	14872
849.463	14918
849.598	14921
849.734	14746
849.869	14682
850.004	14659
850.14	14640
850.275	14670
850.41	14541
850.545	14594
850.68	14518
850.815	14735
850.95	14518
851.085	14750
851.22	14674
851.355	14621
851.49	14514
851.625	14514
851.76	14526
851.895	14575
852.03	14450
852.165	14556
852.299	14693
852.434	14682
852.569	14613
852.703	14617
852.838	14705
852.973	14739
853.107	14716
853.242	14476
853.376	14476
853.511	14400
853.645	14514
853.78	14632
853.914	14507
854.048	14511
854.183	14377
854.317	14530
854.451	14697
854.585	14507
854.72	14457
854.854	14644
854.988	14294
855.122	14434
855.256	14275
855.39	14480
855.524	14610
855.658	14560
855.792	14568
855.926	14492
856.06	14579
856.194	14621
856.327	14419
856.461	14320
856.595	14389
856.729	14461
856.862	14560
856.996	14583
857.13	14613
857.263	14541
857.397	14552
857.53	14503
857.664	14583
857.797	14651
857.931	14621
858.064	14598
858.197	14564
858.331	14415
858.464	14374
858.597	14408
858.731	14423
858.864	14423
858.997	14492
859.13	14507
859.263	14526
859.396	14533
859.529	14492
859.662	14434
859.795	14594
859.928	14541
860.061	14648
860.194	14598
860.327	14541
860.46	14518
860.592	14564
860.725	14712
860.858	14571
860.99	14503
861.123	14381
861.256	14362
861.388	14552
861.521	15222
861.653	14404
861.786	14324
861.918	14385
862.05	14343
862.183	14507
862.315	14590
862.447	14522
862.58	14427
862.712	14267
862.844	14225
862.976	14267
863.108	14366
863.24	14769
863.372	14180
863.504	14248
863.636	14225
863.768	14286
863.9	14202
864.032	14172
864.164	14138
864.296	14362
864.428	14374
864.559	14313
864.691	14332
864.823	14355
864.954	14313
865.086	14370
865.217	14282
865.349	14164
865.48	14275
865.612	14412
865.743	14393
865.875	14305
866.006	14107
866.137	14138
866.269	14328
866.4	14275
866.531	14210
866.662	14092
866.793	14248
866.924	14259
867.055	14275
867.186	14298
867.317	14210
867.448	14119
867.579	14271
867.71	14191
867.841	14176
867.972	14248
868.103	14278
868.233	14271
868.364	14267
868.495	14313
868.625	14499
868.756	14579
868.886	14412
869.017	14461
869.147	14526
869.278	14598
869.408	14526
869.539	14495
869.669	14488
869.799	14606
869.929	14590
870.06	14514
870.19	14842
870.32	14659
870.45	14804
870.58	14902
870.71	14994
870.84	14967
870.97	14914
871.1	14941
871.23	15089
871.36	15074
871.489	14963
871.619	15047
871.749	15055
871.879	15157
872.008	15176
872.138	15051
872.267	14975
872.397	14994
872.526	14948
872.656	14880
872.785	14899
872.915	15077
873.044	15241
873.173	15135
873.303	15131
873.432	15195
873.561	15245
873.69	15279
873.819	15100
873.948	15340
874.077	15066
874.206	15077
874.335	15188
874.464	15302
874.593	15332
874.722	15275
874.851	15466
874.979	15424
875.108	15496
875.237	15519
875.365	15382
875.494	15408
875.623	15580
875.751	15374
875.88	15431
876.008	15584
876.136	15637
876.265	15991
876.393	16017
876.521	15873
876.65	15960
876.778	15941
876.906	15808
877.034	15724
877.162	15842
877.29	15770
877.418	15869
877.546	15934
877.674	15873
877.802	15895
877.93	15903
878.058	15713
878.185	15751
878.313	15857
878.441	15880
878.568	15724
878.696	15705
878.824	15953
878.951	15899
879.079	15983
879.206	16215
879.333	16097
879.461	15994
879.588	16059
879.715	16124
879.842	16173
879.97	15987
880.097	15747
880.224	15797
880.351	15804
880.478	15739
880.605	15720
880.732	15781
880.859	15979
880.986	15682
881.112	15743
881.239	15614
881.366	15473
881.493	15401
881.619	15336
881.746	15466
881.872	15355
881.999	15291
882.125	15389
882.252	15340
882.378	15306
882.505	15568
882.631	15310
882.757	15218
882.883	15146
883.01	15207
883.136	15173
883.262	15055
883.388	15062
883.514	15211
883.64	15214
883.766	15138
883.892	14990
884.018	15036
884.143	15264
884.269	15275
884.395	14876
884.52	14864
884.646	14876
884.772	14830
884.897	14765
885.023	14906
885.148	14952
885.274	15043
885.399	14982
885.524	14868
885.65	14895
885.775	14815
885.9	14956
886.025	15017
886.15	15036
886.275	14800
886.4	14804
886.525	14887
886.65	14754
886.775	14933
886.9	14937
887.025	15123
887.149	14883
887.274	14670
887.399	14564
887.523	14731
887.648	14663
887.773	14587
887.897	14819
888.021	14830
888.146	14746
888.27	14785
888.395	14834
888.519	14785
888.643	14758
888.767	14807
888.891	14663
889.015	14389
889.139	14632
889.263	14530
889.387	14746
889.511	14785
889.635	14667
889.759	14454
889.883	14571
890.006	14663
890.13	14686
890.254	14526
890.377	14579
890.501	14396
890.624	14370
890.748	14457
890.871	14298
890.995	14214
891.118	14237
891.241	14301
891.364	14313
891.488	14438
891.611	14305
891.734	14225
891.857	14362
891.98	14290
892.103	14237
892.226	14271
892.349	14218
892.471	14046
892.594	14202
892.717	14377
892.839	14206
892.962	14298
893.085	14381
893.207	14180
893.33	14153
893.452	14161
893.575	14317
893.697	14286
893.819	14396
893.941	14461
894.064	14374
894.186	14275
894.308	14271
894.43	14358
894.552	14423
894.674	14415
894.796	14218
894.918	14290
895.04	14339
895.161	14419
895.283	14305
895.405	14275
895.526	14370
895.648	14294
895.769	14309
895.891	14473
896.012	14434
896.134	14473
896.255	14476
896.376	14362
896.498	14476
896.619	14511
896.74	14434
896.861	14541
896.982	14792
897.103	14899
897.224	14807
897.345	14731
897.466	14651
897.587	14594
897.708	14845
897.828	14739
897.949	14682
898.07	14514
898.19	14625
898.311	14838
898.431	14640
898.552	14815
898.672	14815
898.792	14880
898.913	14823
899.033	14705
899.153	14625
899.273	14617
899.393	14621
899.513	14678
899.633	14590
899.753	14636
899.873	14571
899.993	14663
900.113	14663
900.232	14724
900.352	14651
900.472	14526
900.591	14412
900.711	14602
900.83	14438
900.95	14530
901.069	14613
901.189	14419
901.308	14294
901.427	14221
901.546	14244
901.665	14214
901.784	14092
901.904	14092
902.023	13970
902.141	13799
902.26	13769
902.379	13795
902.498	13715
902.617	13761
902.735	13670
902.854	13746
902.973	13670
903.091	13403
903.21	13483
903.328	13384
903.446	13419
903.565	13255
903.683	13346
903.801	13171
903.919	13244
904.038	13301
904.156	13107
904.274	13114
904.392	13187
904.51	13031
904.627	13114
904.745	13126
904.863	13145
904.981	12897
905.098	12829
905.216	12745
905.334	12871
905.451	12886
905.569	12768
905.686	12779
905.803	12886
905.921	12585
906.038	12795
906.155	12681
906.272	12483
906.389	12490
906.506	12475
906.623	12365
906.74	12403
906.857	12319
906.974	12376
907.091	12467
907.208	12589
907.324	12418
907.441	12266
907.557	12152
907.674	12106
907.79	12106
907.907	12049
908.023	12155
908.139	12175
908.256	12045
908.372	12049
908.488	12076
908.604	11946
908.72	11767
908.836	11958
908.952	11969
909.068	11813
909.184	11897
909.3	11882
909.415	11988
909.531	11904
909.647	11760
909.762	11596
909.878	11619
909.993	11684
910.108	11691
910.224	11653
910.339	11699
910.454	11554
910.57	11547
910.685	11478
910.8	11745
910.915	11672
911.03	11497
911.145	11417
911.259	11395
911.374	11383
911.489	11299
911.604	11322
911.718	11041
911.833	11151
911.947	11067
912.062	10930
912.176	11067
912.291	11124
912.405	11143
912.519	11299
912.633	11341
912.748	11197
912.862	11143
912.976	10995
913.09	10889
913.204	11037
913.318	11029
913.431	11136
913.545	11041
913.659	11132
913.772	10984
913.886	10923
914	10835
914.113	10980
914.226	11006
914.34	10999
914.453	10809
914.566	10892
914.68	10915
914.793	10740
914.906	10653
915.019	10588
915.132	10580
915.245	10607
915.358	10508
915.47	10592
915.583	10573
915.696	10649
915.809	10729
915.921	10736
916.034	10660
916.146	10561
916.259	10611
916.371	10637
916.483	10584
916.595	10546
916.708	10531
916.82	10535
916.932	10519
917.044	10527
917.156	10447
917.268	10493
917.38	10451
917.491	10455
917.603	10466
917.715	10558
917.826	10565
917.938	10432
918.049	10352
918.161	10405
918.272	10622
918.384	10535
918.495	10531
918.606	10386
918.717	10284
918.828	10314
918.939	10360
919.05	10299
919.161	10322
919.272	10074
919.383	10200
919.494	10329
919.604	10554
919.715	10303
919.826	10219
919.936	10333
920.047	10348
920.157	10382
920.267	10523
920.378	10272
920.488	10325
920.598	10535
920.708	10694
920.818	10558
920.928	10641
921.038	10656
921.148	10615
921.258	10436
921.368	10310
921.477	10265
921.587	10196
921.697	10063
921.806	10230
921.916	10128
922.025	9876
922.134	9876
922.244	9873
922.353	9937
922.462	9774
922.571	9690
922.68	9629
922.789	9568
922.898	9564
923.007	9507
923.116	9641
923.224	9633
923.333	9557
923.442	9374
923.55	9397
923.659	9481
923.767	9553
923.876	9428
923.984	9477
924.092	9420
924.201	9397
924.309	9534
924.417	9515
924.525	9325
924.633	9401
924.741	10128
924.849	9226
924.956	9378
925.064	9294
925.172	9165
925.279	9199
925.387	9184
925.494	9218
925.602	9374
925.709	9332
925.816	9180
925.924	9287
926.031	9336
926.138	9211
926.245	9256
926.352	9165
926.459	9344
926.566	9321
926.673	9173
926.779	9070
926.886	9070
926.993	8876
927.099	8975
927.206	8864
927.312	8872
927.419	8895
927.525	8979
927.631	9020
927.737	8883
927.843	8826
927.95	8758
928.056	8811
928.162	8895
928.267	8921
928.373	9378
928.479	8895
928.585	8648
928.69	8876
928.796	8819
928.901	8750
929.007	8629
929.112	8807
929.218	8663
929.323	8667
929.428	8682
929.533	8769
929.638	8678
929.743	8648
929.848	8678
929.953	8625
930.058	8602
930.163	8389
930.267	8396
930.372	8533
930.477	8396
930.581	8689
930.685	8473
930.79	8347
930.894	8408
930.998	8324
931.103	8507
931.207	8183
931.311	8062
931.415	8046
931.519	7875
931.623	7868
