Data from test_V78500241_2438.txt Node
Date: Fri Mar 25 14:50:41 CST 2022
User: usil
Spectrometer: V785-0024
Trigger mode: 0
Integration Time (sec): 4.000000E-1
Scans to average: 1
Nonlinearity correction enabled: false
Boxcar width: 0
Storing dark spectrum: false
XAxis mode: Wavelengths
Number of Pixels in Spectrum: 1024
>>>>>Begin Spectral Data<<<<<
801.071	22055
801.214	21983
801.356	21804
801.499	21644
801.641	21519
801.783	21359
801.926	21477
802.068	21374
802.211	21367
802.353	21176
802.496	21070
802.638	20842
802.78	20868
802.923	20880
803.065	20777
803.208	20712
803.35	20746
803.492	20845
803.635	20986
803.777	20792
803.919	20785
804.061	21127
804.204	20956
804.346	20724
804.488	20632
804.63	20701
804.773	20552
804.915	20815
805.057	20750
805.199	20686
805.341	20773
805.483	20724
805.626	20716
805.768	20579
805.91	20746
806.052	20727
806.194	20697
806.336	20765
806.478	20651
806.62	20625
806.762	20705
806.904	20758
807.046	21146
807.188	21066
807.33	21001
807.472	21005
807.614	20937
807.756	20906
807.898	20857
808.04	20750
808.182	20785
808.324	20925
808.465	20754
808.607	21131
808.749	20982
808.891	21150
809.033	21214
809.174	21077
809.316	20979
809.458	21058
809.6	21020
809.741	21119
809.883	21154
810.025	21245
810.166	21252
810.308	21245
810.45	21169
810.591	21165
810.733	20887
810.875	20971
811.016	20743
811.158	20826
811.299	21013
811.441	21001
811.582	20994
811.724	20853
811.865	20644
812.007	20842
812.148	20670
812.29	20902
812.431	20948
812.573	21104
812.714	21188
812.855	21291
812.997	21542
813.138	21618
813.279	21458
813.421	21317
813.562	21340
813.703	21119
813.845	20914
813.986	20876
814.127	20522
814.268	20518
814.41	20434
814.551	20362
814.692	20484
814.833	20393
814.974	20290
815.115	20366
815.256	20210
815.397	20145
815.539	20183
815.68	20161
815.821	20092
815.962	20073
816.103	20183
816.244	19917
816.385	19928
816.526	19807
816.666	19632
816.807	19449
816.948	19643
817.089	19624
817.23	19491
817.371	19556
817.512	19632
817.653	19582
817.793	19514
817.934	19415
818.075	19575
818.216	19563
818.356	19438
818.497	19335
818.638	19118
818.778	19217
818.919	19228
819.06	19247
819.2	19312
819.341	19377
819.481	19426
819.622	19601
819.762	19723
819.903	19529
820.043	19597
820.184	19457
820.324	19514
820.465	19537
820.605	19476
820.746	19445
820.886	19346
821.026	19537
821.167	19392
821.307	19480
821.447	19403
821.588	19320
821.728	19270
821.868	18882
822.008	18951
822.149	18977
822.289	18897
822.429	18627
822.569	18646
822.709	18669
822.849	18407
822.99	18353
823.13	18372
823.27	18410
823.41	18152
823.55	18136
823.69	18197
823.83	18190
823.97	18091
824.11	17889
824.25	18007
824.389	17958
824.529	18140
824.669	17980
824.809	18076
824.949	18022
825.089	17950
825.228	18041
825.368	17840
825.508	17676
825.648	17794
825.787	17684
825.927	17745
826.067	17676
826.206	17722
826.346	17748
826.485	17741
826.625	17767
826.765	17764
826.904	17802
827.044	17486
827.183	17528
827.323	17372
827.462	17474
827.601	17478
827.741	17452
827.88	17410
828.02	17341
828.159	17444
828.298	17448
828.437	17482
828.577	17433
828.716	17665
828.855	17402
828.994	17128
829.134	17136
829.273	17147
829.412	17162
829.551	17197
829.69	17280
829.829	17330
829.968	17193
830.107	17250
830.246	17193
830.385	17239
830.524	17003
830.663	17045
830.802	16908
830.941	16850
831.08	16778
831.219	16824
831.357	16847
831.496	17052
831.635	16744
831.774	16812
831.913	16717
832.051	16641
832.19	16512
832.329	16599
832.467	16470
832.606	16436
832.744	16417
832.883	16500
833.022	16360
833.16	16569
833.299	16588
833.437	16497
833.576	16535
833.714	16455
833.852	16561
833.991	16584
834.129	16649
834.267	16626
834.406	16466
834.544	16584
834.682	16459
834.821	16626
834.959	16835
835.097	16558
835.235	16504
835.373	16508
835.511	16550
835.65	16497
835.788	16459
835.926	16398
836.064	16166
836.202	16226
836.34	16504
836.478	16550
836.615	16447
836.753	16382
836.891	16481
837.029	16375
837.167	16360
837.305	16402
837.443	16462
837.58	16314
837.718	16287
837.856	16363
837.993	16226
838.131	16356
838.269	16204
838.406	16211
838.544	16147
838.681	16025
838.819	16051
838.956	15770
839.094	15835
839.231	15934
839.369	15983
839.506	16314
839.643	16185
839.781	15953
839.918	15846
840.055	15895
840.193	15895
840.33	15854
840.467	15827
840.604	15899
840.742	16109
840.879	15732
841.016	15770
841.153	15873
841.29	15983
841.427	15937
841.564	15846
841.701	15907
841.838	15865
841.975	15705
842.112	15774
842.249	15709
842.385	15625
842.522	15804
842.659	15625
842.796	15720
842.933	15641
843.069	15538
843.206	15545
843.343	15614
843.479	15671
843.616	15663
843.752	15420
843.889	15447
844.025	15507
844.162	15389
844.298	15466
844.435	15481
844.571	15424
844.708	15572
844.844	15675
844.98	15485
845.117	15458
845.253	15447
845.389	15359
845.525	15359
845.661	15332
845.798	15184
845.934	15325
846.07	15138
846.206	15241
846.342	15374
846.478	15275
846.614	15108
846.75	15009
846.886	14986
847.022	15032
847.158	14990
847.294	14994
847.429	15005
847.565	14883
847.701	15291
847.837	14743
847.972	14746
848.108	14724
848.244	14739
848.379	14674
848.515	14594
848.65	14663
848.786	14632
848.921	14545
849.057	14644
849.192	14731
849.328	14648
849.463	14678
849.598	14610
849.734	14564
849.869	14450
850.004	14370
850.14	14347
850.275	14522
850.41	14259
850.545	14336
850.68	14362
850.815	14358
850.95	14355
851.085	14533
851.22	14442
851.355	14355
851.49	14317
851.625	14294
851.76	14309
851.895	14309
852.03	14187
852.165	14374
852.299	14313
852.434	14461
852.569	14412
852.703	14309
852.838	14442
852.973	14431
853.107	14488
853.242	14294
853.376	14161
853.511	14084
853.645	14263
853.78	14419
853.914	14229
854.048	14294
854.183	14237
854.317	14256
854.451	14404
854.585	14210
854.72	14115
854.854	14282
854.988	14138
855.122	14202
855.256	14077
855.39	14237
855.524	14298
855.658	14286
855.792	14142
855.926	14317
856.06	14298
856.194	14301
856.327	14282
856.461	14237
856.595	14142
856.729	14187
856.862	14358
856.996	14199
857.13	14263
857.263	14339
857.397	14404
857.53	14244
857.664	14206
857.797	14199
857.931	14393
858.064	14240
858.197	14290
858.331	14195
858.464	14126
858.597	14164
858.731	14202
858.864	14305
858.997	14126
859.13	14263
859.263	14259
859.396	14347
859.529	14278
859.662	14252
859.795	14180
859.928	14214
860.061	14366
860.194	14446
860.327	14309
860.46	14134
860.592	14286
860.725	14393
860.858	14317
860.99	14267
861.123	14084
861.256	14161
861.388	14183
861.521	14952
861.653	14138
861.786	14062
861.918	14115
862.05	14134
862.183	14187
862.315	14210
862.447	14298
862.58	14157
862.712	14081
862.844	13909
862.976	14035
863.108	13997
863.24	14377
863.372	13894
863.504	13997
863.636	14020
863.768	13989
863.9	14088
864.032	13913
864.164	14020
864.296	14107
864.428	14195
864.559	14130
864.691	14134
864.823	13982
864.954	14012
865.086	14043
865.217	14005
865.349	13830
865.48	14012
865.612	14008
865.743	14218
865.875	14149
866.006	13955
866.137	13997
866.269	14001
866.4	13860
866.531	13993
866.662	13959
866.793	13944
866.924	13833
867.055	14103
867.186	14020
867.317	13925
867.448	13879
867.579	13955
867.71	13932
867.841	13871
867.972	13982
868.103	13894
868.233	14008
868.364	14054
868.495	14111
868.625	14237
868.756	14465
868.886	14115
869.017	14225
869.147	14355
869.278	14313
869.408	14195
869.539	14286
869.669	14324
869.799	14298
869.929	14358
870.06	14438
870.19	14537
870.32	14518
870.45	14613
870.58	14648
870.71	14811
870.84	14743
870.97	14651
871.1	14621
871.23	14830
871.36	14819
871.489	14720
871.619	14849
871.749	14834
871.879	14887
872.008	14891
872.138	14823
872.267	14902
872.397	14621
872.526	14750
872.656	14621
872.785	14655
872.915	14853
873.044	14952
873.173	14845
873.303	14979
873.432	14929
873.561	15085
873.69	15005
873.819	14918
873.948	14937
874.077	14933
874.206	14853
874.335	14937
874.464	14963
874.593	15348
874.722	15188
874.851	15218
874.979	15268
875.108	15294
875.237	15131
875.365	15245
875.494	15184
875.623	15230
875.751	15157
875.88	15241
876.008	15386
876.136	15420
876.265	15584
876.393	15800
876.521	15698
876.65	15720
876.778	15671
876.906	15576
877.034	15515
877.162	15644
877.29	15564
877.418	15701
877.546	15625
877.674	15606
877.802	15591
877.93	15599
878.058	15542
878.185	15614
878.313	15587
878.441	15610
878.568	15507
878.696	15526
878.824	15599
878.951	15587
879.079	15770
879.206	15842
879.333	15793
879.461	15705
879.588	15682
879.715	15895
879.842	15972
879.97	15793
880.097	15500
880.224	15485
880.351	15511
880.478	15488
880.605	15469
880.732	15485
880.859	15595
880.986	15526
881.112	15469
881.239	15321
881.366	15237
881.493	15150
881.619	15100
881.746	15176
881.872	15195
881.999	15028
882.125	15020
882.252	15272
882.378	15131
882.505	15325
882.631	15081
882.757	14899
882.883	15013
883.01	14921
883.136	14883
883.262	14872
883.388	14727
883.514	15009
883.64	14895
883.766	14845
883.892	14842
884.018	14804
884.143	14921
884.269	15017
884.395	14731
884.52	14712
884.646	14686
884.772	14636
884.897	14571
885.023	14708
885.148	14743
885.274	14834
885.399	14811
885.524	14693
885.65	14670
885.775	14663
885.9	14651
886.025	14826
886.15	14724
886.275	14731
886.4	14533
886.525	14636
886.65	14629
886.775	14598
886.9	14815
887.025	14800
887.149	14663
887.274	14454
887.399	14507
887.523	14583
887.648	14438
887.773	14457
887.897	14461
888.021	14560
888.146	14499
888.27	14587
888.395	14708
888.519	14571
888.643	14632
888.767	14556
888.891	14351
889.015	14259
889.139	14434
889.263	14415
889.387	14469
889.511	14587
889.635	14480
889.759	14309
889.883	14320
890.006	14351
890.13	14438
890.254	14256
890.377	14263
890.501	14168
890.624	14187
890.748	14168
890.871	14126
890.995	13970
891.118	13856
891.241	14008
891.364	14065
891.488	14153
891.611	14039
891.734	14058
891.857	14195
891.98	14081
892.103	14145
892.226	14058
892.349	14081
892.471	14005
892.594	14103
892.717	14016
892.839	14073
892.962	14043
893.085	14119
893.207	14054
893.33	13963
893.452	13909
893.575	14111
893.697	13974
893.819	14221
893.941	14225
894.064	14218
894.186	13993
894.308	14005
894.43	14214
894.552	14225
894.674	14195
894.796	13921
894.918	14123
895.04	14123
895.161	14096
895.283	14153
895.405	14103
895.526	14100
895.648	14164
895.769	14164
895.891	14172
896.012	14370
896.134	14339
896.255	14252
896.376	14229
896.498	14172
896.619	14305
896.74	14157
896.861	14252
896.982	14575
897.103	14720
897.224	14556
897.345	14537
897.466	14389
897.587	14366
897.708	14636
897.828	14537
897.949	14514
898.07	14339
898.19	14484
898.311	14636
898.431	14488
898.552	14682
898.672	14689
898.792	14743
898.913	14590
899.033	14473
899.153	14328
899.273	14377
899.393	14332
899.513	14488
899.633	14552
899.753	14442
899.873	14450
899.993	14495
900.113	14381
900.232	14427
900.352	14514
900.472	14290
900.591	14237
900.711	14328
900.83	14229
900.95	14377
901.069	14351
901.189	14286
901.308	14050
901.427	14016
901.546	14058
901.665	14020
901.784	13951
901.904	13879
902.023	13837
902.141	13658
902.26	13510
902.379	13620
902.498	13529
902.617	13480
902.735	13594
902.854	13495
902.973	13556
903.091	13282
903.21	13289
903.328	13331
903.446	13183
903.565	13175
903.683	13168
903.801	13084
903.919	13027
904.038	13095
904.156	12901
904.274	13095
904.392	12947
904.51	12875
904.627	12947
904.745	12943
904.863	13000
904.981	12726
905.098	12635
905.216	12745
905.334	12593
905.451	12650
905.569	12597
905.686	12612
905.803	12677
905.921	12418
906.038	12528
906.155	12471
906.272	12304
906.389	12448
906.506	12235
906.623	12235
906.74	12220
906.857	12045
906.974	12148
907.091	12262
907.208	12376
907.324	12190
907.441	12095
907.557	12011
907.674	11999
907.79	11980
907.907	11954
908.023	12038
908.139	11920
908.256	11954
908.372	11882
908.488	11927
908.604	11794
908.72	11585
908.836	11707
908.952	11665
909.068	11665
909.184	11764
909.3	11809
909.415	11718
909.531	11756
909.647	11512
909.762	11512
909.878	11467
909.993	11570
910.108	11524
910.224	11501
910.339	11482
910.454	11284
910.57	11372
910.685	11220
910.8	11539
910.915	11467
911.03	11448
911.145	11174
911.259	11227
911.374	11181
911.489	11132
911.604	11022
911.718	11067
911.833	10961
911.947	10919
912.062	10839
912.176	10900
912.291	10942
912.405	11041
912.519	11121
912.633	11159
912.748	11064
912.862	11048
912.976	10763
913.09	10675
913.204	10847
913.318	10831
913.431	10923
913.545	10805
913.659	10949
913.772	10801
913.886	10649
914	10714
914.113	10828
914.226	10915
914.34	10797
914.453	10611
914.566	10793
914.68	10668
914.793	10645
914.906	10527
915.019	10443
915.132	10398
915.245	10421
915.358	10443
915.47	10535
915.583	10459
915.696	10546
915.809	10550
915.921	10637
916.034	10451
916.146	10398
916.259	10451
916.371	10497
916.483	10569
916.595	10462
916.708	10398
916.82	10386
916.932	10344
917.044	10394
917.156	10405
917.268	10200
917.38	10405
917.491	10246
917.603	10306
917.715	10440
917.826	10459
917.938	10299
918.049	10177
918.161	10306
918.272	10394
918.384	10455
918.495	10314
918.606	10120
918.717	10093
918.828	10257
918.939	10177
919.05	10067
919.161	10093
919.272	9903
919.383	10032
919.494	10291
919.604	10325
919.715	10200
919.826	10059
919.936	10211
920.047	10318
920.157	10192
920.267	10424
920.378	10246
920.488	10188
920.598	10344
920.708	10516
920.818	10348
920.928	10352
921.038	10504
921.148	10516
921.258	10257
921.368	10139
921.477	10078
921.587	10063
921.697	9892
921.806	10071
921.916	9918
922.025	9759
922.134	9827
922.244	9717
922.353	9785
922.462	9690
922.571	9618
922.68	9477
922.789	9412
922.898	9469
923.007	9408
923.116	9450
923.224	9447
923.333	9397
923.442	9355
923.55	9317
923.659	9351
923.767	9348
923.876	9321
923.984	9405
924.092	9207
924.201	9237
924.309	9405
924.417	9302
924.525	9218
924.633	9302
924.741	10013
924.849	9127
924.956	9230
925.064	9028
925.172	9055
925.279	9039
925.387	9104
925.494	9100
925.602	9184
925.709	9184
925.816	9013
925.924	9081
926.031	9195
926.138	9036
926.245	9127
926.352	9001
926.459	9142
926.566	9253
926.673	9017
926.779	8948
926.886	8960
926.993	8853
927.099	8815
927.206	8678
927.312	8788
927.419	8861
927.525	8842
927.631	8963
927.737	8754
927.843	8678
927.95	8617
928.056	8697
928.162	8655
928.267	8800
928.373	9424
928.479	8872
928.585	8606
928.69	8712
928.796	8785
928.901	8590
929.007	8511
929.112	8705
929.218	8571
929.323	8575
929.428	8503
929.533	8621
929.638	8476
929.743	8488
929.848	8594
929.953	8473
930.058	8518
930.163	8362
930.267	8320
930.372	8415
930.477	8286
930.581	8465
930.685	8396
930.79	8199
930.894	8229
930.998	8225
931.103	8415
931.207	8046
931.311	8016
931.415	7951
931.519	7841
931.623	7757
