Data from test_V78500241_2776.txt Node
Date: Fri Mar 25 14:53:02 CST 2022
User: usil
Spectrometer: V785-0024
Trigger mode: 0
Integration Time (sec): 4.000000E-1
Scans to average: 1
Nonlinearity correction enabled: false
Boxcar width: 0
Storing dark spectrum: false
XAxis mode: Wavelengths
Number of Pixels in Spectrum: 1024
>>>>>Begin Spectral Data<<<<<
801.071	22120
801.214	21979
801.356	21751
801.499	21656
801.641	21492
801.783	21458
801.926	21363
802.068	21332
802.211	21279
802.353	21192
802.496	20941
802.638	20963
802.78	21013
802.923	20804
803.065	20670
803.208	20617
803.35	20773
803.492	20918
803.635	20910
803.777	20663
803.919	20773
804.061	21051
804.204	20648
804.346	20629
804.488	20701
804.63	20811
804.773	20602
804.915	20655
805.057	20686
805.199	20590
805.341	20708
805.483	20701
805.626	20682
805.768	20530
805.91	20533
806.052	20632
806.194	20541
806.336	20762
806.478	20750
806.62	20594
806.762	20735
806.904	20914
807.046	21024
807.188	20979
807.33	20990
807.472	20925
807.614	20963
807.756	20914
807.898	20769
808.04	20594
808.182	20682
808.324	20716
808.465	20804
808.607	20956
808.749	21077
808.891	21108
809.033	21237
809.174	21047
809.316	21055
809.458	20952
809.6	20979
809.741	21146
809.883	21020
810.025	21214
810.166	21142
810.308	21127
810.45	21093
810.591	20990
810.733	20941
810.875	20773
811.016	20632
811.158	20724
811.299	20868
811.441	20910
811.582	20902
811.724	20857
811.865	20746
812.007	20792
812.148	20842
812.29	20781
812.431	20933
812.573	21100
812.714	21252
812.855	21199
812.997	21272
813.138	21595
813.279	21469
813.421	21157
813.562	21127
813.703	21024
813.845	20895
813.986	20609
814.127	20396
814.268	20332
814.41	20530
814.551	20229
814.692	20461
814.833	20206
814.974	20225
815.115	20320
815.256	20199
815.397	20218
815.539	20126
815.68	19974
815.821	19978
815.962	20103
816.103	20031
816.244	19955
816.385	19871
816.526	19715
816.666	19613
816.807	19426
816.948	19639
817.089	19586
817.23	19525
817.371	19396
817.512	19400
817.653	19396
817.793	19407
817.934	19400
818.075	19514
818.216	19480
818.356	19438
818.497	19362
818.638	19080
818.778	19145
818.919	19228
819.06	19133
819.2	19179
819.341	19335
819.481	19343
819.622	19407
819.762	19620
819.903	19571
820.043	19419
820.184	19480
820.324	19369
820.465	19449
820.605	19499
820.746	19426
820.886	19301
821.026	19354
821.167	19434
821.307	19487
821.447	19263
821.588	19278
821.728	19156
821.868	19015
822.008	18886
822.149	18844
822.289	18783
822.429	18563
822.569	18547
822.709	18517
822.849	18372
822.99	18330
823.13	18281
823.27	18178
823.41	18254
823.55	18091
823.69	18239
823.83	18232
823.97	18167
824.11	17847
824.25	17946
824.389	17882
824.529	17946
824.669	17912
824.809	18026
824.949	17988
825.089	17973
825.228	17942
825.368	17722
825.508	17790
825.648	17699
825.787	17775
825.927	17748
826.067	17642
826.206	17703
826.346	17771
826.485	17805
826.625	17684
826.765	17786
826.904	17718
827.044	17379
827.183	17501
827.323	17337
827.462	17307
827.601	17364
827.741	17315
827.88	17227
828.02	17345
828.159	17356
828.298	17398
828.437	17448
828.577	17379
828.716	17459
828.855	17212
828.994	17162
829.134	17117
829.273	17166
829.412	17029
829.551	16934
829.69	17128
829.829	17121
829.968	17330
830.107	17143
830.246	17136
830.385	17090
830.524	17048
830.663	16965
830.802	16847
830.941	16869
831.08	16744
831.219	16828
831.357	16824
831.496	16968
831.635	16778
831.774	16725
831.913	16653
832.051	16565
832.19	16538
832.329	16512
832.467	16432
832.606	16409
832.744	16478
832.883	16421
833.022	16424
833.16	16447
833.299	16497
833.437	16485
833.576	16508
833.714	16592
833.852	16645
833.991	16535
834.129	16500
834.267	16535
834.406	16447
834.544	16611
834.682	16542
834.821	16569
834.959	16713
835.097	16470
835.235	16603
835.373	16417
835.511	16603
835.65	16371
835.788	16421
835.926	16310
836.064	16268
836.202	16223
836.34	16440
836.478	16497
836.615	16371
836.753	16493
836.891	16508
837.029	16481
837.167	16360
837.305	16375
837.443	16337
837.58	16249
837.718	16493
837.856	16344
837.993	16204
838.131	16314
838.269	16219
838.406	16131
838.544	16086
838.681	16002
838.819	15949
838.956	15808
839.094	15907
839.231	15934
839.369	15945
839.506	16246
839.643	16086
839.781	15903
839.918	15770
840.055	15857
840.193	15770
840.33	15804
840.467	15797
840.604	15785
840.742	16071
840.879	15819
841.016	15717
841.153	15781
841.29	15949
841.427	15907
841.564	15827
841.701	15964
841.838	15774
841.975	15705
842.112	15717
842.249	15660
842.385	15637
842.522	15747
842.659	15599
842.796	15671
842.933	15637
843.069	15641
843.206	15572
843.343	15770
843.479	15610
843.616	15564
843.752	15408
843.889	15504
844.025	15561
844.162	15367
844.298	15507
844.435	15435
844.571	15401
844.708	15420
844.844	15443
844.98	15504
845.117	15420
845.253	15336
845.389	15447
845.525	15252
845.661	15325
845.798	15165
845.934	15321
846.07	15203
846.206	15230
846.342	15321
846.478	15237
846.614	15112
846.75	14948
846.886	14891
847.022	15097
847.158	15013
847.294	15013
847.429	14925
847.565	14880
847.701	15203
847.837	14811
847.972	14735
848.108	14849
848.244	14807
848.379	14560
848.515	14629
848.65	14583
848.786	14598
848.921	14621
849.057	14648
849.192	14632
849.328	14602
849.463	14613
849.598	14549
849.734	14549
849.869	14450
850.004	14389
850.14	14339
850.275	14347
850.41	14263
850.545	14309
850.68	14237
850.815	14415
850.95	14336
851.085	14530
851.22	14461
851.355	14446
851.49	14336
851.625	14210
851.76	14317
851.895	14233
852.03	14183
852.165	14252
852.299	14358
852.434	14480
852.569	14446
852.703	14427
852.838	14355
852.973	14492
853.107	14454
853.242	14267
853.376	14229
853.511	14100
853.645	14168
853.78	14336
853.914	14221
854.048	14191
854.183	14153
854.317	14248
854.451	14370
854.585	14355
854.72	14199
854.854	14206
854.988	14164
855.122	14248
855.256	14111
855.39	14111
855.524	14259
855.658	14301
855.792	14206
855.926	14286
856.06	14195
856.194	14320
856.327	14218
856.461	14168
856.595	14221
856.729	14237
856.862	14252
856.996	14252
857.13	14267
857.263	14393
857.397	14343
857.53	14161
857.664	14248
857.797	14225
857.931	14385
858.064	14240
858.197	14374
858.331	14221
858.464	14176
858.597	14065
858.731	14206
858.864	14180
858.997	14161
859.13	14183
859.263	14267
859.396	14240
859.529	14176
859.662	14210
859.795	14176
859.928	14172
860.061	14389
860.194	14358
860.327	14301
860.46	14195
860.592	14381
860.725	14282
860.858	14381
860.99	14164
861.123	14126
861.256	14168
861.388	14187
861.521	14826
861.653	14180
861.786	13947
861.918	14050
862.05	14126
862.183	14096
862.315	14157
862.447	14221
862.58	14145
862.712	13959
862.844	13989
862.976	14134
863.108	14043
863.24	14400
863.372	13887
863.504	13982
863.636	13921
863.768	14065
863.9	14050
864.032	13902
864.164	14001
864.296	14027
864.428	14111
864.559	14084
864.691	14069
864.823	14054
864.954	14020
865.086	14126
865.217	13944
865.349	13856
865.48	14088
865.612	13936
865.743	14111
865.875	13944
866.006	14001
866.137	13883
866.269	13974
866.4	13902
866.531	13967
866.662	13978
866.793	13974
866.924	14020
867.055	13951
867.186	14024
867.317	13864
867.448	13909
867.579	13936
867.71	13860
867.841	13944
867.972	13997
868.103	14031
868.233	13993
868.364	13955
868.495	14058
868.625	14157
868.756	14259
868.886	14115
869.017	14244
869.147	14317
869.278	14305
869.408	14298
869.539	14172
869.669	14275
869.799	14278
869.929	14309
870.06	14286
870.19	14488
870.32	14442
870.45	14625
870.58	14632
870.71	14708
870.84	14708
870.97	14629
871.1	14636
871.23	14762
871.36	14849
871.489	14651
871.619	14800
871.749	14861
871.879	14823
872.008	14902
872.138	14891
872.267	14815
872.397	14731
872.526	14644
872.656	14708
872.785	14632
872.915	14921
873.044	14906
873.173	14823
873.303	14773
873.432	14956
873.561	14971
873.69	14963
873.819	14925
873.948	14895
874.077	14979
874.206	14861
874.335	14838
874.464	15047
874.593	15138
874.722	15119
874.851	15161
874.979	15142
875.108	15176
875.237	15127
875.365	15135
875.494	15085
875.623	15283
875.751	15188
875.88	15256
876.008	15332
876.136	15462
876.265	15538
876.393	15743
876.521	15667
876.65	15724
876.778	15652
876.906	15599
877.034	15622
877.162	15580
877.29	15545
877.418	15644
877.546	15633
877.674	15584
877.802	15679
877.93	15538
878.058	15538
878.185	15447
878.313	15572
878.441	15603
878.568	15504
878.696	15561
878.824	15564
878.951	15667
879.079	15827
879.206	15793
879.333	15732
879.461	15629
879.588	15701
879.715	15785
879.842	15903
879.97	15747
880.097	15443
880.224	15435
880.351	15549
880.478	15504
880.605	15526
880.732	15420
880.859	15652
880.986	15450
881.112	15504
881.239	15378
881.366	15302
881.493	15154
881.619	15131
881.746	15150
881.872	15119
881.999	15169
882.125	15081
882.252	15192
882.378	15184
882.505	15260
882.631	15074
882.757	14975
882.883	15070
883.01	14963
883.136	14849
883.262	14659
883.388	14765
883.514	14918
883.64	14952
883.766	14902
883.892	14739
884.018	14830
884.143	14933
884.269	15100
884.395	14708
884.52	14648
884.646	14663
884.772	14663
884.897	14514
885.023	14594
885.148	14796
885.274	14716
885.399	14735
885.524	14640
885.65	14625
885.775	14712
885.9	14606
886.025	14811
886.15	14762
886.275	14556
886.4	14507
886.525	14590
886.65	14556
886.775	14629
886.9	14712
887.025	14804
887.149	14655
887.274	14469
887.399	14446
887.523	14442
887.648	14442
887.773	14370
887.897	14480
888.021	14545
888.146	14457
888.27	14621
888.395	14564
888.519	14450
888.643	14545
888.767	14571
888.891	14492
889.015	14328
889.139	14419
889.263	14267
889.387	14465
889.511	14507
889.635	14438
889.759	14298
889.883	14282
890.006	14278
890.13	14537
890.254	14248
890.377	14305
890.501	14153
890.624	14107
890.748	14206
890.871	14103
890.995	13993
891.118	13989
891.241	14092
891.364	14100
891.488	14134
891.611	13986
891.734	14027
891.857	14058
891.98	14096
892.103	14161
892.226	14088
892.349	13955
892.471	13894
892.594	13978
892.717	13944
892.839	13997
892.962	13989
893.085	14058
893.207	14050
893.33	13974
893.452	13989
893.575	14027
893.697	14012
893.819	14336
893.941	14240
894.064	14218
894.186	14012
894.308	14016
894.43	14096
894.552	14248
894.674	14210
894.796	14073
894.918	14050
895.04	13989
895.161	14157
895.283	14168
895.405	14069
895.526	14176
895.648	14183
895.769	14142
895.891	14172
896.012	14282
896.134	14237
896.255	14172
896.376	14229
896.498	14187
896.619	14298
896.74	14142
896.861	14298
896.982	14583
897.103	14792
897.224	14526
897.345	14507
897.466	14446
897.587	14564
897.708	14571
897.828	14629
897.949	14419
898.07	14343
898.19	14377
898.311	14583
898.431	14484
898.552	14564
898.672	14659
898.792	14712
898.913	14583
899.033	14537
899.153	14434
899.273	14370
899.393	14419
899.513	14412
899.633	14438
899.753	14431
899.873	14336
899.993	14419
900.113	14313
900.232	14473
900.352	14389
900.472	14305
900.591	14278
900.711	14347
900.83	14252
900.95	14362
901.069	14377
901.189	14180
901.308	13974
901.427	13917
901.546	13932
901.665	13993
901.784	13898
901.904	13936
902.023	13765
902.141	13613
902.26	13521
902.379	13594
902.498	13544
902.617	13472
902.735	13609
902.854	13533
902.973	13430
903.091	13236
903.21	13194
903.328	13251
903.446	13244
903.565	13008
903.683	13095
903.801	12989
903.919	13107
904.038	13008
904.156	12913
904.274	12932
904.392	12867
904.51	12962
904.627	12913
904.745	12973
904.863	12996
904.981	12753
905.098	12536
905.216	12585
905.334	12681
905.451	12662
905.569	12593
905.686	12551
905.803	12665
905.921	12445
906.038	12509
906.155	12494
906.272	12376
906.389	12452
906.506	12167
906.623	12315
906.74	12155
906.857	12121
906.974	12102
907.091	12308
907.208	12304
907.324	12334
907.441	12190
907.557	11958
907.674	11973
907.79	11866
907.907	11939
908.023	11897
908.139	11961
908.256	11847
908.372	11859
908.488	11893
908.604	11714
908.72	11661
908.836	11714
908.952	11729
909.068	11733
909.184	11764
909.3	11748
909.415	11668
909.531	11748
909.647	11516
909.762	11532
909.878	11410
909.993	11551
910.108	11493
910.224	11402
910.339	11512
910.454	11353
910.57	11220
910.685	11208
910.8	11596
910.915	11528
911.03	11349
911.145	11181
911.259	11201
911.374	11174
911.489	11071
911.604	11090
911.718	10938
911.833	10984
911.947	10885
912.062	10752
912.176	10889
912.291	11006
912.405	10957
912.519	11147
912.633	11140
912.748	11010
912.862	10946
912.976	10828
913.09	10637
913.204	10801
913.318	10774
913.431	10949
913.545	10938
913.659	10911
913.772	10831
913.886	10774
914	10748
914.113	10755
914.226	10881
914.34	10797
914.453	10618
914.566	10752
914.68	10626
914.793	10641
914.906	10474
915.019	10409
915.132	10314
915.245	10436
915.358	10512
915.47	10504
915.583	10462
915.696	10504
915.809	10634
915.921	10653
916.034	10493
916.146	10481
916.259	10348
916.371	10542
916.483	10485
916.595	10291
916.708	10402
916.82	10466
916.932	10295
917.044	10417
917.156	10352
917.268	10223
917.38	10337
917.491	10188
917.603	10299
917.715	10375
917.826	10386
917.938	10249
918.049	10181
918.161	10276
918.272	10394
918.384	10428
918.495	10352
918.606	10150
918.717	10051
918.828	10086
918.939	10211
919.05	10044
919.161	10040
919.272	9975
919.383	10078
919.494	10192
919.604	10375
919.715	10219
919.826	10101
919.936	10158
920.047	10223
920.157	10169
920.267	10337
920.378	10173
920.488	10158
920.598	10242
920.708	10432
920.818	10363
920.928	10375
921.038	10508
921.148	10508
921.258	10207
921.368	10074
921.477	10044
921.587	10010
921.697	9956
921.806	10055
921.916	9937
922.025	9766
922.134	9755
922.244	9633
922.353	9705
922.462	9637
922.571	9633
922.68	9504
922.789	9386
922.898	9447
923.007	9439
923.116	9534
923.224	9488
923.333	9416
923.442	9317
923.55	9317
923.659	9317
923.767	9351
923.876	9294
923.984	9424
924.092	9294
924.201	9302
924.309	9256
924.417	9291
924.525	9222
924.633	9279
924.741	10044
924.849	9108
924.956	9253
925.064	9169
925.172	8998
925.279	9062
925.387	9195
925.494	9070
925.602	9218
925.709	9203
925.816	9062
925.924	9074
926.031	9176
926.138	9116
926.245	9161
926.352	9017
926.459	9127
926.566	9199
926.673	9009
926.779	8910
926.886	8906
926.993	8834
927.099	8819
927.206	8766
927.312	8842
927.419	8811
927.525	8887
927.631	8773
927.737	8739
927.843	8731
927.95	8533
928.056	8697
928.162	8686
928.267	8697
928.373	9340
928.479	8773
928.585	8602
928.69	8693
928.796	8735
928.901	8594
929.007	8473
929.112	8693
929.218	8579
929.323	8568
929.428	8537
929.533	8708
929.638	8446
929.743	8431
929.848	8522
929.953	8492
930.058	8400
930.163	8279
930.267	8290
930.372	8438
930.477	8286
930.581	8549
930.685	8332
930.79	8225
930.894	8275
930.998	8229
931.103	8385
931.207	8020
931.311	7963
931.415	7913
931.519	7712
931.623	7708
