Data from test_V78500241_306.txt Node
Date: Fri Mar 25 14:35:51 CST 2022
User: usil
Spectrometer: V785-0024
Trigger mode: 0
Integration Time (sec): 4.000000E-1
Scans to average: 1
Nonlinearity correction enabled: false
Boxcar width: 0
Storing dark spectrum: false
XAxis mode: Wavelengths
Number of Pixels in Spectrum: 1024
>>>>>Begin Spectral Data<<<<<
801.071	27211
801.214	27138
801.356	26872
801.499	26739
801.641	26606
801.783	26594
801.926	26689
802.068	26476
802.211	26469
802.353	26514
802.496	26282
802.638	26153
802.78	26157
802.923	26130
803.065	26157
803.208	25989
803.35	26096
803.492	26084
803.635	26164
803.777	26065
803.919	26351
804.061	26385
804.204	26259
804.346	26142
804.488	26027
804.63	26100
804.773	25932
804.915	26031
805.057	26221
805.199	26122
805.341	26206
805.483	26100
805.626	26248
805.768	25909
805.91	26039
806.052	26107
806.194	26027
806.336	26355
806.478	26145
806.62	26054
806.762	26267
806.904	26248
807.046	26636
807.188	26560
807.33	26629
807.472	26556
807.614	26488
807.756	26511
807.898	26301
808.04	26298
808.182	26343
808.324	26366
808.465	26286
808.607	26541
808.749	26796
808.891	26861
809.033	26864
809.174	26746
809.316	26701
809.458	26678
809.6	26686
809.741	26792
809.883	26762
810.025	26819
810.166	26933
810.308	26838
810.45	26765
810.591	26735
810.733	26571
810.875	26549
811.016	26484
811.158	26427
811.299	26583
811.441	26625
811.582	26621
811.724	26476
811.865	26465
812.007	26473
812.148	26503
812.29	26453
812.431	26617
812.573	26773
812.714	26914
812.855	26899
812.997	27150
813.138	27279
813.279	27252
813.421	27116
813.562	26994
813.703	26971
813.845	26682
813.986	26374
814.127	26240
814.268	26115
814.41	26077
814.551	26126
814.692	26111
814.833	25997
814.974	25959
815.115	26157
815.256	25883
815.397	25738
815.539	25951
815.68	26001
815.821	25742
815.962	25875
816.103	25761
816.244	25685
816.385	25384
816.526	25586
816.666	25263
816.807	25156
816.948	25263
817.089	25263
817.23	25236
817.371	25152
817.512	25251
817.653	25137
817.793	25107
817.934	25110
818.075	25194
818.216	25221
818.356	25069
818.497	24989
818.638	24825
818.778	24863
818.919	24939
819.06	24909
819.2	25004
819.341	25027
819.481	24977
819.622	25198
819.762	25396
819.903	25339
820.043	25293
820.184	25129
820.324	25183
820.465	25194
820.605	25228
820.746	25175
820.886	24943
821.026	25034
821.167	25122
821.307	25206
821.447	25190
821.588	24954
821.728	24806
821.868	24627
822.008	24388
822.149	24388
822.289	24422
822.429	24342
822.569	24060
822.709	24194
822.849	23958
822.99	24045
823.13	23950
823.27	23954
823.41	23703
823.55	23581
823.69	23745
823.83	23771
823.97	23676
824.11	23551
824.25	23417
824.389	23531
824.529	23531
824.669	23467
824.809	23581
824.949	23638
825.089	23585
825.228	23520
825.368	23387
825.508	23417
825.648	23246
825.787	23341
825.927	23326
826.067	23239
826.206	23341
826.346	23398
826.485	23341
826.625	23299
826.765	23391
826.904	23242
827.044	23067
827.183	23052
827.323	22953
827.462	23086
827.601	23048
827.741	22984
827.88	22911
828.02	22801
828.159	22930
828.298	22953
828.437	22953
828.577	22953
828.716	23033
828.855	22877
828.994	22733
829.134	22653
829.273	22653
829.412	22653
829.551	22694
829.69	22622
829.829	22645
829.968	22710
830.107	22744
830.246	22622
830.385	22721
830.524	22557
830.663	22417
830.802	22402
830.941	22234
831.08	22169
831.219	22253
831.357	22318
831.496	22405
831.635	22265
831.774	22200
831.913	22032
832.051	22040
832.19	21975
832.329	22021
832.467	21838
832.606	21873
832.744	21907
832.883	21873
833.022	21846
833.16	21880
833.299	21857
833.437	21937
833.576	21850
833.714	21918
833.852	21991
833.991	21846
834.129	21941
834.267	21964
834.406	21892
834.544	21869
834.682	21827
834.821	21876
834.959	21994
835.097	21793
835.235	21850
835.373	21888
835.511	21816
835.65	21797
835.788	21736
835.926	21625
836.064	21542
836.202	21530
836.34	21637
836.478	21861
836.615	21781
836.753	21793
836.891	21667
837.029	21762
837.167	21682
837.305	21724
837.443	21629
837.58	21496
837.718	21625
837.856	21523
837.993	21603
838.131	21603
838.269	21443
838.406	21462
838.544	21454
838.681	21294
838.819	21165
838.956	21074
839.094	20998
839.231	21028
839.369	21142
839.506	21439
839.643	21264
839.781	21036
839.918	21028
840.055	21077
840.193	20952
840.33	20937
840.467	20891
840.604	20975
840.742	21142
840.879	20830
841.016	20872
841.153	20785
841.29	21039
841.427	20937
841.564	20929
841.701	20967
841.838	21028
841.975	20686
842.112	20781
842.249	20758
842.385	20659
842.522	20887
842.659	20804
842.796	20602
842.933	20678
843.069	20571
843.206	20522
843.343	20724
843.479	20674
843.616	20727
843.752	20389
843.889	20442
844.025	20469
844.162	20427
844.298	20530
844.435	20385
844.571	20389
844.708	20461
844.844	20476
844.98	20518
845.117	20377
845.253	20317
845.389	20237
845.525	20339
845.661	20256
845.798	20301
845.934	20324
846.07	20206
846.206	20233
846.342	20336
846.478	20054
846.614	19997
846.75	19932
846.886	19940
847.022	19928
847.158	19860
847.294	19822
847.429	19860
847.565	19780
847.701	20088
847.837	19594
847.972	19571
848.108	19677
848.244	19628
848.379	19384
848.515	19407
848.65	19343
848.786	19407
848.921	19422
849.057	19468
849.192	19426
849.328	19453
849.463	19384
849.598	19263
849.734	19316
849.869	19278
850.004	19133
850.14	19099
850.275	19259
850.41	19145
850.545	19190
850.68	19088
850.815	19137
850.95	19118
851.085	19187
851.22	19320
851.355	19103
851.49	19038
851.625	19160
851.76	19088
851.895	19152
852.03	18958
852.165	19160
852.299	19122
852.434	19133
852.569	19133
852.703	19160
852.838	19088
852.973	19244
853.107	19217
853.242	19129
853.376	19069
853.511	18875
853.645	18920
853.78	19012
853.914	18996
854.048	18878
854.183	18928
854.317	18909
854.451	19129
854.585	18913
854.72	18897
854.854	19065
854.988	18886
855.122	18886
855.256	18696
855.39	19000
855.524	19019
855.658	19027
855.792	18958
855.926	18958
856.06	18909
856.194	19088
856.327	18928
856.461	18951
856.595	18905
856.729	18897
856.862	19088
856.996	18916
857.13	19042
857.263	18989
857.397	19053
857.53	18886
857.664	18962
857.797	19076
857.931	18981
858.064	18981
858.197	18973
858.331	18837
858.464	18741
858.597	18741
858.731	18878
858.864	18882
858.997	18878
859.13	18939
859.263	18954
859.396	18958
859.529	18882
859.662	18814
859.795	18844
859.928	18909
860.061	19023
860.194	19000
860.327	18973
860.46	18787
860.592	18939
860.725	19038
860.858	18901
860.99	18909
861.123	18764
861.256	18810
861.388	18901
861.521	19358
861.653	18726
861.786	18665
861.918	18798
862.05	18825
862.183	18787
862.315	18859
862.447	18886
862.58	18894
862.712	18589
862.844	18658
862.976	18730
863.108	18692
863.24	19015
863.372	18513
863.504	18551
863.636	18597
863.768	18719
863.9	18574
864.032	18547
864.164	18559
864.296	18627
864.428	18669
864.559	18604
864.691	18593
864.823	18677
864.954	18540
865.086	18563
865.217	18483
865.349	18372
865.48	18555
865.612	18437
865.743	18601
865.875	18513
866.006	18448
866.137	18517
866.269	18517
866.4	18399
866.531	18433
866.662	18388
866.793	18479
866.924	18483
867.055	18544
867.186	18536
867.317	18494
867.448	18395
867.579	18369
867.71	18350
867.841	18300
867.972	18506
868.103	18498
868.233	18521
868.364	18445
868.495	18479
868.625	18525
868.756	18795
868.886	18601
869.017	18574
869.147	18772
869.278	18859
869.408	18764
869.539	18635
869.669	18787
869.799	18696
869.929	18711
870.06	18776
870.19	19015
870.32	19012
870.45	19000
870.58	19019
870.71	19232
870.84	19133
870.97	19110
871.1	19107
871.23	19190
871.36	19312
871.489	19152
871.619	19270
871.749	19213
871.879	19301
872.008	19343
872.138	19285
872.267	19289
872.397	19187
872.526	19091
872.656	19107
872.785	19076
872.915	19335
873.044	19434
873.173	19278
873.303	19327
873.432	19194
873.561	19480
873.69	19373
873.819	19365
873.948	19308
874.077	19270
874.206	19240
874.335	19213
874.464	19441
874.593	19571
874.722	19476
874.851	19544
874.979	19658
875.108	19491
875.237	19552
875.365	19552
875.494	19518
875.623	19552
875.751	19620
875.88	19704
876.008	19757
876.136	19849
876.265	19868
876.393	20065
876.521	19993
876.65	20100
876.778	19917
876.906	19875
877.034	19925
877.162	19837
877.29	19894
877.418	19986
877.546	19868
877.674	20001
877.802	19947
877.93	19852
878.058	19887
878.185	19841
878.313	19974
878.441	20024
878.568	19765
878.696	19917
878.824	19906
878.951	19974
879.079	20122
879.206	20256
879.333	20218
879.461	20039
879.588	20138
879.715	20252
879.842	20294
879.97	20149
880.097	19776
880.224	19826
880.351	19864
880.478	19795
880.605	19765
880.732	19746
880.859	19959
880.986	19841
881.112	19822
881.239	19693
881.366	19620
881.493	19544
881.619	19510
881.746	19544
881.872	19476
881.999	19365
882.125	19403
882.252	19449
882.378	19324
882.505	19457
882.631	19259
882.757	19304
882.883	19156
883.01	19122
883.136	19084
883.262	19023
883.388	18951
883.514	19156
883.64	19183
883.766	19076
883.892	19027
884.018	19050
884.143	19053
884.269	19194
884.395	18859
884.52	18821
884.646	18928
884.772	18734
884.897	18745
885.023	18916
885.148	18954
885.274	18985
885.399	18817
885.524	18791
885.65	18821
885.775	18817
885.9	18787
886.025	18958
886.15	18806
886.275	18810
886.4	18776
886.525	18772
886.65	18631
886.775	18772
886.9	18848
887.025	19053
887.149	18692
887.274	18738
887.399	18635
887.523	18616
887.648	18471
887.773	18601
887.897	18627
888.021	18673
888.146	18642
888.27	18582
888.395	18707
888.519	18654
888.643	18635
888.767	18654
888.891	18486
889.015	18323
889.139	18448
889.263	18407
889.387	18471
889.511	18620
889.635	18452
889.759	18418
889.883	18380
890.006	18410
890.13	18483
890.254	18228
890.377	18228
890.501	18072
890.624	18171
890.748	18182
890.871	18049
890.995	17901
891.118	17965
891.241	18038
891.364	18030
891.488	18133
891.611	18049
891.734	18079
891.857	18011
891.98	18152
892.103	17988
892.226	17999
892.349	17901
892.471	17863
892.594	17942
892.717	17984
892.839	17920
892.962	18011
893.085	18144
893.207	17969
893.33	17809
893.452	17901
893.575	17958
893.697	17882
893.819	18098
893.941	18121
894.064	18045
894.186	17984
894.308	17977
894.43	18045
894.552	18174
894.674	18007
894.796	17870
894.918	17916
895.04	17965
895.161	18030
895.283	18060
895.405	17996
895.526	17950
895.648	17996
895.769	18019
895.891	17942
896.012	17992
896.134	17999
896.255	17988
896.376	18064
896.498	18095
896.619	18003
896.74	18026
896.861	18140
896.982	18410
897.103	18464
897.224	18342
897.345	18213
897.466	18174
897.587	18243
897.708	18414
897.828	18357
897.949	18239
898.07	18079
898.19	18239
898.311	18384
898.431	18266
898.552	18148
898.672	18262
898.792	18292
898.913	18254
899.033	18140
899.153	18102
899.273	17942
899.393	18079
899.513	18064
899.633	18045
899.753	18045
899.873	18019
899.993	18064
900.113	17939
900.232	18114
900.352	17912
900.472	17840
900.591	17866
900.711	17870
900.83	17832
900.95	17946
901.069	17851
901.189	17745
901.308	17486
901.427	17482
901.546	17592
901.665	17551
901.784	17471
901.904	17334
902.023	17292
902.141	17041
902.26	17041
902.379	17071
902.498	16987
902.617	16927
902.735	17132
902.854	16991
902.973	16847
903.091	16660
903.21	16630
903.328	16721
903.446	16546
903.565	16550
903.683	16519
903.801	16405
903.919	16459
904.038	16337
904.156	16211
904.274	16253
904.392	16318
904.51	16200
904.627	16226
904.745	16253
904.863	16265
904.981	16074
905.098	15915
905.216	15880
905.334	15998
905.451	15922
905.569	15884
905.686	16044
905.803	15903
905.921	15793
906.038	15812
906.155	15747
906.272	15599
906.389	15690
906.506	15492
906.623	15469
906.74	15420
906.857	15348
906.974	15325
907.091	15500
907.208	15443
907.324	15538
907.441	15386
907.557	15260
907.674	15184
907.79	15093
907.907	15138
908.023	15214
908.139	15195
908.256	15070
908.372	15028
908.488	14960
908.604	14895
908.72	14849
908.836	14918
908.952	14804
909.068	14937
909.184	15058
909.3	14902
909.415	14956
909.531	14864
909.647	14636
909.762	14545
909.878	14579
909.993	14549
910.108	14549
910.224	14537
910.339	14571
910.454	14469
910.57	14396
910.685	14366
910.8	14617
910.915	14552
911.03	14446
911.145	14282
911.259	14199
911.374	14149
911.489	14092
911.604	14126
911.718	13947
911.833	13928
911.947	13849
912.062	13757
912.176	14054
912.291	13928
912.405	13978
912.519	14134
912.633	14119
912.748	14012
912.862	13841
912.976	13753
913.09	13757
913.204	13708
913.318	13761
913.431	13841
913.545	13871
913.659	13883
913.772	13761
913.886	13567
914	13578
914.113	13811
914.226	13814
914.34	13605
914.453	13464
914.566	13677
914.68	13636
914.793	13480
914.906	13304
915.019	13301
915.132	13232
915.245	13263
915.358	13320
915.47	13304
915.583	13304
915.696	13369
915.809	13400
915.921	13339
916.034	13225
916.146	13221
916.259	13072
916.371	13247
916.483	13198
916.595	13110
916.708	13168
916.82	13149
916.932	13107
917.044	13133
917.156	13034
917.268	12954
917.38	12993
917.491	13012
917.603	12989
917.715	13168
917.826	13027
917.938	12951
918.049	12867
918.161	13012
918.272	13198
918.384	13038
918.495	12913
918.606	12867
918.717	12707
918.828	12859
918.939	12795
919.05	12608
919.161	12837
919.272	12517
919.383	12582
919.494	12798
919.604	12913
919.715	12776
919.826	12597
919.936	12654
920.047	12852
920.157	12909
920.267	12977
920.378	12707
920.488	12635
920.598	12920
920.708	13099
920.818	12943
920.928	12920
921.038	13042
921.148	12970
921.258	12734
921.368	12563
921.477	12563
921.587	12570
921.697	12448
921.806	12448
921.916	12365
922.025	12232
922.134	12194
922.244	12155
922.353	12159
922.462	12098
922.571	12041
922.68	11840
922.789	11832
922.898	11908
923.007	11722
923.116	11832
923.224	11836
923.333	11741
923.442	11642
923.55	11684
923.659	11756
923.767	11752
923.876	11600
923.984	11737
924.092	11532
924.201	11627
924.309	11619
924.417	11608
924.525	11589
924.633	11482
924.741	12437
924.849	11322
924.956	11444
925.064	11364
925.172	11284
925.279	11334
925.387	11376
925.494	11334
925.602	11376
925.709	11372
925.816	11269
925.924	11360
926.031	11356
926.138	11341
926.245	11376
926.352	11223
926.459	11395
926.566	11372
926.673	11220
926.779	11079
926.886	11136
926.993	10957
927.099	11003
927.206	10946
927.312	10972
927.419	10987
927.525	10965
927.631	10995
927.737	10847
927.843	10782
927.95	10752
928.056	10782
928.162	10755
928.267	10873
928.373	11372
928.479	10915
928.585	10668
928.69	10793
928.796	10786
928.901	10717
929.007	10630
929.112	10717
929.218	10630
929.323	10565
929.428	10523
929.533	10755
929.638	10459
929.743	10607
929.848	10679
929.953	10565
930.058	10405
930.163	10299
930.267	10246
930.372	10409
930.477	10215
930.581	10500
930.685	10333
930.79	10223
930.894	10230
930.998	10211
931.103	10287
931.207	9934
931.311	9861
931.415	9781
931.519	9568
931.623	9614
