Data from test_V78500241_2706.txt Node
Date: Fri Mar 25 14:52:33 CST 2022
User: usil
Spectrometer: V785-0024
Trigger mode: 0
Integration Time (sec): 4.000000E-1
Scans to average: 1
Nonlinearity correction enabled: false
Boxcar width: 0
Storing dark spectrum: false
XAxis mode: Wavelengths
Number of Pixels in Spectrum: 1024
>>>>>Begin Spectral Data<<<<<
801.071	22074
801.214	22017
801.356	21675
801.499	21675
801.641	21519
801.783	21294
801.926	21519
802.068	21306
802.211	21237
802.353	21089
802.496	21131
802.638	20963
802.78	20902
802.923	20689
803.065	20765
803.208	20765
803.35	20796
803.492	20864
803.635	20914
803.777	20613
803.919	20708
804.061	20952
804.204	20792
804.346	20689
804.488	20461
804.63	20739
804.773	20590
804.915	20781
805.057	20750
805.199	20602
805.341	20682
805.483	20705
805.626	20674
805.768	20575
805.91	20705
806.052	20727
806.194	20537
806.336	20727
806.478	20583
806.62	20651
806.762	20644
806.904	20792
807.046	21066
807.188	20906
807.33	20914
807.472	20956
807.614	20899
807.756	20811
807.898	20777
808.04	20693
808.182	20697
808.324	20712
808.465	20686
808.607	20857
808.749	21005
808.891	21062
809.033	21192
809.174	21039
809.316	20921
809.458	21043
809.6	20975
809.741	21089
809.883	21089
810.025	21218
810.166	21100
810.308	21150
810.45	21112
810.591	21020
810.733	20933
810.875	20769
811.016	20636
811.158	20629
811.299	20861
811.441	20925
811.582	20960
811.724	20678
811.865	20682
812.007	20777
812.148	20834
812.29	20864
812.431	20971
812.573	21028
812.714	21161
812.855	21207
812.997	21473
813.138	21606
813.279	21283
813.421	21348
813.562	21199
813.703	20971
813.845	20891
813.986	20621
814.127	20492
814.268	20434
814.41	20400
814.551	20275
814.692	20362
814.833	20271
814.974	20244
815.115	20225
815.256	20107
815.397	20119
815.539	20199
815.68	20012
815.821	19959
815.962	20054
816.103	20096
816.244	19921
816.385	19803
816.526	19746
816.666	19689
816.807	19460
816.948	19552
817.089	19552
817.23	19563
817.371	19365
817.512	19502
817.653	19460
817.793	19343
817.934	19377
818.075	19464
818.216	19518
818.356	19468
818.497	19141
818.638	19084
818.778	19103
818.919	19156
819.06	19209
819.2	19346
819.341	19343
819.481	19362
819.622	19495
819.762	19681
819.903	19552
820.043	19396
820.184	19403
820.324	19392
820.465	19343
820.605	19540
820.746	19476
820.886	19236
821.026	19407
821.167	19472
821.307	19388
821.447	19362
821.588	19209
821.728	19126
821.868	18989
822.008	18734
822.149	18852
822.289	18768
822.429	18422
822.569	18532
822.709	18631
822.849	18426
822.99	18327
823.13	18281
823.27	18296
823.41	18270
823.55	18159
823.69	18152
823.83	18186
823.97	18049
824.11	17923
824.25	17828
824.389	17923
824.529	18034
824.669	17908
824.809	17939
824.949	17939
825.089	17950
825.228	17961
825.368	17707
825.508	17722
825.648	17737
825.787	17745
825.927	17809
826.067	17676
826.206	17600
826.346	17676
826.485	17680
826.625	17630
826.765	17802
826.904	17764
827.044	17543
827.183	17395
827.323	17417
827.462	17440
827.601	17330
827.741	17349
827.88	17425
828.02	17318
828.159	17395
828.298	17398
828.437	17414
828.577	17364
828.716	17471
828.855	17299
828.994	17155
829.134	17075
829.273	17197
829.412	17147
829.551	17048
829.69	17094
829.829	17212
829.968	17223
830.107	17166
830.246	17197
830.385	17079
830.524	17056
830.663	16972
830.802	16835
830.941	16809
831.08	16755
831.219	16885
831.357	16812
831.496	17060
831.635	16801
831.774	16599
831.913	16653
832.051	16634
832.19	16558
832.329	16615
832.467	16462
832.606	16417
832.744	16413
832.883	16360
833.022	16405
833.16	16432
833.299	16447
833.437	16535
833.576	16558
833.714	16607
833.852	16478
833.991	16500
834.129	16679
834.267	16565
834.406	16561
834.544	16504
834.682	16485
834.821	16584
834.959	16641
835.097	16485
835.235	16573
835.373	16542
835.511	16679
835.65	16394
835.788	16428
835.926	16306
836.064	16188
836.202	16162
836.34	16481
836.478	16569
836.615	16424
836.753	16436
836.891	16538
837.029	16500
837.167	16348
837.305	16246
837.443	16257
837.58	16287
837.718	16268
837.856	16276
837.993	16268
838.131	16333
838.269	16207
838.406	16325
838.544	16143
838.681	15968
838.819	15945
838.956	15816
839.094	15831
839.231	15892
839.369	15994
839.506	16322
839.643	16044
839.781	15918
839.918	15827
840.055	15873
840.193	15846
840.33	15895
840.467	15766
840.604	15835
840.742	16101
840.879	15747
841.016	15701
841.153	15755
841.29	15991
841.427	15911
841.564	15953
841.701	15915
841.838	15838
841.975	15732
842.112	15778
842.249	15675
842.385	15713
842.522	15762
842.659	15709
842.796	15591
842.933	15652
843.069	15625
843.206	15526
843.343	15633
843.479	15728
843.616	15629
843.752	15424
843.889	15431
844.025	15545
844.162	15447
844.298	15557
844.435	15450
844.571	15378
844.708	15473
844.844	15504
844.98	15637
845.117	15473
845.253	15386
845.389	15310
845.525	15447
845.661	15363
845.798	15275
845.934	15214
846.07	15218
846.206	15233
846.342	15298
846.478	15154
846.614	15051
846.75	14952
846.886	14948
847.022	15047
847.158	14975
847.294	15062
847.429	14948
847.565	15047
847.701	15192
847.837	14754
847.972	14651
848.108	14807
848.244	14765
848.379	14674
848.515	14587
848.65	14587
848.786	14499
848.921	14556
849.057	14686
849.192	14644
849.328	14636
849.463	14712
849.598	14526
849.734	14541
849.869	14396
850.004	14400
850.14	14389
850.275	14355
850.41	14396
850.545	14252
850.68	14389
850.815	14351
850.95	14339
851.085	14613
851.22	14396
851.355	14415
851.49	14358
851.625	14320
851.76	14339
851.895	14313
852.03	14244
852.165	14313
852.299	14545
852.434	14309
852.569	14389
852.703	14389
852.838	14423
852.973	14412
853.107	14423
853.242	14229
853.376	14183
853.511	14164
853.645	14172
853.78	14317
853.914	14309
854.048	14244
854.183	14180
854.317	14271
854.451	14366
854.585	14187
854.72	14103
854.854	14278
854.988	14149
855.122	14172
855.256	14058
855.39	14275
855.524	14320
855.658	14275
855.792	14301
855.926	14244
856.06	14271
856.194	14343
856.327	14214
856.461	14202
856.595	14191
856.729	14161
856.862	14358
856.996	14115
857.13	14278
857.263	14282
857.397	14336
857.53	14202
857.664	14355
857.797	14347
857.931	14301
858.064	14271
858.197	14355
858.331	14191
858.464	14180
858.597	14157
858.731	14142
858.864	14138
858.997	14305
859.13	14381
859.263	14214
859.396	14370
859.529	14221
859.662	14199
859.795	14050
859.928	14187
860.061	14404
860.194	14400
860.327	14210
860.46	14267
860.592	14278
860.725	14355
860.858	14385
860.99	14210
861.123	14157
861.256	14103
861.388	14225
861.521	14895
861.653	14081
861.786	14145
861.918	13997
862.05	14134
862.183	14202
862.315	14153
862.447	14145
862.58	14168
862.712	14050
862.844	13997
862.976	14065
863.108	14107
863.24	14450
863.372	13959
863.504	14008
863.636	13959
863.768	14039
863.9	13982
864.032	13917
864.164	13936
864.296	14054
864.428	14058
864.559	14180
864.691	14180
864.823	14046
864.954	14016
865.086	14088
865.217	13967
865.349	13989
865.48	14039
865.612	13989
865.743	14176
865.875	14069
866.006	13868
866.137	13978
866.269	14005
866.4	13887
866.531	14031
866.662	13875
866.793	13917
866.924	13913
867.055	14005
867.186	13978
867.317	13955
867.448	13879
867.579	13959
867.71	13932
867.841	13894
867.972	14012
868.103	13955
868.233	13993
868.364	13944
868.495	14062
868.625	14172
868.756	14290
868.886	14134
869.017	14259
869.147	14339
869.278	14370
869.408	14229
869.539	14271
869.669	14336
869.799	14339
869.929	14339
870.06	14423
870.19	14484
870.32	14602
870.45	14625
870.58	14583
870.71	14765
870.84	14788
870.97	14598
871.1	14556
871.23	14826
871.36	14899
871.489	14861
871.619	14811
871.749	14781
871.879	14845
872.008	14918
872.138	14845
872.267	14842
872.397	14910
872.526	14651
872.656	14625
872.785	14701
872.915	14834
873.044	14876
873.173	14891
873.303	14960
873.432	14895
873.561	14872
873.69	14899
873.819	14781
873.948	15001
874.077	14899
874.206	14788
874.335	14937
874.464	15055
874.593	15188
874.722	15062
874.851	15233
874.979	15161
875.108	15283
875.237	15089
875.365	15135
875.494	15249
875.623	15272
875.751	15169
875.88	15230
876.008	15386
876.136	15412
876.265	15690
876.393	15743
876.521	15751
876.65	15694
876.778	15679
876.906	15576
877.034	15622
877.162	15644
877.29	15557
877.418	15648
877.546	15728
877.674	15622
877.802	15591
877.93	15641
878.058	15610
878.185	15610
878.313	15629
878.441	15561
878.568	15458
878.696	15568
878.824	15603
878.951	15667
879.079	15854
879.206	15956
879.333	15736
879.461	15667
879.588	15732
879.715	15785
879.842	15953
879.97	15747
880.097	15477
880.224	15458
880.351	15610
880.478	15420
880.605	15435
880.732	15530
880.859	15709
880.986	15507
881.112	15469
881.239	15329
881.366	15218
881.493	15195
881.619	15180
881.746	15081
881.872	15161
881.999	15093
882.125	15214
882.252	15211
882.378	15207
882.505	15287
882.631	15066
882.757	14891
882.883	14868
883.01	14933
883.136	14998
883.262	14883
883.388	14796
883.514	14948
883.64	15043
883.766	14864
883.892	14762
884.018	14815
884.143	14929
884.269	14967
884.395	14651
884.52	14610
884.646	14617
884.772	14617
884.897	14636
885.023	14735
885.148	14724
885.274	14758
885.399	14743
885.524	14651
885.65	14606
885.775	14693
885.9	14621
886.025	14701
886.15	14777
886.275	14602
886.4	14594
886.525	14644
886.65	14621
886.775	14682
886.9	14792
887.025	14853
887.149	14636
887.274	14522
887.399	14511
887.523	14381
887.648	14385
887.773	14374
887.897	14507
888.021	14564
888.146	14412
888.27	14632
888.395	14579
888.519	14518
888.643	14549
888.767	14587
888.891	14480
889.015	14473
889.139	14332
889.263	14339
889.387	14438
889.511	14613
889.635	14533
889.759	14301
889.883	14358
890.006	14355
890.13	14442
890.254	14233
890.377	14355
890.501	14149
890.624	14039
890.748	14275
890.871	14161
890.995	14024
891.118	14050
891.241	13970
891.364	14012
891.488	14096
891.611	14058
891.734	14084
891.857	14096
891.98	14081
892.103	14172
892.226	14115
892.349	14050
892.471	13917
892.594	14077
892.717	14081
892.839	13989
892.962	14134
893.085	14115
893.207	14088
893.33	13856
893.452	13986
893.575	14115
893.697	14088
893.819	14164
893.941	14267
894.064	14248
894.186	14016
894.308	13982
894.43	14111
894.552	14240
894.674	14248
894.796	14123
894.918	14134
895.04	14096
895.161	14161
895.283	14221
895.405	14062
895.526	14172
895.648	14191
895.769	14259
895.891	14263
896.012	14233
896.134	14286
896.255	14385
896.376	14214
896.498	14161
896.619	14305
896.74	14180
896.861	14320
896.982	14579
897.103	14758
897.224	14530
897.345	14438
897.466	14438
897.587	14446
897.708	14560
897.828	14571
897.949	14377
898.07	14301
898.19	14590
898.311	14648
898.431	14590
898.552	14583
898.672	14674
898.792	14682
898.913	14648
899.033	14450
899.153	14431
899.273	14324
899.393	14358
899.513	14400
899.633	14431
899.753	14328
899.873	14419
899.993	14488
900.113	14423
900.232	14473
900.352	14427
900.472	14282
900.591	14332
900.711	14294
900.83	14305
900.95	14450
901.069	14415
901.189	14218
901.308	14058
901.427	13967
901.546	14027
901.665	13928
901.784	14035
901.904	13811
902.023	13814
902.141	13464
902.26	13594
902.379	13533
902.498	13590
902.617	13464
902.735	13548
902.854	13476
902.973	13419
903.091	13339
903.21	13232
903.328	13304
903.446	13217
903.565	13156
903.683	13145
903.801	13069
903.919	13038
904.038	13107
904.156	12924
904.274	12943
904.392	12920
904.51	12878
904.627	12890
904.745	13053
904.863	13065
904.981	12814
905.098	12684
905.216	12635
905.334	12658
905.451	12620
905.569	12642
905.686	12665
905.803	12589
905.921	12410
906.038	12574
906.155	12414
906.272	12353
906.389	12407
906.506	12220
906.623	12213
906.74	12232
906.857	12144
906.974	12243
907.091	12311
907.208	12384
907.324	12296
907.441	12182
907.557	11996
907.674	11977
907.79	11923
907.907	11946
908.023	11996
908.139	11973
908.256	11859
908.372	11859
908.488	11821
908.604	11847
908.72	11668
908.836	11756
908.952	11634
909.068	11676
909.184	11847
909.3	11802
909.415	11752
909.531	11703
909.647	11543
909.762	11482
909.878	11395
909.993	11512
910.108	11474
910.224	11421
910.339	11505
910.454	11368
910.57	11353
910.685	11284
910.8	11570
910.915	11535
911.03	11436
911.145	11162
911.259	11102
911.374	11181
911.489	11151
911.604	11105
911.718	10904
911.833	10984
911.947	10889
912.062	10763
912.176	10828
912.291	11003
912.405	10923
912.519	11090
912.633	11208
912.748	10987
912.862	10927
912.976	10812
913.09	10656
913.204	10793
913.318	10915
913.431	10911
913.545	10946
913.659	10946
913.772	10835
913.886	10763
914	10694
914.113	10809
914.226	10866
914.34	10862
914.453	10649
914.566	10767
914.68	10702
914.793	10637
914.906	10504
915.019	10470
915.132	10402
915.245	10459
915.358	10508
915.47	10394
915.583	10519
915.696	10459
915.809	10637
915.921	10687
916.034	10485
916.146	10394
916.259	10386
916.371	10500
916.483	10497
916.595	10371
916.708	10440
916.82	10421
916.932	10352
917.044	10333
917.156	10367
917.268	10261
917.38	10188
917.491	10261
917.603	10341
917.715	10405
917.826	10371
917.938	10227
918.049	10090
918.161	10219
918.272	10470
918.384	10504
918.495	10329
918.606	10181
918.717	10128
918.828	10139
918.939	10219
919.05	10105
919.161	10185
919.272	9907
919.383	10040
919.494	10227
919.604	10333
919.715	10139
919.826	10078
919.936	10090
920.047	10303
920.157	10219
920.267	10405
920.378	10234
920.488	10143
920.598	10371
920.708	10485
920.818	10436
920.928	10363
921.038	10550
921.148	10489
921.258	10238
921.368	10139
921.477	10181
921.587	10036
921.697	9926
921.806	10109
921.916	9903
922.025	9789
922.134	9789
922.244	9671
922.353	9747
922.462	9686
922.571	9496
922.68	9466
922.789	9424
922.898	9492
923.007	9374
923.116	9477
923.224	9458
923.333	9408
923.442	9344
923.55	9310
923.659	9260
923.767	9405
923.876	9329
923.984	9393
924.092	9325
924.201	9340
924.309	9363
924.417	9310
924.525	9184
924.633	9291
924.741	9960
924.849	9039
924.956	9218
925.064	9077
925.172	9017
925.279	9081
925.387	9089
925.494	9154
925.602	9207
925.709	9150
925.816	8982
925.924	9146
926.031	9180
926.138	9104
926.245	9108
926.352	9066
926.459	9116
926.566	9237
926.673	9043
926.779	8967
926.886	9001
926.993	8899
927.099	8746
927.206	8766
927.312	8781
927.419	8773
927.525	8739
927.631	8830
927.737	8674
927.843	8712
927.95	8621
928.056	8693
928.162	8750
928.267	8762
928.373	9370
928.479	8754
928.585	8590
928.69	8693
928.796	8727
928.901	8632
929.007	8499
929.112	8655
929.218	8644
929.323	8499
929.428	8473
929.533	8640
929.638	8503
929.743	8526
929.848	8545
929.953	8495
930.058	8423
930.163	8271
930.267	8301
930.372	8488
930.477	8263
930.581	8503
930.685	8336
930.79	8259
930.894	8256
930.998	8191
931.103	8358
931.207	8001
931.311	7963
931.415	7913
931.519	7727
931.623	7734
