Data from test_V78500241_1331.txt Node
Date: Fri Mar 25 14:42:58 CST 2022
User: usil
Spectrometer: V785-0024
Trigger mode: 0
Integration Time (sec): 4.000000E-1
Scans to average: 1
Nonlinearity correction enabled: false
Boxcar width: 0
Storing dark spectrum: false
XAxis mode: Wavelengths
Number of Pixels in Spectrum: 1024
>>>>>Begin Spectral Data<<<<<
801.071	22535
801.214	22234
801.356	22082
801.499	21953
801.641	21880
801.783	21781
801.926	21759
802.068	21766
802.211	21652
802.353	21595
802.496	21313
802.638	21252
802.78	21317
802.923	21127
803.065	21135
803.208	21150
803.35	21123
803.492	21264
803.635	21306
803.777	21146
803.919	21123
804.061	21389
804.204	21214
804.346	21116
804.488	20971
804.63	21116
804.773	20944
804.915	21081
805.057	21146
805.199	21001
805.341	21123
805.483	21214
805.626	21176
805.768	20914
805.91	21077
806.052	21009
806.194	21039
806.336	21089
806.478	21074
806.62	20929
806.762	21001
806.904	21211
807.046	21462
807.188	21325
807.33	21416
807.472	21359
807.614	21291
807.756	21488
807.898	21249
808.04	21138
808.182	21058
808.324	21241
808.465	21313
808.607	21481
808.749	21709
808.891	21743
809.033	21831
809.174	21660
809.316	21606
809.458	21568
809.6	21492
809.741	21564
809.883	21519
810.025	21644
810.166	21686
810.308	21675
810.45	21671
810.591	21424
810.733	21302
810.875	21192
811.016	21211
811.158	21180
811.299	21302
811.441	21386
811.582	21351
811.724	21272
811.865	21268
812.007	21222
812.148	21230
812.29	21325
812.431	21530
812.573	21416
812.714	21572
812.855	21591
812.997	21762
813.138	21865
813.279	21781
813.421	21717
813.562	21652
813.703	21431
813.845	21370
813.986	21131
814.127	21020
814.268	20769
814.41	20864
814.551	20811
814.692	20819
814.833	20773
814.974	20788
815.115	20670
815.256	20503
815.397	20682
815.539	20670
815.68	20560
815.821	20450
815.962	20499
816.103	20526
816.244	20320
816.385	20343
816.526	20336
816.666	20149
816.807	19871
816.948	20084
817.089	20081
817.23	20027
817.371	19967
817.512	19852
817.653	19879
817.793	19887
817.934	19932
818.075	19860
818.216	19875
818.356	19868
818.497	19788
818.638	19586
818.778	19468
818.919	19628
819.06	19616
819.2	19799
819.341	19803
819.481	19807
819.622	19852
819.762	20092
819.903	20012
820.043	19955
820.184	19906
820.324	19959
820.465	20012
820.605	19978
820.746	19826
820.886	19795
821.026	19852
821.167	19849
821.307	20054
821.447	19719
821.588	19738
821.728	19632
821.868	19480
822.008	19358
822.149	19255
822.289	19293
822.429	18951
822.569	18966
822.709	18989
822.849	18810
822.99	18859
823.13	18696
823.27	18795
823.41	18570
823.55	18422
823.69	18582
823.83	18620
823.97	18551
824.11	18388
824.25	18369
824.389	18308
824.529	18483
824.669	18395
824.809	18544
824.949	18604
825.089	18300
825.228	18433
825.368	18277
825.508	18125
825.648	18266
825.787	18194
825.927	18178
826.067	18171
826.206	18110
826.346	18140
826.485	18129
826.625	18095
826.765	18155
826.904	18159
827.044	17874
827.183	17920
827.323	17866
827.462	17992
827.601	17851
827.741	17920
827.88	17973
828.02	17661
828.159	17942
828.298	17904
828.437	17977
828.577	17813
828.716	17939
828.855	17923
828.994	17585
829.134	17668
829.273	17619
829.412	17627
829.551	17554
829.69	17592
829.829	17600
829.968	17748
830.107	17672
830.246	17554
830.385	17585
830.524	17524
830.663	17482
830.802	17220
830.941	17258
831.08	17265
831.219	17250
831.357	17307
831.496	17315
831.635	17090
831.774	17136
831.913	17170
832.051	16980
832.19	17033
832.329	17029
832.467	16984
832.606	16934
832.744	16877
832.883	16831
833.022	16896
833.16	16938
833.299	17048
833.437	17003
833.576	16930
833.714	17041
833.852	16919
833.991	16957
834.129	17075
834.267	16995
834.406	16984
834.544	17018
834.682	16991
834.821	16942
834.959	17102
835.097	16889
835.235	17083
835.373	17014
835.511	16976
835.65	16869
835.788	16904
835.926	16805
836.064	16698
836.202	16752
836.34	17041
836.478	17033
836.615	16934
836.753	16862
836.891	16892
837.029	16904
837.167	16862
837.305	16843
837.443	16702
837.58	16641
837.718	16892
837.856	16854
837.993	16740
838.131	16740
838.269	16660
838.406	16672
838.544	16637
838.681	16481
838.819	16432
838.956	16226
839.094	16428
839.231	16303
839.369	16382
839.506	16656
839.643	16523
839.781	16284
839.918	16188
840.055	16348
840.193	16352
840.33	16177
840.467	16299
840.604	16204
840.742	16535
840.879	16139
841.016	16086
841.153	16257
841.29	16314
841.427	16382
841.564	16363
841.701	16238
841.838	16219
841.975	16173
842.112	16128
842.249	16093
842.385	15953
842.522	16272
842.659	16131
842.796	16048
842.933	15945
843.069	16002
843.206	16051
843.343	16200
843.479	16101
843.616	16006
843.752	15899
843.889	15903
844.025	16029
844.162	15762
844.298	15945
844.435	15880
844.571	15808
844.708	15903
844.844	15949
844.98	16078
845.117	15949
845.253	15778
845.389	15778
845.525	15972
845.661	15869
845.798	15823
845.934	15930
846.07	15918
846.206	15926
846.342	16021
846.478	15728
846.614	15515
846.75	15378
846.886	15340
847.022	15545
847.158	15500
847.294	15401
847.429	15526
847.565	15374
847.701	15591
847.837	15188
847.972	15211
848.108	15089
848.244	15203
848.379	15081
848.515	14918
848.65	15028
848.786	15047
848.921	15077
849.057	15017
849.192	15218
849.328	14963
849.463	15062
849.598	14906
849.734	14918
849.869	14815
850.004	14880
850.14	14785
850.275	14853
850.41	14735
850.545	14727
850.68	14785
850.815	14712
850.95	14750
851.085	14971
851.22	14864
851.355	14758
851.49	14804
851.625	14708
851.76	14762
851.895	14632
852.03	14602
852.165	14724
852.299	14773
852.434	14902
852.569	14781
852.703	14899
852.838	14834
852.973	14914
853.107	14868
853.242	14739
853.376	14773
853.511	14594
853.645	14720
853.78	14708
853.914	14636
854.048	14689
854.183	14621
854.317	14594
854.451	14746
854.585	14625
854.72	14575
854.854	14674
854.988	14511
855.122	14621
855.256	14499
855.39	14632
855.524	14724
855.658	14727
855.792	14663
855.926	14701
856.06	14708
856.194	14754
856.327	14594
856.461	14610
856.595	14606
856.729	14549
856.862	14716
856.996	14754
857.13	14762
857.263	14705
857.397	14705
857.53	14663
857.664	14758
857.797	14777
857.931	14792
858.064	14735
858.197	14842
858.331	14674
858.464	14663
858.597	14587
858.731	14701
858.864	14629
858.997	14636
859.13	14564
859.263	14655
859.396	14712
859.529	14667
859.662	14678
859.795	14651
859.928	14731
860.061	14876
860.194	14925
860.327	14617
860.46	14727
860.592	14880
860.725	14792
860.858	14826
860.99	14587
861.123	14568
861.256	14674
861.388	14727
861.521	15287
861.653	14640
861.786	14541
861.918	14514
862.05	14587
862.183	14590
862.315	14693
862.447	14720
862.58	14545
862.712	14434
862.844	14412
862.976	14507
863.108	14545
863.24	14868
863.372	14377
863.504	14457
863.636	14393
863.768	14454
863.9	14381
864.032	14419
864.164	14476
864.296	14457
864.428	14590
864.559	14518
864.691	14575
864.823	14590
864.954	14476
865.086	14461
865.217	14434
865.349	14332
865.48	14412
865.612	14438
865.743	14613
865.875	14450
866.006	14423
866.137	14301
866.269	14427
866.4	14476
866.531	14336
866.662	14317
866.793	14374
866.924	14377
867.055	14389
867.186	14526
867.317	14298
867.448	14336
867.579	14358
867.71	14271
867.841	14381
867.972	14415
868.103	14511
868.233	14408
868.364	14412
868.495	14480
868.625	14697
868.756	14746
868.886	14552
869.017	14632
869.147	14769
869.278	14739
869.408	14724
869.539	14667
869.669	14720
869.799	14659
869.929	14785
870.06	14849
870.19	14967
870.32	14967
870.45	15001
870.58	15142
870.71	15233
870.84	15104
870.97	15066
871.1	15055
871.23	15241
871.36	15245
871.489	15195
871.619	15249
871.749	15272
871.879	15260
872.008	15310
872.138	15340
872.267	15214
872.397	15116
872.526	15108
872.656	15081
872.785	15161
872.915	15302
873.044	15363
873.173	15283
873.303	15313
873.432	15325
873.561	15348
873.69	15378
873.819	15260
873.948	15389
874.077	15359
874.206	15321
874.335	15389
874.464	15523
874.593	15526
874.722	15587
874.851	15667
874.979	15648
875.108	15694
875.237	15584
875.365	15561
875.494	15629
875.623	15679
875.751	15656
875.88	15625
876.008	15808
876.136	15770
876.265	16029
876.393	16166
876.521	16143
876.65	16063
876.778	15972
876.906	15960
877.034	15918
877.162	15983
877.29	16002
877.418	16090
877.546	16097
877.674	16105
877.802	16002
877.93	15926
878.058	16074
878.185	15915
878.313	16112
878.441	16017
878.568	15888
878.696	15915
878.824	16029
878.951	16166
879.079	16276
879.206	16535
879.333	16314
879.461	16276
879.588	16265
879.715	16249
879.842	16455
879.97	16276
880.097	15926
880.224	15873
880.351	15979
880.478	15953
880.605	15850
880.732	15846
880.859	16105
880.986	15895
881.112	15926
881.239	15854
881.366	15724
881.493	15545
881.619	15572
881.746	15542
881.872	15587
881.999	15500
882.125	15492
882.252	15656
882.378	15564
882.505	15641
882.631	15443
882.757	15378
882.883	15420
883.01	15447
883.136	15389
883.262	15192
883.388	15222
883.514	15344
883.64	15351
883.766	15275
883.892	15135
884.018	15180
884.143	15348
884.269	15439
884.395	15127
884.52	15127
884.646	15097
884.772	14994
884.897	14982
885.023	15093
885.148	15142
885.274	15192
885.399	15142
885.524	14990
885.65	15131
885.775	15100
885.9	15077
886.025	15173
886.15	15146
886.275	15032
886.4	14998
886.525	15020
886.65	15036
886.775	14975
886.9	15214
887.025	15348
887.149	15062
887.274	14880
887.399	14800
887.523	14864
887.648	14830
887.773	14861
887.897	14895
888.021	14929
888.146	14941
888.27	15013
888.395	15039
888.519	14937
888.643	14990
888.767	15017
888.891	14864
889.015	14796
889.139	14765
889.263	14720
889.387	14826
889.511	14906
889.635	14838
889.759	14796
889.883	14788
890.006	14800
890.13	14853
890.254	14617
890.377	14617
890.501	14598
890.624	14552
890.748	14552
890.871	14431
890.995	14423
891.118	14290
891.241	14442
891.364	14377
891.488	14522
891.611	14419
891.734	14526
891.857	14499
891.98	14457
892.103	14450
892.226	14427
892.349	14366
892.471	14248
892.594	14393
892.717	14492
892.839	14313
892.962	14423
893.085	14492
893.207	14336
893.33	14298
893.452	14377
893.575	14461
893.697	14454
893.819	14522
893.941	14640
894.064	14556
894.186	14355
894.308	14370
894.43	14560
894.552	14743
894.674	14621
894.796	14351
894.918	14522
895.04	14431
895.161	14507
895.283	14549
895.405	14396
895.526	14431
895.648	14606
895.769	14549
895.891	14598
896.012	14636
896.134	14629
896.255	14579
896.376	14549
896.498	14530
896.619	14648
896.74	14541
896.861	14705
896.982	14979
897.103	15097
897.224	14902
897.345	14800
897.466	14807
897.587	14887
897.708	14876
897.828	14807
897.949	14792
898.07	14712
898.19	14842
898.311	15066
898.431	14887
898.552	14914
898.672	15062
898.792	14979
898.913	15005
899.033	14914
899.153	14758
899.273	14674
899.393	14769
899.513	14811
899.633	14785
899.753	14815
899.873	14739
899.993	14754
900.113	14746
900.232	14788
900.352	14724
900.472	14636
900.591	14571
900.711	14606
900.83	14594
900.95	14606
901.069	14705
901.189	14552
901.308	14362
901.427	14309
901.546	14328
901.665	14328
901.784	14347
901.904	14244
902.023	14073
902.141	13917
902.26	13860
902.379	13951
902.498	13845
902.617	13750
902.735	13852
902.854	13883
902.973	13833
903.091	13597
903.21	13518
903.328	13616
903.446	13430
903.565	13487
903.683	13559
903.801	13343
903.919	13377
904.038	13365
904.156	13289
904.274	13247
904.392	13206
904.51	13232
904.627	13266
904.745	13358
904.863	13225
904.981	13061
905.098	12947
905.216	13012
905.334	12989
905.451	12901
905.569	12897
905.686	12939
905.803	12943
905.921	12810
906.038	12875
906.155	12779
906.272	12738
906.389	12593
906.506	12483
906.623	12604
906.74	12536
906.857	12410
906.974	12376
907.091	12635
907.208	12669
907.324	12471
907.441	12391
907.557	12266
907.674	12239
907.79	12281
907.907	12247
908.023	12277
908.139	12270
908.256	12140
908.372	12247
908.488	12235
908.604	12076
908.72	12022
908.836	11889
908.952	12038
909.068	12064
909.184	12182
909.3	12114
909.415	12068
909.531	12026
909.647	11863
909.762	11802
909.878	11722
909.993	11843
910.108	11733
910.224	11821
910.339	11821
910.454	11714
910.57	11714
910.685	11589
910.8	11847
910.915	11684
911.03	11634
911.145	11535
911.259	11516
911.374	11448
911.489	11402
911.604	11345
911.718	11201
911.833	11296
911.947	11056
912.062	11121
912.176	11277
912.291	11208
912.405	11231
912.519	11440
912.633	11463
912.748	11280
912.862	11265
912.976	11204
913.09	10984
913.204	11067
913.318	11056
913.431	11220
913.545	11197
913.659	11239
913.772	11105
913.886	11010
914	10995
914.113	11079
914.226	11174
914.34	11124
914.453	10908
914.566	11071
914.68	10953
914.793	10991
914.906	10889
915.019	10812
915.132	10656
915.245	10771
915.358	10763
915.47	10782
915.583	10767
915.696	10835
915.809	10881
915.921	10942
916.034	10672
916.146	10706
916.259	10698
916.371	10790
916.483	10733
916.595	10577
916.708	10664
916.82	10660
916.932	10607
917.044	10683
917.156	10634
917.268	10478
917.38	10546
917.491	10504
917.603	10577
917.715	10664
917.826	10641
917.938	10527
918.049	10398
918.161	10596
918.272	10668
918.384	10698
918.495	10485
918.606	10402
918.717	10344
918.828	10440
918.939	10413
919.05	10265
919.161	10333
919.272	10200
919.383	10287
919.494	10531
919.604	10725
919.715	10497
919.826	10398
919.936	10447
920.047	10497
920.157	10428
920.267	10592
920.378	10455
920.488	10402
920.598	10656
920.708	10828
920.818	10634
920.928	10592
921.038	10816
921.148	10767
921.258	10497
921.368	10360
921.477	10344
921.587	10291
921.697	10109
921.806	10280
921.916	10207
922.025	10120
922.134	10036
922.244	9918
922.353	10032
922.462	9755
922.571	9899
922.68	9663
922.789	9671
922.898	9713
923.007	9618
923.116	9663
923.224	9743
923.333	9656
923.442	9538
923.55	9591
923.659	9599
923.767	9633
923.876	9545
923.984	9587
924.092	9458
924.201	9564
924.309	9656
924.417	9500
924.525	9466
924.633	9530
924.741	10451
924.849	9294
924.956	9431
925.064	9287
925.172	9165
925.279	9313
925.387	9336
925.494	9264
925.602	9454
925.709	9393
925.816	9264
925.924	9287
926.031	9367
926.138	9298
926.245	9386
926.352	9283
926.459	9393
926.566	9458
926.673	9226
926.779	9211
926.886	9142
926.993	9055
927.099	8998
927.206	8918
927.312	8921
927.419	9001
927.525	9070
927.631	9142
927.737	8811
927.843	8929
927.95	8796
928.056	8929
928.162	8842
928.267	9017
928.373	9549
928.479	9131
928.585	8796
928.69	8963
928.796	8902
928.901	8815
929.007	8667
929.112	8868
929.218	8857
929.323	8705
929.428	8716
929.533	8902
929.638	8686
929.743	8724
929.848	8762
929.953	8750
930.058	8629
930.163	8488
930.267	8556
930.372	8602
930.477	8492
930.581	8743
930.685	8526
930.79	8423
930.894	8480
930.998	8427
931.103	8537
931.207	8237
931.311	8115
931.415	8149
931.519	7928
931.623	7955
