Data from test_V78500241_1621.txt Node
Date: Fri Mar 25 14:45:00 CST 2022
User: usil
Spectrometer: V785-0024
Trigger mode: 0
Integration Time (sec): 4.000000E-1
Scans to average: 1
Nonlinearity correction enabled: false
Boxcar width: 0
Storing dark spectrum: false
XAxis mode: Wavelengths
Number of Pixels in Spectrum: 1024
>>>>>Begin Spectral Data<<<<<
801.071	22348
801.214	22200
801.356	22017
801.499	21835
801.641	21743
801.783	21819
801.926	21755
802.068	21682
802.211	21492
802.353	21519
802.496	21313
802.638	21245
802.78	21173
802.923	21047
803.065	21005
803.208	20990
803.35	21195
803.492	21157
803.635	21131
803.777	21093
803.919	21199
804.061	21431
804.204	21066
804.346	20994
804.488	21039
804.63	21036
804.773	20982
804.915	20941
805.057	21081
805.199	21093
805.341	21131
805.483	21108
805.626	20990
805.768	21013
805.91	21020
806.052	21017
806.194	20925
806.336	21203
806.478	20906
806.62	20963
806.762	21074
806.904	21268
807.046	21351
807.188	21279
807.33	21283
807.472	21180
807.614	21268
807.756	21214
807.898	21195
808.04	20986
808.182	21085
808.324	21123
808.465	21199
808.607	21291
808.749	21374
808.891	21496
809.033	21637
809.174	21568
809.316	21344
809.458	21336
809.6	21294
809.741	21583
809.883	21443
810.025	21625
810.166	21572
810.308	21595
810.45	21549
810.591	21447
810.733	21363
810.875	21157
811.016	21028
811.158	21032
811.299	21135
811.441	21275
811.582	21313
811.724	21138
811.865	21119
812.007	21135
812.148	21085
812.29	21199
812.431	21340
812.573	21462
812.714	21603
812.855	21652
812.997	21793
813.138	21930
813.279	21713
813.421	21496
813.562	21660
813.703	21435
813.845	21405
813.986	21032
814.127	20906
814.268	20636
814.41	20758
814.551	20613
814.692	20724
814.833	20701
814.974	20609
815.115	20674
815.256	20526
815.397	20606
815.539	20507
815.68	20423
815.821	20377
815.962	20404
816.103	20450
816.244	20206
816.385	20233
816.526	20069
816.666	20005
816.807	19833
816.948	19989
817.089	19993
817.23	19883
817.371	19871
817.512	19906
817.653	19879
817.793	19807
817.934	19795
818.075	19887
818.216	19826
818.356	19727
818.497	19670
818.638	19483
818.778	19586
818.919	19460
819.06	19548
819.2	19582
819.341	19651
819.481	19674
819.622	19772
819.762	20062
819.903	19868
820.043	19978
820.184	19860
820.324	19807
820.465	19799
820.605	19852
820.746	19719
820.886	19746
821.026	19753
821.167	19837
821.307	19860
821.447	19662
821.588	19609
821.728	19407
821.868	19289
822.008	19145
822.149	19213
822.289	19118
822.429	18970
822.569	18924
822.709	18981
822.849	18639
822.99	18688
823.13	18661
823.27	18623
823.41	18627
823.55	18437
823.69	18365
823.83	18593
823.97	18479
824.11	18281
824.25	18220
824.389	18292
824.529	18285
824.669	18315
824.809	18270
824.949	18346
825.089	18350
825.228	18327
825.368	18106
825.508	18053
825.648	18148
825.787	18152
825.927	18087
826.067	18022
826.206	18083
826.346	18106
826.485	18087
826.625	17950
826.765	18114
826.904	18007
827.044	17779
827.183	17843
827.323	17722
827.462	17824
827.601	17733
827.741	17779
827.88	17707
828.02	17558
828.159	17623
828.298	17847
828.437	17859
828.577	17729
828.716	17874
828.855	17657
828.994	17410
829.134	17581
829.273	17608
829.412	17402
829.551	17493
829.69	17524
829.829	17535
829.968	17558
830.107	17467
830.246	17463
830.385	17436
830.524	17368
830.663	17372
830.802	17140
830.941	17208
831.08	17170
831.219	17121
831.357	17041
831.496	17235
831.635	17109
831.774	17037
831.913	17003
832.051	16984
832.19	16904
832.329	16892
832.467	16755
832.606	16660
832.744	16774
832.883	16744
833.022	16786
833.16	16805
833.299	16774
833.437	16774
833.576	16828
833.714	16885
833.852	16896
833.991	16889
834.129	16831
834.267	16911
834.406	16797
834.544	16904
834.682	16816
834.821	16767
834.959	16972
835.097	16793
835.235	16847
835.373	16850
835.511	16805
835.65	16660
835.788	16725
835.926	16626
836.064	16588
836.202	16561
836.34	16721
836.478	16740
836.615	16774
836.753	16767
836.891	16725
837.029	16835
837.167	16649
837.305	16630
837.443	16558
837.58	16618
837.718	16634
837.856	16497
837.993	16569
838.131	16546
838.269	16512
838.406	16561
838.544	16417
838.681	16223
838.819	16280
838.956	16112
839.094	16120
839.231	16150
839.369	16230
839.506	16424
839.643	16356
839.781	16188
839.918	16086
840.055	16029
840.193	16147
840.33	16150
840.467	16112
840.604	16249
840.742	16333
840.879	16120
841.016	16055
841.153	16036
841.29	16299
841.427	16101
841.564	16154
841.701	16268
841.838	16067
841.975	15983
842.112	15987
842.249	15876
842.385	15907
842.522	16025
842.659	15922
842.796	15907
842.933	16002
843.069	15804
843.206	15956
843.343	15945
843.479	15850
843.616	15873
843.752	15713
843.889	15614
844.025	15823
844.162	15667
844.298	15724
844.435	15686
844.571	15739
844.708	15732
844.844	15808
844.98	15842
845.117	15827
845.253	15641
845.389	15644
845.525	15690
845.661	15667
845.798	15603
845.934	15504
846.07	15500
846.206	15671
846.342	15667
846.478	15412
846.614	15264
846.75	15226
846.886	15214
847.022	15241
847.158	15233
847.294	15211
847.429	15260
847.565	15298
847.701	15584
847.837	14929
847.972	14937
848.108	15085
848.244	15081
848.379	14876
848.515	14743
848.65	14804
848.786	14826
848.921	14880
849.057	14880
849.192	15001
849.328	14887
849.463	14842
849.598	14724
849.734	14705
849.869	14682
850.004	14632
850.14	14625
850.275	14575
850.41	14537
850.545	14606
850.68	14667
850.815	14602
850.95	14549
851.085	14785
851.22	14610
851.355	14587
851.49	14568
851.625	14549
851.76	14503
851.895	14526
852.03	14533
852.165	14549
852.299	14537
852.434	14625
852.569	14659
852.703	14667
852.838	14708
852.973	14853
853.107	14788
853.242	14659
853.376	14389
853.511	14263
853.645	14431
853.78	14571
853.914	14579
854.048	14438
854.183	14412
854.317	14450
854.451	14610
854.585	14503
854.72	14393
854.854	14492
854.988	14347
855.122	14446
855.256	14313
855.39	14518
855.524	14549
855.658	14594
855.792	14507
855.926	14549
856.06	14488
856.194	14571
856.327	14457
856.461	14442
856.595	14484
856.729	14450
856.862	14541
856.996	14583
857.13	14583
857.263	14651
857.397	14629
857.53	14629
857.664	14587
857.797	14610
857.931	14610
858.064	14495
858.197	14549
858.331	14393
858.464	14412
858.597	14358
858.731	14434
858.864	14461
858.997	14366
859.13	14518
859.263	14503
859.396	14507
859.529	14465
859.662	14461
859.795	14355
859.928	14549
860.061	14594
860.194	14663
860.327	14473
860.46	14457
860.592	14579
860.725	14537
860.858	14693
860.99	14473
861.123	14347
861.256	14358
861.388	14431
861.521	15287
861.653	14355
861.786	14347
861.918	14271
862.05	14385
862.183	14457
862.315	14571
862.447	14514
862.58	14446
862.712	14286
862.844	14172
862.976	14225
863.108	14240
863.24	14720
863.372	14206
863.504	14256
863.636	14229
863.768	14328
863.9	14225
864.032	14191
864.164	14343
864.296	14282
864.428	14446
864.559	14347
864.691	14305
864.823	14294
864.954	14282
865.086	14347
865.217	14229
865.349	14130
865.48	14256
865.612	14233
865.743	14358
865.875	14271
866.006	14278
866.137	14256
866.269	14218
866.4	14252
866.531	14271
866.662	14202
866.793	14180
866.924	14202
867.055	14244
867.186	14168
867.317	14214
867.448	14153
867.579	14244
867.71	14145
867.841	14229
867.972	14145
868.103	14214
868.233	14145
868.364	14290
868.495	14256
868.625	14404
868.756	14636
868.886	14301
869.017	14427
869.147	14686
869.278	14571
869.408	14434
869.539	14461
869.669	14537
869.799	14442
869.929	14655
870.06	14556
870.19	14758
870.32	14750
870.45	14838
870.58	14777
870.71	14960
870.84	15001
870.97	14899
871.1	14861
871.23	15074
871.36	15123
871.489	15020
871.619	14982
871.749	15028
871.879	15131
872.008	15150
872.138	15116
872.267	15036
872.397	14994
872.526	14933
872.656	14880
872.785	14887
872.915	15119
873.044	15192
873.173	15218
873.303	15146
873.432	15203
873.561	15226
873.69	15256
873.819	15135
873.948	15256
874.077	15169
874.206	15085
874.335	15142
874.464	15214
874.593	15477
874.722	15447
874.851	15496
874.979	15485
875.108	15401
875.237	15367
875.365	15348
875.494	15492
875.623	15530
875.751	15477
875.88	15412
876.008	15694
876.136	15785
876.265	15819
876.393	15937
876.521	15892
876.65	15949
876.778	15831
876.906	15907
877.034	15861
877.162	15880
877.29	15842
877.418	15903
877.546	15941
877.674	15903
877.802	15884
877.93	15903
878.058	15915
878.185	15747
878.313	15888
878.441	15857
878.568	15785
878.696	15857
878.824	15850
878.951	16002
879.079	16143
879.206	16287
879.333	16067
879.461	15987
879.588	16040
879.715	16101
879.842	16192
879.97	16002
880.097	15804
880.224	15747
880.351	15709
880.478	15827
880.605	15713
880.732	15770
880.859	15953
880.986	15770
881.112	15622
881.239	15717
881.366	15523
881.493	15515
881.619	15340
881.746	15412
881.872	15363
881.999	15367
882.125	15355
882.252	15443
882.378	15420
882.505	15614
882.631	15291
882.757	15313
882.883	15294
883.01	15275
883.136	15184
883.262	15036
883.388	15093
883.514	15233
883.64	15302
883.766	15233
883.892	15085
884.018	15089
884.143	15245
884.269	15336
884.395	14998
884.52	14960
884.646	14861
884.772	14819
884.897	14842
885.023	14937
885.148	15077
885.274	15116
885.399	14990
885.524	14929
885.65	14849
885.775	14963
885.9	14883
886.025	15112
886.15	14986
886.275	14948
886.4	14800
886.525	14906
886.65	14819
886.775	14750
886.9	15028
887.025	15058
887.149	14823
887.274	14724
887.399	14716
887.523	14697
887.648	14648
887.773	14629
887.897	14796
888.021	14743
888.146	14598
888.27	14731
888.395	14921
888.519	14811
888.643	14819
888.767	14788
888.891	14625
889.015	14651
889.139	14598
889.263	14568
889.387	14678
889.511	14830
889.635	14716
889.759	14655
889.883	14450
890.006	14663
890.13	14777
890.254	14465
890.377	14518
890.501	14347
890.624	14332
890.748	14590
890.871	14320
890.995	14252
891.118	14195
891.241	14206
891.364	14244
891.488	14408
891.611	14282
891.734	14374
891.857	14286
891.98	14336
892.103	14343
892.226	14324
892.349	14328
892.471	14161
892.594	14298
892.717	14366
892.839	14328
892.962	14351
893.085	14408
893.207	14221
893.33	14286
893.452	14176
893.575	14313
893.697	14214
893.819	14419
893.941	14537
894.064	14362
894.186	14305
894.308	14286
894.43	14385
894.552	14522
894.674	14412
894.796	14233
894.918	14286
895.04	14419
895.161	14404
895.283	14457
895.405	14282
895.526	14313
895.648	14366
895.769	14457
895.891	14434
896.012	14465
896.134	14587
896.255	14484
896.376	14396
896.498	14522
896.619	14511
896.74	14446
896.861	14526
896.982	14724
897.103	14811
897.224	14796
897.345	14701
897.466	14640
897.587	14823
897.708	14842
897.828	14773
897.949	14617
898.07	14644
898.19	14602
898.311	14880
898.431	14819
898.552	14720
898.672	14891
898.792	14933
898.913	14785
899.033	14804
899.153	14632
899.273	14549
899.393	14651
899.513	14610
899.633	14640
899.753	14716
899.873	14583
899.993	14625
900.113	14689
900.232	14705
900.352	14667
900.472	14621
900.591	14530
900.711	14446
900.83	14488
900.95	14632
901.069	14507
901.189	14457
901.308	14202
901.427	14199
901.546	14210
901.665	14229
901.784	14145
901.904	14020
902.023	14138
902.141	13841
902.26	13761
902.379	13837
902.498	13765
902.617	13757
902.735	13811
902.854	13723
902.973	13689
903.091	13518
903.21	13556
903.328	13518
903.446	13430
903.565	13400
903.683	13316
903.801	13194
903.919	13263
904.038	13339
904.156	13175
904.274	13244
904.392	13122
904.51	13236
904.627	13088
904.745	13183
904.863	13282
904.981	13034
905.098	12817
905.216	12779
905.334	12878
905.451	12829
905.569	12764
905.686	12787
905.803	12859
905.921	12669
906.038	12798
906.155	12635
906.272	12559
906.389	12551
906.506	12486
906.623	12479
906.74	12433
906.857	12247
906.974	12380
907.091	12426
907.208	12513
907.324	12414
907.441	12399
907.557	12140
907.674	12262
907.79	12152
907.907	12083
908.023	12201
908.139	12194
908.256	12045
908.372	12114
908.488	12003
908.604	11847
908.72	11866
908.836	11935
908.952	11874
909.068	11912
909.184	12030
909.3	11866
909.415	11977
909.531	11931
909.647	11760
909.762	11665
909.878	11630
909.993	11752
910.108	11634
910.224	11672
910.339	11695
910.454	11592
910.57	11524
910.685	11459
910.8	11737
910.915	11661
911.03	11528
911.145	11349
911.259	11349
911.374	11406
911.489	11360
911.604	11292
911.718	11124
911.833	11162
911.947	10961
912.062	10999
912.176	11151
912.291	11140
912.405	11098
912.519	11277
912.633	11292
912.748	11269
912.862	11201
912.976	11056
913.09	10896
913.204	11056
913.318	11060
913.431	11105
913.545	11033
913.659	11083
913.772	11060
913.886	10949
914	10873
914.113	11025
914.226	11022
914.34	10919
914.453	10812
914.566	10984
914.68	10850
914.793	10755
914.906	10637
915.019	10584
915.132	10592
915.245	10649
915.358	10615
915.47	10664
915.583	10683
915.696	10672
915.809	10733
915.921	10774
916.034	10588
916.146	10584
916.259	10561
916.371	10668
916.483	10558
916.595	10535
916.708	10603
916.82	10588
916.932	10512
917.044	10573
917.156	10550
917.268	10443
917.38	10417
917.491	10432
917.603	10432
917.715	10596
917.826	10546
917.938	10485
918.049	10382
918.161	10402
918.272	10577
918.384	10527
918.495	10516
918.606	10322
918.717	10314
918.828	10325
918.939	10386
919.05	10261
919.161	10272
919.272	10074
919.383	10143
919.494	10367
919.604	10516
919.715	10421
919.826	10310
919.936	10337
920.047	10432
920.157	10432
920.267	10550
920.378	10379
920.488	10337
920.598	10565
920.708	10660
920.818	10481
920.928	10519
921.038	10717
921.148	10733
921.258	10462
921.368	10284
921.477	10246
921.587	10124
921.697	10040
921.806	10318
921.916	10074
922.025	9926
922.134	9892
922.244	9865
922.353	9907
922.462	9800
922.571	9732
922.68	9629
922.789	9644
922.898	9682
923.007	9557
923.116	9648
923.224	9641
923.333	9576
923.442	9481
923.55	9530
923.659	9553
923.767	9610
923.876	9450
923.984	9507
924.092	9386
924.201	9507
924.309	9424
924.417	9466
924.525	9378
924.633	9431
924.741	10200
924.849	9207
924.956	9363
925.064	9256
925.172	9146
925.279	9241
925.387	9294
925.494	9245
925.602	9359
925.709	9302
925.816	9226
925.924	9222
926.031	9332
926.138	9329
926.245	9291
926.352	9154
926.459	9344
926.566	9272
926.673	9169
926.779	9176
926.886	9173
926.993	8998
927.099	8952
927.206	9009
927.312	8887
927.419	8941
927.525	8956
927.631	9001
927.737	8956
927.843	8853
927.95	8705
928.056	8788
928.162	8868
928.267	8857
928.373	9329
928.479	8914
928.585	8678
928.69	8796
928.796	8883
928.901	8762
929.007	8663
929.112	8796
929.218	8720
929.323	8648
929.428	8674
929.533	8773
929.638	8571
929.743	8743
929.848	8697
929.953	8667
930.058	8537
930.163	8408
930.267	8431
930.372	8522
930.477	8450
930.581	8663
930.685	8514
930.79	8351
930.894	8412
930.998	8347
931.103	8495
931.207	8187
931.311	8073
931.415	8027
931.519	7849
931.623	7928
