Data from test_V78500241_2473.txt Node
Date: Fri Mar 25 14:50:56 CST 2022
User: usil
Spectrometer: V785-0024
Trigger mode: 0
Integration Time (sec): 4.000000E-1
Scans to average: 1
Nonlinearity correction enabled: false
Boxcar width: 0
Storing dark spectrum: false
XAxis mode: Wavelengths
Number of Pixels in Spectrum: 1024
>>>>>Begin Spectral Data<<<<<
801.071	22147
801.214	22063
801.356	21701
801.499	21603
801.641	21538
801.783	21397
801.926	21534
802.068	21428
802.211	21264
802.353	21226
802.496	21032
802.638	21005
802.78	21001
802.923	20815
803.065	20785
803.208	20800
803.35	20918
803.492	20876
803.635	21043
803.777	20769
803.919	20823
804.061	21241
804.204	20902
804.346	20731
804.488	20712
804.63	20838
804.773	20754
804.915	20807
805.057	20750
805.199	20686
805.341	20731
805.483	20689
805.626	20815
805.768	20648
805.91	20758
806.052	20731
806.194	20659
806.336	20765
806.478	20773
806.62	20629
806.762	20739
806.904	20914
807.046	21058
807.188	21047
807.33	21150
807.472	21051
807.614	20963
807.756	21028
807.898	20845
808.04	20807
808.182	20705
808.324	20872
808.465	20872
808.607	21058
808.749	21116
808.891	21237
809.033	21256
809.174	21013
809.316	21051
809.458	21203
809.6	21089
809.741	21009
809.883	21169
810.025	21310
810.166	21287
810.308	21302
810.45	21264
810.591	21081
810.733	21017
810.875	20914
811.016	20796
811.158	20804
811.299	20914
811.441	20887
811.582	21024
811.724	20925
811.865	20762
812.007	20815
812.148	20731
812.29	20777
812.431	20963
812.573	21047
812.714	21241
812.855	21306
812.997	21359
813.138	21667
813.279	21485
813.421	21405
813.562	21272
813.703	21138
813.845	21028
813.986	20807
814.127	20587
814.268	20492
814.41	20450
814.551	20457
814.692	20488
814.833	20320
814.974	20237
815.115	20412
815.256	20263
815.397	20233
815.539	20259
815.68	20119
815.821	20005
815.962	20142
816.103	20183
816.244	20031
816.385	19845
816.526	19875
816.666	19662
816.807	19632
816.948	19563
817.089	19757
817.23	19655
817.371	19483
817.512	19575
817.653	19563
817.793	19476
817.934	19575
818.075	19518
818.216	19476
818.356	19514
818.497	19251
818.638	19316
818.778	19209
818.919	19350
819.06	19289
819.2	19365
819.341	19312
819.481	19388
819.622	19521
819.762	19662
819.903	19738
820.043	19601
820.184	19540
820.324	19480
820.465	19514
820.605	19514
820.746	19518
820.886	19381
821.026	19514
821.167	19464
821.307	19533
821.447	19529
821.588	19297
821.728	19175
821.868	19069
822.008	18924
822.149	18920
822.289	18741
822.429	18715
822.569	18681
822.709	18631
822.849	18391
822.99	18304
823.13	18361
823.27	18391
823.41	18213
823.55	18182
823.69	18338
823.83	18232
823.97	18209
824.11	17969
824.25	17935
824.389	17920
824.529	18019
824.669	17901
824.809	18030
824.949	18117
825.089	18083
825.228	17973
825.368	17855
825.508	17863
825.648	17817
825.787	17798
825.927	17863
826.067	17718
826.206	17832
826.346	17809
826.485	17863
826.625	17760
826.765	17904
826.904	17767
827.044	17562
827.183	17493
827.323	17372
827.462	17493
827.601	17497
827.741	17421
827.88	17360
828.02	17471
828.159	17467
828.298	17455
828.437	17539
828.577	17417
828.716	17619
828.855	17353
828.994	17193
829.134	17231
829.273	17231
829.412	17109
829.551	17143
829.69	17181
829.829	17162
829.968	17322
830.107	17250
830.246	17212
830.385	17155
830.524	17128
830.663	17060
830.802	16900
830.941	16889
831.08	16771
831.219	16911
831.357	16858
831.496	16991
831.635	16847
831.774	16755
831.913	16782
832.051	16580
832.19	16675
832.329	16584
832.467	16573
832.606	16474
832.744	16615
832.883	16497
833.022	16546
833.16	16519
833.299	16485
833.437	16558
833.576	16599
833.714	16656
833.852	16592
833.991	16603
834.129	16721
834.267	16577
834.406	16451
834.544	16607
834.682	16592
834.821	16523
834.959	16713
835.097	16550
835.235	16645
835.373	16573
835.511	16596
835.65	16554
835.788	16413
835.926	16261
836.064	16204
836.202	16318
836.34	16561
836.478	16523
836.615	16462
836.753	16561
836.891	16637
837.029	16440
837.167	16371
837.305	16451
837.443	16333
837.58	16322
837.718	16500
837.856	16352
837.993	16341
838.131	16348
838.269	16303
838.406	16249
838.544	16215
838.681	16097
838.819	15964
838.956	15838
839.094	15960
839.231	15899
839.369	15937
839.506	16284
839.643	16139
839.781	15994
839.918	15842
840.055	15915
840.193	16006
840.33	15915
840.467	15922
840.604	15922
840.742	16067
840.879	15739
841.016	15808
841.153	15835
841.29	15983
841.427	15888
841.564	15892
841.701	15991
841.838	15816
841.975	15720
842.112	15739
842.249	15682
842.385	15671
842.522	15857
842.659	15823
842.796	15675
842.933	15660
843.069	15595
843.206	15595
843.343	15671
843.479	15618
843.616	15694
843.752	15477
843.889	15454
844.025	15515
844.162	15488
844.298	15519
844.435	15386
844.571	15374
844.708	15526
844.844	15614
844.98	15637
845.117	15549
845.253	15420
845.389	15359
845.525	15367
845.661	15405
845.798	15275
845.934	15344
846.07	15203
846.206	15355
846.342	15374
846.478	15150
846.614	15150
846.75	14956
846.886	14982
847.022	15135
847.158	15043
847.294	14990
847.429	15058
847.565	14948
847.701	15195
847.837	14735
847.972	14724
848.108	14941
848.244	14804
848.379	14621
848.515	14689
848.65	14682
848.786	14606
848.921	14644
849.057	14636
849.192	14750
849.328	14689
849.463	14556
849.598	14514
849.734	14571
849.869	14476
850.004	14396
850.14	14492
850.275	14370
850.41	14286
850.545	14313
850.68	14377
850.815	14465
850.95	14278
851.085	14655
851.22	14412
851.355	14381
851.49	14393
851.625	14423
851.76	14355
851.895	14389
852.03	14210
852.165	14385
852.299	14404
852.434	14438
852.569	14492
852.703	14427
852.838	14495
852.973	14587
853.107	14549
853.242	14396
853.376	14195
853.511	14168
853.645	14172
853.78	14336
853.914	14248
854.048	14202
854.183	14161
854.317	14393
854.451	14473
854.585	14259
854.72	14206
854.854	14324
854.988	14206
855.122	14225
855.256	14111
855.39	14259
855.524	14370
855.658	14343
855.792	14267
855.926	14263
856.06	14282
856.194	14389
856.327	14191
856.461	14278
856.595	14240
856.729	14221
856.862	14294
856.996	14309
857.13	14290
857.263	14336
857.397	14336
857.53	14286
857.664	14282
857.797	14305
857.931	14377
858.064	14324
858.197	14355
858.331	14240
858.464	14218
858.597	14221
858.731	14221
858.864	14214
858.997	14202
859.13	14221
859.263	14305
859.396	14389
859.529	14229
859.662	14183
859.795	14240
859.928	14286
860.061	14438
860.194	14480
860.327	14301
860.46	14225
860.592	14343
860.725	14400
860.858	14415
860.99	14263
861.123	14176
861.256	14134
861.388	14221
861.521	14811
861.653	14187
861.786	14164
861.918	14092
862.05	14191
862.183	14210
862.315	14206
862.447	14328
862.58	14278
862.712	14065
862.844	14039
862.976	14084
863.108	14065
863.24	14400
863.372	13978
863.504	14065
863.636	14050
863.768	14103
863.9	14077
864.032	13986
864.164	14058
864.296	14084
864.428	14145
864.559	14164
864.691	14210
864.823	14115
864.954	14031
865.086	14046
865.217	14058
865.349	13963
865.48	13967
865.612	14069
865.743	14123
865.875	14024
866.006	14046
866.137	14016
866.269	13959
866.4	13970
866.531	13974
866.662	13959
866.793	13947
866.924	13970
867.055	14058
867.186	14046
867.317	14005
867.448	13898
867.579	13974
867.71	13963
867.841	13955
867.972	14035
868.103	14008
868.233	14092
868.364	14043
868.495	14031
868.625	14229
868.756	14320
868.886	14202
869.017	14176
869.147	14324
869.278	14351
869.408	14343
869.539	14225
869.669	14393
869.799	14317
869.929	14385
870.06	14336
870.19	14651
870.32	14438
870.45	14549
870.58	14754
870.71	14773
870.84	14689
870.97	14689
871.1	14610
871.23	14861
871.36	14769
871.489	14796
871.619	14853
871.749	14857
871.879	14994
872.008	14941
872.138	14906
872.267	14811
872.397	14773
872.526	14674
872.656	14670
872.785	14659
872.915	14872
873.044	14906
873.173	14899
873.303	14994
873.432	15017
873.561	14986
873.69	14941
873.819	14906
873.948	15066
874.077	14849
874.206	14937
874.335	14963
874.464	15157
874.593	15192
874.722	15058
874.851	15336
874.979	15256
875.108	15287
875.237	15142
875.365	15184
875.494	15203
875.623	15313
875.751	15237
875.88	15348
876.008	15317
876.136	15439
876.265	15709
876.393	15686
876.521	15819
876.65	15671
876.778	15679
876.906	15568
877.034	15603
877.162	15610
877.29	15538
877.418	15648
877.546	15709
877.674	15793
877.802	15724
877.93	15584
878.058	15553
878.185	15526
878.313	15595
878.441	15599
878.568	15481
878.696	15568
878.824	15614
878.951	15641
879.079	15816
879.206	15975
879.333	15823
879.461	15671
879.588	15800
879.715	15808
879.842	16002
879.97	15728
880.097	15538
880.224	15568
880.351	15572
880.478	15481
880.605	15348
880.732	15580
880.859	15774
880.986	15580
881.112	15603
881.239	15408
881.366	15310
881.493	15351
881.619	15085
881.746	15245
881.872	15218
881.999	15218
882.125	15089
882.252	15195
882.378	15180
882.505	15294
882.631	15157
882.757	14990
882.883	14971
883.01	15005
883.136	14929
883.262	14849
883.388	14861
883.514	14982
883.64	15104
883.766	15005
883.892	14845
884.018	14823
884.143	15017
884.269	15039
884.395	14708
884.52	14712
884.646	14613
884.772	14625
884.897	14594
885.023	14701
885.148	14727
885.274	14853
885.399	14762
885.524	14670
885.65	14674
885.775	14701
885.9	14663
886.025	14705
886.15	14720
886.275	14640
886.4	14606
886.525	14564
886.65	14621
886.775	14545
886.9	14815
887.025	14880
887.149	14651
887.274	14522
887.399	14469
887.523	14366
887.648	14488
887.773	14343
887.897	14602
888.021	14484
888.146	14408
888.27	14621
888.395	14583
888.519	14530
888.643	14587
888.767	14571
888.891	14499
889.015	14328
889.139	14385
889.263	14377
889.387	14537
889.511	14560
889.635	14526
889.759	14317
889.883	14301
890.006	14438
890.13	14454
890.254	14294
890.377	14339
890.501	14271
890.624	14145
890.748	14282
890.871	14123
890.995	13951
891.118	13974
891.241	14035
891.364	13993
891.488	14221
891.611	14084
891.734	14005
891.857	14088
891.98	14073
892.103	14138
892.226	14161
892.349	14100
892.471	13852
892.594	14001
892.717	14065
892.839	13993
892.962	14058
893.085	14225
893.207	14088
893.33	13913
893.452	14054
893.575	14111
893.697	14046
893.819	14298
893.941	14267
894.064	14218
894.186	14096
894.308	14046
894.43	14210
894.552	14309
894.674	14252
894.796	13925
894.918	14084
895.04	13989
895.161	14206
895.283	14286
895.405	14126
895.526	14134
895.648	14145
895.769	14180
895.891	14214
896.012	14233
896.134	14259
896.255	14252
896.376	14263
896.498	14210
896.619	14210
896.74	14271
896.861	14336
896.982	14594
897.103	14648
897.224	14564
897.345	14495
897.466	14434
897.587	14507
897.708	14655
897.828	14625
897.949	14450
898.07	14408
898.19	14514
898.311	14716
898.431	14632
898.552	14648
898.672	14689
898.792	14765
898.913	14670
899.033	14431
899.153	14450
899.273	14324
899.393	14408
899.513	14473
899.633	14396
899.753	14549
899.873	14454
899.993	14503
900.113	14415
900.232	14526
900.352	14431
900.472	14370
900.591	14278
900.711	14343
900.83	14305
900.95	14469
901.069	14473
901.189	14237
901.308	14024
901.427	14001
901.546	14065
901.665	14073
901.784	14073
901.904	13921
902.023	13795
902.141	13674
902.26	13571
902.379	13559
902.498	13620
902.617	13529
902.735	13651
902.854	13647
902.973	13472
903.091	13278
903.21	13301
903.328	13244
903.446	13145
903.565	13088
903.683	13187
903.801	13053
903.919	13133
904.038	13145
904.156	13008
904.274	12981
904.392	12993
904.51	12962
904.627	13027
904.745	13080
904.863	13012
904.981	12753
905.098	12566
905.216	12669
905.334	12566
905.451	12574
905.569	12601
905.686	12608
905.803	12681
905.921	12528
906.038	12604
906.155	12467
906.272	12388
906.389	12429
906.506	12285
906.623	12258
906.74	12232
906.857	12114
906.974	12148
907.091	12311
907.208	12410
907.324	12334
907.441	12152
907.557	12098
907.674	11908
907.79	11897
907.907	11931
908.023	12064
908.139	11958
908.256	11935
908.372	11878
908.488	11889
908.604	11699
908.72	11726
908.836	11748
908.952	11775
909.068	11752
909.184	11809
909.3	11783
909.415	11756
909.531	11817
909.647	11505
909.762	11543
909.878	11528
909.993	11448
910.108	11497
910.224	11448
910.339	11535
910.454	11417
910.57	11315
910.685	11254
910.8	11611
910.915	11532
911.03	11402
911.145	11235
911.259	11216
911.374	11178
911.489	11033
911.604	11121
911.718	10968
911.833	11048
911.947	10877
912.062	10763
912.176	10949
912.291	10968
912.405	10862
912.519	11143
912.633	11159
912.748	11037
912.862	10915
912.976	10873
913.09	10706
913.204	10824
913.318	10911
913.431	10915
913.545	10885
913.659	10972
913.772	10873
913.886	10694
914	10694
914.113	10801
914.226	10809
914.34	10805
914.453	10634
914.566	10835
914.68	10714
914.793	10774
914.906	10542
915.019	10363
915.132	10447
915.245	10432
915.358	10504
915.47	10493
915.583	10516
915.696	10599
915.809	10694
915.921	10618
916.034	10481
916.146	10459
916.259	10459
916.371	10535
916.483	10500
916.595	10371
916.708	10371
916.82	10455
916.932	10386
917.044	10325
917.156	10394
917.268	10284
917.38	10306
917.491	10268
917.603	10318
917.715	10386
917.826	10447
917.938	10287
918.049	10238
918.161	10318
918.272	10405
918.384	10428
918.495	10299
918.606	10196
918.717	10055
918.828	10143
918.939	10268
919.05	10139
919.161	10196
919.272	10032
919.383	10128
919.494	10162
919.604	10402
919.715	10063
919.826	10082
919.936	10150
920.047	10253
920.157	10181
920.267	10371
920.378	10265
920.488	10147
920.598	10432
920.708	10523
920.818	10386
920.928	10360
921.038	10603
921.148	10527
921.258	10284
921.368	10090
921.477	10093
921.587	9964
921.697	9903
921.806	10090
921.916	9949
922.025	9892
922.134	9675
922.244	9724
922.353	9717
922.462	9686
922.571	9618
922.68	9469
922.789	9431
922.898	9443
923.007	9416
923.116	9488
923.224	9515
923.333	9424
923.442	9317
923.55	9329
923.659	9355
923.767	9389
923.876	9329
923.984	9336
924.092	9245
924.201	9359
924.309	9332
924.417	9294
924.525	9226
924.633	9222
924.741	9941
924.849	9176
924.956	9260
925.064	9097
925.172	9024
925.279	9081
925.387	9062
925.494	9108
925.602	9233
925.709	9211
925.816	9013
925.924	9180
926.031	9207
926.138	9157
926.245	9116
926.352	9020
926.459	9173
926.566	9199
926.673	9085
926.779	9036
926.886	9001
926.993	8849
927.099	8800
927.206	8777
927.312	8826
927.419	8914
927.525	8830
927.631	8956
927.737	8769
927.843	8705
927.95	8583
928.056	8739
928.162	8659
928.267	8743
928.373	9378
928.479	8857
928.585	8575
928.69	8735
928.796	8689
928.901	8632
929.007	8545
929.112	8739
929.218	8640
929.323	8606
929.428	8549
929.533	8655
929.638	8488
929.743	8480
929.848	8549
929.953	8518
930.058	8503
930.163	8252
930.267	8282
930.372	8431
930.477	8282
930.581	8537
930.685	8389
930.79	8263
930.894	8317
930.998	8210
931.103	8446
931.207	8103
931.311	8020
931.415	7925
931.519	7788
931.623	7719
