Data from test_V78500241_1201.txt Node
Date: Fri Mar 25 14:42:04 CST 2022
User: usil
Spectrometer: V785-0024
Trigger mode: 0
Integration Time (sec): 4.000000E-1
Scans to average: 1
Nonlinearity correction enabled: false
Boxcar width: 0
Storing dark spectrum: false
XAxis mode: Wavelengths
Number of Pixels in Spectrum: 1024
>>>>>Begin Spectral Data<<<<<
801.071	22382
801.214	22337
801.356	22078
801.499	22006
801.641	21861
801.783	21717
801.926	21926
802.068	21675
802.211	21507
802.353	21534
802.496	21420
802.638	21363
802.78	21188
802.923	21165
803.065	20967
803.208	21005
803.35	21237
803.492	21203
803.635	21294
803.777	21112
803.919	21222
804.061	21572
804.204	21279
804.346	21070
804.488	20937
804.63	21119
804.773	20933
804.915	21077
805.057	21154
805.199	21100
805.341	21032
805.483	21154
805.626	21249
805.768	21066
805.91	21051
806.052	21100
806.194	20982
806.336	21199
806.478	21081
806.62	21039
806.762	21036
806.904	21119
807.046	21504
807.188	21458
807.33	21306
807.472	21378
807.614	21287
807.756	21401
807.898	21241
808.04	21306
808.182	21203
808.324	21138
808.465	21245
808.607	21431
808.749	21538
808.891	21690
809.033	21762
809.174	21538
809.316	21416
809.458	21481
809.6	21454
809.741	21603
809.883	21458
810.025	21637
810.166	21663
810.308	21576
810.45	21500
810.591	21393
810.733	21439
810.875	21287
811.016	21207
811.158	21157
811.299	21199
811.441	21374
811.582	21355
811.724	21161
811.865	21036
812.007	21154
812.148	21188
812.29	21321
812.431	21382
812.573	21618
812.714	21515
812.855	21667
812.997	21823
813.138	21922
813.279	21918
813.421	21759
813.562	21583
813.703	21526
813.845	21405
813.986	21116
814.127	21020
814.268	20796
814.41	20902
814.551	20758
814.692	20899
814.833	20758
814.974	20777
815.115	20807
815.256	20549
815.397	20625
815.539	20727
815.68	20484
815.821	20415
815.962	20530
816.103	20495
816.244	20358
816.385	20301
816.526	20248
816.666	20122
816.807	19986
816.948	20145
817.089	20084
817.23	19932
817.371	19944
817.512	20012
817.653	19940
817.793	19841
817.934	19982
818.075	19944
818.216	19967
818.356	19856
818.497	19723
818.638	19635
818.778	19597
818.919	19628
819.06	19681
819.2	19753
819.341	19814
819.481	19799
819.622	19875
819.762	20115
819.903	19978
820.043	19898
820.184	19906
820.324	20016
820.465	19936
820.605	19913
820.746	19936
820.886	19738
821.026	19940
821.167	19849
821.307	20027
821.447	19753
821.588	19772
821.728	19582
821.868	19396
822.008	19274
822.149	19312
822.289	19293
822.429	19110
822.569	19027
822.709	19023
822.849	18852
822.99	18829
823.13	18760
823.27	18787
823.41	18642
823.55	18593
823.69	18681
823.83	18601
823.97	18456
824.11	18498
824.25	18346
824.389	18414
824.529	18528
824.669	18418
824.809	18467
824.949	18464
825.089	18471
825.228	18460
825.368	18266
825.508	18148
825.648	18216
825.787	18327
825.927	18334
826.067	18152
826.206	18140
826.346	18232
826.485	18258
826.625	18209
826.765	18201
826.904	18167
827.044	17939
827.183	17958
827.323	17931
827.462	17847
827.601	17897
827.741	17832
827.88	17988
828.02	17771
828.159	17843
828.298	18003
828.437	17942
828.577	17813
828.716	18053
828.855	17916
828.994	17642
829.134	17714
829.273	17790
829.412	17657
829.551	17600
829.69	17520
829.829	17707
829.968	17805
830.107	17714
830.246	17794
830.385	17539
830.524	17653
830.663	17554
830.802	17326
830.941	17220
831.08	17220
831.219	17402
831.357	17334
831.496	17547
831.635	17261
831.774	17208
831.913	17170
832.051	17033
832.19	17056
832.329	17121
832.467	17064
832.606	16919
832.744	16987
832.883	16995
833.022	16930
833.16	16976
833.299	17071
833.437	17041
833.576	17075
833.714	17006
833.852	17041
833.991	17003
834.129	17056
834.267	17220
834.406	17022
834.544	17064
834.682	17098
834.821	17022
834.959	17231
835.097	17018
835.235	17064
835.373	17052
835.511	17147
835.65	16896
835.788	16919
835.926	16835
836.064	16675
836.202	16866
836.34	16892
836.478	16965
836.615	16934
836.753	16968
836.891	17121
837.029	16972
837.167	16953
837.305	16793
837.443	16790
837.58	16645
837.718	16873
837.856	16782
837.993	16713
838.131	16744
838.269	16816
838.406	16691
838.544	16637
838.681	16428
838.819	16546
838.956	16493
839.094	16318
839.231	16390
839.369	16615
839.506	16729
839.643	16645
839.781	16405
839.918	16352
840.055	16379
840.193	16440
840.33	16249
840.467	16390
840.604	16356
840.742	16660
840.879	16253
841.016	16215
841.153	16215
841.29	16577
841.427	16398
841.564	16348
841.701	16398
841.838	16360
841.975	16246
842.112	16344
842.249	16044
842.385	16010
842.522	16344
842.659	16268
842.796	16101
842.933	16230
843.069	16116
843.206	16010
843.343	16181
843.479	16287
843.616	16211
843.752	15892
843.889	16006
844.025	16082
844.162	15854
844.298	16006
844.435	15964
844.571	15903
844.708	15987
844.844	16135
844.98	16025
845.117	16025
845.253	15861
845.389	15762
845.525	15865
845.661	15762
845.798	15778
845.934	15819
846.07	15838
846.206	15895
846.342	15922
846.478	15720
846.614	15648
846.75	15504
846.886	15424
847.022	15538
847.158	15439
847.294	15462
847.429	15545
847.565	15481
847.701	15713
847.837	15180
847.972	15104
848.108	15245
848.244	15332
848.379	15180
848.515	15157
848.65	15055
848.786	15009
848.921	15203
849.057	15150
849.192	15233
849.328	15161
849.463	15138
849.598	15104
849.734	14941
849.869	14979
850.004	14895
850.14	14941
850.275	14864
850.41	14804
850.545	14788
850.68	14891
850.815	14807
850.95	14910
851.085	14963
851.22	14982
851.355	14872
851.49	14838
851.625	14834
851.76	14773
851.895	14762
852.03	14731
852.165	14819
852.299	14792
852.434	14906
852.569	14906
852.703	14891
852.838	14921
852.973	14925
853.107	14986
853.242	14853
853.376	14651
853.511	14667
853.645	14602
853.78	14811
853.914	14739
854.048	14765
854.183	14762
854.317	14750
854.451	14883
854.585	14762
854.72	14705
854.854	14750
854.988	14678
855.122	14701
855.256	14522
855.39	14625
855.524	14845
855.658	14716
855.792	14731
855.926	14758
856.06	14838
856.194	14800
856.327	14621
856.461	14606
856.595	14655
856.729	14750
856.862	14834
856.996	14777
857.13	14800
857.263	14857
857.397	14819
857.53	14663
857.664	14750
857.797	14781
857.931	14849
858.064	14796
858.197	14872
858.331	14697
858.464	14655
858.597	14613
858.731	14667
858.864	14708
858.997	14724
859.13	14807
859.263	14746
859.396	14739
859.529	14762
859.662	14670
859.795	14689
859.928	14682
860.061	14872
860.194	14777
860.327	14758
860.46	14743
860.592	14815
860.725	14906
860.858	14762
860.99	14811
861.123	14724
861.256	14674
861.388	14708
861.521	15397
861.653	14579
861.786	14541
861.918	14590
862.05	14750
862.183	14579
862.315	14655
862.447	14731
862.58	14727
862.712	14587
862.844	14419
862.976	14571
863.108	14552
863.24	14990
863.372	14389
863.504	14526
863.636	14484
863.768	14583
863.9	14442
864.032	14492
864.164	14499
864.296	14579
864.428	14632
864.559	14625
864.691	14556
864.823	14492
864.954	14442
865.086	14579
865.217	14446
865.349	14442
865.48	14404
865.612	14492
865.743	14545
865.875	14507
866.006	14412
866.137	14526
866.269	14419
866.4	14370
866.531	14324
866.662	14396
866.793	14313
866.924	14423
867.055	14476
867.186	14541
867.317	14427
867.448	14457
867.579	14389
867.71	14366
867.841	14343
867.972	14457
868.103	14389
868.233	14503
868.364	14476
868.495	14514
868.625	14636
868.756	14800
868.886	14602
869.017	14697
869.147	14887
869.278	14765
869.408	14853
869.539	14663
869.669	14807
869.799	14765
869.929	14853
870.06	14811
870.19	14941
870.32	15062
870.45	15154
870.58	15070
870.71	15279
870.84	15302
870.97	15085
871.1	15085
871.23	15272
871.36	15359
871.489	15173
871.619	15363
871.749	15336
871.879	15363
872.008	15389
872.138	15321
872.267	15325
872.397	15173
872.526	15093
872.656	15062
872.785	15173
872.915	15336
873.044	15363
873.173	15241
873.303	15351
873.432	15431
873.561	15397
873.69	15351
873.819	15321
873.948	15435
874.077	15439
874.206	15374
874.335	15382
874.464	15557
874.593	15663
874.722	15496
874.851	15644
874.979	15686
875.108	15690
875.237	15603
875.365	15584
875.494	15564
875.623	15728
875.751	15629
875.88	15682
876.008	15827
876.136	15861
876.265	16150
876.393	16150
876.521	16204
876.65	16207
876.778	16158
876.906	16010
877.034	16021
877.162	16044
877.29	16067
877.418	16029
877.546	16044
877.674	16071
877.802	16078
877.93	16169
878.058	16029
878.185	15987
878.313	16048
878.441	16154
878.568	15835
878.696	15930
878.824	15949
878.951	16128
879.079	16402
879.206	16474
879.333	16261
879.461	16093
879.588	16150
879.715	16344
879.842	16367
879.97	16158
880.097	15979
880.224	15918
880.351	16032
880.478	15945
880.605	16055
880.732	15941
880.859	16169
880.986	15979
881.112	15903
881.239	15838
881.366	15717
881.493	15785
881.619	15648
881.746	15542
881.872	15595
881.999	15485
882.125	15576
882.252	15603
882.378	15610
882.505	15751
882.631	15599
882.757	15466
882.883	15526
883.01	15370
883.136	15344
883.262	15279
883.388	15313
883.514	15397
883.64	15469
883.766	15408
883.892	15180
884.018	15287
884.143	15496
884.269	15530
884.395	15157
884.52	15024
884.646	15169
884.772	15100
884.897	14986
885.023	15165
885.148	15192
885.274	15279
885.399	15252
885.524	15077
885.65	15093
885.775	15112
885.9	15089
886.025	15150
886.15	15024
886.275	15070
886.4	14944
886.525	15032
886.65	14944
886.775	14986
886.9	15218
887.025	15374
887.149	15062
887.274	14887
887.399	14944
887.523	14823
887.648	14792
887.773	14819
887.897	14872
888.021	15013
888.146	14944
888.27	15017
888.395	15062
888.519	15001
888.643	15039
888.767	15058
888.891	14906
889.015	14708
889.139	14785
889.263	14823
889.387	14876
889.511	14994
889.635	14921
889.759	14754
889.883	14769
890.006	14861
890.13	14906
890.254	14750
890.377	14682
890.501	14545
890.624	14507
890.748	14651
890.871	14552
890.995	14480
891.118	14450
891.241	14492
891.364	14533
891.488	14579
891.611	14480
891.734	14511
891.857	14480
891.98	14446
892.103	14507
892.226	14617
892.349	14499
892.471	14229
892.594	14370
892.717	14549
892.839	14454
892.962	14545
893.085	14552
893.207	14507
893.33	14370
893.452	14438
893.575	14503
893.697	14465
893.819	14606
893.941	14667
894.064	14564
894.186	14442
894.308	14404
894.43	14560
894.552	14590
894.674	14590
894.796	14419
894.918	14518
895.04	14522
895.161	14579
895.283	14560
895.405	14579
895.526	14465
895.648	14636
895.769	14533
895.891	14682
896.012	14663
896.134	14659
896.255	14537
896.376	14583
896.498	14610
896.619	14667
896.74	14571
896.861	14735
896.982	14967
897.103	15116
897.224	14998
897.345	14925
897.466	14815
897.587	14845
897.708	14975
897.828	14921
897.949	14811
898.07	14769
898.19	14918
898.311	14971
898.431	14899
898.552	14963
898.672	14982
898.792	15173
898.913	14979
899.033	14788
899.153	14746
899.273	14773
899.393	14788
899.513	14857
899.633	14819
899.753	14796
899.873	14716
899.993	14788
900.113	14853
900.232	14815
900.352	14762
900.472	14739
900.591	14583
900.711	14663
900.83	14594
900.95	14701
901.069	14796
901.189	14590
901.308	14412
901.427	14377
901.546	14358
901.665	14362
901.784	14347
901.904	14240
902.023	14084
902.141	13970
902.26	13936
902.379	13967
902.498	13986
902.617	13830
902.735	13928
902.854	13917
902.973	13769
903.091	13620
903.21	13715
903.328	13597
903.446	13518
903.565	13499
903.683	13487
903.801	13388
903.919	13502
904.038	13365
904.156	13228
904.274	13308
904.392	13255
904.51	13278
904.627	13221
904.745	13285
904.863	13335
904.981	13057
905.098	12989
905.216	12966
905.334	13000
905.451	13034
905.569	12943
905.686	12916
905.803	12985
905.921	12791
906.038	12996
906.155	12760
906.272	12692
906.389	12688
906.506	12597
906.623	12654
906.74	12475
906.857	12528
906.974	12460
907.091	12646
907.208	12700
907.324	12620
907.441	12544
907.557	12262
907.674	12281
907.79	12190
907.907	12235
908.023	12372
908.139	12338
908.256	12239
908.372	12205
908.488	12243
908.604	12083
908.72	12068
908.836	12076
908.952	12106
909.068	12110
909.184	12121
909.3	12076
909.415	12091
909.531	12049
909.647	11882
909.762	11802
909.878	11798
909.993	11843
910.108	11832
910.224	11771
910.339	11851
910.454	11661
910.57	11680
910.685	11627
910.8	11851
910.915	11939
911.03	11764
911.145	11581
911.259	11509
911.374	11532
911.489	11406
911.604	11391
911.718	11311
911.833	11315
911.947	11102
912.062	11113
912.176	11261
912.291	11341
912.405	11246
912.519	11452
912.633	11478
912.748	11368
912.862	11204
912.976	11151
913.09	11075
913.204	11143
913.318	11216
913.431	11315
913.545	11235
913.659	11250
913.772	11174
913.886	11086
914	10965
914.113	11124
914.226	11132
914.34	11132
914.453	10984
914.566	11117
914.68	10911
914.793	11052
914.906	10801
915.019	10759
915.132	10637
915.245	10717
915.358	10706
915.47	10816
915.583	10740
915.696	10786
915.809	10862
915.921	10938
916.034	10729
916.146	10721
916.259	10626
916.371	10793
916.483	10782
916.595	10679
916.708	10668
916.82	10721
916.932	10725
917.044	10717
917.156	10641
917.268	10607
917.38	10580
917.491	10500
917.603	10641
917.715	10569
917.826	10653
917.938	10550
918.049	10440
918.161	10561
918.272	10759
918.384	10733
918.495	10596
918.606	10428
918.717	10360
918.828	10470
918.939	10451
919.05	10367
919.161	10466
919.272	10215
919.383	10268
919.494	10527
919.604	10580
919.715	10462
919.826	10333
919.936	10398
920.047	10527
920.157	10577
920.267	10710
920.378	10516
920.488	10459
920.598	10660
920.708	10854
920.818	10618
920.928	10687
921.038	10828
921.148	10820
921.258	10462
921.368	10379
921.477	10295
921.587	10299
921.697	10204
921.806	10291
921.916	10219
922.025	9983
922.134	10036
922.244	10036
922.353	10090
922.462	9884
922.571	9823
922.68	9797
922.789	9599
922.898	9778
923.007	9694
923.116	9747
923.224	9667
923.333	9686
923.442	9648
923.55	9576
923.659	9603
923.767	9743
923.876	9526
923.984	9637
924.092	9431
924.201	9580
924.309	9591
924.417	9542
924.525	9519
924.633	9572
924.741	10280
924.849	9389
924.956	9504
925.064	9268
925.172	9306
925.279	9351
925.387	9359
925.494	9332
925.602	9507
925.709	9462
925.816	9291
925.924	9351
926.031	9447
926.138	9389
926.245	9412
926.352	9256
926.459	9386
926.566	9477
926.673	9306
926.779	9176
926.886	9214
926.993	9097
927.099	9108
927.206	9036
927.312	8990
927.419	9150
927.525	9024
927.631	9161
927.737	9009
927.843	8941
927.95	8834
928.056	8952
928.162	8975
928.267	9001
928.373	9660
928.479	9123
928.585	8766
928.69	8906
928.796	8971
928.901	8861
929.007	8693
929.112	8845
929.218	8769
929.323	8804
929.428	8792
929.533	8868
929.638	8655
929.743	8712
929.848	8819
929.953	8667
930.058	8613
930.163	8446
930.267	8495
930.372	8689
930.477	8465
930.581	8746
930.685	8632
930.79	8465
930.894	8412
930.998	8484
931.103	8533
931.207	8256
931.311	8157
931.415	8145
931.519	8043
931.623	7898
