Data from test_V78500241_2527.txt Node
Date: Fri Mar 25 14:51:18 CST 2022
User: usil
Spectrometer: V785-0024
Trigger mode: 0
Integration Time (sec): 4.000000E-1
Scans to average: 1
Nonlinearity correction enabled: false
Boxcar width: 0
Storing dark spectrum: false
XAxis mode: Wavelengths
Number of Pixels in Spectrum: 1024
>>>>>Begin Spectral Data<<<<<
801.071	22010
801.214	21915
801.356	21755
801.499	21610
801.641	21504
801.783	21389
801.926	21469
802.068	21397
802.211	21203
802.353	21233
802.496	20933
802.638	20910
802.78	20937
802.923	20842
803.065	20697
803.208	20674
803.35	20804
803.492	20815
803.635	20887
803.777	20872
803.919	20815
804.061	21173
804.204	20864
804.346	20720
804.488	20617
804.63	20705
804.773	20590
804.915	20674
805.057	20670
805.199	20735
805.341	20644
805.483	20792
805.626	20788
805.768	20575
805.91	20678
806.052	20682
806.194	20446
806.336	20819
806.478	20663
806.62	20621
806.762	20651
806.904	20914
807.046	21043
807.188	21074
807.33	20952
807.472	20960
807.614	20906
807.756	20952
807.898	20689
808.04	20788
808.182	20785
808.324	20785
808.465	20853
808.607	20864
808.749	21112
808.891	21180
809.033	21142
809.174	21104
809.316	21055
809.458	20986
809.6	21093
809.741	21154
809.883	21161
810.025	21222
810.166	21184
810.308	21055
810.45	21207
810.591	20971
810.733	20834
810.875	20857
811.016	20727
811.158	20788
811.299	20807
811.441	20815
811.582	20944
811.724	20811
811.865	20864
812.007	20727
812.148	20769
812.29	20849
812.431	20914
812.573	21154
812.714	21226
812.855	21340
812.997	21447
813.138	21507
813.279	21405
813.421	21154
813.562	21192
813.703	21051
813.845	20906
813.986	20609
814.127	20461
814.268	20419
814.41	20473
814.551	20377
814.692	20393
814.833	20267
814.974	20362
815.115	20271
815.256	20206
815.397	20210
815.539	20202
815.68	20062
815.821	19982
815.962	20081
816.103	20073
816.244	20035
816.385	19822
816.526	19833
816.666	19693
816.807	19518
816.948	19525
817.089	19578
817.23	19578
817.371	19525
817.512	19480
817.653	19556
817.793	19472
817.934	19495
818.075	19453
818.216	19487
818.356	19445
818.497	19381
818.638	19145
818.778	19160
818.919	19255
819.06	19324
819.2	19324
819.341	19381
819.481	19426
819.622	19533
819.762	19750
819.903	19693
820.043	19460
820.184	19495
820.324	19491
820.465	19529
820.605	19438
820.746	19312
820.886	19270
821.026	19487
821.167	19415
821.307	19430
821.447	19297
821.588	19263
821.728	19091
821.868	19095
822.008	18916
822.149	18768
822.289	18817
822.429	18593
822.569	18547
822.709	18448
822.849	18422
822.99	18327
823.13	18403
823.27	18311
823.41	18136
823.55	18095
823.69	18148
823.83	18110
823.97	18129
824.11	17855
824.25	17984
824.389	17923
824.529	18068
824.669	17889
824.809	18106
824.949	18053
825.089	17958
825.228	17961
825.368	17718
825.508	17661
825.648	17726
825.787	17805
825.927	17710
826.067	17821
826.206	17596
826.346	17714
826.485	17764
826.625	17783
826.765	17805
826.904	17771
827.044	17478
827.183	17486
827.323	17322
827.462	17414
827.601	17345
827.741	17349
827.88	17474
828.02	17315
828.159	17379
828.298	17368
828.437	17524
828.577	17433
828.716	17627
828.855	17296
828.994	17212
829.134	17143
829.273	17280
829.412	17079
829.551	17094
829.69	17155
829.829	17220
829.968	17345
830.107	17277
830.246	17197
830.385	17178
830.524	17064
830.663	17014
830.802	16961
830.941	16824
831.08	16774
831.219	16812
831.357	16824
831.496	16953
831.635	16778
831.774	16759
831.913	16679
832.051	16580
832.19	16603
832.329	16588
832.467	16417
832.606	16417
832.744	16375
832.883	16466
833.022	16390
833.16	16527
833.299	16558
833.437	16577
833.576	16531
833.714	16497
833.852	16626
833.991	16615
834.129	16527
834.267	16588
834.406	16565
834.544	16599
834.682	16611
834.821	16561
834.959	16744
835.097	16561
835.235	16672
835.373	16580
835.511	16489
835.65	16580
835.788	16443
835.926	16249
836.064	16192
836.202	16242
836.34	16424
836.478	16478
836.615	16398
836.753	16390
836.891	16466
837.029	16504
837.167	16356
837.305	16398
837.443	16360
837.58	16265
837.718	16398
837.856	16348
837.993	16261
838.131	16390
838.269	16211
838.406	16265
838.544	16207
838.681	16036
838.819	15998
838.956	15854
839.094	15888
839.231	15934
839.369	15945
839.506	16234
839.643	16143
839.781	15888
839.918	15800
840.055	15831
840.193	15846
840.33	15873
840.467	15873
840.604	15865
840.742	16120
840.879	15759
841.016	15812
841.153	15747
841.29	15899
841.427	15884
841.564	15968
841.701	15838
841.838	15842
841.975	15713
842.112	15747
842.249	15690
842.385	15667
842.522	15755
842.659	15641
842.796	15549
842.933	15736
843.069	15660
843.206	15637
843.343	15713
843.479	15545
843.616	15675
843.752	15477
843.889	15336
844.025	15530
844.162	15473
844.298	15549
844.435	15439
844.571	15420
844.708	15447
844.844	15633
844.98	15599
845.117	15519
845.253	15386
845.389	15241
845.525	15313
845.661	15405
845.798	15142
845.934	15272
846.07	15268
846.206	15294
846.342	15462
846.478	15188
846.614	15100
846.75	14979
846.886	14941
847.022	15119
847.158	15104
847.294	14918
847.429	15036
847.565	15005
847.701	15340
847.837	14834
847.972	14693
848.108	14746
848.244	14838
848.379	14689
848.515	14617
848.65	14602
848.786	14636
848.921	14640
849.057	14636
849.192	14663
849.328	14724
849.463	14495
849.598	14727
849.734	14579
849.869	14571
850.004	14454
850.14	14461
850.275	14358
850.41	14366
850.545	14381
850.68	14415
850.815	14404
850.95	14408
851.085	14495
851.22	14541
851.355	14400
851.49	14396
851.625	14381
851.76	14309
851.895	14271
852.03	14301
852.165	14332
852.299	14305
852.434	14454
852.569	14488
852.703	14454
852.838	14377
852.973	14450
853.107	14469
853.242	14355
853.376	14362
853.511	14134
853.645	14035
853.78	14404
853.914	14252
854.048	14218
854.183	14248
854.317	14180
854.451	14317
854.585	14252
854.72	14187
854.854	14271
854.988	14153
855.122	14225
855.256	14100
855.39	14183
855.524	14275
855.658	14259
855.792	14229
855.926	14377
856.06	14366
856.194	14442
856.327	14256
856.461	14229
856.595	14263
856.729	14248
856.862	14366
856.996	14210
857.13	14412
857.263	14351
857.397	14362
857.53	14313
857.664	14233
857.797	14328
857.931	14328
858.064	14362
858.197	14446
858.331	14172
858.464	14256
858.597	14119
858.731	14336
858.864	14290
858.997	14202
859.13	14180
859.263	14275
859.396	14282
859.529	14225
859.662	14218
859.795	14275
859.928	14187
860.061	14393
860.194	14419
860.327	14263
860.46	14278
860.592	14301
860.725	14366
860.858	14259
860.99	14195
861.123	14252
861.256	14153
861.388	14225
861.521	14868
861.653	14195
861.786	14138
861.918	14058
862.05	14081
862.183	14123
862.315	14218
862.447	14271
862.58	14172
862.712	13940
862.844	14020
862.976	14153
863.108	14016
863.24	14336
863.372	13955
863.504	14046
863.636	14088
863.768	14130
863.9	14065
864.032	13921
864.164	13974
864.296	13970
864.428	14115
864.559	14024
864.691	14126
864.823	14020
864.954	14024
865.086	14024
865.217	14012
865.349	13959
865.48	14043
865.612	14016
865.743	14039
865.875	14016
866.006	13982
866.137	14096
866.269	13936
866.4	14092
866.531	13944
866.662	13944
866.793	13921
866.924	14016
867.055	14024
867.186	14001
867.317	13967
867.448	13814
867.579	13932
867.71	13917
867.841	13803
867.972	14035
868.103	13970
868.233	14012
868.364	14020
868.495	14107
868.625	14214
868.756	14278
868.886	14195
869.017	14233
869.147	14374
869.278	14389
869.408	14336
869.539	14362
869.669	14396
869.799	14362
869.929	14415
870.06	14339
870.19	14632
870.32	14549
870.45	14674
870.58	14655
870.71	14800
870.84	14819
870.97	14735
871.1	14693
871.23	14788
871.36	14773
871.489	14739
871.619	14796
871.749	14895
871.879	14883
872.008	14963
872.138	14960
872.267	14842
872.397	14716
872.526	14754
872.656	14693
872.785	14720
872.915	14986
873.044	14952
873.173	14872
873.303	14872
873.432	14845
873.561	14967
873.69	14948
873.819	15097
873.948	15020
874.077	15039
874.206	14864
874.335	14986
874.464	15017
874.593	15291
874.722	15214
874.851	15214
874.979	15176
875.108	15268
875.237	15241
875.365	15218
875.494	15260
875.623	15420
875.751	15169
875.88	15203
876.008	15488
876.136	15504
876.265	15652
876.393	15785
876.521	15831
876.65	15831
876.778	15633
876.906	15629
877.034	15648
877.162	15618
877.29	15686
877.418	15656
877.546	15770
877.674	15724
877.802	15599
877.93	15675
878.058	15488
878.185	15568
878.313	15641
878.441	15667
878.568	15629
878.696	15660
878.824	15663
878.951	15667
879.079	15983
879.206	15949
879.333	15732
879.461	15663
879.588	15842
879.715	15865
879.842	15983
879.97	15701
880.097	15591
880.224	15526
880.351	15469
880.478	15671
880.605	15443
880.732	15492
880.859	15656
880.986	15549
881.112	15515
881.239	15454
881.366	15374
881.493	15241
881.619	15173
881.746	15241
881.872	15146
881.999	15135
882.125	15047
882.252	15272
882.378	15264
882.505	15317
882.631	15093
882.757	15028
882.883	15005
883.01	14963
883.136	14963
883.262	14941
883.388	14842
883.514	15043
883.64	15028
883.766	14967
883.892	14861
884.018	14739
884.143	15127
884.269	15005
884.395	14834
884.52	14659
884.646	14663
884.772	14594
884.897	14552
885.023	14788
885.148	14777
885.274	14739
885.399	14781
885.524	14705
885.65	14701
885.775	14746
885.9	14560
886.025	14750
886.15	14807
886.275	14705
886.4	14594
886.525	14697
886.65	14560
886.775	14648
886.9	14781
887.025	14921
887.149	14769
887.274	14511
887.399	14583
887.523	14583
887.648	14412
887.773	14336
887.897	14568
888.021	14598
888.146	14514
888.27	14655
888.395	14693
888.519	14511
888.643	14503
888.767	14514
888.891	14488
889.015	14313
889.139	14385
889.263	14332
889.387	14423
889.511	14590
889.635	14541
889.759	14400
889.883	14457
890.006	14450
890.13	14484
890.254	14225
890.377	14442
890.501	14210
890.624	14210
890.748	14343
890.871	14138
890.995	14065
891.118	14005
891.241	14035
891.364	14084
891.488	14225
891.611	14073
891.734	14096
891.857	14100
891.98	14256
892.103	14244
892.226	14123
892.349	14054
892.471	14005
892.594	14134
892.717	14039
892.839	14065
892.962	14103
893.085	14145
893.207	14084
893.33	13986
893.452	14016
893.575	14153
893.697	14111
893.819	14259
893.941	14286
894.064	14347
894.186	14149
894.308	14138
894.43	14157
894.552	14366
894.674	14214
894.796	14073
894.918	14157
895.04	14123
895.161	14259
895.283	14119
895.405	14077
895.526	14221
895.648	14195
895.769	14267
895.891	14252
896.012	14381
896.134	14176
896.255	14294
896.376	14221
896.498	14343
896.619	14317
896.74	14210
896.861	14374
896.982	14610
897.103	14758
897.224	14606
897.345	14590
897.466	14438
897.587	14560
897.708	14697
897.828	14610
897.949	14568
898.07	14484
898.19	14602
898.311	14648
898.431	14590
898.552	14686
898.672	14682
898.792	14746
898.913	14640
899.033	14556
899.153	14465
899.273	14374
899.393	14389
899.513	14507
899.633	14507
899.753	14492
899.873	14511
899.993	14465
900.113	14434
900.232	14434
900.352	14370
900.472	14332
900.591	14332
900.711	14328
900.83	14362
900.95	14476
901.069	14412
901.189	14294
901.308	14054
901.427	14012
901.546	13955
901.665	14024
901.784	14024
901.904	13951
902.023	13811
902.141	13624
902.26	13559
902.379	13651
902.498	13567
902.617	13544
902.735	13647
902.854	13556
902.973	13605
903.091	13316
903.21	13213
903.328	13343
903.446	13335
903.565	13244
903.683	13168
903.801	13110
903.919	13156
904.038	13069
904.156	12935
904.274	13076
904.392	12962
904.51	12973
904.627	13042
904.745	13076
904.863	13038
904.981	12741
905.098	12627
905.216	12673
905.334	12749
905.451	12642
905.569	12623
905.686	12711
905.803	12608
905.921	12410
906.038	12582
906.155	12395
906.272	12422
906.389	12426
906.506	12235
906.623	12262
906.74	12243
906.857	12178
906.974	12205
907.091	12273
907.208	12376
907.324	12281
907.441	12186
907.557	11954
907.674	11980
907.79	11916
907.907	11999
908.023	12003
908.139	11973
908.256	11980
908.372	11980
908.488	11851
908.604	11817
908.72	11745
908.836	11771
908.952	11684
909.068	11775
909.184	11923
909.3	11733
909.415	11821
909.531	11809
909.647	11577
909.762	11509
909.878	11524
909.993	11543
910.108	11604
910.224	11482
910.339	11509
910.454	11433
910.57	11406
910.685	11292
910.8	11661
910.915	11577
911.03	11383
911.145	11216
911.259	11159
911.374	11197
911.489	11094
911.604	11025
911.718	10927
911.833	11060
911.947	10904
912.062	10824
912.176	10927
912.291	10946
912.405	10984
912.519	11174
912.633	11201
912.748	11060
912.862	11037
912.976	10847
913.09	10790
913.204	10854
913.318	10927
913.431	11052
913.545	10934
913.659	10972
913.772	10824
913.886	10698
914	10744
914.113	10843
914.226	10801
914.34	10866
914.453	10687
914.566	10850
914.68	10710
914.793	10706
914.906	10500
915.019	10428
915.132	10386
915.245	10531
915.358	10493
915.47	10413
915.583	10519
915.696	10546
915.809	10645
915.921	10622
916.034	10527
916.146	10451
916.259	10474
916.371	10462
916.483	10470
916.595	10348
916.708	10409
916.82	10421
916.932	10470
917.044	10405
917.156	10337
917.268	10253
917.38	10363
917.491	10337
917.603	10287
917.715	10390
917.826	10489
917.938	10310
918.049	10215
918.161	10310
918.272	10474
918.384	10436
918.495	10337
918.606	10135
918.717	10150
918.828	10249
918.939	10166
919.05	10032
919.161	10158
919.272	9956
919.383	10082
919.494	10299
919.604	10497
919.715	10219
919.826	10120
919.936	10253
920.047	10295
920.157	10223
920.267	10371
920.378	10238
920.488	10261
920.598	10489
920.708	10558
920.818	10402
920.928	10470
921.038	10607
921.148	10542
921.258	10227
921.368	10143
921.477	10150
921.587	10036
921.697	9998
921.806	10093
921.916	9941
922.025	9857
922.134	9724
922.244	9698
922.353	9781
922.462	9648
922.571	9701
922.68	9405
922.789	9435
922.898	9538
923.007	9473
923.116	9549
923.224	9496
923.333	9443
923.442	9397
923.55	9329
923.659	9275
923.767	9408
923.876	9363
923.984	9412
924.092	9332
924.201	9268
924.309	9363
924.417	9355
924.525	9264
924.633	9203
924.741	10249
924.849	9119
924.956	9302
925.064	9154
925.172	9017
925.279	9066
925.387	9157
925.494	9051
925.602	9272
925.709	9157
925.816	9036
925.924	9131
926.031	9203
926.138	9131
926.245	9100
926.352	9066
926.459	9253
926.566	9222
926.673	9047
926.779	8979
926.886	8982
926.993	8853
927.099	8819
927.206	8785
927.312	8750
927.419	8906
927.525	8868
927.631	8937
927.737	8735
927.843	8689
927.95	8556
928.056	8712
928.162	8750
928.267	8811
928.373	9466
928.479	8838
928.585	8594
928.69	8762
928.796	8678
928.901	8632
929.007	8545
929.112	8708
929.218	8602
929.323	8541
929.428	8602
929.533	8766
929.638	8469
929.743	8545
929.848	8590
929.953	8594
930.058	8404
930.163	8336
930.267	8358
930.372	8408
930.477	8347
930.581	8492
930.685	8317
930.79	8221
930.894	8248
930.998	8244
931.103	8396
931.207	8065
931.311	8092
931.415	7928
931.519	7696
931.623	7792
