Data from test_V78500241_2324.txt Node
Date: Fri Mar 25 14:49:53 CST 2022
User: usil
Spectrometer: V785-0024
Trigger mode: 0
Integration Time (sec): 4.000000E-1
Scans to average: 1
Nonlinearity correction enabled: false
Boxcar width: 0
Storing dark spectrum: false
XAxis mode: Wavelengths
Number of Pixels in Spectrum: 1024
>>>>>Begin Spectral Data<<<<<
801.071	22169
801.214	22158
801.356	21857
801.499	21641
801.641	21637
801.783	21492
801.926	21671
802.068	21466
802.211	21443
802.353	21291
802.496	21127
802.638	21070
802.78	20982
802.923	20838
803.065	20838
803.208	20891
803.35	20796
803.492	21017
803.635	20994
803.777	20788
803.919	20880
804.061	21112
804.204	20982
804.346	20823
804.488	20826
804.63	20811
804.773	20746
804.915	20762
805.057	20906
805.199	20754
805.341	20895
805.483	20979
805.626	20796
805.768	20758
805.91	20941
806.052	20796
806.194	20629
806.336	21085
806.478	20819
806.62	20777
806.762	20880
806.904	20986
807.046	21184
807.188	21146
807.33	21188
807.472	21192
807.614	21039
807.756	21047
807.898	20925
808.04	20952
808.182	20773
808.324	20914
808.465	20998
808.607	21123
808.749	21230
808.891	21325
809.033	21450
809.174	21226
809.316	21127
809.458	21195
809.6	21131
809.741	21184
809.883	21275
810.025	21424
810.166	21336
810.308	21363
810.45	21306
810.591	21116
810.733	21058
810.875	21039
811.016	20868
811.158	20773
811.299	20975
811.441	21070
811.582	21108
811.724	20956
811.865	20861
812.007	20887
812.148	20941
812.29	21032
812.431	21077
812.573	21294
812.714	21317
812.855	21500
812.997	21553
813.138	21895
813.279	21606
813.421	21424
813.562	21431
813.703	21214
813.845	21070
813.986	20762
814.127	20693
814.268	20617
814.41	20575
814.551	20461
814.692	20499
814.833	20511
814.974	20442
815.115	20473
815.256	20396
815.397	20313
815.539	20320
815.68	20218
815.821	20107
815.962	20229
816.103	20202
816.244	20088
816.385	19974
816.526	19860
816.666	19811
816.807	19734
816.948	19837
817.089	19845
817.23	19742
817.371	19658
817.512	19677
817.653	19712
817.793	19624
817.934	19540
818.075	19552
818.216	19677
818.356	19499
818.497	19449
818.638	19289
818.778	19324
818.919	19263
819.06	19259
819.2	19373
819.341	19487
819.481	19487
819.622	19666
819.762	19883
819.903	19708
820.043	19689
820.184	19643
820.324	19559
820.465	19613
820.605	19597
820.746	19590
820.886	19544
821.026	19578
821.167	19666
821.307	19643
821.447	19483
821.588	19377
821.728	19236
821.868	19270
822.008	19046
822.149	19088
822.289	19012
822.429	18688
822.569	18696
822.709	18669
822.849	18353
822.99	18490
823.13	18441
823.27	18506
823.41	18308
823.55	18338
823.69	18338
823.83	18258
823.97	18129
824.11	18140
824.25	17897
824.389	18064
824.529	18243
824.669	18110
824.809	18171
824.949	18129
825.089	18106
825.228	18057
825.368	17878
825.508	17939
825.648	17942
825.787	17912
825.927	17832
826.067	17878
826.206	17813
826.346	17866
826.485	17927
826.625	17764
826.765	17931
826.904	17904
827.044	17615
827.183	17509
827.323	17509
827.462	17570
827.601	17452
827.741	17520
827.88	17501
828.02	17307
828.159	17558
828.298	17615
828.437	17646
828.577	17512
828.716	17661
828.855	17436
828.994	17318
829.134	17273
829.273	17261
829.412	17368
829.551	17315
829.69	17277
829.829	17360
829.968	17417
830.107	17288
830.246	17208
830.385	17216
830.524	17151
830.663	17086
830.802	16965
830.941	16904
831.08	16889
831.219	16911
831.357	16991
831.496	16995
831.635	16816
831.774	16774
831.913	16767
832.051	16683
832.19	16596
832.329	16683
832.467	16615
832.606	16527
832.744	16538
832.883	16409
833.022	16626
833.16	16577
833.299	16565
833.437	16622
833.576	16603
833.714	16573
833.852	16607
833.991	16653
834.129	16679
834.267	16694
834.406	16717
834.544	16653
834.682	16645
834.821	16558
834.959	16733
835.097	16569
835.235	16656
835.373	16641
835.511	16550
835.65	16580
835.788	16599
835.926	16382
836.064	16413
836.202	16337
836.34	16580
836.478	16592
836.615	16485
836.753	16516
836.891	16519
837.029	16584
837.167	16516
837.305	16398
837.443	16398
837.58	16226
837.718	16542
837.856	16455
837.993	16386
838.131	16348
838.269	16265
838.406	16314
838.544	16211
838.681	16086
838.819	16059
838.956	15861
839.094	15998
839.231	15987
839.369	16139
839.506	16356
839.643	16173
839.781	15865
839.918	15880
840.055	15838
840.193	15876
840.33	15975
840.467	15964
840.604	15926
840.742	16219
840.879	15804
841.016	15812
841.153	15857
841.29	16021
841.427	15991
841.564	15876
841.701	15937
841.838	15823
841.975	15774
842.112	15869
842.249	15720
842.385	15610
842.522	15827
842.659	15762
842.796	15701
842.933	15778
843.069	15614
843.206	15587
843.343	15766
843.479	15701
843.616	15690
843.752	15344
843.889	15458
844.025	15637
844.162	15389
844.298	15584
844.435	15481
844.571	15428
844.708	15549
844.844	15694
844.98	15690
845.117	15671
845.253	15439
845.389	15306
845.525	15374
845.661	15378
845.798	15214
845.934	15272
846.07	15256
846.206	15306
846.342	15454
846.478	15264
846.614	14975
846.75	14952
846.886	15005
847.022	15165
847.158	15097
847.294	14967
847.429	15119
847.565	14986
847.701	15249
847.837	14838
847.972	14705
848.108	14842
848.244	14891
848.379	14724
848.515	14617
848.65	14644
848.786	14667
848.921	14682
849.057	14750
849.192	14819
849.328	14659
849.463	14629
849.598	14522
849.734	14473
849.869	14495
850.004	14362
850.14	14503
850.275	14434
850.41	14393
850.545	14393
850.68	14336
850.815	14358
850.95	14419
851.085	14552
851.22	14442
851.355	14423
851.49	14389
851.625	14309
851.76	14404
851.895	14225
852.03	14275
852.165	14457
852.299	14434
852.434	14499
852.569	14381
852.703	14423
852.838	14533
852.973	14602
853.107	14583
853.242	14313
853.376	14301
853.511	14142
853.645	14183
853.78	14347
853.914	14389
854.048	14290
854.183	14252
854.317	14336
854.451	14488
854.585	14301
854.72	14271
854.854	14377
854.988	14180
855.122	14161
855.256	14164
855.39	14271
855.524	14347
855.658	14278
855.792	14347
855.926	14301
856.06	14366
856.194	14389
856.327	14328
856.461	14214
856.595	14199
856.729	14271
856.862	14366
856.996	14351
857.13	14358
857.263	14385
857.397	14381
857.53	14214
857.664	14396
857.797	14347
857.931	14423
858.064	14343
858.197	14298
858.331	14263
858.464	14233
858.597	14221
858.731	14290
858.864	14202
858.997	14225
859.13	14328
859.263	14313
859.396	14263
859.529	14313
859.662	14240
859.795	14210
859.928	14301
860.061	14366
860.194	14438
860.327	14328
860.46	14252
860.592	14355
860.725	14358
860.858	14389
860.99	14351
861.123	14168
861.256	14187
861.388	14202
861.521	14811
861.653	14138
861.786	14073
861.918	14058
862.05	14210
862.183	14343
862.315	14317
862.447	14256
862.58	14130
862.712	14069
862.844	14016
862.976	14084
863.108	14134
863.24	14374
863.372	13944
863.504	14115
863.636	14077
863.768	14027
863.9	14016
864.032	13951
864.164	14050
864.296	14054
864.428	14107
864.559	14214
864.691	14100
864.823	14138
864.954	14107
865.086	14077
865.217	14008
865.349	14031
865.48	14107
865.612	14103
865.743	14244
865.875	14039
866.006	13974
866.137	14043
866.269	14024
866.4	14103
866.531	13963
866.662	13978
866.793	14016
866.924	14012
867.055	14008
867.186	14058
867.317	14050
867.448	13959
867.579	13982
867.71	14069
867.841	13947
867.972	14035
868.103	13986
868.233	14035
868.364	14088
868.495	14024
868.625	14240
868.756	14370
868.886	14214
869.017	14233
869.147	14400
869.278	14408
869.408	14324
869.539	14370
869.669	14298
869.799	14309
869.929	14434
870.06	14442
870.19	14583
870.32	14526
870.45	14587
870.58	14716
870.71	14788
870.84	14872
870.97	14629
871.1	14697
871.23	14819
871.36	14963
871.489	14849
871.619	14819
871.749	14895
871.879	14876
872.008	14872
872.138	14876
872.267	14845
872.397	14625
872.526	14754
872.656	14659
872.785	14758
872.915	14899
873.044	15051
873.173	14883
873.303	14979
873.432	14986
873.561	14944
873.69	14937
873.819	14902
873.948	14979
874.077	15062
874.206	14876
874.335	14937
874.464	15070
874.593	15249
874.722	15135
874.851	15252
874.979	15294
875.108	15294
875.237	15169
875.365	15131
875.494	15283
875.623	15370
875.751	15184
875.88	15218
876.008	15336
876.136	15492
876.265	15671
876.393	15827
876.521	15747
876.65	15743
876.778	15770
876.906	15572
877.034	15576
877.162	15709
877.29	15576
877.418	15686
877.546	15701
877.674	15694
877.802	15618
877.93	15618
878.058	15580
878.185	15614
878.313	15641
878.441	15587
878.568	15519
878.696	15553
878.824	15728
878.951	15682
879.079	15774
879.206	15956
879.333	15880
879.461	15648
879.588	15793
879.715	15838
879.842	15994
879.97	15679
880.097	15496
880.224	15336
880.351	15534
880.478	15538
880.605	15519
880.732	15435
880.859	15709
880.986	15557
881.112	15580
881.239	15386
881.366	15264
881.493	15154
881.619	15077
881.746	15165
881.872	15127
881.999	15062
882.125	15100
882.252	15226
882.378	15161
882.505	15218
882.631	15108
882.757	15005
882.883	15131
883.01	15024
883.136	15001
883.262	14891
883.388	14883
883.514	15047
883.64	15028
883.766	14895
883.892	14842
884.018	14826
884.143	14963
884.269	15116
884.395	14785
884.52	14606
884.646	14663
884.772	14686
884.897	14651
885.023	14655
885.148	14800
885.274	14777
885.399	14727
885.524	14587
885.65	14689
885.775	14754
885.9	14727
886.025	14811
886.15	14720
886.275	14686
886.4	14541
886.525	14655
886.65	14613
886.775	14610
886.9	14746
887.025	14986
887.149	14617
887.274	14465
887.399	14514
887.523	14511
887.648	14469
887.773	14374
887.897	14621
888.021	14549
888.146	14454
888.27	14602
888.395	14674
888.519	14560
888.643	14549
888.767	14610
888.891	14480
889.015	14370
889.139	14339
889.263	14377
889.387	14419
889.511	14492
889.635	14552
889.759	14366
889.883	14412
890.006	14442
890.13	14442
890.254	14294
890.377	14434
890.501	14149
890.624	14100
890.748	14317
890.871	14100
890.995	14081
891.118	13917
891.241	14043
891.364	14119
891.488	14214
891.611	14046
891.734	14164
891.857	14107
891.98	14069
892.103	14081
892.226	14096
892.349	14054
892.471	13890
892.594	14092
892.717	14077
892.839	14111
892.962	13997
893.085	14191
893.207	14107
893.33	13989
893.452	14001
893.575	14039
893.697	14103
893.819	14263
893.941	14305
894.064	14221
894.186	14027
894.308	14092
894.43	14240
894.552	14313
894.674	14267
894.796	14016
894.918	14107
895.04	14126
895.161	14229
895.283	14138
895.405	14176
895.526	14183
895.648	14256
895.769	14278
895.891	14263
896.012	14393
896.134	14324
896.255	14328
896.376	14168
896.498	14298
896.619	14427
896.74	14164
896.861	14328
896.982	14629
897.103	14739
897.224	14537
897.345	14511
897.466	14393
897.587	14583
897.708	14564
897.828	14610
897.949	14511
898.07	14347
898.19	14537
898.311	14678
898.431	14560
898.552	14655
898.672	14613
898.792	14693
898.913	14667
899.033	14655
899.153	14590
899.273	14396
899.393	14495
899.513	14465
899.633	14610
899.753	14663
899.873	14412
899.993	14537
900.113	14412
900.232	14579
900.352	14476
900.472	14385
900.591	14282
900.711	14332
900.83	14275
900.95	14412
901.069	14427
901.189	14210
901.308	14138
901.427	14024
901.546	14005
901.665	14043
901.784	13944
901.904	13970
902.023	13795
902.141	13658
902.26	13548
902.379	13639
902.498	13578
902.617	13597
902.735	13700
902.854	13609
902.973	13540
903.091	13346
903.21	13343
903.328	13301
903.446	13285
903.565	13118
903.683	13183
903.801	13012
903.919	13110
904.038	13122
904.156	13000
904.274	13145
904.392	12928
904.51	12966
904.627	12928
904.745	13072
904.863	12985
904.981	12681
905.098	12627
905.216	12631
905.334	12669
905.451	12665
905.569	12559
905.686	12684
905.803	12639
905.921	12460
906.038	12555
906.155	12513
906.272	12357
906.389	12384
906.506	12258
906.623	12266
906.74	12213
906.857	12087
906.974	12216
907.091	12346
907.208	12369
907.324	12220
907.441	12155
907.557	12022
907.674	11954
907.79	11889
907.907	11939
908.023	12007
908.139	12003
908.256	11942
908.372	11935
908.488	11847
908.604	11710
908.72	11764
908.836	11775
908.952	11661
909.068	11745
909.184	11912
909.3	11771
909.415	11882
909.531	11805
909.647	11478
909.762	11516
909.878	11474
909.993	11539
910.108	11600
910.224	11414
910.339	11566
910.454	11474
910.57	11326
910.685	11337
910.8	11570
910.915	11581
911.03	11364
911.145	11334
911.259	11201
911.374	11208
911.489	11166
911.604	11098
911.718	10934
911.833	10911
911.947	10869
912.062	10824
912.176	10961
912.291	10957
912.405	10911
912.519	11204
912.633	11193
912.748	11037
912.862	10942
912.976	10809
913.09	10702
913.204	10771
913.318	10850
913.431	10942
913.545	10831
913.659	10946
913.772	10889
913.886	10801
914	10698
914.113	10873
914.226	10911
914.34	10774
914.453	10649
914.566	10858
914.68	10672
914.793	10755
914.906	10466
915.019	10394
915.132	10424
915.245	10424
915.358	10535
915.47	10527
915.583	10493
915.696	10523
915.809	10577
915.921	10538
916.034	10512
916.146	10417
916.259	10447
916.371	10535
916.483	10485
916.595	10352
916.708	10466
916.82	10375
916.932	10363
917.044	10440
917.156	10409
917.268	10253
917.38	10337
917.491	10238
917.603	10363
917.715	10386
917.826	10371
917.938	10306
918.049	10211
918.161	10276
918.272	10481
918.384	10447
918.495	10299
918.606	10188
918.717	10124
918.828	10200
918.939	10196
919.05	10116
919.161	10116
919.272	9991
919.383	10040
919.494	10158
919.604	10394
919.715	10261
919.826	10169
919.936	10177
920.047	10386
920.157	10188
920.267	10497
920.378	10268
920.488	10238
920.598	10314
920.708	10542
920.818	10360
920.928	10436
921.038	10569
921.148	10531
921.258	10230
921.368	10101
921.477	10150
921.587	10051
921.697	9895
921.806	10071
921.916	9994
922.025	9812
922.134	9755
922.244	9728
922.353	9846
922.462	9660
922.571	9614
922.68	9439
922.789	9401
922.898	9496
923.007	9420
923.116	9545
923.224	9450
923.333	9439
923.442	9302
923.55	9279
923.659	9348
923.767	9367
923.876	9310
923.984	9431
924.092	9275
924.201	9283
924.309	9321
924.417	9279
924.525	9245
924.633	9264
924.741	10086
924.849	9024
924.956	9249
925.064	9085
925.172	9047
925.279	9077
925.387	9093
925.494	9165
925.602	9253
925.709	9131
925.816	9039
925.924	9146
926.031	9188
926.138	9074
926.245	9112
926.352	9077
926.459	9180
926.566	9272
926.673	8986
926.779	9020
926.886	9020
926.993	8853
927.099	8762
927.206	8766
927.312	8796
927.419	8804
927.525	8868
927.631	8857
927.737	8762
927.843	8724
927.95	8644
928.056	8705
928.162	8716
928.267	8785
928.373	9435
928.479	8800
928.585	8556
928.69	8739
928.796	8766
928.901	8594
929.007	8499
929.112	8636
929.218	8610
929.323	8606
929.428	8587
929.533	8674
929.638	8530
929.743	8484
929.848	8575
929.953	8495
930.058	8526
930.163	8271
930.267	8290
930.372	8568
930.477	8332
930.581	8492
930.685	8381
930.79	8248
930.894	8275
930.998	8244
931.103	8339
931.207	8126
931.311	7993
931.415	7982
931.519	7765
931.623	7727
