Data from test_V78500241_2890.txt Node
Date: Fri Mar 25 14:53:50 CST 2022
User: usil
Spectrometer: V785-0024
Trigger mode: 0
Integration Time (sec): 4.000000E-1
Scans to average: 1
Nonlinearity correction enabled: false
Boxcar width: 0
Storing dark spectrum: false
XAxis mode: Wavelengths
Number of Pixels in Spectrum: 1024
>>>>>Begin Spectral Data<<<<<
801.071	22055
801.214	21918
801.356	21709
801.499	21709
801.641	21450
801.783	21462
801.926	21545
802.068	21355
802.211	21344
802.353	21256
802.496	20986
802.638	20883
802.78	20868
802.923	20902
803.065	20754
803.208	20667
803.35	20743
803.492	20811
803.635	20906
803.777	20724
803.919	20857
804.061	21096
804.204	20891
804.346	20765
804.488	20613
804.63	20716
804.773	20644
804.915	20724
805.057	20678
805.199	20735
805.341	20800
805.483	20758
805.626	20765
805.768	20552
805.91	20781
806.052	20781
806.194	20625
806.336	20758
806.478	20773
806.62	20587
806.762	20792
806.904	20883
807.046	21135
807.188	21051
807.33	21062
807.472	21017
807.614	20948
807.756	21051
807.898	20785
808.04	20712
808.182	20762
808.324	20800
808.465	20830
808.607	20925
808.749	21081
808.891	21173
809.033	21157
809.174	21089
809.316	21100
809.458	21001
809.6	20933
809.741	20990
809.883	21150
810.025	21336
810.166	21245
810.308	21237
810.45	21096
810.591	21047
810.733	20921
810.875	20918
811.016	20526
811.158	20655
811.299	20845
811.441	21001
811.582	20941
811.724	20937
811.865	20773
812.007	20765
812.148	20788
812.29	20899
812.431	20990
812.573	21211
812.714	21192
812.855	21321
812.997	21416
813.138	21523
813.279	21462
813.421	21344
813.562	21146
813.703	21165
813.845	21032
813.986	20769
814.127	20541
814.268	20457
814.41	20495
814.551	20415
814.692	20343
814.833	20183
814.974	20320
815.115	20313
815.256	20275
815.397	20313
815.539	20263
815.68	19986
815.821	20050
815.962	20008
816.103	20043
816.244	19868
816.385	19788
816.526	19841
816.666	19662
816.807	19552
816.948	19586
817.089	19609
817.23	19582
817.371	19552
817.512	19609
817.653	19464
817.793	19556
817.934	19491
818.075	19552
818.216	19529
818.356	19540
818.497	19362
818.638	19259
818.778	19118
818.919	19099
819.06	19236
819.2	19263
819.341	19362
819.481	19297
819.622	19559
819.762	19628
819.903	19651
820.043	19571
820.184	19559
820.324	19514
820.465	19514
820.605	19548
820.746	19518
820.886	19289
821.026	19476
821.167	19457
821.307	19460
821.447	19434
821.588	19198
821.728	19221
821.868	19118
822.008	18890
822.149	19012
822.289	18905
822.429	18646
822.569	18551
822.709	18498
822.849	18369
822.99	18403
823.13	18388
823.27	18273
823.41	18136
823.55	18163
823.69	18159
823.83	18182
823.97	18038
824.11	17999
824.25	17843
824.389	17999
824.529	18076
824.669	17958
824.809	18079
824.949	18057
825.089	18003
825.228	17969
825.368	17756
825.508	17726
825.648	17729
825.787	17779
825.927	17779
826.067	17695
826.206	17524
826.346	17786
826.485	17828
826.625	17684
826.765	17771
826.904	17733
827.044	17459
827.183	17337
827.323	17410
827.462	17501
827.601	17307
827.741	17322
827.88	17459
828.02	17299
828.159	17436
828.298	17421
828.437	17520
828.577	17379
828.716	17562
828.855	17364
828.994	17155
829.134	17242
829.273	17220
829.412	17098
829.551	17105
829.69	17200
829.829	17151
829.968	17265
830.107	17277
830.246	17220
830.385	17128
830.524	16976
830.663	16999
830.802	16881
830.941	16774
831.08	16736
831.219	16797
831.357	16831
831.496	16972
831.635	16721
831.774	16759
831.913	16698
832.051	16637
832.19	16523
832.329	16592
832.467	16531
832.606	16512
832.744	16508
832.883	16451
833.022	16432
833.16	16485
833.299	16405
833.437	16466
833.576	16618
833.714	16519
833.852	16554
833.991	16504
834.129	16618
834.267	16455
834.406	16592
834.544	16489
834.682	16466
834.821	16561
834.959	16824
835.097	16436
835.235	16485
835.373	16531
835.511	16592
835.65	16519
835.788	16413
835.926	16352
836.064	16314
836.202	16306
836.34	16363
836.478	16489
836.615	16363
836.753	16470
836.891	16538
837.029	16367
837.167	16436
837.305	16382
837.443	16280
837.58	16337
837.718	16379
837.856	16379
837.993	16204
838.131	16230
838.269	16150
838.406	16238
838.544	16147
838.681	15956
838.819	15964
838.956	15781
839.094	15793
839.231	15797
839.369	16021
839.506	16284
839.643	16071
839.781	15804
839.918	15778
840.055	15842
840.193	15739
840.33	15793
840.467	15865
840.604	15873
840.742	16109
840.879	15781
841.016	15671
841.153	15797
841.29	15949
841.427	15911
841.564	15857
841.701	15816
841.838	15876
841.975	15835
842.112	15781
842.249	15652
842.385	15701
842.522	15888
842.659	15663
842.796	15572
842.933	15572
843.069	15526
843.206	15610
843.343	15766
843.479	15568
843.616	15667
843.752	15469
843.889	15367
844.025	15439
844.162	15252
844.298	15469
844.435	15401
844.571	15287
844.708	15462
844.844	15530
844.98	15648
845.117	15462
845.253	15260
845.389	15302
845.525	15355
845.661	15344
845.798	15100
845.934	15226
846.07	15131
846.206	15214
846.342	15321
846.478	15245
846.614	15036
846.75	14921
846.886	14933
847.022	15043
847.158	15062
847.294	15028
847.429	15093
847.565	15043
847.701	15123
847.837	14701
847.972	14735
848.108	14807
848.244	14849
848.379	14617
848.515	14503
848.65	14579
848.786	14514
848.921	14587
849.057	14678
849.192	14686
849.328	14594
849.463	14689
849.598	14545
849.734	14446
849.869	14408
850.004	14343
850.14	14366
850.275	14358
850.41	14301
850.545	14259
850.68	14324
850.815	14336
850.95	14298
851.085	14389
851.22	14454
851.355	14476
851.49	14320
851.625	14317
851.76	14271
851.895	14130
852.03	14172
852.165	14275
852.299	14343
852.434	14419
852.569	14351
852.703	14408
852.838	14336
852.973	14480
853.107	14454
853.242	14362
853.376	14157
853.511	14149
853.645	14134
853.78	14332
853.914	14157
854.048	14142
854.183	14172
854.317	14237
854.451	14351
854.585	14237
854.72	14149
854.854	14256
854.988	14073
855.122	14282
855.256	14065
855.39	14240
855.524	14298
855.658	14218
855.792	14317
855.926	14237
856.06	14263
856.194	14282
856.327	14187
856.461	14157
856.595	14054
856.729	14298
856.862	14298
856.996	14221
857.13	14282
857.263	14290
857.397	14347
857.53	14252
857.664	14282
857.797	14263
857.931	14358
858.064	14225
858.197	14370
858.331	14168
858.464	14126
858.597	14100
858.731	14153
858.864	14142
858.997	14210
859.13	14164
859.263	14267
859.396	14248
859.529	14134
859.662	14191
859.795	14153
859.928	14206
860.061	14336
860.194	14298
860.327	14183
860.46	14252
860.592	14199
860.725	14377
860.858	14225
860.99	14244
861.123	14111
861.256	14161
861.388	14218
861.521	14883
861.653	14031
861.786	14001
861.918	14103
862.05	14100
862.183	14123
862.315	14126
862.447	14199
862.58	14210
862.712	14012
862.844	13852
862.976	13986
863.108	14027
863.24	14358
863.372	13925
863.504	13963
863.636	13997
863.768	14001
863.9	14031
864.032	13906
864.164	13951
864.296	14115
864.428	14020
864.559	14164
864.691	14035
864.823	14161
864.954	14024
865.086	14035
865.217	14012
865.349	13940
865.48	14035
865.612	13974
865.743	14073
865.875	13963
866.006	13883
866.137	13936
866.269	13982
866.4	13974
866.531	14039
866.662	13799
866.793	13818
866.924	13883
867.055	13993
867.186	14050
867.317	13955
867.448	13784
867.579	13982
867.71	13822
867.841	13830
867.972	13959
868.103	13909
868.233	13978
868.364	13868
868.495	14035
868.625	14119
868.756	14294
868.886	14187
869.017	14126
869.147	14343
869.278	14248
869.408	14267
869.539	14183
869.669	14244
869.799	14286
869.929	14355
870.06	14301
870.19	14503
870.32	14575
870.45	14651
870.58	14663
870.71	14727
870.84	14746
870.97	14594
871.1	14533
871.23	14819
871.36	14838
871.489	14697
871.619	14849
871.749	14849
871.879	14796
872.008	14872
872.138	14792
872.267	14788
872.397	14667
872.526	14655
872.656	14689
872.785	14621
872.915	14804
873.044	14823
873.173	14807
873.303	14887
873.432	14834
873.561	14834
873.69	14842
873.819	14857
873.948	14914
874.077	14864
874.206	14891
874.335	14887
874.464	14853
874.593	15184
874.722	15135
874.851	15150
874.979	15214
875.108	15195
875.237	15119
875.365	15043
875.494	15157
875.623	15237
875.751	15165
875.88	15195
876.008	15401
876.136	15306
876.265	15523
876.393	15789
876.521	15690
876.65	15759
876.778	15599
876.906	15652
877.034	15450
877.162	15610
877.29	15572
877.418	15591
877.546	15603
877.674	15538
877.802	15549
877.93	15515
878.058	15591
878.185	15534
878.313	15458
878.441	15660
878.568	15481
878.696	15507
878.824	15580
878.951	15660
879.079	15743
879.206	15892
879.333	15789
879.461	15637
879.588	15698
879.715	15789
879.842	15873
879.97	15675
880.097	15492
880.224	15389
880.351	15412
880.478	15370
880.605	15351
880.732	15420
880.859	15671
880.986	15542
881.112	15534
881.239	15264
881.366	15150
881.493	15127
881.619	15058
881.746	15256
881.872	15085
881.999	15089
882.125	15024
882.252	15203
882.378	15146
882.505	15378
882.631	14994
882.757	14929
882.883	14960
883.01	14986
883.136	14857
883.262	14788
883.388	14731
883.514	14971
883.64	14963
883.766	14762
883.892	14731
884.018	14830
884.143	14960
884.269	14975
884.395	14754
884.52	14644
884.646	14663
884.772	14549
884.897	14583
885.023	14571
885.148	14678
885.274	14762
885.399	14758
885.524	14644
885.65	14625
885.775	14621
885.9	14575
886.025	14769
886.15	14693
886.275	14632
886.4	14571
886.525	14587
886.65	14522
886.775	14549
886.9	14655
887.025	14864
887.149	14575
887.274	14393
887.399	14366
887.523	14389
887.648	14339
887.773	14275
887.897	14438
888.021	14480
888.146	14366
888.27	14522
888.395	14533
888.519	14575
888.643	14552
888.767	14522
888.891	14370
889.015	14301
889.139	14358
889.263	14294
889.387	14492
889.511	14518
889.635	14488
889.759	14324
889.883	14278
890.006	14355
890.13	14355
890.254	14168
890.377	14305
890.501	14081
890.624	14180
890.748	14271
890.871	14027
890.995	14005
891.118	13947
891.241	14062
891.364	13928
891.488	14123
891.611	14008
891.734	14008
891.857	14153
891.98	13947
892.103	14115
892.226	14062
892.349	13936
892.471	13860
892.594	14031
892.717	14005
892.839	14050
892.962	14020
893.085	13989
893.207	14054
893.33	13871
893.452	13898
893.575	14107
893.697	14027
893.819	14252
893.941	14180
894.064	14134
894.186	14012
894.308	14020
894.43	14069
894.552	14187
894.674	14096
894.796	14012
894.918	13986
895.04	13986
895.161	14100
895.283	14161
895.405	14058
895.526	14123
895.648	14130
895.769	14084
895.891	14324
896.012	14278
896.134	14240
896.255	14244
896.376	14168
896.498	14145
896.619	14263
896.74	14202
896.861	14305
896.982	14503
897.103	14689
897.224	14465
897.345	14533
897.466	14476
897.587	14495
897.708	14575
897.828	14488
897.949	14438
898.07	14282
898.19	14484
898.311	14594
898.431	14461
898.552	14575
898.672	14568
898.792	14610
898.913	14579
899.033	14484
899.153	14408
899.273	14377
899.393	14248
899.513	14427
899.633	14438
899.753	14457
899.873	14343
899.993	14484
900.113	14347
900.232	14469
900.352	14351
900.472	14362
900.591	14218
900.711	14324
900.83	14237
900.95	14328
901.069	14351
901.189	14218
901.308	14096
901.427	13989
901.546	13928
901.665	14027
901.784	13936
901.904	13734
902.023	13803
902.141	13708
902.26	13548
902.379	13567
902.498	13502
902.617	13491
902.735	13624
902.854	13556
902.973	13449
903.091	13244
903.21	13228
903.328	13263
903.446	13225
903.565	13133
903.683	13076
903.801	12913
903.919	13122
904.038	13088
904.156	12840
904.274	12966
904.392	12977
904.51	12943
904.627	12840
904.745	12909
904.863	13015
904.981	12703
905.098	12540
905.216	12559
905.334	12688
905.451	12601
905.569	12601
905.686	12585
905.803	12654
905.921	12410
906.038	12566
906.155	12399
906.272	12361
906.389	12311
906.506	12270
906.623	12171
906.74	12186
906.857	12125
906.974	12136
907.091	12311
907.208	12403
907.324	12186
907.441	12117
907.557	11988
907.674	11950
907.79	11878
907.907	11939
908.023	11961
908.139	11973
908.256	11904
908.372	11885
908.488	11775
908.604	11783
908.72	11630
908.836	11703
908.952	11661
909.068	11824
909.184	11741
909.3	11745
909.415	11771
909.531	11760
909.647	11455
909.762	11448
909.878	11463
909.993	11501
910.108	11516
910.224	11493
910.339	11448
910.454	11337
910.57	11315
910.685	11258
910.8	11596
910.915	11512
911.03	11334
911.145	11216
911.259	11197
911.374	11181
911.489	11083
911.604	11060
911.718	10930
911.833	10923
911.947	10816
912.062	10801
912.176	10957
912.291	10991
912.405	10854
912.519	11098
912.633	11132
912.748	11033
912.862	10953
912.976	10831
913.09	10748
913.204	10721
913.318	10885
913.431	10934
913.545	10866
913.659	10866
913.772	10839
913.886	10660
914	10664
914.113	10763
914.226	10892
914.34	10816
914.453	10615
914.566	10828
914.68	10596
914.793	10596
914.906	10512
915.019	10424
915.132	10424
915.245	10375
915.358	10421
915.47	10485
915.583	10455
915.696	10489
915.809	10615
915.921	10554
916.034	10360
916.146	10405
916.259	10325
916.371	10447
916.483	10421
916.595	10325
916.708	10455
916.82	10379
916.932	10348
917.044	10386
917.156	10249
917.268	10230
917.38	10287
917.491	10318
917.603	10261
917.715	10295
917.826	10337
917.938	10215
918.049	10158
918.161	10352
918.272	10394
918.384	10356
918.495	10249
918.606	10139
918.717	10082
918.828	10177
918.939	10177
919.05	10044
919.161	10173
919.272	9960
919.383	10017
919.494	10215
919.604	10325
919.715	10169
919.826	10074
919.936	10124
920.047	10223
920.157	10169
920.267	10379
920.378	10181
920.488	10150
920.598	10295
920.708	10538
920.818	10356
920.928	10310
921.038	10577
921.148	10481
921.258	10200
921.368	10112
921.477	10040
921.587	10032
921.697	9895
921.806	10010
921.916	9945
922.025	9781
922.134	9755
922.244	9743
922.353	9869
922.462	9625
922.571	9488
922.68	9458
922.789	9454
922.898	9428
923.007	9363
923.116	9515
923.224	9393
923.333	9424
923.442	9340
923.55	9348
923.659	9283
923.767	9397
923.876	9291
923.984	9332
924.092	9241
924.201	9367
924.309	9306
924.417	9260
924.525	9241
924.633	9279
924.741	10234
924.849	9001
924.956	9253
925.064	9058
925.172	9005
925.279	9116
925.387	9062
925.494	9097
925.602	9264
925.709	9203
925.816	9005
925.924	9005
926.031	9154
926.138	9100
926.245	9176
926.352	9013
926.459	9173
926.566	9222
926.673	9043
926.779	8929
926.886	8929
926.993	8845
927.099	8762
927.206	8785
927.312	8708
927.419	8872
927.525	8826
927.631	8815
927.737	8743
927.843	8705
927.95	8556
928.056	8629
928.162	8762
928.267	8754
928.373	9325
928.479	8811
928.585	8587
928.69	8583
928.796	8743
928.901	8629
929.007	8434
929.112	8522
929.218	8629
929.323	8507
929.428	8526
929.533	8674
929.638	8495
929.743	8438
929.848	8602
929.953	8522
930.058	8412
930.163	8309
930.267	8366
930.372	8404
930.477	8275
930.581	8568
930.685	8431
930.79	8229
930.894	8275
930.998	8229
931.103	8374
931.207	8046
931.311	7974
931.415	7944
931.519	7769
931.623	7719
