Data from test_V78500241_2616.txt Node
Date: Fri Mar 25 14:51:55 CST 2022
User: usil
Spectrometer: V785-0024
Trigger mode: 0
Integration Time (sec): 4.000000E-1
Scans to average: 1
Nonlinearity correction enabled: false
Boxcar width: 0
Storing dark spectrum: false
XAxis mode: Wavelengths
Number of Pixels in Spectrum: 1024
>>>>>Begin Spectral Data<<<<<
801.071	22063
801.214	21888
801.356	21713
801.499	21576
801.641	21469
801.783	21412
801.926	21412
802.068	21386
802.211	21298
802.353	21123
802.496	20830
802.638	21013
802.78	20853
802.923	20807
803.065	20579
803.208	20796
803.35	20705
803.492	20773
803.635	20883
803.777	20773
803.919	20762
804.061	20963
804.204	20746
804.346	20549
804.488	20609
804.63	20667
804.773	20503
804.915	20583
805.057	20777
805.199	20648
805.341	20556
805.483	20781
805.626	20689
805.768	20621
805.91	20522
806.052	20636
806.194	20549
806.336	20674
806.478	20473
806.62	20545
806.762	20689
806.904	20724
807.046	21058
807.188	21070
807.33	20956
807.472	21005
807.614	20899
807.756	20800
807.898	20777
808.04	20648
808.182	20644
808.324	20716
808.465	20746
808.607	20750
808.749	21020
808.891	20960
809.033	21188
809.174	21043
809.316	20891
809.458	20941
809.6	20895
809.741	20986
809.883	20994
810.025	21142
810.166	21051
810.308	21169
810.45	21085
810.591	21001
810.733	20933
810.875	20724
811.016	20678
811.158	20579
811.299	20914
811.441	20842
811.582	20918
811.724	20743
811.865	20716
812.007	20575
812.148	20731
812.29	20861
812.431	20876
812.573	21024
812.714	21207
812.855	21283
812.997	21450
813.138	21428
813.279	21351
813.421	21165
813.562	21154
813.703	20963
813.845	20948
813.986	20655
814.127	20473
814.268	20324
814.41	20290
814.551	20290
814.692	20355
814.833	20199
814.974	20248
815.115	20305
815.256	20115
815.397	20233
815.539	20195
815.68	19967
815.821	19974
815.962	19909
816.103	19947
816.244	19830
816.385	19845
816.526	19826
816.666	19613
816.807	19369
816.948	19472
817.089	19605
817.23	19483
817.371	19377
817.512	19373
817.653	19407
817.793	19285
817.934	19403
818.075	19407
818.216	19365
818.356	19362
818.497	19343
818.638	19099
818.778	19126
818.919	19084
819.06	19122
819.2	19247
819.341	19244
819.481	19225
819.622	19449
819.762	19594
819.903	19590
820.043	19460
820.184	19411
820.324	19426
820.465	19483
820.605	19434
820.746	19335
820.886	19297
821.026	19407
821.167	19373
821.307	19468
821.447	19335
821.588	19308
821.728	19110
821.868	19118
822.008	18829
822.149	18890
822.289	18833
822.429	18483
822.569	18483
822.709	18441
822.849	18266
822.99	18315
823.13	18174
823.27	18232
823.41	18076
823.55	18053
823.69	18171
823.83	18007
823.97	18114
824.11	17920
824.25	17821
824.389	17859
824.529	17904
824.669	17935
824.809	17939
824.949	17973
825.089	17969
825.228	17897
825.368	17577
825.508	17687
825.648	17729
825.787	17672
825.927	17665
826.067	17581
826.206	17505
826.346	17638
826.485	17714
826.625	17619
826.765	17741
826.904	17726
827.044	17551
827.183	17406
827.323	17349
827.462	17433
827.601	17345
827.741	17410
827.88	17391
828.02	17307
828.159	17421
828.298	17383
828.437	17349
828.577	17353
828.716	17493
828.855	17429
828.994	17223
829.134	17204
829.273	17162
829.412	16980
829.551	17025
829.69	17117
829.829	17121
829.968	17223
830.107	17178
830.246	17094
830.385	16984
830.524	17060
830.663	17029
830.802	16877
830.941	16752
831.08	16702
831.219	16793
831.357	16771
831.496	16908
831.635	16843
831.774	16744
831.913	16573
832.051	16573
832.19	16569
832.329	16603
832.467	16447
832.606	16500
832.744	16428
832.883	16352
833.022	16428
833.16	16394
833.299	16489
833.437	16398
833.576	16371
833.714	16451
833.852	16478
833.991	16504
834.129	16584
834.267	16546
834.406	16527
834.544	16485
834.682	16527
834.821	16470
834.959	16577
835.097	16485
835.235	16615
835.373	16504
835.511	16508
835.65	16363
835.788	16455
835.926	16382
836.064	16207
836.202	16234
836.34	16478
836.478	16489
836.615	16375
836.753	16474
836.891	16493
837.029	16424
837.167	16303
837.305	16291
837.443	16363
837.58	16276
837.718	16280
837.856	16360
837.993	16276
838.131	16211
838.269	16116
838.406	16223
838.544	16109
838.681	15930
838.819	16071
838.956	15778
839.094	15850
839.231	15846
839.369	15930
839.506	16238
839.643	16154
839.781	15869
839.918	15823
840.055	15842
840.193	15762
840.33	15831
840.467	15831
840.604	15857
840.742	16150
840.879	15720
841.016	15732
841.153	15732
841.29	15930
841.427	15800
841.564	15804
841.701	15892
841.838	15751
841.975	15717
842.112	15827
842.249	15629
842.385	15584
842.522	15831
842.659	15698
842.796	15584
842.933	15618
843.069	15553
843.206	15637
843.343	15694
843.479	15580
843.616	15591
843.752	15401
843.889	15397
844.025	15599
844.162	15382
844.298	15584
844.435	15340
844.571	15355
844.708	15382
844.844	15580
844.98	15519
845.117	15542
845.253	15287
845.389	15283
845.525	15367
845.661	15283
845.798	15161
845.934	15275
846.07	15184
846.206	15188
846.342	15317
846.478	15116
846.614	14986
846.75	14864
846.886	14960
847.022	15058
847.158	15001
847.294	14952
847.429	15070
847.565	14937
847.701	15268
847.837	14785
847.972	14682
848.108	14895
848.244	14845
848.379	14583
848.515	14571
848.65	14526
848.786	14522
848.921	14533
849.057	14667
849.192	14640
849.328	14655
849.463	14568
849.598	14575
849.734	14442
849.869	14423
850.004	14400
850.14	14404
850.275	14381
850.41	14267
850.545	14240
850.68	14301
850.815	14298
850.95	14343
851.085	14533
851.22	14499
851.355	14339
851.49	14324
851.625	14324
851.76	14313
851.895	14248
852.03	14240
852.165	14339
852.299	14290
852.434	14400
852.569	14324
852.703	14343
852.838	14374
852.973	14473
853.107	14488
853.242	14317
853.376	14210
853.511	14157
853.645	14153
853.78	14301
853.914	14320
854.048	14206
854.183	14252
854.317	14195
854.451	14351
854.585	14157
854.72	14172
854.854	14317
854.988	14130
855.122	14126
855.256	14050
855.39	14130
855.524	14298
855.658	14324
855.792	14240
855.926	14221
856.06	14320
856.194	14195
856.327	14164
856.461	14065
856.595	14046
856.729	14290
856.862	14370
856.996	14214
857.13	14256
857.263	14328
857.397	14377
857.53	14278
857.664	14183
857.797	14301
857.931	14332
858.064	14328
858.197	14385
858.331	14221
858.464	14206
858.597	14145
858.731	14180
858.864	14233
858.997	14294
859.13	14259
859.263	14294
859.396	14317
859.529	14153
859.662	14221
859.795	14214
859.928	14199
860.061	14381
860.194	14385
860.327	14248
860.46	14221
860.592	14370
860.725	14343
860.858	14278
860.99	14278
861.123	14126
861.256	14157
861.388	14324
861.521	14845
861.653	14130
861.786	14054
861.918	14050
862.05	14157
862.183	14195
862.315	14263
862.447	14320
862.58	14084
862.712	14039
862.844	13982
862.976	14031
863.108	14054
863.24	14541
863.372	13913
863.504	14001
863.636	14031
863.768	14043
863.9	13955
864.032	13947
864.164	14039
864.296	14035
864.428	14107
864.559	14069
864.691	14096
864.823	14115
864.954	14035
865.086	14016
865.217	13940
865.349	13928
865.48	13974
865.612	13986
865.743	14065
865.875	14035
866.006	13898
866.137	13989
866.269	13967
866.4	13967
866.531	13936
866.662	13875
866.793	13906
866.924	13955
867.055	14005
867.186	14005
867.317	13997
867.448	13883
867.579	13963
867.71	13902
867.841	13890
867.972	13986
868.103	13959
868.233	13986
868.364	13951
868.495	13986
868.625	14191
868.756	14317
868.886	14134
869.017	14218
869.147	14317
869.278	14332
869.408	14237
869.539	14149
869.669	14370
869.799	14385
869.929	14248
870.06	14336
870.19	14465
870.32	14484
870.45	14579
870.58	14617
870.71	14727
870.84	14659
870.97	14552
871.1	14568
871.23	14750
871.36	14815
871.489	14823
871.619	14762
871.749	14823
871.879	14838
872.008	14914
872.138	14891
872.267	14933
872.397	14727
872.526	14670
872.656	14640
872.785	14689
872.915	14899
873.044	14895
873.173	14872
873.303	14857
873.432	14868
873.561	15013
873.69	14880
873.819	14967
873.948	15051
874.077	14918
874.206	14868
874.335	14853
874.464	15009
874.593	15157
874.722	15127
874.851	15165
874.979	15233
875.108	15306
875.237	15184
875.365	15127
875.494	15112
875.623	15317
875.751	15245
875.88	15249
876.008	15351
876.136	15420
876.265	15618
876.393	15751
876.521	15652
876.65	15717
876.778	15618
876.906	15622
877.034	15500
877.162	15523
877.29	15530
877.418	15530
877.546	15629
877.674	15599
877.802	15625
877.93	15648
878.058	15568
878.185	15500
878.313	15572
878.441	15682
878.568	15428
878.696	15504
878.824	15610
878.951	15656
879.079	15793
879.206	15991
879.333	15785
879.461	15770
879.588	15709
879.715	15755
879.842	15785
879.97	15690
880.097	15553
880.224	15447
880.351	15481
880.478	15553
880.605	15450
880.732	15485
880.859	15720
880.986	15507
881.112	15481
881.239	15374
881.366	15222
881.493	15100
881.619	15051
881.746	15169
881.872	14986
881.999	15119
882.125	15116
882.252	15074
882.378	15135
882.505	15298
882.631	15142
882.757	14933
882.883	14937
883.01	14902
883.136	14906
883.262	14857
883.388	14754
883.514	14952
883.64	14906
883.766	14777
883.892	14735
884.018	14781
884.143	14899
884.269	15047
884.395	14663
884.52	14625
884.646	14610
884.772	14541
884.897	14583
885.023	14590
885.148	14697
885.274	14842
885.399	14769
885.524	14598
885.65	14682
885.775	14785
885.9	14594
886.025	14811
886.15	14743
886.275	14457
886.4	14549
886.525	14602
886.65	14518
886.775	14530
886.9	14758
887.025	14815
887.149	14575
887.274	14526
887.399	14514
887.523	14396
887.648	14446
887.773	14446
887.897	14499
888.021	14545
888.146	14400
888.27	14552
888.395	14617
888.519	14530
888.643	14514
888.767	14492
888.891	14427
889.015	14324
889.139	14294
889.263	14240
889.387	14423
889.511	14473
889.635	14450
889.759	14362
889.883	14320
890.006	14374
890.13	14400
890.254	14248
890.377	14343
890.501	14161
890.624	14088
890.748	14180
890.871	14092
890.995	13970
891.118	13967
891.241	14111
891.364	14046
891.488	14164
891.611	14012
891.734	14134
891.857	14035
891.98	14065
892.103	14130
892.226	14084
892.349	14001
892.471	13921
892.594	14005
892.717	14020
892.839	13970
892.962	14065
893.085	14111
893.207	14084
893.33	13925
893.452	13932
893.575	14027
893.697	14123
893.819	14229
893.941	14252
894.064	14138
894.186	14020
894.308	14077
894.43	14126
894.552	14256
894.674	14107
894.796	14043
894.918	14065
895.04	14153
895.161	14161
895.283	14202
895.405	14084
895.526	14103
895.648	14149
895.769	14088
895.891	14183
896.012	14271
896.134	14271
896.255	14183
896.376	14168
896.498	14202
896.619	14153
896.74	14210
896.861	14256
896.982	14507
897.103	14773
897.224	14499
897.345	14438
897.466	14419
897.587	14423
897.708	14678
897.828	14503
897.949	14370
898.07	14404
898.19	14480
898.311	14640
898.431	14552
898.552	14632
898.672	14693
898.792	14644
898.913	14549
899.033	14480
899.153	14492
899.273	14381
899.393	14343
899.513	14488
899.633	14301
899.753	14423
899.873	14366
899.993	14484
900.113	14412
900.232	14469
900.352	14328
900.472	14355
900.591	14259
900.711	14343
900.83	14278
900.95	14294
901.069	14381
901.189	14240
901.308	14054
901.427	13833
901.546	13883
901.665	13967
901.784	13947
901.904	13795
902.023	13769
902.141	13601
902.26	13506
902.379	13620
902.498	13518
902.617	13495
902.735	13514
902.854	13480
902.973	13487
903.091	13232
903.21	13198
903.328	13331
903.446	13175
903.565	13084
903.683	13103
903.801	12973
903.919	13069
904.038	13088
904.156	12916
904.274	12966
904.392	12932
904.51	12913
904.627	12916
904.745	12943
904.863	13034
904.981	12715
905.098	12688
905.216	12646
905.334	12612
905.451	12703
905.569	12547
905.686	12635
905.803	12593
905.921	12532
906.038	12604
906.155	12498
906.272	12407
906.389	12365
906.506	12163
906.623	12239
906.74	12220
906.857	12155
906.974	12045
907.091	12376
907.208	12327
907.324	12243
907.441	12213
907.557	12011
907.674	12026
907.79	11904
907.907	11988
908.023	12019
908.139	11973
908.256	11836
908.372	11855
908.488	11855
908.604	11843
908.72	11699
908.836	11764
908.952	11760
909.068	11840
909.184	11912
909.3	11722
909.415	11813
909.531	11661
909.647	11482
909.762	11520
909.878	11528
909.993	11562
910.108	11482
910.224	11528
910.339	11535
910.454	11376
910.57	11410
910.685	11284
910.8	11585
910.915	11471
911.03	11383
911.145	11170
911.259	11128
911.374	11258
911.489	11098
911.604	11102
911.718	11022
911.833	11033
911.947	10873
912.062	10820
912.176	10968
912.291	10999
912.405	10930
912.519	11159
912.633	11197
912.748	11086
912.862	10991
912.976	10835
913.09	10774
913.204	10786
913.318	10927
913.431	10999
913.545	10968
913.659	10923
913.772	10755
913.886	10835
914	10710
914.113	10797
914.226	10835
914.34	10877
914.453	10668
914.566	10923
914.68	10706
914.793	10679
914.906	10508
915.019	10462
915.132	10375
915.245	10462
915.358	10512
915.47	10542
915.583	10542
915.696	10542
915.809	10630
915.921	10664
916.034	10519
916.146	10424
916.259	10432
916.371	10542
916.483	10580
916.595	10402
916.708	10405
916.82	10455
916.932	10333
917.044	10398
917.156	10356
917.268	10200
917.38	10325
917.491	10276
917.603	10325
917.715	10394
917.826	10447
917.938	10337
918.049	10181
918.161	10322
918.272	10436
918.384	10390
918.495	10382
918.606	10204
918.717	10143
918.828	10188
918.939	10204
919.05	10071
919.161	10192
919.272	9972
919.383	10177
919.494	10249
919.604	10451
919.715	10234
919.826	10143
919.936	10204
920.047	10242
920.157	10173
920.267	10379
920.378	10310
920.488	10215
920.598	10432
920.708	10607
920.818	10516
920.928	10360
921.038	10550
921.148	10485
921.258	10329
921.368	10207
921.477	9994
921.587	10086
921.697	9941
921.806	10044
921.916	9941
922.025	9800
922.134	9819
922.244	9728
922.353	9869
922.462	9633
922.571	9625
922.68	9515
922.789	9424
922.898	9450
923.007	9500
923.116	9481
923.224	9504
923.333	9424
923.442	9420
923.55	9306
923.659	9424
923.767	9378
923.876	9260
923.984	9374
924.092	9279
924.201	9378
924.309	9363
924.417	9313
924.525	9283
924.633	9374
924.741	9987
924.849	9077
924.956	9207
925.064	9100
925.172	9005
925.279	9066
925.387	9154
925.494	9093
925.602	9253
925.709	9203
925.816	9093
925.924	9123
926.031	9161
926.138	9131
926.245	9173
926.352	9100
926.459	9165
926.566	9211
926.673	9020
926.779	9001
926.886	9013
926.993	8941
927.099	8796
927.206	8864
927.312	8845
927.419	8918
927.525	8842
927.631	8811
927.737	8743
927.843	8727
927.95	8629
928.056	8735
928.162	8781
928.267	8823
928.373	9481
928.479	8910
928.585	8632
928.69	8727
928.796	8739
928.901	8640
929.007	8533
929.112	8621
929.218	8674
929.323	8610
929.428	8514
929.533	8712
929.638	8499
929.743	8568
929.848	8594
929.953	8579
930.058	8431
930.163	8263
930.267	8336
930.372	8473
930.477	8351
930.581	8454
930.685	8442
930.79	8176
930.894	8244
930.998	8244
931.103	8454
931.207	8008
931.311	8016
931.415	7890
931.519	7753
931.623	7765
