Data from test_V78500241_1392.txt Node
Date: Fri Mar 25 14:43:24 CST 2022
User: usil
Spectrometer: V785-0024
Trigger mode: 0
Integration Time (sec): 4.000000E-1
Scans to average: 1
Nonlinearity correction enabled: false
Boxcar width: 0
Storing dark spectrum: false
XAxis mode: Wavelengths
Number of Pixels in Spectrum: 1024
>>>>>Begin Spectral Data<<<<<
801.071	22398
801.214	22303
801.356	22109
801.499	22017
801.641	21953
801.783	21797
801.926	21736
802.068	21618
802.211	21583
802.353	21667
802.496	21291
802.638	21283
802.78	21310
802.923	21146
803.065	21020
803.208	21039
803.35	21116
803.492	21256
803.635	21245
803.777	21203
803.919	21192
804.061	21401
804.204	21192
804.346	21024
804.488	20994
804.63	21089
804.773	20864
804.915	21047
805.057	21249
805.199	21055
805.341	21116
805.483	21203
805.626	21116
805.768	21055
805.91	21096
806.052	21108
806.194	21020
806.336	21195
806.478	21123
806.62	21096
806.762	21074
806.904	21249
807.046	21473
807.188	21435
807.33	21401
807.472	21568
807.614	21332
807.756	21317
807.898	21310
808.04	21226
808.182	21291
808.324	21252
808.465	21447
808.607	21523
808.749	21724
808.891	21827
809.033	21778
809.174	21686
809.316	21686
809.458	21603
809.6	21435
809.741	21679
809.883	21534
810.025	21720
810.166	21724
810.308	21648
810.45	21454
810.591	21580
810.733	21294
810.875	21279
811.016	21218
811.158	21062
811.299	21389
811.441	21523
811.582	21363
811.724	21264
811.865	21100
812.007	21230
812.148	21195
812.29	21325
812.431	21485
812.573	21447
812.714	21583
812.855	21842
812.997	21812
813.138	21838
813.279	21911
813.421	21755
813.562	21625
813.703	21466
813.845	21466
813.986	21195
814.127	20952
814.268	20864
814.41	20880
814.551	20727
814.692	20762
814.833	20868
814.974	20705
815.115	20811
815.256	20644
815.397	20571
815.539	20674
815.68	20495
815.821	20461
815.962	20549
816.103	20469
816.244	20343
816.385	20324
816.526	20180
816.666	20092
816.807	19978
816.948	20088
817.089	19978
817.23	20046
817.371	19906
817.512	19913
817.653	19928
817.793	19925
817.934	19928
818.075	19822
818.216	19932
818.356	19849
818.497	19772
818.638	19556
818.778	19677
818.919	19544
819.06	19616
819.2	19757
819.341	19784
819.481	19738
819.622	19986
819.762	20088
819.903	20058
820.043	20024
820.184	19837
820.324	19951
820.465	19978
820.605	19928
820.746	19818
820.886	19807
821.026	19955
821.167	19814
821.307	19921
821.447	19856
821.588	19708
821.728	19651
821.868	19392
822.008	19217
822.149	19217
822.289	19327
822.429	19080
822.569	18958
822.709	19031
822.849	18806
822.99	18787
823.13	18783
823.27	18734
823.41	18745
823.55	18540
823.69	18574
823.83	18589
823.97	18555
824.11	18361
824.25	18330
824.389	18262
824.529	18494
824.669	18361
824.809	18517
824.949	18350
825.089	18395
825.228	18429
825.368	18152
825.508	18129
825.648	18224
825.787	18251
825.927	18258
826.067	18053
826.206	18106
826.346	18194
826.485	18114
826.625	18171
826.765	18273
826.904	18182
827.044	17984
827.183	17870
827.323	17942
827.462	17927
827.601	17805
827.741	17802
827.88	17783
828.02	17726
828.159	17802
828.298	17771
828.437	17870
828.577	17931
828.716	17908
828.855	17866
828.994	17649
829.134	17623
829.273	17638
829.412	17615
829.551	17573
829.69	17501
829.829	17608
829.968	17707
830.107	17684
830.246	17691
830.385	17661
830.524	17570
830.663	17376
830.802	17356
830.941	17235
831.08	17292
831.219	17372
831.357	17318
831.496	17429
831.635	17208
831.774	17090
831.913	17216
832.051	17006
832.19	17010
832.329	17037
832.467	16908
832.606	16953
832.744	16904
832.883	16904
833.022	16900
833.16	16858
833.299	16847
833.437	17064
833.576	16961
833.714	17041
833.852	16984
833.991	17045
834.129	17083
834.267	17022
834.406	17033
834.544	16900
834.682	17098
834.821	16991
834.959	17071
835.097	16965
835.235	17045
835.373	16991
835.511	16972
835.65	16854
835.788	16904
835.926	16767
836.064	16702
836.202	16706
836.34	16938
836.478	17060
836.615	16866
836.753	16786
836.891	16972
837.029	16919
837.167	16892
837.305	16843
837.443	16740
837.58	16710
837.718	16713
837.856	16767
837.993	16626
838.131	16748
838.269	16672
838.406	16668
838.544	16546
838.681	16421
838.819	16470
838.956	16272
839.094	16238
839.231	16333
839.369	16379
839.506	16603
839.643	16554
839.781	16379
839.918	16078
840.055	16291
840.193	16341
840.33	16280
840.467	16226
840.604	16341
840.742	16588
840.879	16097
841.016	16207
841.153	16147
841.29	16409
841.427	16188
841.564	16363
841.701	16230
841.838	16284
841.975	16128
842.112	16181
842.249	16044
842.385	15994
842.522	16192
842.659	16093
842.796	16025
842.933	15972
843.069	16040
843.206	15994
843.343	16032
843.479	16036
843.616	16131
843.752	15774
843.889	15732
844.025	16124
844.162	15762
844.298	15941
844.435	15831
844.571	15800
844.708	15918
844.844	16036
844.98	15911
845.117	16010
845.253	15854
845.389	15751
845.525	15759
845.661	15915
845.798	15827
845.934	15998
846.07	15899
846.206	15930
846.342	15983
846.478	15869
846.614	15584
846.75	15401
846.886	15492
847.022	15481
847.158	15401
847.294	15374
847.429	15481
847.565	15473
847.701	15644
847.837	15203
847.972	15047
848.108	15207
848.244	15211
848.379	14933
848.515	15097
848.65	15009
848.786	15024
848.921	15036
849.057	15116
849.192	15123
849.328	15043
849.463	15009
849.598	14990
849.734	14925
849.869	14891
850.004	14857
850.14	14834
850.275	14769
850.41	14697
850.545	14636
850.68	14644
850.815	14663
850.95	14739
851.085	14910
851.22	14876
851.355	14678
851.49	14800
851.625	14724
851.76	14739
851.895	14686
852.03	14712
852.165	14765
852.299	14804
852.434	14811
852.569	14785
852.703	14830
852.838	14864
852.973	14937
853.107	14952
853.242	14792
853.376	14754
853.511	14594
853.645	14571
853.78	14853
853.914	14636
854.048	14640
854.183	14556
854.317	14568
854.451	14842
854.585	14663
854.72	14712
854.854	14659
854.988	14522
855.122	14537
855.256	14473
855.39	14541
855.524	14610
855.658	14693
855.792	14636
855.926	14720
856.06	14731
856.194	14800
856.327	14549
856.461	14648
856.595	14583
856.729	14625
856.862	14731
856.996	14712
857.13	14777
857.263	14765
857.397	14716
857.53	14705
857.664	14746
857.797	14686
857.931	14785
858.064	14674
858.197	14659
858.331	14579
858.464	14682
858.597	14545
858.731	14610
858.864	14598
858.997	14636
859.13	14613
859.263	14731
859.396	14788
859.529	14655
859.662	14552
859.795	14625
859.928	14716
860.061	14769
860.194	14781
860.327	14518
860.46	14682
860.592	14746
860.725	14769
860.858	14727
860.99	14617
861.123	14514
861.256	14610
861.388	14659
861.521	15275
861.653	14480
861.786	14526
861.918	14476
862.05	14507
862.183	14564
862.315	14644
862.447	14545
862.58	14610
862.712	14351
862.844	14419
862.976	14473
863.108	14533
863.24	14929
863.372	14328
863.504	14415
863.636	14431
863.768	14473
863.9	14396
864.032	14366
864.164	14423
864.296	14427
864.428	14590
864.559	14552
864.691	14438
864.823	14450
864.954	14434
865.086	14427
865.217	14400
865.349	14324
865.48	14347
865.612	14419
865.743	14571
865.875	14476
866.006	14362
866.137	14457
866.269	14355
866.4	14385
866.531	14400
866.662	14385
866.793	14332
866.924	14495
867.055	14431
867.186	14396
867.317	14351
867.448	14324
867.579	14263
867.71	14301
867.841	14305
867.972	14336
868.103	14396
868.233	14469
868.364	14301
868.495	14552
868.625	14568
868.756	14724
868.886	14594
869.017	14648
869.147	14819
869.278	14769
869.408	14613
869.539	14659
869.669	14674
869.799	14712
869.929	14781
870.06	14720
870.19	14864
870.32	14880
870.45	14887
870.58	14998
870.71	15097
870.84	15058
870.97	15024
871.1	15005
871.23	15233
871.36	15176
871.489	15184
871.619	15097
871.749	15097
871.879	15241
872.008	15344
872.138	15226
872.267	15100
872.397	15024
872.526	15066
872.656	14971
872.785	15070
872.915	15230
873.044	15222
873.173	15294
873.303	15310
873.432	15367
873.561	15397
873.69	15173
873.819	15279
873.948	15359
874.077	15325
874.206	15336
874.335	15405
874.464	15477
874.593	15557
874.722	15542
874.851	15705
874.979	15637
875.108	15625
875.237	15599
875.365	15397
875.494	15500
875.623	15595
875.751	15504
875.88	15622
876.008	15762
876.136	15781
876.265	16090
876.393	16063
876.521	16124
876.65	16082
876.778	16067
876.906	16010
877.034	15911
877.162	16067
877.29	15941
877.418	16109
877.546	15998
877.674	16097
877.802	16090
877.93	16086
878.058	15953
878.185	15861
878.313	15979
878.441	16128
878.568	15945
878.696	15918
878.824	16025
878.951	16120
879.079	16200
879.206	16409
879.333	16325
879.461	16223
879.588	16299
879.715	16421
879.842	16440
879.97	16215
880.097	15953
880.224	15838
880.351	15968
880.478	15823
880.605	15850
880.732	15804
880.859	15998
880.986	15903
881.112	15888
881.239	15781
881.366	15644
881.493	15656
881.619	15568
881.746	15485
881.872	15610
881.999	15568
882.125	15511
882.252	15568
882.378	15580
882.505	15656
882.631	15481
882.757	15268
882.883	15397
883.01	15310
883.136	15226
883.262	15283
883.388	15150
883.514	15367
883.64	15408
883.766	15386
883.892	15188
884.018	15169
884.143	15275
884.269	15435
884.395	15112
884.52	14952
884.646	14982
884.772	14944
884.897	14994
885.023	14986
885.148	15146
885.274	15340
885.399	15173
885.524	15074
885.65	14948
885.775	15074
885.9	14994
886.025	15214
886.15	15051
886.275	14986
886.4	14925
886.525	14944
886.65	14910
886.775	14998
886.9	15222
887.025	15287
887.149	15097
887.274	14842
887.399	14826
887.523	14842
887.648	14826
887.773	14724
887.897	14933
888.021	14967
888.146	14792
888.27	14994
888.395	15009
888.519	15017
888.643	14891
888.767	14823
888.891	14830
889.015	14701
889.139	14758
889.263	14629
889.387	14750
889.511	14921
889.635	14918
889.759	14731
889.883	14735
890.006	14754
890.13	14868
890.254	14651
890.377	14636
890.501	14522
890.624	14518
890.748	14621
890.871	14465
890.995	14290
891.118	14267
891.241	14427
891.364	14431
891.488	14530
891.611	14415
891.734	14427
891.857	14469
891.98	14347
892.103	14537
892.226	14377
892.349	14298
892.471	14233
892.594	14438
892.717	14370
892.839	14400
892.962	14385
893.085	14415
893.207	14366
893.33	14240
893.452	14336
893.575	14457
893.697	14434
893.819	14552
893.941	14495
894.064	14590
894.186	14370
894.308	14454
894.43	14518
894.552	14651
894.674	14537
894.796	14488
894.918	14434
895.04	14473
895.161	14518
895.283	14473
895.405	14427
895.526	14518
895.648	14457
895.769	14613
895.891	14571
896.012	14621
896.134	14678
896.255	14594
896.376	14564
896.498	14606
896.619	14648
896.74	14530
896.861	14705
896.982	14948
897.103	14994
897.224	14826
897.345	14849
897.466	14708
897.587	14746
897.708	15024
897.828	14910
897.949	14792
898.07	14655
898.19	14807
898.311	14910
898.431	14842
898.552	14914
898.672	15024
898.792	14899
898.913	14872
899.033	14788
899.153	14674
899.273	14651
899.393	14651
899.513	14705
899.633	14648
899.753	14720
899.873	14781
899.993	14872
900.113	14796
900.232	14804
900.352	14823
900.472	14777
900.591	14541
900.711	14606
900.83	14545
900.95	14735
901.069	14674
901.189	14617
901.308	14385
901.427	14271
901.546	14301
901.665	14275
901.784	14240
901.904	14134
902.023	14142
902.141	13917
902.26	13788
902.379	13997
902.498	13837
902.617	13772
902.735	13890
902.854	13868
902.973	13742
903.091	13639
903.21	13464
903.328	13563
903.446	13578
903.565	13419
903.683	13438
903.801	13369
903.919	13285
904.038	13316
904.156	13171
904.274	13225
904.392	13240
904.51	13175
904.627	13255
904.745	13259
904.863	13270
904.981	13110
905.098	12878
905.216	12897
905.334	12897
905.451	12852
905.569	12890
905.686	12977
905.803	12966
905.921	12776
906.038	12787
906.155	12738
906.272	12589
906.389	12669
906.506	12563
906.623	12490
906.74	12471
906.857	12399
906.974	12429
907.091	12631
907.208	12578
907.324	12536
907.441	12353
907.557	12254
907.674	12258
907.79	12213
907.907	12289
908.023	12308
908.139	12243
908.256	12197
908.372	12239
908.488	12155
908.604	12015
908.72	11885
908.836	12106
908.952	11931
909.068	12053
909.184	12121
909.3	12045
909.415	12007
909.531	12019
909.647	11824
909.762	11760
909.878	11703
909.993	11729
910.108	11771
910.224	11752
910.339	11726
910.454	11657
910.57	11634
910.685	11566
910.8	11828
910.915	11771
911.03	11604
911.145	11421
911.259	11417
911.374	11455
911.489	11372
911.604	11315
911.718	11250
911.833	11193
911.947	11151
912.062	10995
912.176	11220
912.291	11216
912.405	11223
912.519	11421
912.633	11391
912.748	11246
912.862	11181
912.976	11071
913.09	10995
913.204	11045
913.318	11090
913.431	11208
913.545	11109
913.659	11220
913.772	11056
913.886	11025
914	10965
914.113	11071
914.226	11075
914.34	11086
914.453	10957
914.566	11003
914.68	10869
914.793	10904
914.906	10725
915.019	10717
915.132	10637
915.245	10706
915.358	10679
915.47	10645
915.583	10733
915.696	10771
915.809	10843
915.921	10812
916.034	10702
916.146	10622
916.259	10622
916.371	10755
916.483	10710
916.595	10565
916.708	10645
916.82	10649
916.932	10634
917.044	10645
917.156	10599
917.268	10478
917.38	10569
917.491	10489
917.603	10584
917.715	10584
917.826	10634
917.938	10519
918.049	10375
918.161	10447
918.272	10645
918.384	10679
918.495	10500
918.606	10398
918.717	10363
918.828	10459
918.939	10382
919.05	10238
919.161	10322
919.272	10242
919.383	10207
919.494	10447
919.604	10668
919.715	10466
919.826	10352
919.936	10405
920.047	10580
920.157	10379
920.267	10645
920.378	10451
920.488	10436
920.598	10546
920.708	10733
920.818	10615
920.928	10546
921.038	10774
921.148	10736
921.258	10390
921.368	10428
921.477	10276
921.587	10227
921.697	10196
921.806	10280
921.916	10162
922.025	10063
922.134	10025
922.244	10032
922.353	10078
922.462	9930
922.571	9823
922.68	9671
922.789	9591
922.898	9751
923.007	9591
923.116	9671
923.224	9652
923.333	9595
923.442	9485
923.55	9534
923.659	9564
923.767	9564
923.876	9591
923.984	9671
924.092	9393
924.201	9477
924.309	9584
924.417	9511
924.525	9477
924.633	9450
924.741	10413
924.849	9348
924.956	9511
925.064	9336
925.172	9233
925.279	9291
925.387	9450
925.494	9367
925.602	9370
925.709	9378
925.816	9275
925.924	9275
926.031	9443
926.138	9367
926.245	9317
926.352	9298
926.459	9435
926.566	9466
926.673	9306
926.779	9150
926.886	9195
926.993	9066
927.099	9055
927.206	8990
927.312	8937
927.419	9058
927.525	9047
927.631	9074
927.737	8986
927.843	8994
927.95	8815
928.056	8979
928.162	8906
928.267	8948
928.373	9618
928.479	9062
928.585	8739
928.69	8906
928.796	8941
928.901	8845
929.007	8746
929.112	8842
929.218	8811
929.323	8842
929.428	8735
929.533	8864
929.638	8739
929.743	8785
929.848	8788
929.953	8735
930.058	8705
930.163	8511
930.267	8488
930.372	8632
930.477	8480
930.581	8758
930.685	8533
930.79	8434
930.894	8545
930.998	8431
931.103	8598
931.207	8294
931.311	8161
931.415	8130
931.519	7986
931.623	7947
