Data from test_V78500241_2935.txt Node
Date: Fri Mar 25 14:54:09 CST 2022
User: usil
Spectrometer: V785-0024
Trigger mode: 0
Integration Time (sec): 4.000000E-1
Scans to average: 1
Nonlinearity correction enabled: false
Boxcar width: 0
Storing dark spectrum: false
XAxis mode: Wavelengths
Number of Pixels in Spectrum: 1024
>>>>>Begin Spectral Data<<<<<
801.071	22109
801.214	21899
801.356	21743
801.499	21641
801.641	21466
801.783	21488
801.926	21378
802.068	21408
802.211	21241
802.353	21275
802.496	21028
802.638	20998
802.78	20982
802.923	20891
803.065	20724
803.208	20792
803.35	20788
803.492	20853
803.635	20906
803.777	20785
803.919	20849
804.061	21192
804.204	20956
804.346	20640
804.488	20735
804.63	20758
804.773	20667
804.915	20773
805.057	20876
805.199	20629
805.341	20651
805.483	20807
805.626	20781
805.768	20644
805.91	20712
806.052	20701
806.194	20480
806.336	20811
806.478	20682
806.62	20663
806.762	20792
806.904	20811
807.046	21047
807.188	20956
807.33	21089
807.472	20960
807.614	20948
807.756	20975
807.898	20777
808.04	20708
808.182	20735
808.324	20674
808.465	20899
808.607	20967
808.749	21131
808.891	21119
809.033	21199
809.174	21112
809.316	20982
809.458	20971
809.6	20929
809.741	21165
809.883	20979
810.025	21131
810.166	21138
810.308	21150
810.45	21157
810.591	21077
810.733	20975
810.875	20826
811.016	20648
811.158	20788
811.299	20826
811.441	20941
811.582	20994
811.724	20830
811.865	20785
812.007	20746
812.148	20716
812.29	20823
812.431	20944
812.573	21104
812.714	21176
812.855	21313
812.997	21450
813.138	21587
813.279	21367
813.421	21230
813.562	21214
813.703	21104
813.845	20982
813.986	20667
814.127	20613
814.268	20427
814.41	20473
814.551	20438
814.692	20423
814.833	20336
814.974	20355
815.115	20271
815.256	20328
815.397	20221
815.539	20336
815.68	20103
815.821	19925
815.962	20161
816.103	20035
816.244	19898
816.385	19883
816.526	19845
816.666	19582
816.807	19556
816.948	19613
817.089	19552
817.23	19616
817.371	19468
817.512	19514
817.653	19483
817.793	19438
817.934	19457
818.075	19499
818.216	19613
818.356	19449
818.497	19236
818.638	19217
818.778	19183
818.919	19270
819.06	19217
819.2	19270
819.341	19396
819.481	19278
819.622	19609
819.762	19757
819.903	19616
820.043	19601
820.184	19510
820.324	19540
820.465	19594
820.605	19502
820.746	19476
820.886	19384
821.026	19540
821.167	19403
821.307	19472
821.447	19552
821.588	19251
821.728	19126
821.868	19065
822.008	18916
822.149	18863
822.289	18787
822.429	18544
822.569	18646
822.709	18456
822.849	18353
822.99	18308
823.13	18384
823.27	18376
823.41	18380
823.55	18121
823.69	18254
823.83	18224
823.97	18148
824.11	18102
824.25	17965
824.389	17942
824.529	18019
824.669	18015
824.809	18182
824.949	18034
825.089	18064
825.228	18015
825.368	17798
825.508	17710
825.648	17729
825.787	17843
825.927	17878
826.067	17691
826.206	17790
826.346	17847
826.485	17809
826.625	17798
826.765	17950
826.904	17840
827.044	17505
827.183	17459
827.323	17425
827.462	17554
827.601	17448
827.741	17376
827.88	17433
828.02	17349
828.159	17402
828.298	17414
828.437	17459
828.577	17402
828.716	17516
828.855	17436
828.994	17216
829.134	17162
829.273	17143
829.412	17181
829.551	17140
829.69	17178
829.829	17102
829.968	17322
830.107	17181
830.246	17208
830.385	17113
830.524	17018
830.663	17003
830.802	16949
830.941	16790
831.08	16748
831.219	16892
831.357	16805
831.496	17045
831.635	16862
831.774	16713
831.913	16668
832.051	16596
832.19	16489
832.329	16569
832.467	16428
832.606	16417
832.744	16470
832.883	16436
833.022	16455
833.16	16432
833.299	16478
833.437	16432
833.576	16588
833.714	16493
833.852	16653
833.991	16504
834.129	16535
834.267	16599
834.406	16474
834.544	16538
834.682	16538
834.821	16504
834.959	16710
835.097	16405
835.235	16580
835.373	16516
835.511	16550
835.65	16466
835.788	16390
835.926	16295
836.064	16147
836.202	16322
836.34	16432
836.478	16531
836.615	16497
836.753	16516
836.891	16508
837.029	16542
837.167	16382
837.305	16443
837.443	16352
837.58	16284
837.718	16436
837.856	16303
837.993	16291
838.131	16303
838.269	16131
838.406	16257
838.544	16207
838.681	15991
838.819	15979
838.956	15823
839.094	15838
839.231	15915
839.369	15972
839.506	16234
839.643	16074
839.781	15869
839.918	15846
840.055	15861
840.193	15823
840.33	15827
840.467	15831
840.604	15857
840.742	16055
840.879	15717
841.016	15732
841.153	15663
841.29	15907
841.427	15907
841.564	15759
841.701	15869
841.838	15724
841.975	15800
842.112	15686
842.249	15622
842.385	15629
842.522	15762
842.659	15667
842.796	15488
842.933	15572
843.069	15564
843.206	15618
843.343	15622
843.479	15610
843.616	15663
843.752	15382
843.889	15291
844.025	15576
844.162	15412
844.298	15545
844.435	15268
844.571	15313
844.708	15458
844.844	15507
844.98	15572
845.117	15500
845.253	15355
845.389	15291
845.525	15397
845.661	15230
845.798	15226
845.934	15310
846.07	15169
846.206	15264
846.342	15325
846.478	15142
846.614	15081
846.75	14880
846.886	14899
847.022	15154
847.158	15017
847.294	15009
847.429	14944
847.565	14982
847.701	15249
847.837	14720
847.972	14689
848.108	14811
848.244	14800
848.379	14598
848.515	14541
848.65	14473
848.786	14602
848.921	14610
849.057	14655
849.192	14693
849.328	14670
849.463	14533
849.598	14598
849.734	14404
849.869	14389
850.004	14366
850.14	14400
850.275	14343
850.41	14252
850.545	14259
850.68	14271
850.815	14336
850.95	14313
851.085	14518
851.22	14404
851.355	14419
851.49	14157
851.625	14199
851.76	14282
851.895	14256
852.03	14225
852.165	14305
852.299	14488
852.434	14396
852.569	14393
852.703	14434
852.838	14473
852.973	14560
853.107	14526
853.242	14332
853.376	14183
853.511	14035
853.645	14123
853.78	14282
853.914	14138
854.048	14206
854.183	14252
854.317	14248
854.451	14355
854.585	14214
854.72	14172
854.854	14229
854.988	14157
855.122	14210
855.256	14081
855.39	14206
855.524	14294
855.658	14214
855.792	14263
855.926	14294
856.06	14244
856.194	14294
856.327	14149
856.461	14183
856.595	14199
856.729	14176
856.862	14393
856.996	14225
857.13	14366
857.263	14381
857.397	14324
857.53	14100
857.664	14225
857.797	14320
857.931	14294
858.064	14309
858.197	14309
858.331	14244
858.464	14221
858.597	14130
858.731	14206
858.864	14134
858.997	14225
859.13	14210
859.263	14301
859.396	14278
859.529	14225
859.662	14115
859.795	14088
859.928	14263
860.061	14408
860.194	14385
860.327	14275
860.46	14202
860.592	14339
860.725	14427
860.858	14290
860.99	14187
861.123	14138
861.256	14252
861.388	14202
861.521	14800
861.653	14081
861.786	13932
861.918	14077
862.05	14195
862.183	14164
862.315	14202
862.447	14271
862.58	14096
862.712	13947
862.844	13963
862.976	13993
863.108	14084
863.24	14324
863.372	13963
863.504	13913
863.636	13921
863.768	14020
863.9	14035
864.032	13974
864.164	13925
864.296	14054
864.428	14157
864.559	14081
864.691	14077
864.823	14081
864.954	14035
865.086	14077
865.217	13944
865.349	13868
865.48	13970
865.612	13951
865.743	14043
865.875	14001
866.006	13928
866.137	13940
866.269	14008
866.4	13947
866.531	13921
866.662	13944
866.793	13875
866.924	13906
867.055	14012
867.186	13917
867.317	13921
867.448	13822
867.579	13906
867.71	13845
867.841	13906
867.972	13940
868.103	13970
868.233	14008
868.364	13959
868.495	14016
868.625	14149
868.756	14355
868.886	14149
869.017	14142
869.147	14355
869.278	14263
869.408	14278
869.539	14240
869.669	14233
869.799	14351
869.929	14347
870.06	14377
870.19	14518
870.32	14511
870.45	14552
870.58	14651
870.71	14777
870.84	14765
870.97	14583
871.1	14682
871.23	14792
871.36	14796
871.489	14777
871.619	14804
871.749	14804
871.879	14762
872.008	14994
872.138	14880
872.267	14727
872.397	14708
872.526	14632
872.656	14678
872.785	14667
872.915	14823
873.044	14986
873.173	14899
873.303	14899
873.432	14990
873.561	14925
873.69	14906
873.819	14933
873.948	14864
874.077	14864
874.206	14811
874.335	14990
874.464	14971
874.593	15154
874.722	15116
874.851	15180
874.979	15291
875.108	15237
875.237	15093
875.365	15104
875.494	15195
875.623	15211
875.751	15089
875.88	15230
876.008	15405
876.136	15355
876.265	15545
876.393	15701
876.521	15717
876.65	15686
876.778	15557
876.906	15648
877.034	15515
877.162	15557
877.29	15500
877.418	15660
877.546	15663
877.674	15591
877.802	15587
877.93	15549
878.058	15553
878.185	15549
878.313	15523
878.441	15637
878.568	15458
878.696	15618
878.824	15675
878.951	15679
879.079	15789
879.206	15884
879.333	15713
879.461	15694
879.588	15701
879.715	15762
879.842	15953
879.97	15663
880.097	15431
880.224	15420
880.351	15424
880.478	15439
880.605	15359
880.732	15389
880.859	15610
880.986	15408
881.112	15382
881.239	15386
881.366	15241
881.493	15184
881.619	15104
881.746	15154
881.872	15104
881.999	15070
882.125	15097
882.252	15097
882.378	15058
882.505	15252
882.631	15127
882.757	14823
882.883	14960
883.01	14906
883.136	14815
883.262	14796
883.388	14743
883.514	14952
883.64	14910
883.766	14811
883.892	14754
884.018	14769
884.143	14967
884.269	15074
884.395	14663
884.52	14621
884.646	14686
884.772	14530
884.897	14571
885.023	14659
885.148	14762
885.274	14792
885.399	14731
885.524	14606
885.65	14590
885.775	14678
885.9	14659
886.025	14788
886.15	14849
886.275	14602
886.4	14530
886.525	14533
886.65	14541
886.775	14537
886.9	14670
887.025	14762
887.149	14590
887.274	14454
887.399	14461
887.523	14404
887.648	14396
887.773	14400
887.897	14476
888.021	14438
888.146	14351
888.27	14522
888.395	14503
888.519	14514
888.643	14518
888.767	14575
888.891	14473
889.015	14385
889.139	14244
889.263	14374
889.387	14431
889.511	14499
889.635	14469
889.759	14275
889.883	14237
890.006	14343
890.13	14377
890.254	14248
890.377	14278
890.501	14126
890.624	14084
890.748	14263
890.871	14046
890.995	13928
891.118	13947
891.241	14043
891.364	14039
891.488	14035
891.611	14062
891.734	14039
891.857	14084
891.98	14016
892.103	14084
892.226	14054
892.349	14058
892.471	13875
892.594	14062
892.717	14024
892.839	13982
892.962	13951
893.085	14069
893.207	14084
893.33	13890
893.452	13978
893.575	14103
893.697	13955
893.819	14157
893.941	14282
894.064	14134
894.186	14005
894.308	14008
894.43	14103
894.552	14244
894.674	14237
894.796	13974
894.918	14100
895.04	14001
895.161	14267
895.283	14218
895.405	14035
895.526	14161
895.648	14168
895.769	14180
895.891	14199
896.012	14305
896.134	14172
896.255	14187
896.376	14240
896.498	14256
896.619	14221
896.74	14180
896.861	14191
896.982	14564
897.103	14716
897.224	14442
897.345	14503
897.466	14336
897.587	14473
897.708	14579
897.828	14495
897.949	14389
898.07	14446
898.19	14457
898.311	14663
898.431	14511
898.552	14514
898.672	14632
898.792	14594
898.913	14579
899.033	14446
899.153	14408
899.273	14377
899.393	14454
899.513	14362
899.633	14385
899.753	14385
899.873	14374
899.993	14507
900.113	14423
900.232	14438
900.352	14355
900.472	14271
900.591	14233
900.711	14221
900.83	14298
900.95	14290
901.069	14339
901.189	14107
901.308	14081
901.427	13921
901.546	13917
901.665	13951
901.784	13951
901.904	13849
902.023	13719
902.141	13616
902.26	13567
902.379	13586
902.498	13480
902.617	13445
902.735	13525
902.854	13571
902.973	13518
903.091	13293
903.21	13202
903.328	13232
903.446	13228
903.565	13091
903.683	13137
903.801	13053
903.919	13137
904.038	12989
904.156	12951
904.274	12966
904.392	12833
904.51	12890
904.627	12913
904.745	12916
904.863	12981
904.981	12696
905.098	12536
905.216	12654
905.334	12601
905.451	12593
905.569	12574
905.686	12677
905.803	12509
905.921	12460
906.038	12467
906.155	12498
906.272	12315
906.389	12251
906.506	12175
906.623	12152
906.74	12209
906.857	12011
906.974	12057
907.091	12175
907.208	12304
907.324	12232
907.441	12117
907.557	11965
907.674	11961
907.79	11843
907.907	11847
908.023	11939
908.139	11935
908.256	11885
908.372	11908
908.488	11790
908.604	11779
908.72	11577
908.836	11672
908.952	11668
909.068	11661
909.184	11703
909.3	11661
909.415	11760
909.531	11668
909.647	11440
909.762	11436
909.878	11379
909.993	11463
910.108	11463
910.224	11459
910.339	11471
910.454	11349
910.57	11322
910.685	11204
910.8	11539
910.915	11459
911.03	11341
911.145	11216
911.259	11090
911.374	11140
911.489	11029
911.604	11029
911.718	10942
911.833	10927
911.947	10828
912.062	10744
912.176	11014
912.291	10923
912.405	10927
912.519	11075
912.633	11098
912.748	10946
912.862	10934
912.976	10771
913.09	10691
913.204	10752
913.318	10835
913.431	10949
913.545	10869
913.659	10923
913.772	10778
913.886	10702
914	10679
914.113	10839
914.226	10866
914.34	10759
914.453	10630
914.566	10729
914.68	10611
914.793	10687
914.906	10485
915.019	10371
915.132	10344
915.245	10417
915.358	10417
915.47	10402
915.583	10462
915.696	10421
915.809	10554
915.921	10531
916.034	10436
916.146	10352
916.259	10375
916.371	10440
916.483	10462
916.595	10253
916.708	10386
916.82	10379
916.932	10306
917.044	10379
917.156	10257
917.268	10268
917.38	10207
917.491	10227
917.603	10299
917.715	10375
917.826	10268
917.938	10219
918.049	10120
918.161	10390
918.272	10470
918.384	10432
918.495	10299
918.606	10131
918.717	10071
918.828	10150
918.939	10158
919.05	10059
919.161	10063
919.272	9964
919.383	10021
919.494	10257
919.604	10356
919.715	10158
919.826	10082
919.936	10128
920.047	10249
920.157	10204
920.267	10398
920.378	10204
920.488	10116
920.598	10363
920.708	10516
920.818	10390
920.928	10459
921.038	10535
921.148	10470
921.258	10188
921.368	10109
921.477	10082
921.587	9960
921.697	9884
921.806	10078
921.916	9956
922.025	9755
922.134	9797
922.244	9694
922.353	9785
922.462	9679
922.571	9580
922.68	9359
922.789	9393
922.898	9458
923.007	9431
923.116	9382
923.224	9424
923.333	9462
923.442	9302
923.55	9233
923.659	9363
923.767	9408
923.876	9249
923.984	9287
924.092	9211
924.201	9211
924.309	9253
924.417	9329
924.525	9211
924.633	9218
924.741	10158
924.849	9009
924.956	9233
925.064	9066
925.172	9039
925.279	9013
925.387	9047
925.494	9055
925.602	9150
925.709	9214
925.816	9123
925.924	9043
926.031	9127
926.138	9051
926.245	9058
926.352	9028
926.459	9161
926.566	9173
926.673	9039
926.779	8967
926.886	8937
926.993	8823
927.099	8826
927.206	8708
927.312	8750
927.419	8845
927.525	8826
927.631	8861
927.737	8727
927.843	8693
927.95	8617
928.056	8670
928.162	8689
928.267	8739
928.373	9329
928.479	8769
928.585	8545
928.69	8693
928.796	8667
928.901	8522
929.007	8450
929.112	8625
929.218	8549
929.323	8610
929.428	8575
929.533	8670
929.638	8415
929.743	8396
929.848	8473
929.953	8492
930.058	8400
930.163	8298
930.267	8282
930.372	8438
930.477	8252
930.581	8495
930.685	8389
930.79	8161
930.894	8225
930.998	8206
931.103	8412
931.207	8024
931.311	7970
931.415	7944
931.519	7719
931.623	7738
