Data from test_V78500241_2548.txt Node
Date: Fri Mar 25 14:51:27 CST 2022
User: usil
Spectrometer: V785-0024
Trigger mode: 0
Integration Time (sec): 4.000000E-1
Scans to average: 1
Nonlinearity correction enabled: false
Boxcar width: 0
Storing dark spectrum: false
XAxis mode: Wavelengths
Number of Pixels in Spectrum: 1024
>>>>>Begin Spectral Data<<<<<
801.071	21994
801.214	21865
801.356	21671
801.499	21538
801.641	21595
801.783	21351
801.926	21264
802.068	21412
802.211	21306
802.353	21233
802.496	20990
802.638	20998
802.78	20815
802.923	20819
803.065	20727
803.208	20621
803.35	20773
803.492	20960
803.635	20906
803.777	20720
803.919	20826
804.061	21135
804.204	20773
804.346	20743
804.488	20720
804.63	20712
804.773	20648
804.915	20746
805.057	20815
805.199	20762
805.341	20644
805.483	20769
805.626	20845
805.768	20667
805.91	20693
806.052	20636
806.194	20533
806.336	20777
806.478	20606
806.62	20629
806.762	20682
806.904	20906
807.046	21173
807.188	20998
807.33	20952
807.472	21150
807.614	20994
807.756	20887
807.898	20781
808.04	20731
808.182	20724
808.324	20842
808.465	20796
808.607	20971
808.749	20887
808.891	21085
809.033	21169
809.174	21184
809.316	20982
809.458	21074
809.6	20967
809.741	21085
809.883	21123
810.025	21207
810.166	21214
810.308	21127
810.45	21260
810.591	21039
810.733	20982
810.875	20823
811.016	20602
811.158	20708
811.299	20883
811.441	20937
811.582	20838
811.724	20883
811.865	20674
812.007	20701
812.148	20716
812.29	20769
812.431	21032
812.573	21062
812.714	21207
812.855	21321
812.997	21344
813.138	21515
813.279	21458
813.421	21294
813.562	21199
813.703	21108
813.845	20979
813.986	20739
814.127	20438
814.268	20469
814.41	20492
814.551	20355
814.692	20339
814.833	20309
814.974	20290
815.115	20313
815.256	20164
815.397	20218
815.539	20225
815.68	20168
815.821	20054
815.962	20149
816.103	20008
816.244	19830
816.385	19811
816.526	19795
816.666	19734
816.807	19476
816.948	19590
817.089	19575
817.23	19575
817.371	19453
817.512	19422
817.653	19518
817.793	19571
817.934	19480
818.075	19586
818.216	19483
818.356	19365
818.497	19312
818.638	19129
818.778	19122
818.919	19206
819.06	19304
819.2	19274
819.341	19377
819.481	19388
819.622	19415
819.762	19685
819.903	19605
820.043	19540
820.184	19327
820.324	19483
820.465	19460
820.605	19529
820.746	19419
820.886	19263
821.026	19434
821.167	19339
821.307	19434
821.447	19422
821.588	19236
821.728	19255
821.868	19061
822.008	18920
822.149	18882
822.289	18787
822.429	18555
822.569	18525
822.709	18509
822.849	18426
822.99	18429
823.13	18258
823.27	18308
823.41	18178
823.55	18034
823.69	18060
823.83	18148
823.97	18087
824.11	17885
824.25	17897
824.389	17874
824.529	17923
824.669	17923
824.809	18114
824.949	18079
825.089	17984
825.228	17992
825.368	17722
825.508	17824
825.648	17828
825.787	17729
825.927	17745
826.067	17661
826.206	17741
826.346	17752
826.485	17722
826.625	17710
826.765	17870
826.904	17783
827.044	17528
827.183	17467
827.323	17402
827.462	17478
827.601	17425
827.741	17345
827.88	17463
828.02	17353
828.159	17387
828.298	17395
828.437	17398
828.577	17307
828.716	17505
828.855	17417
828.994	17098
829.134	17204
829.273	17212
829.412	17025
829.551	17052
829.69	17041
829.829	17162
829.968	17337
830.107	17216
830.246	17151
830.385	17071
830.524	17056
830.663	16927
830.802	16862
830.941	16778
831.08	16691
831.219	16771
831.357	16923
831.496	17056
831.635	16904
831.774	16767
831.913	16580
832.051	16558
832.19	16596
832.329	16584
832.467	16523
832.606	16371
832.744	16421
832.883	16561
833.022	16451
833.16	16443
833.299	16527
833.437	16546
833.576	16622
833.714	16508
833.852	16634
833.991	16565
834.129	16611
834.267	16527
834.406	16447
834.544	16637
834.682	16527
834.821	16512
834.959	16706
835.097	16542
835.235	16577
835.373	16630
835.511	16459
835.65	16481
835.788	16421
835.926	16287
836.064	16265
836.202	16261
836.34	16546
836.478	16542
836.615	16398
836.753	16466
836.891	16546
837.029	16478
837.167	16398
837.305	16390
837.443	16341
837.58	16379
837.718	16348
837.856	16276
837.993	16257
838.131	16303
838.269	16310
838.406	16265
838.544	16154
838.681	16082
838.819	16017
838.956	15956
839.094	15823
839.231	15907
839.369	16059
839.506	16371
839.643	16131
839.781	15926
839.918	15831
840.055	15789
840.193	15930
840.33	15816
840.467	15823
840.604	15846
840.742	16063
840.879	15747
841.016	15774
841.153	15747
841.29	16002
841.427	15937
841.564	15861
841.701	15941
841.838	15804
841.975	15797
842.112	15698
842.249	15698
842.385	15610
842.522	15854
842.659	15675
842.796	15682
842.933	15732
843.069	15713
843.206	15595
843.343	15713
843.479	15671
843.616	15698
843.752	15450
843.889	15424
844.025	15644
844.162	15405
844.298	15481
844.435	15477
844.571	15439
844.708	15481
844.844	15561
844.98	15682
845.117	15557
845.253	15367
845.389	15405
845.525	15370
845.661	15412
845.798	15241
845.934	15325
846.07	15214
846.206	15264
846.342	15294
846.478	15184
846.614	15039
846.75	14948
846.886	15001
847.022	15108
847.158	15081
847.294	15009
847.429	14952
847.565	14979
847.701	15138
847.837	14807
847.972	14735
848.108	14941
848.244	14902
848.379	14613
848.515	14636
848.65	14499
848.786	14640
848.921	14598
849.057	14686
849.192	14644
849.328	14648
849.463	14682
849.598	14625
849.734	14594
849.869	14419
850.004	14336
850.14	14336
850.275	14305
850.41	14206
850.545	14328
850.68	14377
850.815	14336
850.95	14438
851.085	14579
851.22	14450
851.355	14358
851.49	14294
851.625	14362
851.76	14450
851.895	14259
852.03	14259
852.165	14355
852.299	14434
852.434	14511
852.569	14377
852.703	14412
852.838	14469
852.973	14598
853.107	14549
853.242	14389
853.376	14183
853.511	14115
853.645	14168
853.78	14412
853.914	14298
854.048	14183
854.183	14153
854.317	14202
854.451	14389
854.585	14240
854.72	14309
854.854	14385
854.988	14172
855.122	14191
855.256	14134
855.39	14233
855.524	14313
855.658	14233
855.792	14278
855.926	14290
856.06	14396
856.194	14374
856.327	14282
856.461	14294
856.595	14081
856.729	14218
856.862	14290
856.996	14305
857.13	14332
857.263	14385
857.397	14419
857.53	14161
857.664	14332
857.797	14385
857.931	14351
858.064	14252
858.197	14267
858.331	14294
858.464	14267
858.597	14130
858.731	14123
858.864	14256
858.997	14199
859.13	14225
859.263	14202
859.396	14282
859.529	14271
859.662	14172
859.795	14244
859.928	14221
860.061	14412
860.194	14377
860.327	14317
860.46	14210
860.592	14377
860.725	14336
860.858	14343
860.99	14229
861.123	14161
861.256	14062
861.388	14214
861.521	14697
861.653	14161
861.786	14092
861.918	14081
862.05	14123
862.183	14202
862.315	14278
862.447	14343
862.58	14145
862.712	14039
862.844	13947
862.976	14100
863.108	14046
863.24	14587
863.372	13917
863.504	14096
863.636	14046
863.768	13986
863.9	14054
864.032	13947
864.164	14039
864.296	14058
864.428	14153
864.559	14069
864.691	14153
864.823	14081
864.954	14069
865.086	14065
865.217	14054
865.349	13997
865.48	13928
865.612	14069
865.743	14183
865.875	14073
866.006	14005
866.137	13963
866.269	14043
866.4	14035
866.531	13913
866.662	13967
866.793	13944
866.924	13940
867.055	14043
867.186	13917
867.317	14024
867.448	13906
867.579	13944
867.71	13974
867.841	13906
867.972	14020
868.103	14027
868.233	13997
868.364	13978
868.495	14115
868.625	14271
868.756	14362
868.886	14180
869.017	14252
869.147	14400
869.278	14404
869.408	14259
869.539	14187
869.669	14294
869.799	14309
869.929	14324
870.06	14336
870.19	14636
870.32	14602
870.45	14514
870.58	14625
870.71	14724
870.84	14712
870.97	14686
871.1	14739
871.23	14819
871.36	14914
871.489	14769
871.619	14781
871.749	14815
871.879	14975
872.008	14933
872.138	14819
872.267	14857
872.397	14724
872.526	14689
872.656	14712
872.785	14792
872.915	14906
873.044	14853
873.173	14845
873.303	14861
873.432	14960
873.561	14963
873.69	14952
873.819	14876
873.948	14967
874.077	14910
874.206	14895
874.335	14960
874.464	15066
874.593	15207
874.722	15165
874.851	15279
874.979	15310
875.108	15340
875.237	15157
875.365	15169
875.494	15214
875.623	15298
875.751	15195
875.88	15313
876.008	15477
876.136	15511
876.265	15739
876.393	15789
876.521	15781
876.65	15679
876.778	15675
876.906	15606
877.034	15561
877.162	15610
877.29	15656
877.418	15667
877.546	15633
877.674	15720
877.802	15641
877.93	15549
878.058	15671
878.185	15603
878.313	15709
878.441	15606
878.568	15435
878.696	15576
878.824	15553
878.951	15648
879.079	15743
879.206	15975
879.333	15743
879.461	15701
879.588	15816
879.715	15751
879.842	15888
879.97	15732
880.097	15492
880.224	15412
880.351	15477
880.478	15572
880.605	15439
880.732	15431
880.859	15793
880.986	15424
881.112	15523
881.239	15336
881.366	15298
881.493	15260
881.619	15131
881.746	15062
881.872	15211
881.999	15142
882.125	15013
882.252	15161
882.378	15268
882.505	15249
882.631	15093
882.757	15032
882.883	14990
883.01	15051
883.136	14876
883.262	14891
883.388	14838
883.514	15020
883.64	15009
883.766	14910
883.892	14792
884.018	14807
884.143	14849
884.269	15074
884.395	14743
884.52	14632
884.646	14659
884.772	14644
884.897	14693
885.023	14724
885.148	14735
885.274	14773
885.399	14880
885.524	14663
885.65	14648
885.775	14765
885.9	14697
886.025	14796
886.15	14629
886.275	14682
886.4	14560
886.525	14617
886.65	14640
886.775	14556
886.9	14815
887.025	14815
887.149	14682
887.274	14579
887.399	14404
887.523	14488
887.648	14423
887.773	14438
887.897	14602
888.021	14507
888.146	14579
888.27	14594
888.395	14674
888.519	14511
888.643	14590
888.767	14568
888.891	14461
889.015	14339
889.139	14313
889.263	14278
889.387	14446
889.511	14640
889.635	14473
889.759	14275
889.883	14362
890.006	14389
890.13	14488
890.254	14221
890.377	14328
890.501	14164
890.624	14123
890.748	14328
890.871	14046
890.995	14123
891.118	13970
891.241	14027
891.364	14035
891.488	14164
891.611	13978
891.734	14138
891.857	14107
891.98	14278
892.103	14103
892.226	14096
892.349	14081
892.471	13875
892.594	13970
892.717	14142
892.839	14077
892.962	14111
893.085	14084
893.207	14073
893.33	13947
893.452	13928
893.575	14195
893.697	14035
893.819	14199
893.941	14355
894.064	14130
894.186	14077
894.308	13967
894.43	14180
894.552	14271
894.674	14240
894.796	14084
894.918	14088
895.04	14092
895.161	14206
895.283	14187
895.405	14153
895.526	14092
895.648	14240
895.769	14142
895.891	14275
896.012	14259
896.134	14343
896.255	14214
896.376	14180
896.498	14263
896.619	14324
896.74	14180
896.861	14313
896.982	14564
897.103	14708
897.224	14560
897.345	14450
897.466	14488
897.587	14560
897.708	14625
897.828	14507
897.949	14537
898.07	14419
898.19	14450
898.311	14644
898.431	14511
898.552	14495
898.672	14712
898.792	14610
898.913	14552
899.033	14385
899.153	14511
899.273	14423
899.393	14339
899.513	14465
899.633	14427
899.753	14526
899.873	14454
899.993	14541
900.113	14514
900.232	14454
900.352	14328
900.472	14351
900.591	14248
900.711	14442
900.83	14320
900.95	14404
901.069	14366
901.189	14233
901.308	14069
901.427	14050
901.546	14081
901.665	14081
901.784	13989
901.904	13928
902.023	13757
902.141	13643
902.26	13651
902.379	13651
902.498	13552
902.617	13556
902.735	13712
902.854	13559
902.973	13582
903.091	13358
903.21	13289
903.328	13308
903.446	13213
903.565	13171
903.683	13232
903.801	13080
903.919	13129
904.038	13091
904.156	13012
904.274	13019
904.392	13023
904.51	12985
904.627	12958
904.745	12985
904.863	13057
904.981	12821
905.098	12673
905.216	12646
905.334	12688
905.451	12738
905.569	12707
905.686	12688
905.803	12658
905.921	12566
906.038	12589
906.155	12498
906.272	12403
906.389	12452
906.506	12357
906.623	12209
906.74	12220
906.857	12121
906.974	12239
907.091	12289
907.208	12429
907.324	12251
907.441	12194
907.557	12057
907.674	12003
907.79	11961
907.907	12057
908.023	12072
908.139	11904
908.256	11973
908.372	11939
908.488	11821
908.604	11722
908.72	11756
908.836	11710
908.952	11783
909.068	11805
909.184	11817
909.3	11828
909.415	11832
909.531	11863
909.647	11501
909.762	11551
909.878	11493
909.993	11539
910.108	11516
910.224	11551
910.339	11585
910.454	11433
910.57	11383
910.685	11360
910.8	11608
910.915	11547
911.03	11417
911.145	11277
911.259	11250
911.374	11296
911.489	11178
911.604	11098
911.718	10972
911.833	11083
911.947	10877
912.062	10835
912.176	11033
912.291	10987
912.405	10946
912.519	11113
912.633	11258
912.748	11025
912.862	11048
912.976	10866
913.09	10710
913.204	10793
913.318	10873
913.431	10949
913.545	10953
913.659	10995
913.772	10847
913.886	10759
914	10755
914.113	10843
914.226	10896
914.34	10854
914.453	10603
914.566	10881
914.68	10714
914.793	10706
914.906	10531
915.019	10481
915.132	10462
915.245	10481
915.358	10474
915.47	10493
915.583	10508
915.696	10523
915.809	10656
915.921	10577
916.034	10436
916.146	10497
916.259	10478
916.371	10615
916.483	10523
916.595	10466
916.708	10470
916.82	10409
916.932	10398
917.044	10428
917.156	10363
917.268	10356
917.38	10405
917.491	10382
917.603	10352
917.715	10371
917.826	10432
917.938	10280
918.049	10268
918.161	10280
918.272	10428
918.384	10459
918.495	10318
918.606	10120
918.717	10150
918.828	10276
918.939	10261
919.05	10109
919.161	10276
919.272	9964
919.383	10090
919.494	10207
919.604	10390
919.715	10253
919.826	10131
919.936	10215
920.047	10291
920.157	10272
920.267	10390
920.378	10276
920.488	10181
920.598	10466
920.708	10542
920.818	10318
920.928	10386
921.038	10523
921.148	10523
921.258	10295
921.368	10215
921.477	10059
921.587	10112
921.697	9968
921.806	10074
921.916	9941
922.025	9724
922.134	9800
922.244	9705
922.353	9827
922.462	9618
922.571	9587
922.68	9511
922.789	9488
922.898	9424
923.007	9428
923.116	9488
923.224	9492
923.333	9507
923.442	9363
923.55	9378
923.659	9363
923.767	9473
923.876	9310
923.984	9435
924.092	9332
924.201	9344
924.309	9298
924.417	9363
924.525	9321
924.633	9302
924.741	10268
924.849	9085
924.956	9226
925.064	9116
925.172	9062
925.279	9055
925.387	9169
925.494	9093
925.602	9321
925.709	9214
925.816	9108
925.924	9230
926.031	9226
926.138	9146
926.245	9256
926.352	9074
926.459	9142
926.566	9203
926.673	9070
926.779	9017
926.886	9039
926.993	8815
927.099	8876
927.206	8838
927.312	8815
927.419	8864
927.525	8857
927.631	8807
927.737	8800
927.843	8777
927.95	8598
928.056	8731
928.162	8754
928.267	8735
928.373	9367
928.479	8868
928.585	8663
928.69	8815
928.796	8701
928.901	8667
929.007	8556
929.112	8674
929.218	8632
929.323	8579
929.428	8617
929.533	8743
929.638	8503
929.743	8610
929.848	8610
929.953	8625
930.058	8533
930.163	8362
930.267	8336
930.372	8476
930.477	8286
930.581	8495
930.685	8408
930.79	8180
930.894	8290
930.998	8248
931.103	8400
931.207	8107
931.311	7959
931.415	8012
931.519	7780
931.623	7769
