Data from test_V78500241_1575.txt Node
Date: Fri Mar 25 14:44:40 CST 2022
User: usil
Spectrometer: V785-0024
Trigger mode: 0
Integration Time (sec): 4.000000E-1
Scans to average: 1
Nonlinearity correction enabled: false
Boxcar width: 0
Storing dark spectrum: false
XAxis mode: Wavelengths
Number of Pixels in Spectrum: 1024
>>>>>Begin Spectral Data<<<<<
801.071	22451
801.214	22230
801.356	22055
801.499	21956
801.641	21789
801.783	21660
801.926	21728
802.068	21637
802.211	21595
802.353	21656
802.496	21363
802.638	21241
802.78	21127
802.923	21135
803.065	21039
803.208	21074
803.35	21043
803.492	21173
803.635	21169
803.777	21085
803.919	21081
804.061	21393
804.204	21173
804.346	21108
804.488	21119
804.63	21066
804.773	20781
804.915	21028
805.057	21058
805.199	20948
805.341	21017
805.483	21051
805.626	21112
805.768	20902
805.91	20998
806.052	20914
806.194	21070
806.336	21070
806.478	20990
806.62	20857
806.762	21096
806.904	21245
807.046	21473
807.188	21363
807.33	21306
807.472	21450
807.614	21207
807.756	21348
807.898	21123
808.04	21180
808.182	21222
808.324	21214
808.465	21222
808.607	21500
808.749	21568
808.891	21542
809.033	21675
809.174	21580
809.316	21492
809.458	21477
809.6	21367
809.741	21500
809.883	21610
810.025	21679
810.166	21504
810.308	21393
810.45	21549
810.591	21359
810.733	21329
810.875	21112
811.016	21184
811.158	21043
811.299	21154
811.441	21348
811.582	21344
811.724	21116
811.865	21081
812.007	21116
812.148	21207
812.29	21389
812.431	21344
812.573	21568
812.714	21610
812.855	21709
812.997	21781
813.138	21937
813.279	21846
813.421	21660
813.562	21679
813.703	21469
813.845	21336
813.986	21017
814.127	20876
814.268	20891
814.41	20773
814.551	20644
814.692	20781
814.833	20693
814.974	20712
815.115	20716
815.256	20579
815.397	20568
815.539	20598
815.68	20393
815.821	20358
815.962	20511
816.103	20423
816.244	20282
816.385	20309
816.526	20195
816.666	20088
816.807	19944
816.948	20027
817.089	20046
817.23	19921
817.371	20054
817.512	19868
817.653	19830
817.793	19860
817.934	19875
818.075	19951
818.216	19974
818.356	19822
818.497	19681
818.638	19407
818.778	19620
818.919	19480
819.06	19540
819.2	19681
819.341	19795
819.481	19826
819.622	19864
819.762	20043
819.903	20008
820.043	19909
820.184	19822
820.324	19856
820.465	19791
820.605	19807
820.746	19894
820.886	19696
821.026	19830
821.167	19742
821.307	19921
821.447	19761
821.588	19776
821.728	19556
821.868	19426
822.008	19202
822.149	19365
822.289	19236
822.429	19080
822.569	18966
822.709	18920
822.849	18825
822.99	18726
823.13	18570
823.27	18726
823.41	18525
823.55	18540
823.69	18456
823.83	18578
823.97	18540
824.11	18391
824.25	18311
824.389	18281
824.529	18445
824.669	18285
824.809	18403
824.949	18391
825.089	18376
825.228	18376
825.368	18140
825.508	18026
825.648	18136
825.787	18144
825.927	18216
826.067	18098
826.206	18003
826.346	18155
826.485	18174
826.625	17942
826.765	18171
826.904	18068
827.044	17855
827.183	17851
827.323	17737
827.462	17840
827.601	17836
827.741	17684
827.88	17817
828.02	17672
828.159	17775
828.298	17821
828.437	17904
828.577	17691
828.716	17798
828.855	17649
828.994	17497
829.134	17509
829.273	17668
829.412	17528
829.551	17455
829.69	17501
829.829	17376
829.968	17642
830.107	17509
830.246	17551
830.385	17425
830.524	17440
830.663	17273
830.802	17315
830.941	17098
831.08	17162
831.219	17147
831.357	17170
831.496	17288
831.635	17094
831.774	17067
831.913	16965
832.051	16892
832.19	16934
832.329	17056
832.467	16877
832.606	16790
832.744	16786
832.883	16869
833.022	16816
833.16	16835
833.299	16843
833.437	16862
833.576	16942
833.714	16839
833.852	16957
833.991	16919
834.129	16923
834.267	17014
834.406	16854
834.544	16915
834.682	16866
834.821	16820
834.959	17006
835.097	16877
835.235	16946
835.373	16809
835.511	16805
835.65	16744
835.788	16809
835.926	16603
836.064	16584
836.202	16504
836.34	16809
836.478	16790
836.615	16740
836.753	16809
836.891	16812
837.029	16759
837.167	16649
837.305	16660
837.443	16546
837.58	16641
837.718	16793
837.856	16569
837.993	16630
838.131	16672
838.269	16523
838.406	16618
838.544	16470
838.681	16375
838.819	16284
838.956	16124
839.094	16253
839.231	16242
839.369	16306
839.506	16504
839.643	16382
839.781	16173
839.918	16185
840.055	16196
840.193	16173
840.33	16147
840.467	16215
840.604	16192
840.742	16341
840.879	15960
841.016	16044
841.153	16021
841.29	16261
841.427	16223
841.564	16196
841.701	16143
841.838	16078
841.975	16105
842.112	16135
842.249	16078
842.385	15850
842.522	16032
842.659	15968
842.796	15861
842.933	15823
843.069	15930
843.206	15842
843.343	15873
843.479	16048
843.616	16044
843.752	15762
843.889	15675
844.025	15968
844.162	15739
844.298	15800
844.435	15778
844.571	15705
844.708	15831
844.844	15892
844.98	15918
845.117	15789
845.253	15675
845.389	15736
845.525	15751
845.661	15728
845.798	15660
845.934	15762
846.07	15629
846.206	15671
846.342	15682
846.478	15614
846.614	15412
846.75	15321
846.886	15397
847.022	15355
847.158	15199
847.294	15192
847.429	15298
847.565	15237
847.701	15622
847.837	15062
847.972	14956
848.108	15066
848.244	15154
848.379	15013
848.515	14948
848.65	14880
848.786	14876
848.921	14819
849.057	14952
849.192	14982
849.328	14807
849.463	14876
849.598	14811
849.734	14667
849.869	14811
850.004	14659
850.14	14727
850.275	14720
850.41	14598
850.545	14579
850.68	14568
850.815	14678
850.95	14621
851.085	14830
851.22	14674
851.355	14632
851.49	14606
851.625	14602
851.76	14621
851.895	14533
852.03	14522
852.165	14556
852.299	14655
852.434	14712
852.569	14689
852.703	14663
852.838	14735
852.973	14819
853.107	14746
853.242	14598
853.376	14503
853.511	14473
853.645	14457
853.78	14583
853.914	14545
854.048	14530
854.183	14492
854.317	14575
854.451	14693
854.585	14522
854.72	14499
854.854	14629
854.988	14431
855.122	14450
855.256	14347
855.39	14461
855.524	14556
855.658	14522
855.792	14518
855.926	14465
856.06	14674
856.194	14636
856.327	14537
856.461	14473
856.595	14366
856.729	14499
856.862	14674
856.996	14522
857.13	14621
857.263	14636
857.397	14629
857.53	14587
857.664	14648
857.797	14644
857.931	14625
858.064	14579
858.197	14625
858.331	14568
858.464	14450
858.597	14377
858.731	14530
858.864	14533
858.997	14484
859.13	14560
859.263	14575
859.396	14594
859.529	14465
859.662	14461
859.795	14480
859.928	14461
860.061	14667
860.194	14693
860.327	14514
860.46	14590
860.592	14689
860.725	14644
860.858	14686
860.99	14526
861.123	14457
861.256	14450
861.388	14602
861.521	15218
861.653	14381
861.786	14313
861.918	14267
862.05	14415
862.183	14415
862.315	14484
862.447	14514
862.58	14434
862.712	14298
862.844	14145
862.976	14355
863.108	14450
863.24	14804
863.372	14221
863.504	14233
863.636	14240
863.768	14374
863.9	14328
864.032	14343
864.164	14176
864.296	14305
864.428	14381
864.559	14324
864.691	14362
864.823	14412
864.954	14377
865.086	14328
865.217	14252
865.349	14161
865.48	14237
865.612	14218
865.743	14442
865.875	14328
866.006	14267
866.137	14362
866.269	14240
866.4	14237
866.531	14343
866.662	14153
866.793	14115
866.924	14248
867.055	14244
867.186	14275
867.317	14176
867.448	14153
867.579	14267
867.71	14214
867.841	14172
867.972	14259
868.103	14343
868.233	14320
868.364	14263
868.495	14256
868.625	14526
868.756	14644
868.886	14465
869.017	14499
869.147	14602
869.278	14594
869.408	14583
869.539	14480
869.669	14610
869.799	14583
869.929	14568
870.06	14621
870.19	14891
870.32	14804
870.45	14921
870.58	14838
870.71	15039
870.84	14979
870.97	14826
871.1	14811
871.23	15123
871.36	15135
871.489	14986
871.619	15074
871.749	15104
871.879	15119
872.008	15272
872.138	15055
872.267	15024
872.397	14937
872.526	14975
872.656	14986
872.785	14838
872.915	15070
873.044	15142
873.173	15154
873.303	15207
873.432	15154
873.561	15154
873.69	15165
873.819	15180
873.948	15214
874.077	15226
874.206	15252
874.335	15157
874.464	15344
874.593	15412
874.722	15466
874.851	15477
874.979	15428
875.108	15481
875.237	15428
875.365	15386
875.494	15378
875.623	15523
875.751	15507
875.88	15485
876.008	15633
876.136	15717
876.265	15842
876.393	16029
876.521	15895
876.65	15838
876.778	15895
876.906	15857
877.034	15766
877.162	15804
877.29	15907
877.418	15781
877.546	15945
877.674	15949
877.802	15934
877.93	15926
878.058	15926
878.185	15842
878.313	15827
878.441	15964
878.568	15671
878.696	15827
878.824	15972
878.951	16071
879.079	16048
879.206	16234
879.333	16040
879.461	15983
879.588	16124
879.715	16150
879.842	16192
879.97	15937
880.097	15694
880.224	15747
880.351	15747
880.478	15808
880.605	15793
880.732	15785
880.859	15956
880.986	15766
881.112	15785
881.239	15603
881.366	15545
881.493	15519
881.619	15393
881.746	15462
881.872	15431
881.999	15329
882.125	15412
882.252	15504
882.378	15397
882.505	15580
882.631	15378
882.757	15264
882.883	15245
883.01	15260
883.136	15154
883.262	15032
883.388	15062
883.514	15233
883.64	15340
883.766	15074
883.892	15036
884.018	15001
884.143	15264
884.269	15131
884.395	14990
884.52	14910
884.646	14956
884.772	14853
884.897	14785
885.023	14975
885.148	14941
885.274	15013
885.399	15051
885.524	14963
885.65	14952
885.775	14918
885.9	14887
886.025	15028
886.15	15081
886.275	14849
886.4	14785
886.525	14887
886.65	14811
886.775	14746
886.9	15089
887.025	15116
887.149	14872
887.274	14754
887.399	14686
887.523	14727
887.648	14678
887.773	14636
887.897	14861
888.021	14838
888.146	14678
888.27	14777
888.395	14872
888.519	14830
888.643	14746
888.767	14769
888.891	14667
889.015	14598
889.139	14621
889.263	14492
889.387	14636
889.511	14785
889.635	14750
889.759	14533
889.883	14606
890.006	14697
890.13	14712
890.254	14587
890.377	14518
890.501	14400
890.624	14336
890.748	14442
890.871	14298
890.995	14286
891.118	14218
891.241	14332
891.364	14221
891.488	14305
891.611	14225
891.734	14263
891.857	14328
891.98	14221
892.103	14385
892.226	14415
892.349	14237
892.471	14172
892.594	14199
892.717	14377
892.839	14244
892.962	14385
893.085	14370
893.207	14233
893.33	14183
893.452	14138
893.575	14381
893.697	14294
893.819	14404
893.941	14431
894.064	14469
894.186	14187
894.308	14282
894.43	14461
894.552	14461
894.674	14431
894.796	14244
894.918	14278
895.04	14286
895.161	14450
895.283	14408
895.405	14309
895.526	14362
895.648	14339
895.769	14423
895.891	14465
896.012	14415
896.134	14492
896.255	14499
896.376	14400
896.498	14488
896.619	14473
896.74	14450
896.861	14457
896.982	14731
897.103	14986
897.224	14819
897.345	14678
897.466	14564
897.587	14678
897.708	14857
897.828	14765
897.949	14636
898.07	14632
898.19	14651
898.311	14902
898.431	14746
898.552	14735
898.672	14830
898.792	14994
898.913	14743
899.033	14708
899.153	14754
899.273	14579
899.393	14594
899.513	14621
899.633	14731
899.753	14674
899.873	14655
899.993	14724
900.113	14678
900.232	14823
900.352	14621
900.472	14511
900.591	14434
900.711	14484
900.83	14530
900.95	14629
901.069	14640
901.189	14499
901.308	14157
901.427	14180
901.546	14233
901.665	14183
901.784	14221
901.904	14119
902.023	13967
902.141	13837
902.26	13799
902.379	13868
902.498	13818
902.617	13807
902.735	13780
902.854	13757
902.973	13636
903.091	13460
903.21	13499
903.328	13537
903.446	13422
903.565	13266
903.683	13316
903.801	13156
903.919	13316
904.038	13217
904.156	13164
904.274	13187
904.392	13202
904.51	13099
904.627	13080
904.745	13099
904.863	13179
904.981	12871
905.098	12810
905.216	12882
905.334	12817
905.451	12776
905.569	12825
905.686	12791
905.803	12810
905.921	12738
906.038	12753
906.155	12669
906.272	12608
906.389	12601
906.506	12376
906.623	12452
906.74	12369
906.857	12289
906.974	12376
907.091	12513
907.208	12566
907.324	12399
907.441	12258
907.557	12243
907.674	12163
907.79	12121
907.907	12079
908.023	12163
908.139	12121
908.256	12064
908.372	12117
908.488	11996
908.604	11912
908.72	11809
908.836	11851
908.952	11878
909.068	11920
909.184	11996
909.3	11973
909.415	11992
909.531	11901
909.647	11684
909.762	11745
909.878	11695
909.993	11646
910.108	11688
910.224	11646
910.339	11611
910.454	11592
910.57	11516
910.685	11353
910.8	11783
910.915	11684
911.03	11619
911.145	11356
911.259	11288
911.374	11414
911.489	11364
911.604	11280
911.718	11117
911.833	11132
911.947	10961
912.062	10915
912.176	11181
912.291	11056
912.405	11109
912.519	11303
912.633	11345
912.748	11216
912.862	11151
912.976	10980
913.09	10854
913.204	10892
913.318	11121
913.431	11128
913.545	11117
913.659	11197
913.772	11014
913.886	10889
914	10873
914.113	10911
914.226	11075
914.34	10938
914.453	10793
914.566	10999
914.68	10862
914.793	10790
914.906	10660
915.019	10622
915.132	10508
915.245	10637
915.358	10691
915.47	10672
915.583	10706
915.696	10725
915.809	10774
915.921	10831
916.034	10599
916.146	10653
916.259	10622
916.371	10634
916.483	10618
916.595	10481
916.708	10497
916.82	10516
916.932	10462
917.044	10558
917.156	10588
917.268	10440
917.38	10451
917.491	10352
917.603	10481
917.715	10588
917.826	10558
917.938	10386
918.049	10310
918.161	10478
918.272	10649
918.384	10626
918.495	10504
918.606	10246
918.717	10249
918.828	10348
918.939	10318
919.05	10246
919.161	10329
919.272	10150
919.383	10173
919.494	10333
919.604	10588
919.715	10295
919.826	10257
919.936	10276
920.047	10363
920.157	10356
920.267	10519
920.378	10394
920.488	10299
920.598	10455
920.708	10679
920.818	10535
920.928	10573
921.038	10687
921.148	10634
921.258	10394
921.368	10276
921.477	10215
921.587	10139
921.697	10048
921.806	10215
921.916	9998
922.025	9994
922.134	9835
922.244	9922
922.353	9968
922.462	9835
922.571	9679
922.68	9663
922.789	9576
922.898	9618
923.007	9504
923.116	9709
923.224	9603
923.333	9580
923.442	9534
923.55	9408
923.659	9557
923.767	9564
923.876	9496
923.984	9545
924.092	9454
924.201	9488
924.309	9473
924.417	9485
924.525	9397
924.633	9450
924.741	10413
924.849	9241
924.956	9469
925.064	9264
925.172	9245
925.279	9230
925.387	9245
925.494	9306
925.602	9382
925.709	9317
925.816	9211
925.924	9237
926.031	9382
926.138	9222
926.245	9351
926.352	9222
926.459	9321
926.566	9359
926.673	9233
926.779	9112
926.886	9127
926.993	8956
927.099	9017
927.206	8906
927.312	8994
927.419	8979
927.525	9024
927.631	9039
927.737	8929
927.843	8918
927.95	8834
928.056	8887
928.162	8849
928.267	8872
928.373	9454
928.479	9001
928.585	8758
928.69	8868
928.796	8937
928.901	8750
929.007	8678
929.112	8788
929.218	8777
929.323	8636
929.428	8773
929.533	8861
929.638	8648
929.743	8651
929.848	8743
929.953	8693
930.058	8568
930.163	8469
930.267	8431
930.372	8579
930.477	8396
930.581	8716
930.685	8530
930.79	8412
930.894	8415
930.998	8469
931.103	8568
931.207	8206
931.311	8134
931.415	8100
931.519	7875
931.623	7944
