Data from test_V78500241_661.txt Node
Date: Fri Mar 25 14:38:19 CST 2022
User: usil
Spectrometer: V785-0024
Trigger mode: 0
Integration Time (sec): 4.000000E-1
Scans to average: 1
Nonlinearity correction enabled: false
Boxcar width: 0
Storing dark spectrum: false
XAxis mode: Wavelengths
Number of Pixels in Spectrum: 1024
>>>>>Begin Spectral Data<<<<<
801.071	27956
801.214	28059
801.356	27812
801.499	27553
801.641	27610
801.783	27348
801.926	27545
802.068	27405
802.211	27214
802.353	27043
802.496	27005
802.638	26861
802.78	26906
802.923	26899
803.065	26940
803.208	26914
803.35	26971
803.492	27058
803.635	27017
803.777	27001
803.919	27131
804.061	27435
804.204	27306
804.346	27074
804.488	27074
804.63	27325
804.773	27195
804.915	27260
805.057	27515
805.199	27340
805.341	27610
805.483	27553
805.626	27671
805.768	27660
805.91	27827
806.052	27914
806.194	28044
806.336	28348
806.478	28356
806.62	28440
806.762	28900
806.904	29223
807.046	29615
807.188	29996
807.33	30334
807.472	30882
807.614	31445
807.756	32320
807.898	33294
808.04	34816
808.182	36719
808.324	39096
808.465	41908
808.607	45108
808.749	47748
808.891	49392
809.033	49609
809.174	48091
809.316	45325
809.458	42102
809.6	38826
809.741	36357
809.883	34215
810.025	32994
810.166	31894
810.308	31244
810.45	30665
810.591	30022
810.733	29684
810.875	29212
811.016	28839
811.158	28698
811.299	28519
811.441	28603
811.582	28375
811.724	28204
811.865	28116
812.007	27975
812.148	27987
812.29	27781
812.431	27937
812.573	27983
812.714	28105
812.855	28162
812.997	28120
813.138	28139
813.279	28086
813.421	28044
813.562	27838
813.703	27717
813.845	27549
813.986	27245
814.127	26925
814.268	26940
814.41	26899
814.551	26876
814.692	26788
814.833	26640
814.974	26575
815.115	26552
815.256	26465
815.397	26575
815.539	26377
815.68	26358
815.821	26244
815.962	26248
816.103	26195
816.244	26024
816.385	26103
816.526	26035
816.666	25750
816.807	25605
816.948	25639
817.089	25822
817.23	25791
817.371	25708
817.512	25693
817.653	25590
817.793	25575
817.934	25727
818.075	25563
818.216	25483
818.356	25582
818.497	25362
818.638	25285
818.778	25198
818.919	25247
819.06	25255
819.2	25358
819.341	25476
819.481	25457
819.622	25632
819.762	25727
819.903	25674
820.043	25533
820.184	25411
820.324	25377
820.465	25518
820.605	25396
820.746	25453
820.886	25251
821.026	25335
821.167	25354
821.307	25247
821.447	25194
821.588	25095
821.728	24821
821.868	24859
822.008	24627
822.149	24642
822.289	24547
822.429	24330
822.569	24209
822.709	24262
822.849	24003
822.99	24125
823.13	24076
823.27	23927
823.41	23798
823.55	23771
823.69	23764
823.83	23882
823.97	23786
824.11	23661
824.25	23531
824.389	23623
824.529	23600
824.669	23615
824.809	23729
824.949	23737
825.089	23672
825.228	23562
825.368	23596
825.508	23322
825.648	23471
825.787	23334
825.927	23391
826.067	23391
826.206	23242
826.346	23387
826.485	23433
826.625	23383
826.765	23448
826.904	23448
827.044	23181
827.183	23128
827.323	22984
827.462	23041
827.601	23075
827.741	23048
827.88	22984
828.02	22980
828.159	23033
828.298	22949
828.437	23094
828.577	22938
828.716	23155
828.855	22919
828.994	22790
829.134	22755
829.273	22778
829.412	22698
829.551	22656
829.69	22637
829.829	22729
829.968	22736
830.107	22797
830.246	22656
830.385	22519
830.524	22573
830.663	22440
830.802	22367
830.941	22265
831.08	22265
831.219	22371
831.357	22417
831.496	22531
831.635	22379
831.774	22303
831.913	22287
832.051	22162
832.19	22196
832.329	22223
832.467	22055
832.606	22025
832.744	22112
832.883	22192
833.022	22253
833.16	22276
833.299	22519
833.437	22664
833.576	22774
833.714	22740
833.852	23143
833.991	23060
834.129	23212
834.267	23208
834.406	23048
834.544	23269
834.682	22900
834.821	22767
834.959	22927
835.097	22527
835.235	22550
835.373	22329
835.511	22325
835.65	22124
835.788	22211
835.926	21934
836.064	21865
836.202	21854
836.34	21998
836.478	21755
836.615	21892
836.753	21819
836.891	21873
837.029	21819
837.167	21717
837.305	21724
837.443	21724
837.58	21663
837.718	21728
837.856	21671
837.993	21534
838.131	21523
838.269	21538
838.406	21435
838.544	21412
838.681	21192
838.819	21313
838.956	21081
839.094	21001
839.231	21051
839.369	21154
839.506	21275
839.643	21237
839.781	21058
839.918	20948
840.055	21093
840.193	21020
840.33	21009
840.467	20941
840.604	20986
840.742	21207
840.879	20849
841.016	20990
841.153	20880
841.29	21146
841.427	20925
841.564	21074
841.701	21036
841.838	21020
841.975	20796
842.112	20906
842.249	20838
842.385	20739
842.522	20941
842.659	20773
842.796	20788
842.933	20872
843.069	20868
843.206	20655
843.343	20853
843.479	20906
843.616	20986
843.752	20750
843.889	20826
844.025	20971
844.162	20895
844.298	21112
844.435	21116
844.571	21374
844.708	21606
844.844	22040
844.98	22500
845.117	23014
845.253	23802
845.389	25525
845.525	28980
845.661	34557
845.798	40843
845.934	45838
846.07	47581
846.206	46234
846.342	41745
846.478	35406
846.614	29882
846.75	26225
846.886	24015
847.022	22805
847.158	21964
847.294	21500
847.429	21077
847.565	20781
847.701	20891
847.837	20374
847.972	20122
848.108	20183
848.244	20088
848.379	19947
848.515	19864
848.65	19765
848.786	19784
848.921	19833
849.057	19826
849.192	19822
849.328	19731
849.463	19586
849.598	19670
849.734	19586
849.869	19487
850.004	19499
850.14	19403
850.275	19381
850.41	19392
850.545	19324
850.68	19259
850.815	19392
850.95	19350
851.085	19521
851.22	19480
851.355	19411
851.49	19304
851.625	19422
851.76	19335
851.895	19324
852.03	19217
852.165	19354
852.299	19270
852.434	19476
852.569	19453
852.703	19411
852.838	19445
852.973	19445
853.107	19605
853.242	19392
853.376	19308
853.511	19168
853.645	19396
853.78	19590
853.914	19381
854.048	19460
854.183	19590
854.317	19696
854.451	19791
854.585	19628
854.72	19601
854.854	19662
854.988	19518
855.122	19339
855.256	19285
855.39	19301
855.524	19506
855.658	19343
855.792	19392
855.926	19365
856.06	19232
856.194	19255
856.327	19244
856.461	19145
856.595	19122
856.729	19118
856.862	19301
856.996	19190
857.13	19141
857.263	19331
857.397	19175
857.53	19141
857.664	19228
857.797	19164
857.931	19198
858.064	19171
858.197	19225
858.331	19088
858.464	19099
858.597	18901
858.731	19038
858.864	19122
858.997	19004
859.13	18928
859.263	19103
859.396	19088
859.529	18958
859.662	19053
859.795	19031
859.928	19015
860.061	19095
860.194	19076
860.327	18977
860.46	19027
860.592	19031
860.725	19107
860.858	19122
860.99	19023
861.123	18928
861.256	18840
861.388	19038
861.521	19635
861.653	18825
861.786	18802
861.918	18840
862.05	18989
862.183	18958
862.315	18962
862.447	18962
862.58	18916
862.712	18764
862.844	18608
862.976	18798
863.108	18677
863.24	19069
863.372	18616
863.504	18658
863.636	18665
863.768	18753
863.9	18665
864.032	18684
864.164	18692
864.296	18612
864.428	18875
864.559	18738
864.691	18654
864.823	18673
864.954	18616
865.086	18703
865.217	18509
865.349	18475
865.48	18623
865.612	18593
865.743	18620
865.875	18551
866.006	18528
866.137	18661
866.269	18585
866.4	18551
866.531	18509
866.662	18494
866.793	18673
866.924	18574
867.055	18502
867.186	18506
867.317	18513
867.448	18456
867.579	18525
867.71	18456
867.841	18414
867.972	18536
868.103	18544
868.233	18536
868.364	18483
868.495	18593
868.625	18791
868.756	18928
868.886	18768
869.017	18764
869.147	18856
869.278	19012
869.408	18867
869.539	18810
869.669	18871
869.799	18924
869.929	18973
870.06	18932
870.19	19168
870.32	19046
870.45	19126
870.58	19221
870.71	19297
870.84	19369
870.97	19274
871.1	19114
871.23	19441
871.36	19449
871.489	19422
871.619	19430
871.749	19480
871.879	19643
872.008	19525
872.138	19613
872.267	19506
872.397	19457
872.526	19407
872.656	19392
872.785	19369
872.915	19662
873.044	19727
873.173	19674
873.303	19689
873.432	19742
873.561	19734
873.69	19750
873.819	19689
873.948	19890
874.077	19841
874.206	19712
874.335	19909
874.464	20039
874.593	20138
874.722	20229
874.851	20237
874.979	20282
875.108	20309
875.237	20275
875.365	20237
875.494	20377
875.623	20473
875.751	20317
875.88	20545
876.008	20682
876.136	20769
876.265	20979
876.393	21233
876.521	21157
876.65	21291
876.778	21142
876.906	21199
877.034	21268
877.162	21393
877.29	21428
877.418	21447
877.546	21663
877.674	21759
877.802	21789
877.93	21960
878.058	22169
878.185	22169
878.313	22451
878.441	22835
878.568	23140
878.696	23691
878.824	24483
878.951	25632
879.079	27081
879.206	29003
879.333	30981
879.461	32408
879.588	33603
879.715	33557
879.842	32872
879.97	31046
880.097	28999
880.224	27389
880.351	26317
880.478	25464
880.605	24871
880.732	24597
880.859	24418
880.986	24224
881.112	24076
881.239	23851
881.366	23718
881.493	23756
881.619	23634
881.746	23646
881.872	23680
881.999	23775
882.125	23695
882.252	23813
882.378	23771
882.505	23984
882.631	23916
882.757	23604
882.883	23657
883.01	23657
883.136	23657
883.262	23482
883.388	23436
883.514	23634
883.64	23596
883.766	23577
883.892	23353
884.018	23356
884.143	23520
884.269	23581
884.395	23387
884.52	23292
884.646	23417
884.772	23265
884.897	23261
885.023	23330
885.148	23345
885.274	23395
885.399	23391
885.524	22991
885.65	23014
885.775	22812
885.9	22740
886.025	22824
886.15	22580
886.275	22303
886.4	22162
886.525	22105
886.65	21949
886.775	21812
886.9	21816
887.025	21869
887.149	21557
887.274	21302
887.399	21142
887.523	21074
887.648	20929
887.773	20918
887.897	20845
888.021	20754
888.146	20804
888.27	20872
888.395	20796
888.519	20686
888.643	20682
888.767	20617
888.891	20438
889.015	20347
889.139	20347
889.263	20195
889.387	20195
889.511	20324
889.635	20294
889.759	20081
889.883	20145
890.006	20058
890.13	20081
890.254	19898
890.377	19852
890.501	19635
890.624	19514
890.748	19563
890.871	19559
890.995	19430
891.118	19308
891.241	19327
891.364	19232
891.488	19430
891.611	19209
891.734	19297
891.857	19274
891.98	19221
892.103	19228
892.226	19069
892.349	19038
892.471	18935
892.594	19015
892.717	18966
892.839	18916
892.962	18985
893.085	18970
893.207	18821
893.33	18627
893.452	18829
893.575	18916
893.697	18867
893.819	18962
893.941	18833
894.064	18760
894.186	18658
894.308	18700
894.43	18692
894.552	18802
894.674	18726
894.796	18429
894.918	18684
895.04	18528
895.161	18677
895.283	18509
895.405	18403
895.526	18597
895.648	18582
895.769	18661
895.891	18418
896.012	18612
896.134	18528
896.255	18551
896.376	18437
896.498	18407
896.619	18540
896.74	18426
896.861	18471
896.982	18798
897.103	18947
897.224	18764
897.345	18589
897.466	18642
897.587	18635
897.708	18639
897.828	18726
897.949	18578
898.07	18521
898.19	18559
898.311	18604
898.431	18631
898.552	18631
898.672	18661
898.792	18749
898.913	18589
899.033	18570
899.153	18460
899.273	18422
899.393	18391
899.513	18433
899.633	18422
899.753	18429
899.873	18304
899.993	18467
900.113	18334
900.232	18330
900.352	18262
900.472	18281
900.591	18171
900.711	18292
900.83	18213
900.95	18254
901.069	18243
901.189	18106
901.308	17954
901.427	17642
901.546	17817
901.665	17760
901.784	17790
901.904	17547
902.023	17429
902.141	17303
902.26	17223
902.379	17258
902.498	17151
902.617	17170
902.735	17166
902.854	17117
902.973	17079
903.091	16881
903.21	16866
903.328	16812
903.446	16752
903.565	16645
903.683	16641
903.801	16618
903.919	16550
904.038	16615
904.156	16371
904.274	16398
904.392	16299
904.51	16447
904.627	16318
904.745	16436
904.863	16310
904.981	16116
905.098	16006
905.216	16017
905.334	15972
905.451	16017
905.569	15888
905.686	15937
905.803	15949
905.921	15709
906.038	15857
906.155	15717
906.272	15694
906.389	15785
906.506	15591
906.623	15595
906.74	15549
906.857	15397
906.974	15462
907.091	15694
907.208	15606
907.324	15572
907.441	15412
907.557	15256
907.674	15325
907.79	15161
907.907	15195
908.023	15218
908.139	15222
908.256	15233
908.372	15104
908.488	15085
908.604	15013
908.72	14910
908.836	14960
908.952	14956
909.068	14880
909.184	14998
909.3	15005
909.415	14944
909.531	14918
909.647	14705
909.762	14606
909.878	14648
909.993	14571
910.108	14648
910.224	14613
910.339	14613
910.454	14533
910.57	14488
910.685	14431
910.8	14663
910.915	14606
911.03	14507
911.145	14248
911.259	14263
911.374	14206
911.489	14229
911.604	14046
911.718	14054
911.833	14035
911.947	13860
912.062	13871
912.176	13997
912.291	13978
912.405	14043
912.519	14237
912.633	14240
912.748	14084
912.862	14027
912.976	13970
913.09	13750
913.204	13864
913.318	13936
913.431	13909
913.545	13917
913.659	13951
913.772	13811
913.886	13723
914	13750
914.113	13822
914.226	13784
914.34	13780
914.453	13628
914.566	13742
914.68	13655
914.793	13605
914.906	13430
915.019	13396
915.132	13293
915.245	13426
915.358	13476
915.47	13460
915.583	13316
915.696	13472
915.809	13632
915.921	13578
916.034	13419
916.146	13346
916.259	13266
916.371	13396
916.483	13438
916.595	13384
916.708	13221
916.82	13324
916.932	13278
917.044	13251
917.156	13228
917.268	13168
917.38	13179
917.491	13156
917.603	13137
917.715	13225
917.826	13160
917.938	13023
918.049	12947
918.161	13057
918.272	13255
918.384	13202
918.495	13072
918.606	12905
918.717	12840
918.828	12932
918.939	12905
919.05	12821
919.161	12806
919.272	12616
919.383	12741
919.494	12905
919.604	13027
919.715	12852
919.826	12798
919.936	12814
920.047	12871
920.157	12932
920.267	13034
920.378	12745
920.488	12897
920.598	13004
920.708	13198
920.818	12916
920.928	12962
921.038	13069
921.148	13069
921.258	12734
921.368	12749
921.477	12620
921.587	12646
921.697	12464
921.806	12585
921.916	12536
922.025	12346
922.134	12243
922.244	12159
922.353	12254
922.462	12167
922.571	12057
922.68	11901
922.789	11851
922.898	11942
923.007	11840
923.116	11969
923.224	11802
923.333	11828
923.442	11802
923.55	11661
923.659	11836
923.767	11859
923.876	11726
923.984	11855
924.092	11585
924.201	11741
924.309	11745
924.417	11760
924.525	11516
924.633	11646
924.741	12429
924.849	11482
924.956	11573
925.064	11433
925.172	11387
925.279	11516
925.387	11421
925.494	11448
925.602	11547
925.709	11501
925.816	11376
925.924	11372
926.031	11364
926.138	11391
926.245	11383
926.352	11322
926.459	11391
926.566	11417
926.673	11326
926.779	11132
926.886	11143
926.993	11105
927.099	10965
927.206	10965
927.312	11025
927.419	11067
927.525	10938
927.631	11079
927.737	11048
927.843	10839
927.95	10767
928.056	10828
928.162	10953
928.267	10896
928.373	11444
928.479	10968
928.585	10782
928.69	10930
928.796	10900
928.901	10771
929.007	10641
929.112	10782
929.218	10698
929.323	10733
929.428	10641
929.533	10763
929.638	10611
929.743	10527
929.848	10717
929.953	10588
930.058	10550
930.163	10382
930.267	10428
930.372	10497
930.477	10379
930.581	10451
930.685	10386
930.79	10333
930.894	10363
930.998	10299
931.103	10306
931.207	10055
931.311	10048
931.415	9846
931.519	9686
931.623	9724
