Data from test_V78500241_1290.txt Node
Date: Fri Mar 25 14:42:41 CST 2022
User: usil
Spectrometer: V785-0024
Trigger mode: 0
Integration Time (sec): 4.000000E-1
Scans to average: 1
Nonlinearity correction enabled: false
Boxcar width: 0
Storing dark spectrum: false
XAxis mode: Wavelengths
Number of Pixels in Spectrum: 1024
>>>>>Begin Spectral Data<<<<<
801.071	22474
801.214	22261
801.356	22120
801.499	21983
801.641	21827
801.783	21713
801.926	21800
802.068	21629
802.211	21660
802.353	21648
802.496	21351
802.638	21230
802.78	21165
802.923	21195
803.065	21039
803.208	21135
803.35	21116
803.492	21317
803.635	21294
803.777	21119
803.919	21180
804.061	21515
804.204	21104
804.346	21013
804.488	20933
804.63	21020
804.773	21036
804.915	21066
805.057	21203
805.199	21036
805.341	21081
805.483	21150
805.626	21142
805.768	21001
805.91	20963
806.052	20986
806.194	20960
806.336	21100
806.478	21055
806.62	20986
806.762	21070
806.904	21279
807.046	21389
807.188	21332
807.33	21329
807.472	21462
807.614	21355
807.756	21363
807.898	21291
808.04	21176
808.182	21131
808.324	21169
808.465	21218
808.607	21492
808.749	21538
808.891	21774
809.033	21667
809.174	21694
809.316	21545
809.458	21568
809.6	21462
809.741	21591
809.883	21515
810.025	21686
810.166	21591
810.308	21542
810.45	21485
810.591	21488
810.733	21431
810.875	21272
811.016	21157
811.158	21195
811.299	21317
811.441	21313
811.582	21317
811.724	21108
811.865	21127
812.007	21127
812.148	21157
812.29	21211
812.431	21348
812.573	21408
812.714	21637
812.855	21648
812.997	21732
813.138	21945
813.279	21835
813.421	21682
813.562	21663
813.703	21485
813.845	21431
813.986	21074
814.127	20937
814.268	20876
814.41	20792
814.551	20731
814.692	20800
814.833	20663
814.974	20727
815.115	20644
815.256	20705
815.397	20636
815.539	20571
815.68	20507
815.821	20408
815.962	20419
816.103	20396
816.244	20290
816.385	20381
816.526	20202
816.666	20031
816.807	19879
816.948	19982
817.089	19997
817.23	19986
817.371	19917
817.512	19887
817.653	19830
817.793	19868
817.934	19890
818.075	19967
818.216	19913
818.356	19928
818.497	19693
818.638	19590
818.778	19548
818.919	19693
819.06	19632
819.2	19738
819.341	19776
819.481	19795
819.622	19856
819.762	20122
819.903	20103
820.043	19932
820.184	19818
820.324	19879
820.465	19921
820.605	19814
820.746	19791
820.886	19731
821.026	19856
821.167	19887
821.307	19925
821.447	19753
821.588	19765
821.728	19571
821.868	19426
822.008	19278
822.149	19266
822.289	19202
822.429	19034
822.569	19072
822.709	19061
822.849	18779
822.99	18798
823.13	18730
823.27	18814
823.41	18490
823.55	18456
823.69	18620
823.83	18608
823.97	18528
824.11	18448
824.25	18372
824.389	18445
824.529	18506
824.669	18448
824.809	18517
824.949	18414
825.089	18479
825.228	18372
825.368	18159
825.508	18216
825.648	18232
825.787	18213
825.927	18300
826.067	18045
826.206	18186
826.346	18201
826.485	18194
826.625	18133
826.765	18350
826.904	18243
827.044	17961
827.183	17802
827.323	17851
827.462	17961
827.601	17851
827.741	17916
827.88	17878
828.02	17794
828.159	17847
828.298	17961
828.437	17999
828.577	17863
828.716	17965
828.855	17710
828.994	17680
829.134	17630
829.273	17630
829.412	17691
829.551	17585
829.69	17665
829.829	17687
829.968	17691
830.107	17619
830.246	17646
830.385	17585
830.524	17581
830.663	17512
830.802	17311
830.941	17296
831.08	17223
831.219	17284
831.357	17368
831.496	17406
831.635	17246
831.774	17227
831.913	17235
832.051	17117
832.19	17006
832.329	17117
832.467	17029
832.606	16839
832.744	16908
832.883	16915
833.022	16968
833.16	17014
833.299	17010
833.437	16972
833.576	17003
833.714	16927
833.852	17041
833.991	17022
834.129	16991
834.267	17109
834.406	16984
834.544	17105
834.682	17121
834.821	16987
834.959	17189
835.097	17014
835.235	17117
835.373	17045
835.511	17090
835.65	17052
835.788	16953
835.926	16778
836.064	16679
836.202	16687
836.34	16980
836.478	17010
836.615	16862
836.753	16953
836.891	16938
837.029	16976
837.167	16942
837.305	16820
837.443	16797
837.58	16702
837.718	16968
837.856	16683
837.993	16645
838.131	16805
838.269	16668
838.406	16805
838.544	16744
838.681	16535
838.819	16485
838.956	16314
839.094	16310
839.231	16325
839.369	16508
839.506	16755
839.643	16504
839.781	16322
839.918	16177
840.055	16333
840.193	16287
840.33	16436
840.467	16265
840.604	16360
840.742	16622
840.879	16219
841.016	16272
841.153	16306
841.29	16459
841.427	16291
841.564	16382
841.701	16310
841.838	16188
841.975	16181
842.112	16215
842.249	16207
842.385	16055
842.522	16310
842.659	16109
842.796	16086
842.933	16097
843.069	16021
843.206	16017
843.343	16078
843.479	16200
843.616	16097
843.752	15888
843.889	15949
844.025	15972
844.162	15804
844.298	16025
844.435	15895
844.571	15926
844.708	15960
844.844	16021
844.98	16044
845.117	16048
845.253	15827
845.389	15766
845.525	15907
845.661	15895
845.798	15800
845.934	15934
846.07	15793
846.206	15857
846.342	15930
846.478	15816
846.614	15511
846.75	15447
846.886	15363
847.022	15534
847.158	15382
847.294	15458
847.429	15447
847.565	15545
847.701	15679
847.837	15298
847.972	15188
848.108	15298
848.244	15222
848.379	15077
848.515	15013
848.65	14982
848.786	15055
848.921	15058
849.057	15100
849.192	15195
849.328	15119
849.463	15070
849.598	15112
849.734	14956
849.869	14914
850.004	14769
850.14	14887
850.275	14823
850.41	14743
850.545	14724
850.68	14811
850.815	14754
850.95	14785
851.085	15005
851.22	14853
851.355	14849
851.49	14857
851.625	14800
851.76	14785
851.895	14781
852.03	14724
852.165	14815
852.299	14807
852.434	14895
852.569	14823
852.703	14830
852.838	14975
852.973	15024
853.107	14887
853.242	14815
853.376	14693
853.511	14549
853.645	14651
853.78	14838
853.914	14678
854.048	14670
854.183	14610
854.317	14655
854.451	14819
854.585	14617
854.72	14667
854.854	14640
854.988	14594
855.122	14583
855.256	14583
855.39	14598
855.524	14693
855.658	14743
855.792	14644
855.926	14792
856.06	14754
856.194	14807
856.327	14602
856.461	14613
856.595	14575
856.729	14640
856.862	14689
856.996	14686
857.13	14743
857.263	14853
857.397	14762
857.53	14613
857.664	14758
857.797	14773
857.931	14781
858.064	14712
858.197	14735
858.331	14701
858.464	14568
858.597	14507
858.731	14613
858.864	14670
858.997	14644
859.13	14758
859.263	14686
859.396	14785
859.529	14655
859.662	14651
859.795	14610
859.928	14712
860.061	14785
860.194	14861
860.327	14705
860.46	14739
860.592	14823
860.725	14800
860.858	14716
860.99	14705
861.123	14503
861.256	14648
861.388	14682
861.521	15393
861.653	14552
861.786	14571
861.918	14492
862.05	14613
862.183	14594
862.315	14564
862.447	14716
862.58	14583
862.712	14434
862.844	14385
862.976	14503
863.108	14499
863.24	14838
863.372	14362
863.504	14423
863.636	14431
863.768	14465
863.9	14476
864.032	14419
864.164	14412
864.296	14473
864.428	14568
864.559	14545
864.691	14571
864.823	14499
864.954	14454
865.086	14541
865.217	14400
865.349	14408
865.48	14457
865.612	14419
865.743	14530
865.875	14511
866.006	14419
866.137	14366
866.269	14381
866.4	14393
866.531	14381
866.662	14252
866.793	14343
866.924	14427
867.055	14427
867.186	14442
867.317	14366
867.448	14256
867.579	14484
867.71	14339
867.841	14351
867.972	14362
868.103	14442
868.233	14328
868.364	14518
868.495	14530
868.625	14636
868.756	14720
868.886	14648
869.017	14613
869.147	14868
869.278	14739
869.408	14663
869.539	14606
869.669	14746
869.799	14720
869.929	14815
870.06	14769
870.19	15001
870.32	14967
870.45	15051
870.58	15074
870.71	15142
870.84	15142
870.97	15112
871.1	15047
871.23	15355
871.36	15268
871.489	15207
871.619	15218
871.749	15336
871.879	15294
872.008	15344
872.138	15252
872.267	15340
872.397	15085
872.526	15093
872.656	15214
872.785	15138
872.915	15252
873.044	15272
873.173	15256
873.303	15332
873.432	15363
873.561	15393
873.69	15321
873.819	15363
873.948	15450
874.077	15378
874.206	15264
874.335	15249
874.464	15477
874.593	15652
874.722	15553
874.851	15599
874.979	15595
875.108	15720
875.237	15580
875.365	15534
875.494	15572
875.623	15625
875.751	15614
875.88	15606
876.008	15717
876.136	15781
876.265	15991
876.393	16196
876.521	16169
876.65	16082
876.778	16067
876.906	15956
877.034	15949
877.162	16017
877.29	16032
877.418	16097
877.546	16051
877.674	16124
877.802	16021
877.93	16082
878.058	16063
878.185	15915
878.313	15968
878.441	16010
878.568	15876
878.696	15960
878.824	16128
878.951	16215
879.079	16257
879.206	16314
879.333	16242
879.461	16211
879.588	16177
879.715	16230
879.842	16329
879.97	16139
880.097	15915
880.224	15838
880.351	15964
880.478	15865
880.605	15907
880.732	15854
880.859	16116
880.986	15869
881.112	15808
881.239	15751
881.366	15652
881.493	15641
881.619	15568
881.746	15538
881.872	15572
881.999	15530
882.125	15469
882.252	15618
882.378	15648
882.505	15637
882.631	15466
882.757	15405
882.883	15435
883.01	15386
883.136	15332
883.262	15150
883.388	15226
883.514	15351
883.64	15382
883.766	15283
883.892	15119
884.018	15249
884.143	15348
884.269	15481
884.395	15176
884.52	14933
884.646	15112
884.772	15001
884.897	14944
885.023	14960
885.148	15142
885.274	15207
885.399	15146
885.524	15062
885.65	15077
885.775	15005
885.9	15047
886.025	15245
886.15	15123
886.275	15097
886.4	14800
886.525	15024
886.65	15001
886.775	14986
886.9	15252
887.025	15233
887.149	14948
887.274	14967
887.399	14861
887.523	14864
887.648	14807
887.773	14765
887.897	14963
888.021	14929
888.146	14845
888.27	15055
888.395	14994
888.519	14857
888.643	15020
888.767	14895
888.891	14785
889.015	14792
889.139	14746
889.263	14693
889.387	14861
889.511	14845
889.635	14857
889.759	14697
889.883	14724
890.006	14739
890.13	14880
890.254	14621
890.377	14629
890.501	14473
890.624	14454
890.748	14651
890.871	14484
890.995	14351
891.118	14442
891.241	14370
891.364	14450
891.488	14560
891.611	14434
891.734	14381
891.857	14469
891.98	14374
892.103	14408
892.226	14393
892.349	14412
892.471	14309
892.594	14381
892.717	14454
892.839	14446
892.962	14511
893.085	14473
893.207	14396
893.33	14282
893.452	14286
893.575	14480
893.697	14400
893.819	14545
893.941	14720
894.064	14518
894.186	14355
894.308	14381
894.43	14473
894.552	14663
894.674	14507
894.796	14457
894.918	14408
895.04	14347
895.161	14526
895.283	14526
895.405	14461
895.526	14488
895.648	14610
895.769	14545
895.891	14518
896.012	14667
896.134	14678
896.255	14621
896.376	14541
896.498	14571
896.619	14598
896.74	14537
896.861	14644
896.982	14979
897.103	15097
897.224	14834
897.345	14792
897.466	14796
897.587	14815
897.708	14952
897.828	14914
897.949	14788
898.07	14758
898.19	14838
898.311	14971
898.431	14948
898.552	14902
898.672	15085
898.792	15013
898.913	15039
899.033	14914
899.153	14743
899.273	14632
899.393	14826
899.513	14754
899.633	14811
899.753	14887
899.873	14731
899.993	14769
900.113	14807
900.232	14883
900.352	14883
900.472	14632
900.591	14629
900.711	14663
900.83	14625
900.95	14720
901.069	14693
901.189	14575
901.308	14317
901.427	14309
901.546	14408
901.665	14328
901.784	14294
901.904	14214
902.023	14050
902.141	13932
902.26	13864
902.379	13982
902.498	13879
902.617	13860
902.735	13890
902.854	13879
902.973	13807
903.091	13483
903.21	13556
903.328	13548
903.446	13559
903.565	13373
903.683	13381
903.801	13373
903.919	13419
904.038	13335
904.156	13293
904.274	13255
904.392	13228
904.51	13228
904.627	13289
904.745	13228
904.863	13343
904.981	12962
905.098	12924
905.216	12916
905.334	12981
905.451	12943
905.569	12882
905.686	12989
905.803	13015
905.921	12719
906.038	12802
906.155	12817
906.272	12738
906.389	12654
906.506	12532
906.623	12585
906.74	12521
906.857	12357
906.974	12471
907.091	12513
907.208	12654
907.324	12566
907.441	12395
907.557	12232
907.674	12209
907.79	12155
907.907	12216
908.023	12254
908.139	12369
908.256	12186
908.372	12144
908.488	12091
908.604	12053
908.72	11988
908.836	11965
908.952	11977
909.068	12034
909.184	12053
909.3	11999
909.415	12064
909.531	12057
909.647	11855
909.762	11722
909.878	11710
909.993	11767
910.108	11764
910.224	11771
910.339	11710
910.454	11722
910.57	11630
910.685	11501
910.8	11836
910.915	11813
911.03	11676
911.145	11421
911.259	11474
911.374	11440
911.489	11444
911.604	11379
911.718	11235
911.833	11235
911.947	11121
912.062	10995
912.176	11212
912.291	11239
912.405	11296
912.519	11391
912.633	11379
912.748	11292
912.862	11239
912.976	11136
913.09	10953
913.204	11075
913.318	11128
913.431	11208
913.545	11201
913.659	11220
913.772	11029
913.886	10995
914	10942
914.113	11033
914.226	11075
914.34	11041
914.453	10866
914.566	11098
914.68	10927
914.793	10972
914.906	10778
915.019	10729
915.132	10668
915.245	10702
915.358	10797
915.47	10752
915.583	10759
915.696	10786
915.809	10858
915.921	10862
916.034	10611
916.146	10634
916.259	10653
916.371	10733
916.483	10752
916.595	10683
916.708	10710
916.82	10664
916.932	10668
917.044	10599
917.156	10527
917.268	10478
917.38	10527
917.491	10592
917.603	10554
917.715	10645
917.826	10630
917.938	10474
918.049	10363
918.161	10538
918.272	10615
918.384	10649
918.495	10527
918.606	10497
918.717	10371
918.828	10462
918.939	10375
919.05	10409
919.161	10500
919.272	10272
919.383	10238
919.494	10436
919.604	10672
919.715	10451
919.826	10318
919.936	10432
920.047	10519
920.157	10424
920.267	10656
920.378	10481
920.488	10462
920.598	10649
920.708	10805
920.818	10592
920.928	10706
921.038	10729
921.148	10774
921.258	10485
921.368	10303
921.477	10314
921.587	10261
921.697	10188
921.806	10265
921.916	10181
922.025	10002
922.134	9968
922.244	9895
922.353	10055
922.462	9823
922.571	9789
922.68	9614
922.789	9694
922.898	9743
923.007	9526
923.116	9679
923.224	9561
923.333	9652
923.442	9614
923.55	9610
923.659	9572
923.767	9572
923.876	9534
923.984	9591
924.092	9496
924.201	9496
924.309	9492
924.417	9542
924.525	9420
924.633	9622
924.741	10276
924.849	9344
924.956	9439
925.064	9336
925.172	9207
925.279	9325
925.387	9298
925.494	9306
925.602	9450
925.709	9447
925.816	9268
925.924	9340
926.031	9386
926.138	9393
926.245	9477
926.352	9272
926.459	9389
926.566	9397
926.673	9317
926.779	9157
926.886	9192
926.993	9043
927.099	8899
927.206	8994
927.312	8979
927.419	9043
927.525	9017
927.631	9070
927.737	8994
927.843	8948
927.95	8849
928.056	8956
928.162	8929
928.267	8895
928.373	9568
928.479	9009
928.585	8750
928.69	8925
928.796	8914
928.901	8830
929.007	8686
929.112	8811
929.218	8815
929.323	8781
929.428	8743
929.533	8887
929.638	8667
929.743	8670
929.848	8754
929.953	8731
930.058	8678
930.163	8514
930.267	8514
930.372	8655
930.477	8503
930.581	8735
930.685	8533
930.79	8385
930.894	8499
930.998	8434
931.103	8537
931.207	8233
931.311	8305
931.415	8054
931.519	7955
931.623	7925
