Data from test_V78500241_3250.txt Node
Date: Fri Mar 25 14:56:20 CST 2022
User: usil
Spectrometer: V785-0024
Trigger mode: 0
Integration Time (sec): 4.000000E-1
Scans to average: 1
Nonlinearity correction enabled: false
Boxcar width: 0
Storing dark spectrum: false
XAxis mode: Wavelengths
Number of Pixels in Spectrum: 1024
>>>>>Begin Spectral Data<<<<<
801.071	22090
801.214	21842
801.356	21690
801.499	21408
801.641	21382
801.783	21393
801.926	21447
802.068	21302
802.211	21157
802.353	21207
802.496	21028
802.638	20914
802.78	20891
802.923	20758
803.065	20746
803.208	20659
803.35	20705
803.492	20773
803.635	20785
803.777	20552
803.919	20743
804.061	20948
804.204	20804
804.346	20674
804.488	20564
804.63	20659
804.773	20526
804.915	20617
805.057	20640
805.199	20594
805.341	20560
805.483	20651
805.626	20648
805.768	20461
805.91	20606
806.052	20454
806.194	20590
806.336	20640
806.478	20594
806.62	20564
806.762	20587
806.904	20815
807.046	20963
807.188	20887
807.33	20872
807.472	20902
807.614	20735
807.756	20834
807.898	20712
808.04	20663
808.182	20571
808.324	20579
808.465	20667
808.607	20849
808.749	21001
808.891	21070
809.033	21096
809.174	20906
809.316	20834
809.458	21028
809.6	20918
809.741	20967
809.883	20975
810.025	21108
810.166	21036
810.308	21119
810.45	20963
810.591	20925
810.733	20750
810.875	20716
811.016	20575
811.158	20552
811.299	20716
811.441	20845
811.582	20804
811.724	20765
811.865	20625
812.007	20716
812.148	20644
812.29	20746
812.431	20724
812.573	20971
812.714	21089
812.855	21245
812.997	21317
813.138	21340
813.279	21351
813.421	21351
813.562	21180
813.703	20986
813.845	20895
813.986	20575
814.127	20355
814.268	20305
814.41	20370
814.551	20149
814.692	20324
814.833	20069
814.974	20187
815.115	20240
815.256	20062
815.397	20172
815.539	20111
815.68	20103
815.821	19955
815.962	20043
816.103	19955
816.244	19879
816.385	19742
816.526	19613
816.666	19601
816.807	19396
816.948	19400
817.089	19460
817.23	19502
817.371	19308
817.512	19392
817.653	19339
817.793	19289
817.934	19362
818.075	19392
818.216	19346
818.356	19255
818.497	19179
818.638	19133
818.778	19084
818.919	19042
819.06	19072
819.2	19160
819.341	19232
819.481	19301
819.622	19430
819.762	19571
819.903	19476
820.043	19502
820.184	19335
820.324	19247
820.465	19358
820.605	19434
820.746	19316
820.886	19080
821.026	19301
821.167	19362
821.307	19297
821.447	19190
821.588	19183
821.728	19099
821.868	18897
822.008	18768
822.149	18798
822.289	18802
822.429	18433
822.569	18559
822.709	18437
822.849	18296
822.99	18171
823.13	18220
823.27	18209
823.41	18087
823.55	18091
823.69	18095
823.83	18102
823.97	17958
824.11	17870
824.25	17828
824.389	17771
824.529	17855
824.669	17843
824.809	17870
824.949	17889
825.089	17927
825.228	17760
825.368	17691
825.508	17695
825.648	17573
825.787	17710
825.927	17691
826.067	17554
826.206	17581
826.346	17726
826.485	17657
826.625	17570
826.765	17733
826.904	17726
827.044	17417
827.183	17398
827.323	17349
827.462	17261
827.601	17311
827.741	17261
827.88	17364
828.02	17193
828.159	17315
828.298	17376
828.437	17356
828.577	17261
828.716	17406
828.855	17223
828.994	17109
829.134	17014
829.273	17075
829.412	16984
829.551	17006
829.69	17105
829.829	17022
829.968	17124
830.107	17067
830.246	17006
830.385	17033
830.524	16961
830.663	16824
830.802	16797
830.941	16694
831.08	16675
831.219	16774
831.357	16786
831.496	16858
831.635	16641
831.774	16516
831.913	16611
832.051	16516
832.19	16489
832.329	16481
832.467	16394
832.606	16390
832.744	16367
832.883	16443
833.022	16284
833.16	16306
833.299	16523
833.437	16459
833.576	16409
833.714	16386
833.852	16344
833.991	16443
834.129	16512
834.267	16466
834.406	16390
834.544	16443
834.682	16493
834.821	16386
834.959	16626
835.097	16424
835.235	16481
835.373	16443
835.511	16447
835.65	16363
835.788	16306
835.926	16192
836.064	16090
836.202	16147
836.34	16299
836.478	16386
836.615	16375
836.753	16436
836.891	16436
837.029	16226
837.167	16295
837.305	16204
837.443	16310
837.58	16234
837.718	16211
837.856	16154
837.993	16204
838.131	16200
838.269	16181
838.406	16226
838.544	16025
838.681	15945
838.819	15968
838.956	15755
839.094	15766
839.231	15854
839.369	15941
839.506	16154
839.643	16048
839.781	15842
839.918	15709
840.055	15770
840.193	15751
840.33	15679
840.467	15717
840.604	15637
840.742	15998
840.879	15701
841.016	15713
841.153	15599
841.29	15983
841.427	15728
841.564	15755
841.701	15835
841.838	15671
841.975	15667
842.112	15698
842.249	15663
842.385	15462
842.522	15755
842.659	15515
842.796	15576
842.933	15637
843.069	15561
843.206	15553
843.343	15667
843.479	15580
843.616	15526
843.752	15348
843.889	15317
844.025	15485
844.162	15260
844.298	15397
844.435	15294
844.571	15268
844.708	15348
844.844	15523
844.98	15553
845.117	15435
845.253	15317
845.389	15252
845.525	15195
845.661	15157
845.798	15176
845.934	15123
846.07	15077
846.206	15195
846.342	15176
846.478	15116
846.614	14963
846.75	14902
846.886	14864
847.022	14971
847.158	14979
847.294	14956
847.429	14914
847.565	14918
847.701	15070
847.837	14686
847.972	14549
848.108	14682
848.244	14781
848.379	14545
848.515	14530
848.65	14396
848.786	14465
848.921	14579
849.057	14705
849.192	14606
849.328	14556
849.463	14522
849.598	14434
849.734	14393
849.869	14404
850.004	14339
850.14	14347
850.275	14271
850.41	14191
850.545	14176
850.68	14233
850.815	14339
850.95	14229
851.085	14514
851.22	14358
851.355	14362
851.49	14195
851.625	14161
851.76	14278
851.895	14088
852.03	14134
852.165	14275
852.299	14374
852.434	14347
852.569	14286
852.703	14313
852.838	14434
852.973	14419
853.107	14396
853.242	14240
853.376	14115
853.511	14149
853.645	14024
853.78	14221
853.914	14187
854.048	14058
854.183	14092
854.317	14168
854.451	14320
854.585	14180
854.72	14073
854.854	14172
854.988	14024
855.122	14050
855.256	13970
855.39	14062
855.524	14202
855.658	14229
855.792	14195
855.926	14233
856.06	14218
856.194	14275
856.327	14172
856.461	14103
856.595	14069
856.729	14134
856.862	14168
856.996	14084
857.13	14176
857.263	14275
857.397	14343
857.53	14138
857.664	14187
857.797	14210
857.931	14195
858.064	14164
858.197	14172
858.331	14161
858.464	14039
858.597	14077
858.731	14210
858.864	14149
858.997	14092
859.13	14054
859.263	14183
859.396	14278
859.529	14107
859.662	14130
859.795	14065
859.928	14202
860.061	14313
860.194	14355
860.327	14183
860.46	14214
860.592	14290
860.725	14233
860.858	14218
860.99	14164
861.123	14031
861.256	14054
861.388	14195
861.521	14887
861.653	14111
861.786	13997
861.918	14035
862.05	14123
862.183	14088
862.315	14199
862.447	14206
862.58	14142
862.712	13944
862.844	13944
862.976	13940
863.108	13936
863.24	14271
863.372	13814
863.504	13913
863.636	13887
863.768	14031
863.9	13928
864.032	13784
864.164	13917
864.296	13928
864.428	14073
864.559	13993
864.691	14149
864.823	13997
864.954	13989
865.086	13993
865.217	13917
865.349	13849
865.48	13909
865.612	13967
865.743	14065
865.875	13936
866.006	13860
866.137	13925
866.269	13932
866.4	13799
866.531	13921
866.662	13879
866.793	13879
866.924	13845
867.055	13868
867.186	13883
867.317	13902
867.448	13898
867.579	13951
867.71	13799
867.841	13753
867.972	13917
868.103	13909
868.233	13864
868.364	13921
868.495	13978
868.625	14164
868.756	14263
868.886	14065
869.017	14123
869.147	14199
869.278	14294
869.408	14130
869.539	14096
869.669	14202
869.799	14324
869.929	14362
870.06	14294
870.19	14537
870.32	14492
870.45	14469
870.58	14590
870.71	14655
870.84	14689
870.97	14583
871.1	14507
871.23	14743
871.36	14716
871.489	14678
871.619	14720
871.749	14720
871.879	14811
872.008	14864
872.138	14708
872.267	14743
872.397	14667
872.526	14552
872.656	14670
872.785	14602
872.915	14819
873.044	14838
873.173	14765
873.303	14880
873.432	14800
873.561	14872
873.69	14777
873.819	14754
873.948	14918
874.077	14815
874.206	14739
874.335	14834
874.464	14982
874.593	15108
874.722	15055
874.851	15108
874.979	15169
875.108	15230
875.237	15119
875.365	15058
875.494	15214
875.623	15195
875.751	15176
875.88	15173
876.008	15287
876.136	15431
876.265	15504
876.393	15633
876.521	15705
876.65	15652
876.778	15523
876.906	15561
877.034	15545
877.162	15561
877.29	15466
877.418	15557
877.546	15656
877.674	15561
877.802	15591
877.93	15507
878.058	15466
878.185	15374
878.313	15526
878.441	15618
878.568	15374
878.696	15545
878.824	15633
878.951	15622
879.079	15705
879.206	15876
879.333	15774
879.461	15633
879.588	15705
879.715	15675
879.842	15873
879.97	15614
880.097	15458
880.224	15405
880.351	15450
880.478	15439
880.605	15454
880.732	15351
880.859	15644
880.986	15401
881.112	15428
881.239	15363
881.366	15176
881.493	15104
881.619	15062
881.746	15127
881.872	15108
881.999	15013
882.125	14986
882.252	15142
882.378	15165
882.505	15150
882.631	14963
882.757	14941
882.883	14990
883.01	14857
883.136	14823
883.262	14754
883.388	14659
883.514	14819
883.64	14994
883.766	14834
883.892	14708
884.018	14724
884.143	14899
884.269	14944
884.395	14674
884.52	14522
884.646	14610
884.772	14393
884.897	14507
885.023	14442
885.148	14655
885.274	14754
885.399	14739
885.524	14583
885.65	14621
885.775	14606
885.9	14621
886.025	14705
886.15	14697
886.275	14613
886.4	14499
886.525	14537
886.65	14457
886.775	14560
886.9	14750
887.025	14849
887.149	14617
887.274	14473
887.399	14404
887.523	14393
887.648	14282
887.773	14267
887.897	14533
888.021	14469
888.146	14347
888.27	14583
888.395	14488
888.519	14484
888.643	14564
888.767	14442
888.891	14259
889.015	14248
889.139	14339
889.263	14343
889.387	14396
889.511	14419
889.635	14457
889.759	14336
889.883	14278
890.006	14286
890.13	14355
890.254	14111
890.377	14259
890.501	14134
890.624	14012
890.748	14073
890.871	13978
890.995	14005
891.118	13913
891.241	14062
891.364	14016
891.488	14107
891.611	13898
891.734	13917
891.857	14008
891.98	14058
892.103	14107
892.226	14031
892.349	13917
892.471	13807
892.594	13967
892.717	13978
892.839	14043
892.962	13955
893.085	14119
893.207	14016
893.33	13807
893.452	13978
893.575	14046
893.697	14001
893.819	14172
893.941	14126
894.064	14142
894.186	13951
894.308	14012
894.43	14107
894.552	14210
894.674	14153
894.796	13982
894.918	14020
895.04	14008
895.161	14168
895.283	14142
895.405	14103
895.526	14069
895.648	14115
895.769	14294
895.891	14161
896.012	14153
896.134	14237
896.255	14168
896.376	14199
896.498	14149
896.619	14126
896.74	14168
896.861	14214
896.982	14480
897.103	14651
897.224	14495
897.345	14324
897.466	14362
897.587	14427
897.708	14518
897.828	14396
897.949	14431
898.07	14305
898.19	14370
898.311	14571
898.431	14450
898.552	14473
898.672	14610
898.792	14568
898.913	14503
899.033	14419
899.153	14237
899.273	14259
899.393	14336
899.513	14362
899.633	14332
899.753	14415
899.873	14294
899.993	14488
900.113	14351
900.232	14404
900.352	14259
900.472	14336
900.591	14221
900.711	14282
900.83	14214
900.95	14256
901.069	14393
901.189	14218
901.308	13978
901.427	13856
901.546	13947
901.665	13974
901.784	13898
901.904	13833
902.023	13685
902.141	13514
902.26	13388
902.379	13647
902.498	13537
902.617	13430
902.735	13533
902.854	13483
902.973	13396
903.091	13179
903.21	13141
903.328	13114
903.446	13019
903.565	13000
903.683	13149
903.801	13110
903.919	12935
904.038	13053
904.156	12894
904.274	12954
904.392	12966
904.51	12825
904.627	12859
904.745	12981
904.863	12928
904.981	12722
905.098	12616
905.216	12532
905.334	12604
905.451	12566
905.569	12521
905.686	12612
905.803	12597
905.921	12403
906.038	12555
906.155	12437
906.272	12243
906.389	12319
906.506	12209
906.623	12201
906.74	12091
906.857	12007
906.974	12019
907.091	12194
907.208	12289
907.324	12178
907.441	12155
907.557	11984
907.674	11946
907.79	11748
907.907	11870
908.023	11863
908.139	11840
908.256	11874
908.372	11908
908.488	11760
908.604	11718
908.72	11608
908.836	11668
908.952	11657
909.068	11707
909.184	11794
909.3	11623
909.415	11722
909.531	11627
909.647	11486
909.762	11459
909.878	11429
909.993	11433
910.108	11455
910.224	11379
910.339	11322
910.454	11322
910.57	11258
910.685	11201
910.8	11402
910.915	11376
911.03	11307
911.145	11204
911.259	11132
911.374	11094
911.489	11037
911.604	10999
911.718	10930
911.833	10885
911.947	10714
912.062	10797
912.176	10885
912.291	10858
912.405	10881
912.519	11113
912.633	11045
912.748	11003
912.862	10858
912.976	10816
913.09	10660
913.204	10736
913.318	10733
913.431	10908
913.545	10911
913.659	10915
913.772	10755
913.886	10702
914	10588
914.113	10706
914.226	10835
914.34	10755
914.453	10561
914.566	10752
914.68	10584
914.793	10550
914.906	10459
915.019	10352
915.132	10318
915.245	10344
915.358	10398
915.47	10455
915.583	10428
915.696	10451
915.809	10561
915.921	10497
916.034	10432
916.146	10356
916.259	10299
916.371	10478
916.483	10432
916.595	10329
916.708	10394
916.82	10337
916.932	10386
917.044	10310
917.156	10360
917.268	10253
917.38	10215
917.491	10223
917.603	10261
917.715	10379
917.826	10337
917.938	10276
918.049	10048
918.161	10268
918.272	10303
918.384	10382
918.495	10230
918.606	10124
918.717	10078
918.828	10097
918.939	10173
919.05	10051
919.161	10154
919.272	9838
919.383	9975
919.494	10154
919.604	10265
919.715	10124
919.826	10097
919.936	10109
920.047	10169
920.157	10192
920.267	10363
920.378	10158
920.488	10120
920.598	10325
920.708	10466
920.818	10295
920.928	10329
921.038	10493
921.148	10481
921.258	10166
921.368	10059
921.477	10006
921.587	10006
921.697	9972
921.806	10032
921.916	9895
922.025	9755
922.134	9671
922.244	9705
922.353	9732
922.462	9614
922.571	9507
922.68	9416
922.789	9393
922.898	9431
923.007	9386
923.116	9458
923.224	9389
923.333	9401
923.442	9272
923.55	9214
923.659	9370
923.767	9351
923.876	9302
923.984	9389
924.092	9195
924.201	9260
924.309	9199
924.417	9249
924.525	9214
924.633	9233
924.741	10097
924.849	8998
924.956	9146
925.064	9055
925.172	8960
925.279	9077
925.387	9066
925.494	9043
925.602	9180
925.709	9104
925.816	9024
925.924	9058
926.031	9253
926.138	9077
926.245	9116
926.352	9032
926.459	9051
926.566	9097
926.673	9024
926.779	8937
926.886	8910
926.993	8788
927.099	8724
927.206	8746
927.312	8735
927.419	8766
927.525	8766
927.631	8834
927.737	8682
927.843	8689
927.95	8610
928.056	8724
928.162	8689
928.267	8754
928.373	9268
928.479	8686
928.585	8560
928.69	8629
928.796	8689
928.901	8579
929.007	8400
929.112	8606
929.218	8571
929.323	8526
929.428	8442
929.533	8629
929.638	8511
929.743	8473
929.848	8530
929.953	8541
930.058	8347
930.163	8305
930.267	8305
930.372	8503
930.477	8233
930.581	8457
930.685	8370
930.79	8161
930.894	8214
930.998	8172
931.103	8286
931.207	8016
931.311	8027
931.415	7917
931.519	7731
931.623	7799
