Data from test_V78500241_1683.txt Node
Date: Fri Mar 25 14:45:26 CST 2022
User: usil
Spectrometer: V785-0024
Trigger mode: 0
Integration Time (sec): 4.000000E-1
Scans to average: 1
Nonlinearity correction enabled: false
Boxcar width: 0
Storing dark spectrum: false
XAxis mode: Wavelengths
Number of Pixels in Spectrum: 1024
>>>>>Begin Spectral Data<<<<<
801.071	22386
801.214	22124
801.356	21895
801.499	21846
801.641	21709
801.783	21709
801.926	21667
802.068	21633
802.211	21534
802.353	21496
802.496	21233
802.638	21176
802.78	21199
802.923	21066
803.065	20975
803.208	21051
803.35	20982
803.492	21112
803.635	21188
803.777	21009
803.919	21116
804.061	21355
804.204	21096
804.346	20921
804.488	20883
804.63	21001
804.773	20956
804.915	20902
805.057	21089
805.199	20883
805.341	21013
805.483	21028
805.626	21108
805.768	20823
805.91	20842
806.052	20994
806.194	20857
806.336	21039
806.478	20781
806.62	21036
806.762	21127
806.904	21017
807.046	21393
807.188	21313
807.33	21351
807.472	21279
807.614	21249
807.756	21165
807.898	20952
808.04	20918
808.182	21036
808.324	21116
808.465	21123
808.607	21291
808.749	21336
808.891	21389
809.033	21519
809.174	21450
809.316	21367
809.458	21370
809.6	21241
809.741	21340
809.883	21405
810.025	21538
810.166	21606
810.308	21496
810.45	21355
810.591	21363
810.733	21306
810.875	21161
811.016	20967
811.158	20971
811.299	21157
811.441	21268
811.582	21313
811.724	21093
811.865	21024
812.007	21028
812.148	21116
812.29	21146
812.431	21283
812.573	21367
812.714	21538
812.855	21473
812.997	21622
813.138	21800
813.279	21709
813.421	21553
813.562	21576
813.703	21386
813.845	21268
813.986	20941
814.127	20849
814.268	20701
814.41	20644
814.551	20571
814.692	20746
814.833	20518
814.974	20571
815.115	20602
815.256	20461
815.397	20541
815.539	20457
815.68	20431
815.821	20358
815.962	20393
816.103	20355
816.244	20248
816.385	20206
816.526	20069
816.666	19947
816.807	19875
816.948	19997
817.089	19849
817.23	19879
817.371	19864
817.512	19731
817.653	19830
817.793	19811
817.934	19772
818.075	19772
818.216	19830
818.356	19700
818.497	19635
818.638	19430
818.778	19510
818.919	19487
819.06	19464
819.2	19605
819.341	19700
819.481	19704
819.622	19818
819.762	19913
819.903	19875
820.043	19715
820.184	19852
820.324	19807
820.465	19814
820.605	19864
820.746	19734
820.886	19620
821.026	19700
821.167	19651
821.307	19898
821.447	19700
821.588	19537
821.728	19392
821.868	19251
822.008	19221
822.149	19145
822.289	19091
822.429	18890
822.569	18886
822.709	18901
822.849	18661
822.99	18616
823.13	18696
823.27	18673
823.41	18513
823.55	18429
823.69	18471
823.83	18448
823.97	18407
824.11	18270
824.25	18159
824.389	18235
824.529	18258
824.669	18174
824.809	18232
824.949	18228
825.089	18308
825.228	18254
825.368	17931
825.508	17992
825.648	18057
825.787	17999
825.927	18098
826.067	17870
826.206	17984
826.346	17984
826.485	17984
826.625	18041
826.765	18064
826.904	18136
827.044	17729
827.183	17714
827.323	17672
827.462	17756
827.601	17672
827.741	17695
827.88	17627
828.02	17528
828.159	17653
828.298	17649
828.437	17729
828.577	17714
828.716	17756
828.855	17657
828.994	17524
829.134	17436
829.273	17509
829.412	17505
829.551	17200
829.69	17501
829.829	17425
829.968	17547
830.107	17425
830.246	17414
830.385	17387
830.524	17360
830.663	17277
830.802	17155
830.941	17102
831.08	17010
831.219	17048
831.357	17075
831.496	17292
831.635	17037
831.774	16953
831.913	16949
832.051	16824
832.19	16858
832.329	16847
832.467	16740
832.606	16767
832.744	16660
832.883	16736
833.022	16744
833.16	16683
833.299	16900
833.437	16790
833.576	16835
833.714	16797
833.852	16869
833.991	16778
834.129	16862
834.267	16816
834.406	16854
834.544	16763
834.682	16797
834.821	16831
834.959	16987
835.097	16733
835.235	16774
835.373	16767
835.511	16774
835.65	16630
835.788	16622
835.926	16523
836.064	16447
836.202	16428
836.34	16679
836.478	16812
836.615	16664
836.753	16748
836.891	16721
837.029	16733
837.167	16729
837.305	16588
837.443	16481
837.58	16535
837.718	16752
837.856	16523
837.993	16577
838.131	16478
838.269	16402
838.406	16550
838.544	16436
838.681	16181
838.819	16325
838.956	16055
839.094	16109
839.231	16116
839.369	16181
839.506	16512
839.643	16352
839.781	16139
839.918	16230
840.055	16051
840.193	16116
840.33	16101
840.467	16143
840.604	16158
840.742	16367
840.879	15972
841.016	15892
841.153	15983
841.29	16188
841.427	16147
841.564	16093
841.701	16074
841.838	16059
841.975	16006
842.112	16025
842.249	15911
842.385	15781
842.522	16067
842.659	15960
842.796	15819
842.933	15895
843.069	15899
843.206	15770
843.343	15926
843.479	15903
843.616	15823
843.752	15690
843.889	15633
844.025	15873
844.162	15652
844.298	15789
844.435	15629
844.571	15614
844.708	15595
844.844	15850
844.98	15884
845.117	15800
845.253	15675
845.389	15553
845.525	15675
845.661	15534
845.798	15504
845.934	15637
846.07	15530
846.206	15504
846.342	15530
846.478	15538
846.614	15230
846.75	15279
846.886	15252
847.022	15370
847.158	15146
847.294	15218
847.429	15241
847.565	15180
847.701	15473
847.837	14982
847.972	14956
848.108	15028
848.244	14982
848.379	14937
848.515	14826
848.65	14697
848.786	14800
848.921	14788
849.057	14857
849.192	14868
849.328	14910
849.463	14834
849.598	14720
849.734	14708
849.869	14644
850.004	14587
850.14	14655
850.275	14636
850.41	14473
850.545	14579
850.68	14530
850.815	14731
850.95	14640
851.085	14708
851.22	14651
851.355	14571
851.49	14583
851.625	14503
851.76	14484
851.895	14503
852.03	14473
852.165	14575
852.299	14686
852.434	14613
852.569	14674
852.703	14606
852.838	14651
852.973	14712
853.107	14697
853.242	14507
853.376	14454
853.511	14317
853.645	14366
853.78	14518
853.914	14480
854.048	14415
854.183	14404
854.317	14488
854.451	14644
854.585	14469
854.72	14442
854.854	14450
854.988	14233
855.122	14465
855.256	14278
855.39	14427
855.524	14503
855.658	14480
855.792	14473
855.926	14473
856.06	14568
856.194	14537
856.327	14446
856.461	14377
856.595	14465
856.729	14511
856.862	14571
856.996	14457
857.13	14465
857.263	14606
857.397	14530
857.53	14438
857.664	14503
857.797	14492
857.931	14568
858.064	14431
858.197	14594
858.331	14507
858.464	14347
858.597	14370
858.731	14381
858.864	14526
858.997	14446
859.13	14404
859.263	14480
859.396	14541
859.529	14438
859.662	14389
859.795	14355
859.928	14473
860.061	14629
860.194	14503
860.327	14469
860.46	14503
860.592	14644
860.725	14617
860.858	14552
860.99	14499
861.123	14309
861.256	14339
861.388	14526
861.521	15150
861.653	14320
861.786	14347
861.918	14347
862.05	14412
862.183	14377
862.315	14404
862.447	14423
862.58	14370
862.712	14259
862.844	14123
862.976	14286
863.108	14229
863.24	14678
863.372	14115
863.504	14168
863.636	14195
863.768	14263
863.9	14263
864.032	14126
864.164	14180
864.296	14332
864.428	14438
864.559	14309
864.691	14221
864.823	14305
864.954	14218
865.086	14233
865.217	14275
865.349	14199
865.48	14138
865.612	14191
865.743	14313
865.875	14172
866.006	14202
866.137	14210
866.269	14107
866.4	14237
866.531	14130
866.662	14199
866.793	14168
866.924	14176
867.055	14176
867.186	14180
867.317	14096
867.448	14119
867.579	14161
867.71	14176
867.841	14031
867.972	14206
868.103	14233
868.233	14214
868.364	14180
868.495	14233
868.625	14393
868.756	14488
868.886	14332
869.017	14393
869.147	14552
869.278	14530
869.408	14488
869.539	14393
869.669	14514
869.799	14431
869.929	14564
870.06	14503
870.19	14880
870.32	14838
870.45	14815
870.58	14880
870.71	15032
870.84	14872
870.97	14842
871.1	14773
871.23	15097
871.36	15001
871.489	14883
871.619	15043
871.749	15055
871.879	15009
872.008	15184
872.138	15081
872.267	15123
872.397	14895
872.526	14899
872.656	14941
872.785	14868
872.915	14982
873.044	15207
873.173	15135
873.303	15199
873.432	15066
873.561	15180
873.69	15043
873.819	15093
873.948	15085
874.077	15116
874.206	15070
874.335	15173
874.464	15291
874.593	15428
874.722	15389
874.851	15450
874.979	15363
875.108	15424
875.237	15287
875.365	15397
875.494	15370
875.623	15492
875.751	15329
875.88	15599
876.008	15587
876.136	15561
876.265	15827
876.393	15930
876.521	15812
876.65	15930
876.778	15861
876.906	15842
877.034	15781
877.162	15812
877.29	15778
877.418	15850
877.546	15854
877.674	15785
877.802	15831
877.93	15918
878.058	15793
878.185	15686
878.313	15762
878.441	15823
878.568	15759
878.696	15778
878.824	15823
878.951	15907
879.079	15983
879.206	16162
879.333	16067
879.461	15857
879.588	15884
879.715	15903
879.842	16295
879.97	15956
880.097	15747
880.224	15648
880.351	15652
880.478	15679
880.605	15637
880.732	15713
880.859	15804
880.986	15736
881.112	15728
881.239	15481
881.366	15412
881.493	15412
881.619	15298
881.746	15313
881.872	15348
881.999	15237
882.125	15275
882.252	15378
882.378	15401
882.505	15424
882.631	15310
882.757	15135
882.883	15104
883.01	15142
883.136	15093
883.262	15043
883.388	14918
883.514	15150
883.64	15146
883.766	15032
883.892	14979
884.018	15047
884.143	15161
884.269	15241
884.395	14956
884.52	14864
884.646	14941
884.772	14838
884.897	14762
885.023	14750
885.148	14967
885.274	15001
885.399	14963
885.524	14895
885.65	14815
885.775	14849
885.9	14899
886.025	14914
886.15	14872
886.275	14739
886.4	14758
886.525	14826
886.65	14925
886.775	14651
886.9	14899
887.025	15093
887.149	14880
887.274	14705
887.399	14701
887.523	14689
887.648	14587
887.773	14632
887.897	14655
888.021	14758
888.146	14735
888.27	14651
888.395	14746
888.519	14686
888.643	14724
888.767	14758
888.891	14560
889.015	14473
889.139	14636
889.263	14495
889.387	14617
889.511	14644
889.635	14682
889.759	14571
889.883	14495
890.006	14545
890.13	14712
890.254	14492
890.377	14522
890.501	14324
890.624	14355
890.748	14377
890.871	14298
890.995	14218
891.118	14088
891.241	14286
891.364	14233
891.488	14377
891.611	14115
891.734	14256
891.857	14404
891.98	14278
892.103	14358
892.226	14286
892.349	14244
892.471	14130
892.594	14267
892.717	14244
892.839	14134
892.962	14263
893.085	14309
893.207	14259
893.33	14073
893.452	14164
893.575	14309
893.697	14252
893.819	14492
893.941	14446
894.064	14408
894.186	14237
894.308	14199
894.43	14408
894.552	14412
894.674	14362
894.796	14191
894.918	14412
895.04	14278
895.161	14313
895.283	14358
895.405	14237
895.526	14385
895.648	14415
895.769	14298
895.891	14374
896.012	14404
896.134	14431
896.255	14324
896.376	14366
896.498	14351
896.619	14537
896.74	14423
896.861	14476
896.982	14807
897.103	14857
897.224	14670
897.345	14590
897.466	14663
897.587	14640
897.708	14819
897.828	14712
897.949	14727
898.07	14514
898.19	14575
898.311	14868
898.431	14716
898.552	14792
898.672	14830
898.792	14758
898.913	14800
899.033	14697
899.153	14571
899.273	14522
899.393	14594
899.513	14514
899.633	14583
899.753	14613
899.873	14610
899.993	14739
900.113	14598
900.232	14598
900.352	14526
900.472	14446
900.591	14446
900.711	14484
900.83	14343
900.95	14533
901.069	14632
901.189	14377
901.308	14206
901.427	14092
901.546	14088
901.665	14172
901.784	14195
901.904	14012
902.023	13906
902.141	13704
902.26	13772
902.379	13822
902.498	13738
902.617	13643
902.735	13700
902.854	13734
902.973	13571
903.091	13453
903.21	13415
903.328	13362
903.446	13362
903.565	13304
903.683	13346
903.801	13175
903.919	13221
904.038	13187
904.156	13084
904.274	13187
904.392	13050
904.51	13053
904.627	13053
904.745	13160
904.863	13110
904.981	12901
905.098	12833
905.216	12821
905.334	12768
905.451	12787
905.569	12757
905.686	12810
905.803	12802
905.921	12551
906.038	12677
906.155	12700
906.272	12403
906.389	12597
906.506	12376
906.623	12399
906.74	12296
906.857	12201
906.974	12220
907.091	12441
907.208	12475
907.324	12407
907.441	12308
907.557	12133
907.674	12095
907.79	12022
907.907	12079
908.023	12079
908.139	12125
908.256	12038
908.372	12026
908.488	12060
908.604	11942
908.72	11851
908.836	11904
908.952	11824
909.068	11843
909.184	11999
909.3	11832
909.415	11931
909.531	11836
909.647	11608
909.762	11604
909.878	11627
909.993	11573
910.108	11547
910.224	11577
910.339	11558
910.454	11501
910.57	11429
910.685	11455
910.8	11745
910.915	11676
911.03	11421
911.145	11322
911.259	11265
911.374	11364
911.489	11284
911.604	11231
911.718	11045
911.833	11067
911.947	10900
912.062	10915
912.176	11064
912.291	11079
912.405	11185
912.519	11345
912.633	11307
912.748	11159
912.862	11071
912.976	10961
913.09	10812
913.204	10953
913.318	11033
913.431	11045
913.545	11060
913.659	11060
913.772	10927
913.886	10801
914	10729
914.113	11006
914.226	10908
914.34	10942
914.453	10729
914.566	10949
914.68	10858
914.793	10786
914.906	10573
915.019	10554
915.132	10611
915.245	10675
915.358	10622
915.47	10694
915.583	10683
915.696	10634
915.809	10729
915.921	10774
916.034	10523
916.146	10550
916.259	10542
916.371	10630
916.483	10637
916.595	10516
916.708	10497
916.82	10527
916.932	10500
917.044	10535
917.156	10485
917.268	10405
917.38	10352
917.491	10352
917.603	10436
917.715	10466
917.826	10508
917.938	10428
918.049	10295
918.161	10417
918.272	10519
918.384	10569
918.495	10462
918.606	10310
918.717	10227
918.828	10295
918.939	10352
919.05	10227
919.161	10268
919.272	10051
919.383	10143
919.494	10409
919.604	10538
919.715	10322
919.826	10238
919.936	10325
920.047	10394
920.157	10299
920.267	10542
920.378	10375
920.488	10333
920.598	10424
920.708	10645
920.818	10489
920.928	10466
921.038	10645
921.148	10649
921.258	10356
921.368	10382
921.477	10120
921.587	10181
921.697	10074
921.806	10173
921.916	10040
922.025	9816
922.134	9850
922.244	9892
922.353	9926
922.462	9797
922.571	9724
922.68	9576
922.789	9591
922.898	9542
923.007	9424
923.116	9625
923.224	9530
923.333	9519
923.442	9397
923.55	9367
923.659	9412
923.767	9492
923.876	9374
923.984	9500
924.092	9412
924.201	9428
924.309	9412
924.417	9428
924.525	9298
924.633	9321
924.741	10261
924.849	9203
924.956	9310
925.064	9233
925.172	9100
925.279	9188
925.387	9241
925.494	9207
925.602	9363
925.709	9207
925.816	9116
925.924	9233
926.031	9233
926.138	9283
926.245	9214
926.352	9188
926.459	9211
926.566	9264
926.673	9241
926.779	9089
926.886	9108
926.993	8906
927.099	8956
927.206	8937
927.312	8823
927.419	8998
927.525	8921
927.631	8963
927.737	8811
927.843	8815
927.95	8731
928.056	8701
928.162	8857
928.267	8899
928.373	9374
928.479	8899
928.585	8693
928.69	8853
928.796	8891
928.901	8701
929.007	8602
929.112	8735
929.218	8674
929.323	8644
929.428	8568
929.533	8796
929.638	8587
929.743	8606
929.848	8659
929.953	8598
930.058	8549
930.163	8393
930.267	8412
930.372	8552
930.477	8374
930.581	8571
930.685	8408
930.79	8248
930.894	8446
930.998	8317
931.103	8476
931.207	8138
931.311	8092
931.415	8046
931.519	7849
931.623	7807
