Data from test_V78500241_777.txt Node
Date: Fri Mar 25 14:39:07 CST 2022
User: usil
Spectrometer: V785-0024
Trigger mode: 0
Integration Time (sec): 4.000000E-1
Scans to average: 1
Nonlinearity correction enabled: false
Boxcar width: 0
Storing dark spectrum: false
XAxis mode: Wavelengths
Number of Pixels in Spectrum: 1024
>>>>>Begin Spectral Data<<<<<
801.071	26842
801.214	26560
801.356	26438
801.499	26366
801.641	26396
801.783	26221
801.926	26092
802.068	26008
802.211	25936
802.353	25917
802.496	25632
802.638	25700
802.78	25582
802.923	25590
803.065	25472
803.208	25605
803.35	25597
803.492	25696
803.635	25727
803.777	25708
803.919	25868
804.061	25982
804.204	25795
804.346	25643
804.488	25757
804.63	25833
804.773	25780
804.915	25966
805.057	26134
805.199	25947
805.341	26168
805.483	26332
805.626	26305
805.768	26084
805.91	26457
806.052	26484
806.194	26480
806.336	26918
806.478	26975
806.62	27096
806.762	27458
806.904	27755
807.046	28371
807.188	28535
807.33	28847
807.472	29665
807.614	29996
807.756	30954
807.898	31959
808.04	33310
808.182	35208
808.324	37548
808.465	40405
808.607	43502
808.749	46386
808.891	47756
809.033	48213
809.174	46474
809.316	43887
809.458	40596
809.6	37460
809.741	34862
809.883	32849
810.025	31616
810.166	30665
810.308	29882
810.45	29006
810.591	28508
810.733	28074
810.875	27675
811.016	27401
811.158	27214
811.299	27096
811.441	27100
811.582	26990
811.724	26689
811.865	26511
812.007	26602
812.148	26473
812.29	26434
812.431	26507
812.573	26488
812.714	26598
812.855	26731
812.997	26724
813.138	26849
813.279	26621
813.421	26495
813.562	26514
813.703	26233
813.845	26206
813.986	25788
814.127	25685
814.268	25434
814.41	25476
814.551	25282
814.692	25468
814.833	25206
814.974	25266
815.115	25228
815.256	25057
815.397	25072
815.539	25027
815.68	24840
815.821	24798
815.962	24833
816.103	24882
816.244	24703
816.385	24650
816.526	24399
816.666	24403
816.807	24201
816.948	24270
817.089	24262
817.23	24182
817.371	24079
817.512	24114
817.653	24121
817.793	24251
817.934	24182
818.075	24171
818.216	23999
818.356	23999
818.497	23973
818.638	23767
818.778	23714
818.919	23684
819.06	23729
819.2	23992
819.341	24026
819.481	23958
819.622	24095
819.762	24220
819.903	24254
820.043	24003
820.184	24034
820.324	23878
820.465	24011
820.605	24034
820.746	23874
820.886	23672
821.026	23939
821.167	23885
821.307	23950
821.447	23710
821.588	23646
821.728	23486
821.868	23315
822.008	23307
822.149	23174
822.289	23208
822.429	22938
822.569	22953
822.709	22839
822.849	22683
822.99	22675
823.13	22615
823.27	22519
823.41	22322
823.55	22413
823.69	22379
823.83	22428
823.97	22344
824.11	22131
824.25	22166
824.389	22204
824.529	22265
824.669	22204
824.809	22413
824.949	22219
825.089	22230
825.228	22166
825.368	21960
825.508	21998
825.648	22070
825.787	21956
825.927	22021
826.067	21941
826.206	21865
826.346	22002
826.485	22032
826.625	21968
826.765	22021
826.904	22025
827.044	21770
827.183	21762
827.323	21759
827.462	21709
827.601	21583
827.741	21572
827.88	21583
828.02	21431
828.159	21580
828.298	21564
828.437	21720
828.577	21587
828.716	21759
828.855	21454
828.994	21359
829.134	21325
829.273	21306
829.412	21321
829.551	21287
829.69	21230
829.829	21329
829.968	21374
830.107	21325
830.246	21329
830.385	21142
830.524	21317
830.663	21043
830.802	20979
830.941	20967
831.08	20826
831.219	20979
831.357	21096
831.496	21226
831.635	20887
831.774	20933
831.913	20914
832.051	20826
832.19	20804
832.329	20804
832.467	20773
832.606	20663
832.744	20868
832.883	20796
833.022	20918
833.16	21001
833.299	21165
833.437	21256
833.576	21367
833.714	21416
833.852	21690
833.991	21755
834.129	21968
834.267	21850
834.406	21789
834.544	21766
834.682	21599
834.821	21351
834.959	21485
835.097	21272
835.235	21123
835.373	20975
835.511	21020
835.65	20853
835.788	20815
835.926	20629
836.064	20488
836.202	20393
836.34	20571
836.478	20549
836.615	20609
836.753	20537
836.891	20705
837.029	20499
837.167	20461
837.305	20381
837.443	20332
837.58	20244
837.718	20328
837.856	20320
837.993	20355
838.131	20180
838.269	20077
838.406	20313
838.544	20225
838.681	19879
838.819	19959
838.956	19788
839.094	19738
839.231	19693
839.369	19883
839.506	20012
839.643	19944
839.781	19681
839.918	19582
840.055	19818
840.193	19666
840.33	19719
840.467	19674
840.604	19731
840.742	19928
840.879	19613
841.016	19674
841.153	19544
841.29	19807
841.427	19791
841.564	19670
841.701	19734
841.838	19594
841.975	19578
842.112	19594
842.249	19483
842.385	19658
842.522	19533
842.659	19556
842.796	19525
842.933	19578
843.069	19415
843.206	19491
843.343	19597
843.479	19677
843.616	19776
843.752	19457
843.889	19556
844.025	19734
844.162	19681
844.298	19811
844.435	19894
844.571	19974
844.708	20385
844.844	20746
844.98	21157
845.117	21713
845.253	22516
845.389	24334
845.525	27724
845.661	32979
845.798	39329
845.934	44081
846.07	45911
846.206	44564
846.342	40417
846.478	33918
846.614	28413
846.75	24768
846.886	22744
847.022	21538
847.158	20693
847.294	20195
847.429	19837
847.565	19540
847.701	19753
847.837	19065
847.972	18951
848.108	18901
848.244	18837
848.379	18783
848.515	18665
848.65	18471
848.786	18547
848.921	18486
849.057	18589
849.192	18616
849.328	18544
849.463	18460
849.598	18384
849.734	18258
849.869	18213
850.004	18167
850.14	18243
850.275	18167
850.41	18114
850.545	18087
850.68	18205
850.815	18163
850.95	18095
851.085	18308
851.22	18174
851.355	18155
851.49	18125
851.625	18064
851.76	18057
851.895	17988
852.03	17961
852.165	18053
852.299	18216
852.434	18273
852.569	18155
852.703	18194
852.838	18262
852.973	18330
853.107	18399
853.242	18273
853.376	18102
853.511	18117
853.645	18121
853.78	18361
853.914	18361
854.048	18342
854.183	18357
854.317	18369
854.451	18517
854.585	18262
854.72	18308
854.854	18418
854.988	18266
855.122	18201
855.256	18053
855.39	18121
855.524	18213
855.658	18167
855.792	18068
855.926	18091
856.06	18140
856.194	17999
856.327	18019
856.461	17885
856.595	17878
856.729	17961
856.862	18072
856.996	18019
857.13	17996
857.263	18034
857.397	17980
857.53	17874
857.664	18034
857.797	18121
857.931	18079
858.064	18072
858.197	17958
858.331	17961
858.464	17764
858.597	17687
858.731	17813
858.864	17821
858.997	17885
859.13	17855
859.263	17885
859.396	17897
859.529	17748
859.662	17764
859.795	17676
859.928	17859
860.061	17954
860.194	17912
860.327	17840
860.46	17843
860.592	17866
860.725	17927
860.858	17863
860.99	17809
861.123	17752
861.256	17691
861.388	17764
861.521	18304
861.653	17646
861.786	17604
861.918	17680
862.05	17672
862.183	17729
862.315	17764
862.447	17767
862.58	17589
862.712	17570
862.844	17528
862.976	17566
863.108	17562
863.24	17961
863.372	17532
863.504	17395
863.636	17471
863.768	17493
863.9	17493
864.032	17376
864.164	17425
864.296	17497
864.428	17627
864.559	17558
864.691	17551
864.823	17497
864.954	17425
865.086	17463
865.217	17589
865.349	17246
865.48	17448
865.612	17284
865.743	17543
865.875	17467
866.006	17417
866.137	17364
866.269	17292
866.4	17368
866.531	17383
866.662	17299
866.793	17330
866.924	17398
867.055	17467
867.186	17288
867.317	17296
867.448	17288
867.579	17414
867.71	17227
867.841	17254
867.972	17391
868.103	17277
868.233	17383
868.364	17360
868.495	17379
868.625	17512
868.756	17726
868.886	17532
869.017	17512
869.147	17760
869.278	17638
869.408	17649
869.539	17718
869.669	17714
869.799	17733
869.929	17729
870.06	17756
870.19	17935
870.32	17901
870.45	18038
870.58	18079
870.71	18197
870.84	18174
870.97	18022
871.1	18110
871.23	18273
871.36	18452
871.489	18209
871.619	18285
871.749	18464
871.879	18380
872.008	18502
872.138	18289
872.267	18330
872.397	18346
872.526	18270
872.656	18224
872.785	18178
872.915	18536
873.044	18559
873.173	18475
873.303	18559
873.432	18528
873.561	18688
873.69	18616
873.819	18601
873.948	18696
874.077	18669
874.206	18585
874.335	18658
874.464	18821
874.593	18985
874.722	18958
874.851	19122
874.979	19141
875.108	19148
875.237	19236
875.365	19095
875.494	19190
875.623	19217
875.751	19152
875.88	19339
876.008	19487
876.136	19605
876.265	19928
876.393	20001
876.521	20119
876.65	20008
876.778	20130
876.906	20046
877.034	19978
877.162	20221
877.29	20305
877.418	20419
877.546	20438
877.674	20587
877.802	20609
877.93	20758
878.058	20937
878.185	21013
878.313	21344
878.441	21644
878.568	22063
878.696	22561
878.824	23296
878.951	24292
879.079	25944
879.206	27766
879.333	29516
879.461	31236
879.588	32271
879.715	32149
879.842	31403
879.97	29611
880.097	27701
880.224	26138
880.351	25069
880.478	24106
880.605	23707
880.732	23311
880.859	23322
880.986	23086
881.112	22847
881.239	22778
881.366	22668
881.493	22379
881.619	22409
881.746	22485
881.872	22497
881.999	22459
882.125	22493
882.252	22603
882.378	22584
882.505	22744
882.631	22702
882.757	22550
882.883	22413
883.01	22485
883.136	22284
883.262	22257
883.388	22295
883.514	22432
883.64	22447
883.766	22428
883.892	22166
884.018	22078
884.143	22306
884.269	22443
884.395	22162
884.52	22192
884.646	22246
884.772	22246
884.897	22150
885.023	22223
885.148	22188
885.274	22284
885.399	22173
885.524	22002
885.65	21838
885.775	21781
885.9	21686
886.025	21538
886.15	21450
886.275	21154
886.4	21001
886.525	20834
886.65	20743
886.775	20678
886.9	20727
887.025	20670
887.149	20389
887.274	20126
887.399	20008
887.523	19963
887.648	19791
887.773	19628
887.897	19818
888.021	19757
888.146	19670
888.27	19738
888.395	19575
888.519	19506
888.643	19586
888.767	19510
888.891	19304
889.015	19187
889.139	19213
889.263	19080
889.387	19152
889.511	19225
889.635	19114
889.759	18897
889.883	18913
890.006	19091
890.13	19046
890.254	18817
890.377	18760
890.501	18639
890.624	18506
890.748	18559
890.871	18384
890.995	18258
891.118	18136
891.241	18338
891.364	18323
891.488	18308
891.611	18220
891.734	18178
891.857	18140
891.98	18171
892.103	18125
892.226	18095
892.349	18057
892.471	17885
892.594	18003
892.717	17973
892.839	17836
892.962	17901
893.085	17958
893.207	17866
893.33	17707
893.452	17729
893.575	17813
893.697	17714
893.819	17863
893.941	17893
894.064	17828
894.186	17627
894.308	17653
894.43	17775
894.552	17687
894.674	17752
894.796	17436
894.918	17482
895.04	17493
895.161	17680
895.283	17528
895.405	17505
895.526	17520
895.648	17391
895.769	17539
895.891	17478
896.012	17505
896.134	17429
896.255	17486
896.376	17406
896.498	17444
896.619	17471
896.74	17410
896.861	17512
896.982	17737
897.103	17889
897.224	17695
897.345	17566
897.466	17589
897.587	17608
897.708	17687
897.828	17665
897.949	17535
898.07	17372
898.19	17524
898.311	17676
898.431	17638
898.552	17592
898.672	17680
898.792	17653
898.913	17623
899.033	17414
899.153	17376
899.273	17414
899.393	17330
899.513	17440
899.633	17376
899.753	17436
899.873	17277
899.993	17299
900.113	17318
900.232	17356
900.352	17395
900.472	17296
900.591	17288
900.711	17296
900.83	17162
900.95	17360
901.069	17273
901.189	17166
901.308	16873
901.427	16710
901.546	16755
901.665	16881
901.784	16797
901.904	16698
902.023	16599
902.141	16443
902.26	16428
902.379	16474
902.498	16272
902.617	16200
902.735	16322
902.854	16109
902.973	16139
903.091	15903
903.21	15876
903.328	15960
903.446	15876
903.565	15736
903.683	15770
903.801	15553
903.919	15667
904.038	15686
904.156	15481
904.274	15641
904.392	15420
904.51	15504
904.627	15431
904.745	15553
904.863	15424
904.981	15378
905.098	15032
905.216	15039
905.334	15100
905.451	15116
905.569	15081
905.686	15146
905.803	15165
905.921	14853
906.038	14967
906.155	14910
906.272	14739
906.389	14796
906.506	14689
906.623	14686
906.74	14632
906.857	14484
906.974	14522
907.091	14716
907.208	14800
907.324	14587
907.441	14522
907.557	14415
907.674	14328
907.79	14271
907.907	14233
908.023	14324
908.139	14412
908.256	14339
908.372	14278
908.488	14282
908.604	14176
908.72	14027
908.836	14039
908.952	14031
909.068	14001
909.184	14214
909.3	14027
909.415	14084
909.531	14092
909.647	13906
909.762	13780
909.878	13750
909.993	13849
910.108	13780
910.224	13719
910.339	13833
910.454	13761
910.57	13620
910.685	13533
910.8	13902
910.915	13753
911.03	13624
911.145	13468
911.259	13556
911.374	13434
911.489	13384
911.604	13316
911.718	13164
911.833	13255
911.947	13179
912.062	13038
912.176	13232
912.291	13213
912.405	13179
912.519	13453
912.633	13362
912.748	13304
912.862	13080
912.976	12996
913.09	12958
913.204	12996
913.318	12993
913.431	13069
913.545	13069
913.659	13137
913.772	13027
913.886	12886
914	12817
914.113	13042
914.226	12939
914.34	12985
914.453	12829
914.566	13004
914.68	12856
914.793	12776
914.906	12642
915.019	12623
915.132	12547
915.245	12593
915.358	12654
915.47	12559
915.583	12639
915.696	12616
915.809	12726
915.921	12768
916.034	12536
916.146	12620
916.259	12639
916.371	12597
916.483	12563
916.595	12631
916.708	12547
916.82	12532
916.932	12566
917.044	12414
917.156	12555
917.268	12384
917.38	12506
917.491	12448
917.603	12418
917.715	12525
917.826	12502
917.938	12330
918.049	12258
918.161	12281
918.272	12498
918.384	12441
918.495	12315
918.606	12182
918.717	12110
918.828	12163
918.939	12224
919.05	12068
919.161	12079
919.272	11954
919.383	12079
919.494	12232
919.604	12330
919.715	12140
919.826	12087
919.936	12098
920.047	12247
920.157	12098
920.267	12285
920.378	12163
920.488	12152
920.598	12292
920.708	12540
920.818	12350
920.928	12266
921.038	12407
921.148	12292
921.258	12152
921.368	11984
921.477	11954
921.587	11889
921.697	11741
921.806	11958
921.916	11756
922.025	11665
922.134	11638
922.244	11516
922.353	11638
922.462	11474
922.571	11455
922.68	11315
922.789	11242
922.898	11227
923.007	11223
923.116	11220
923.224	11311
923.333	11216
923.442	11102
923.55	11022
923.659	11128
923.767	11170
923.876	11052
923.984	11079
924.092	11060
924.201	11098
924.309	11117
924.417	11052
924.525	11022
924.633	11045
924.741	11752
924.849	10828
924.956	10968
925.064	10866
925.172	10797
925.279	10702
925.387	10820
925.494	10801
925.602	10923
925.709	10831
925.816	10668
925.924	10774
926.031	10816
926.138	10782
926.245	10877
926.352	10611
926.459	10767
926.566	10904
926.673	10622
926.779	10649
926.886	10565
926.993	10523
927.099	10398
927.206	10424
927.312	10424
927.419	10470
927.525	10432
927.631	10497
927.737	10367
927.843	10242
927.95	10207
928.056	10268
928.162	10337
928.267	10291
928.373	10968
928.479	10462
928.585	10219
928.69	10291
928.796	10348
928.901	10181
929.007	10059
929.112	10219
929.218	10128
929.323	10139
929.428	10063
929.533	10253
929.638	9979
929.743	10169
929.848	10067
929.953	10002
930.058	10051
930.163	9842
930.267	9838
930.372	10032
930.477	9747
930.581	10025
930.685	9899
930.79	9724
930.894	9705
930.998	9667
931.103	9816
931.207	9519
931.311	9481
931.415	9386
931.519	9211
931.623	9173
