Data from test_V78500241_3012.txt Node
Date: Fri Mar 25 14:54:41 CST 2022
User: usil
Spectrometer: V785-0024
Trigger mode: 0
Integration Time (sec): 4.000000E-1
Scans to average: 1
Nonlinearity correction enabled: false
Boxcar width: 0
Storing dark spectrum: false
XAxis mode: Wavelengths
Number of Pixels in Spectrum: 1024
>>>>>Begin Spectral Data<<<<<
801.071	22082
801.214	21903
801.356	21770
801.499	21736
801.641	21580
801.783	21412
801.926	21428
802.068	21336
802.211	21310
802.353	21222
802.496	21009
802.638	21001
802.78	20902
802.923	20868
803.065	20804
803.208	20895
803.35	20800
803.492	20807
803.635	20902
803.777	20727
803.919	20883
804.061	21203
804.204	20834
804.346	20758
804.488	20701
804.63	20781
804.773	20579
804.915	20815
805.057	20724
805.199	20731
805.341	20777
805.483	20838
805.626	20819
805.768	20583
805.91	20724
806.052	20746
806.194	20476
806.336	20876
806.478	20727
806.62	20579
806.762	20929
806.904	20857
807.046	21154
807.188	21081
807.33	21066
807.472	21062
807.614	21009
807.756	20982
807.898	20838
808.04	20796
808.182	20705
808.324	20781
808.465	20895
808.607	21005
808.749	21039
808.891	21264
809.033	21241
809.174	21283
809.316	21081
809.458	21146
809.6	21108
809.741	21199
809.883	21237
810.025	21150
810.166	21344
810.308	21214
810.45	21214
810.591	21169
810.733	21131
810.875	21020
811.016	20804
811.158	20735
811.299	20982
811.441	20929
811.582	21066
811.724	20937
811.865	20857
812.007	20804
812.148	20762
812.29	20925
812.431	21017
812.573	21161
812.714	21256
812.855	21363
812.997	21439
813.138	21587
813.279	21538
813.421	21488
813.562	21275
813.703	21123
813.845	21100
813.986	20804
814.127	20640
814.268	20431
814.41	20389
814.551	20400
814.692	20568
814.833	20412
814.974	20290
815.115	20552
815.256	20263
815.397	20240
815.539	20240
815.68	20218
815.821	20088
815.962	20191
816.103	20145
816.244	19925
816.385	19932
816.526	19814
816.666	19765
816.807	19670
816.948	19632
817.089	19712
817.23	19544
817.371	19594
817.512	19483
817.653	19525
817.793	19472
817.934	19502
818.075	19594
818.216	19616
818.356	19502
818.497	19327
818.638	19107
818.778	19251
818.919	19232
819.06	19426
819.2	19468
819.341	19362
819.481	19339
819.622	19525
819.762	19609
819.903	19628
820.043	19525
820.184	19548
820.324	19426
820.465	19518
820.605	19533
820.746	19651
820.886	19362
821.026	19373
821.167	19426
821.307	19567
821.447	19430
821.588	19373
821.728	19331
821.868	19053
822.008	18947
822.149	18966
822.289	18905
822.429	18601
822.569	18654
822.709	18506
822.849	18509
822.99	18403
823.13	18494
823.27	18395
823.41	18174
823.55	18171
823.69	18228
823.83	18266
823.97	18194
824.11	18015
824.25	17935
824.389	17912
824.529	18041
824.669	17946
824.809	18102
824.949	18095
825.089	17965
825.228	17912
825.368	17802
825.508	17863
825.648	17764
825.787	17813
825.927	17817
826.067	17634
826.206	17699
826.346	17695
826.485	17718
826.625	17653
826.765	17813
826.904	17847
827.044	17512
827.183	17474
827.323	17353
827.462	17547
827.601	17455
827.741	17383
827.88	17524
828.02	17391
828.159	17360
828.298	17410
828.437	17562
828.577	17353
828.716	17657
828.855	17341
828.994	17284
829.134	17155
829.273	17212
829.412	17102
829.551	17140
829.69	17189
829.829	17261
829.968	17197
830.107	17223
830.246	17223
830.385	17140
830.524	17086
830.663	16987
830.802	16809
830.941	16793
831.08	16759
831.219	16797
831.357	16919
831.496	16972
831.635	16805
831.774	16733
831.913	16729
832.051	16542
832.19	16649
832.329	16508
832.467	16466
832.606	16413
832.744	16421
832.883	16542
833.022	16394
833.16	16478
833.299	16512
833.437	16485
833.576	16474
833.714	16481
833.852	16531
833.991	16500
834.129	16466
834.267	16603
834.406	16519
834.544	16565
834.682	16512
834.821	16489
834.959	16561
835.097	16550
835.235	16763
835.373	16470
835.511	16550
835.65	16470
835.788	16390
835.926	16360
836.064	16162
836.202	16268
836.34	16481
836.478	16512
836.615	16367
836.753	16421
836.891	16508
837.029	16512
837.167	16379
837.305	16246
837.443	16306
837.58	16272
837.718	16394
837.856	16246
837.993	16291
838.131	16242
838.269	16181
838.406	16230
838.544	16074
838.681	16040
838.819	15903
838.956	15827
839.094	15876
839.231	15926
839.369	15968
839.506	16242
839.643	16006
839.781	15812
839.918	15743
840.055	15766
840.193	15762
840.33	15743
840.467	15937
840.604	15880
840.742	15979
840.879	15774
841.016	15724
841.153	15766
841.29	15934
841.427	15797
841.564	15907
841.701	15816
841.838	15717
841.975	15656
842.112	15644
842.249	15599
842.385	15614
842.522	15751
842.659	15648
842.796	15580
842.933	15542
843.069	15584
843.206	15466
843.343	15561
843.479	15671
843.616	15656
843.752	15367
843.889	15420
844.025	15568
844.162	15359
844.298	15450
844.435	15332
844.571	15336
844.708	15523
844.844	15534
844.98	15443
845.117	15504
845.253	15321
845.389	15306
845.525	15233
845.661	15157
845.798	15176
845.934	15230
846.07	15249
846.206	15169
846.342	15241
846.478	15195
846.614	14937
846.75	14937
846.886	14971
847.022	15032
847.158	14921
847.294	14918
847.429	14921
847.565	14929
847.701	15192
847.837	14686
847.972	14750
848.108	14781
848.244	14682
848.379	14533
848.515	14579
848.65	14568
848.786	14514
848.921	14537
849.057	14602
849.192	14648
849.328	14587
849.463	14655
849.598	14442
849.734	14575
849.869	14393
850.004	14290
850.14	14324
850.275	14309
850.41	14172
850.545	14328
850.68	14233
850.815	14271
850.95	14298
851.085	14469
851.22	14465
851.355	14355
851.49	14248
851.625	14286
851.76	14267
851.895	14119
852.03	14126
852.165	14294
852.299	14393
852.434	14328
852.569	14381
852.703	14389
852.838	14434
852.973	14469
853.107	14461
853.242	14237
853.376	14229
853.511	14103
853.645	14153
853.78	14282
853.914	14119
854.048	14180
854.183	14176
854.317	14221
854.451	14374
854.585	14237
854.72	14138
854.854	14237
854.988	14065
855.122	14187
855.256	13978
855.39	14183
855.524	14298
855.658	14225
855.792	14244
855.926	14244
856.06	14267
856.194	14313
856.327	14199
856.461	14130
856.595	14065
856.729	14214
856.862	14282
856.996	14210
857.13	14191
857.263	14286
857.397	14259
857.53	14172
857.664	14229
857.797	14221
857.931	14351
858.064	14176
858.197	14221
858.331	14168
858.464	14058
858.597	14092
858.731	14218
858.864	14054
858.997	14145
859.13	14180
859.263	14256
859.396	14282
859.529	14107
859.662	14126
859.795	14123
859.928	14210
860.061	14400
860.194	14423
860.327	14240
860.46	14077
860.592	14324
860.725	14343
860.858	14343
860.99	14214
861.123	14145
861.256	14168
861.388	14221
861.521	14895
861.653	14073
861.786	14130
861.918	14046
862.05	14145
862.183	14092
862.315	14142
862.447	14096
862.58	14130
862.712	13928
862.844	13944
862.976	14001
863.108	14062
863.24	14396
863.372	13879
863.504	13906
863.636	13970
863.768	14020
863.9	13982
864.032	13909
864.164	13925
864.296	14054
864.428	14119
864.559	14008
864.691	13967
864.823	13940
864.954	14027
865.086	13993
865.217	13940
865.349	13955
865.48	13921
865.612	13997
865.743	14100
865.875	13936
866.006	13849
866.137	13898
866.269	14016
866.4	13978
866.531	13890
866.662	13753
866.793	13894
866.924	13993
867.055	13921
867.186	13917
867.317	13841
867.448	13864
867.579	13879
867.71	13757
867.841	13879
867.972	13883
868.103	13811
868.233	13913
868.364	13921
868.495	14043
868.625	14191
868.756	14282
868.886	14103
869.017	14161
869.147	14275
869.278	14237
869.408	14119
869.539	14172
869.669	14248
869.799	14267
869.929	14355
870.06	14328
870.19	14457
870.32	14423
870.45	14575
870.58	14602
870.71	14697
870.84	14796
870.97	14492
871.1	14488
871.23	14800
871.36	14758
871.489	14735
871.619	14769
871.749	14701
871.879	14830
872.008	14918
872.138	14743
872.267	14781
872.397	14606
872.526	14644
872.656	14644
872.785	14629
872.915	14883
873.044	14994
873.173	14754
873.303	14963
873.432	14933
873.561	14868
873.69	14845
873.819	14815
873.948	14925
874.077	14792
874.206	14823
874.335	14819
874.464	14975
874.593	15135
874.722	15032
874.851	15237
874.979	15211
875.108	15180
875.237	15142
875.365	15062
875.494	15028
875.623	15138
875.751	15161
875.88	15214
876.008	15283
876.136	15298
876.265	15561
876.393	15671
876.521	15572
876.65	15728
876.778	15625
876.906	15587
877.034	15580
877.162	15648
877.29	15507
877.418	15576
877.546	15545
877.674	15625
877.802	15641
877.93	15576
878.058	15576
878.185	15454
878.313	15561
878.441	15534
878.568	15412
878.696	15538
878.824	15622
878.951	15625
879.079	15743
879.206	15823
879.333	15781
879.461	15679
879.588	15618
879.715	15804
879.842	15823
879.97	15667
880.097	15397
880.224	15397
880.351	15389
880.478	15397
880.605	15443
880.732	15408
880.859	15557
880.986	15336
881.112	15428
881.239	15325
881.366	15214
881.493	15161
881.619	15001
881.746	15093
881.872	15036
881.999	15058
882.125	15062
882.252	15146
882.378	15093
882.505	15173
882.631	15028
882.757	14845
882.883	14895
883.01	14868
883.136	14895
883.262	14735
883.388	14754
883.514	14967
883.64	14948
883.766	14891
883.892	14655
884.018	14720
884.143	14857
884.269	14929
884.395	14648
884.52	14659
884.646	14526
884.772	14492
884.897	14613
885.023	14579
885.148	14701
885.274	14727
885.399	14765
885.524	14648
885.65	14617
885.775	14674
885.9	14629
886.025	14686
886.15	14617
886.275	14568
886.4	14514
886.525	14629
886.65	14423
886.775	14537
886.9	14701
887.025	14788
887.149	14587
887.274	14465
887.399	14438
887.523	14415
887.648	14446
887.773	14343
887.897	14587
888.021	14434
888.146	14332
888.27	14495
888.395	14598
888.519	14484
888.643	14423
888.767	14480
888.891	14324
889.015	14256
889.139	14313
889.263	14309
889.387	14377
889.511	14389
889.635	14476
889.759	14263
889.883	14305
890.006	14389
890.13	14423
890.254	14252
890.377	14294
890.501	14058
890.624	14046
890.748	14145
890.871	14039
890.995	13868
891.118	13951
891.241	13955
891.364	14027
891.488	14100
891.611	14012
891.734	14046
891.857	13955
891.98	14077
892.103	14039
892.226	14001
892.349	14016
892.471	13761
892.594	13898
892.717	13955
892.839	13963
892.962	14035
893.085	14024
893.207	13921
893.33	13799
893.452	13947
893.575	14005
893.697	13974
893.819	14202
893.941	14233
894.064	14088
894.186	14008
894.308	14024
894.43	14100
894.552	14218
894.674	14145
894.796	14016
894.918	14035
895.04	14054
895.161	14103
895.283	14172
895.405	14012
895.526	14176
895.648	14092
895.769	14138
895.891	14096
896.012	14275
896.134	14210
896.255	14183
896.376	14168
896.498	14183
896.619	14191
896.74	14240
896.861	14233
896.982	14533
897.103	14705
897.224	14457
897.345	14465
897.466	14393
897.587	14389
897.708	14568
897.828	14465
897.949	14457
898.07	14370
898.19	14511
898.311	14739
898.431	14438
898.552	14571
898.672	14670
898.792	14587
898.913	14632
899.033	14431
899.153	14358
899.273	14431
899.393	14442
899.513	14480
899.633	14381
899.753	14385
899.873	14423
899.993	14431
900.113	14381
900.232	14427
900.352	14377
900.472	14324
900.591	14225
900.711	14332
900.83	14107
900.95	14313
901.069	14294
901.189	14161
901.308	14005
901.427	13925
901.546	13989
901.665	13947
901.784	14024
901.904	13753
902.023	13651
902.141	13597
902.26	13419
902.379	13636
902.498	13480
902.617	13480
902.735	13559
902.854	13540
902.973	13354
903.091	13263
903.21	13232
903.328	13213
903.446	13217
903.565	13065
903.683	13091
903.801	13042
903.919	13088
904.038	13095
904.156	12909
904.274	13034
904.392	12894
904.51	12821
904.627	12973
904.745	13034
904.863	12916
904.981	12688
905.098	12669
905.216	12589
905.334	12608
905.451	12642
905.569	12559
905.686	12684
905.803	12544
905.921	12426
906.038	12566
906.155	12391
906.272	12369
906.389	12342
906.506	12224
906.623	12136
906.74	12209
906.857	12034
906.974	12049
907.091	12224
907.208	12372
907.324	12277
907.441	12095
907.557	11912
907.674	11946
907.79	11828
907.907	11882
908.023	11904
908.139	11935
908.256	11946
908.372	11756
908.488	11813
908.604	11710
908.72	11676
908.836	11676
908.952	11665
909.068	11703
909.184	11790
909.3	11699
909.415	11703
909.531	11767
909.647	11547
909.762	11440
909.878	11440
909.993	11543
910.108	11505
910.224	11353
910.339	11463
910.454	11387
910.57	11315
910.685	11269
910.8	11493
910.915	11364
911.03	11330
911.145	11193
911.259	11143
911.374	11185
911.489	11029
911.604	11010
911.718	10869
911.833	10908
911.947	10847
912.062	10824
912.176	10934
912.291	10896
912.405	10908
912.519	11121
912.633	11060
912.748	10915
912.862	11003
912.976	10793
913.09	10618
913.204	10744
913.318	10866
913.431	10854
913.545	10911
913.659	10816
913.772	10797
913.886	10717
914	10599
914.113	10774
914.226	10759
914.34	10831
914.453	10588
914.566	10698
914.68	10618
914.793	10561
914.906	10455
915.019	10360
915.132	10265
915.245	10356
915.358	10310
915.47	10504
915.583	10485
915.696	10470
915.809	10577
915.921	10519
916.034	10459
916.146	10325
916.259	10322
916.371	10405
916.483	10531
916.595	10398
916.708	10390
916.82	10348
916.932	10360
917.044	10325
917.156	10257
917.268	10280
917.38	10211
917.491	10207
917.603	10234
917.715	10276
917.826	10386
917.938	10158
918.049	10112
918.161	10287
918.272	10382
918.384	10325
918.495	10299
918.606	10135
918.717	10147
918.828	10147
918.939	10192
919.05	9979
919.161	10116
919.272	9972
919.383	10048
919.494	10200
919.604	10314
919.715	10196
919.826	10086
919.936	10093
920.047	10230
920.157	10154
920.267	10322
920.378	10188
920.488	10215
920.598	10325
920.708	10481
920.818	10367
920.928	10337
921.038	10500
921.148	10428
921.258	10185
921.368	10093
921.477	10048
921.587	10006
921.697	9926
921.806	10090
921.916	9956
922.025	9705
922.134	9770
922.244	9675
922.353	9755
922.462	9656
922.571	9572
922.68	9386
922.789	9329
922.898	9321
923.007	9355
923.116	9363
923.224	9386
923.333	9447
923.442	9348
923.55	9226
923.659	9340
923.767	9408
923.876	9302
923.984	9325
924.092	9241
924.201	9287
924.309	9275
924.417	9298
924.525	9256
924.633	9249
924.741	10207
924.849	9009
924.956	9203
925.064	9028
925.172	9020
925.279	9051
925.387	9043
925.494	9112
925.602	9157
925.709	9131
925.816	9043
925.924	9051
926.031	9131
926.138	9070
926.245	9104
926.352	8975
926.459	9077
926.566	9199
926.673	9043
926.779	8921
926.886	8948
926.993	8834
927.099	8746
927.206	8720
927.312	8739
927.419	8792
927.525	8807
927.631	8857
927.737	8724
927.843	8716
927.95	8590
928.056	8636
928.162	8659
928.267	8727
928.373	9237
928.479	8849
928.585	8514
928.69	8644
928.796	8682
928.901	8606
929.007	8465
929.112	8571
929.218	8594
929.323	8541
929.428	8545
929.533	8629
929.638	8450
929.743	8488
929.848	8499
929.953	8560
930.058	8434
930.163	8286
930.267	8282
930.372	8415
930.477	8221
930.581	8484
930.685	8358
930.79	8195
930.894	8267
930.998	8252
931.103	8434
931.207	8054
931.311	7947
931.415	7928
931.519	7757
931.623	7715
