Data from test_V78500241_2626.txt Node
Date: Fri Mar 25 14:51:59 CST 2022
User: usil
Spectrometer: V785-0024
Trigger mode: 0
Integration Time (sec): 4.000000E-1
Scans to average: 1
Nonlinearity correction enabled: false
Boxcar width: 0
Storing dark spectrum: false
XAxis mode: Wavelengths
Number of Pixels in Spectrum: 1024
>>>>>Begin Spectral Data<<<<<
801.071	22025
801.214	21865
801.356	21766
801.499	21625
801.641	21408
801.783	21420
801.926	21340
802.068	21313
802.211	21268
802.353	21173
802.496	21058
802.638	20952
802.78	20777
802.923	20849
803.065	20625
803.208	20739
803.35	20830
803.492	20815
803.635	20785
803.777	20651
803.919	20743
804.061	21001
804.204	20811
804.346	20708
804.488	20560
804.63	20560
804.773	20674
804.915	20682
805.057	20697
805.199	20609
805.341	20522
805.483	20651
805.626	20746
805.768	20514
805.91	20743
806.052	20537
806.194	20446
806.336	20769
806.478	20541
806.62	20518
806.762	20530
806.904	20724
807.046	20971
807.188	20902
807.33	20971
807.472	21024
807.614	20815
807.756	20887
807.898	20727
808.04	20609
808.182	20541
808.324	20716
808.465	20781
808.607	20811
808.749	20960
808.891	21116
809.033	21138
809.174	21017
809.316	21005
809.458	20944
809.6	20941
809.741	21024
809.883	20994
810.025	21138
810.166	21214
810.308	21100
810.45	21199
810.591	20902
810.733	20864
810.875	20800
811.016	20575
811.158	20602
811.299	20765
811.441	20830
811.582	20895
811.724	20693
811.865	20655
812.007	20739
812.148	20670
812.29	20720
812.431	20720
812.573	20921
812.714	21108
812.855	21294
812.997	21272
813.138	21424
813.279	21283
813.421	21241
813.562	21207
813.703	21032
813.845	20853
813.986	20514
814.127	20438
814.268	20355
814.41	20362
814.551	20267
814.692	20294
814.833	20206
814.974	20332
815.115	20358
815.256	20202
815.397	20111
815.539	20138
815.68	20081
815.821	20039
815.962	20020
816.103	20031
816.244	19868
816.385	19757
816.526	19605
816.666	19708
816.807	19457
816.948	19449
817.089	19563
817.23	19480
817.371	19381
817.512	19369
817.653	19301
817.793	19316
817.934	19449
818.075	19327
818.216	19457
818.356	19426
818.497	19183
818.638	19110
818.778	19152
818.919	19050
819.06	19164
819.2	19202
819.341	19365
819.481	19316
819.622	19343
819.762	19605
819.903	19445
820.043	19483
820.184	19339
820.324	19331
820.465	19407
820.605	19419
820.746	19350
820.886	19266
821.026	19388
821.167	19263
821.307	19339
821.447	19346
821.588	19183
821.728	19160
821.868	19004
822.008	18795
822.149	18806
822.289	18753
822.429	18585
822.569	18498
822.709	18544
822.849	18300
822.99	18361
823.13	18376
823.27	18292
823.41	18114
823.55	18087
823.69	18205
823.83	18125
823.97	17969
824.11	17885
824.25	17908
824.389	17908
824.529	17923
824.669	17878
824.809	18072
824.949	18007
825.089	17863
825.228	17878
825.368	17760
825.508	17733
825.648	17619
825.787	17726
825.927	17748
826.067	17562
826.206	17634
826.346	17863
826.485	17657
826.625	17589
826.765	17843
826.904	17707
827.044	17410
827.183	17414
827.323	17345
827.462	17364
827.601	17299
827.741	17284
827.88	17334
828.02	17269
828.159	17296
828.298	17337
828.437	17452
828.577	17258
828.716	17471
828.855	17326
828.994	17197
829.134	17132
829.273	17170
829.412	17140
829.551	17041
829.69	16953
829.829	17075
829.968	17288
830.107	17216
830.246	17223
830.385	17041
830.524	16991
830.663	16843
830.802	16915
830.941	16774
831.08	16683
831.219	16736
831.357	16892
831.496	16904
831.635	16786
831.774	16637
831.913	16611
832.051	16516
832.19	16527
832.329	16577
832.467	16409
832.606	16348
832.744	16447
832.883	16459
833.022	16474
833.16	16443
833.299	16493
833.437	16447
833.576	16470
833.714	16424
833.852	16508
833.991	16565
834.129	16649
834.267	16660
834.406	16478
834.544	16493
834.682	16470
834.821	16508
834.959	16675
835.097	16516
835.235	16611
835.373	16474
835.511	16512
835.65	16436
835.788	16523
835.926	16265
836.064	16211
836.202	16291
836.34	16447
836.478	16527
836.615	16371
836.753	16440
836.891	16432
837.029	16443
837.167	16390
837.305	16295
837.443	16360
837.58	16200
837.718	16360
837.856	16284
837.993	16169
838.131	16405
838.269	16131
838.406	16226
838.544	16124
838.681	16040
838.819	15850
838.956	15846
839.094	15827
839.231	15884
839.369	16032
839.506	16219
839.643	15960
839.781	15789
839.918	15800
840.055	15972
840.193	15934
840.33	15842
840.467	15873
840.604	15892
840.742	16006
840.879	15690
841.016	15789
841.153	15762
841.29	15937
841.427	15819
841.564	15979
841.701	15850
841.838	15846
841.975	15660
842.112	15747
842.249	15660
842.385	15549
842.522	15705
842.659	15622
842.796	15736
842.933	15576
843.069	15530
843.206	15629
843.343	15766
843.479	15709
843.616	15561
843.752	15336
843.889	15370
844.025	15523
844.162	15374
844.298	15477
844.435	15420
844.571	15386
844.708	15485
844.844	15648
844.98	15701
845.117	15625
845.253	15332
845.389	15226
845.525	15325
845.661	15275
845.798	15154
845.934	15321
846.07	15165
846.206	15233
846.342	15351
846.478	15226
846.614	15036
846.75	15017
846.886	15009
847.022	15055
847.158	14937
847.294	14994
847.429	15123
847.565	14952
847.701	15154
847.837	14640
847.972	14667
848.108	14819
848.244	14758
848.379	14560
848.515	14503
848.65	14655
848.786	14537
848.921	14686
849.057	14743
849.192	14522
849.328	14621
849.463	14571
849.598	14632
849.734	14476
849.869	14434
850.004	14423
850.14	14358
850.275	14347
850.41	14305
850.545	14305
850.68	14355
850.815	14362
850.95	14370
851.085	14450
851.22	14442
851.355	14351
851.49	14244
851.625	14237
851.76	14336
851.895	14195
852.03	14142
852.165	14275
852.299	14351
852.434	14442
852.569	14374
852.703	14374
852.838	14431
852.973	14469
853.107	14412
853.242	14252
853.376	14199
853.511	14149
853.645	14191
853.78	14332
853.914	14240
854.048	14161
854.183	14210
854.317	14210
854.451	14366
854.585	14142
854.72	14180
854.854	14298
854.988	14199
855.122	14176
855.256	14111
855.39	14081
855.524	14256
855.658	14282
855.792	14233
855.926	14218
856.06	14301
856.194	14259
856.327	14248
856.461	14138
856.595	14233
856.729	14290
856.862	14347
856.996	14229
857.13	14298
857.263	14381
857.397	14320
857.53	14237
857.664	14278
857.797	14267
857.931	14263
858.064	14282
858.197	14305
858.331	14286
858.464	14187
858.597	14069
858.731	14183
858.864	14187
858.997	14252
859.13	14221
859.263	14206
859.396	14366
859.529	14221
859.662	14210
859.795	14111
859.928	14142
860.061	14309
860.194	14408
860.327	14240
860.46	14138
860.592	14309
860.725	14393
860.858	14374
860.99	14275
861.123	14149
861.256	14092
861.388	14191
861.521	14857
861.653	14046
861.786	13944
861.918	14096
862.05	14191
862.183	14138
862.315	14248
862.447	14298
862.58	14126
862.712	14027
862.844	13944
862.976	14073
863.108	14043
863.24	14511
863.372	13936
863.504	13978
863.636	13986
863.768	13986
863.9	13997
864.032	13902
864.164	13959
864.296	14043
864.428	14176
864.559	14100
864.691	14115
864.823	14130
864.954	14005
865.086	14062
865.217	13974
865.349	13993
865.48	13978
865.612	14054
865.743	14161
865.875	13944
866.006	13989
866.137	14005
866.269	14035
866.4	14031
866.531	13913
866.662	13898
866.793	13928
866.924	14027
867.055	13917
867.186	13947
867.317	13898
867.448	13841
867.579	13902
867.71	13925
867.841	13906
867.972	14065
868.103	13986
868.233	13947
868.364	13986
868.495	14054
868.625	14244
868.756	14320
868.886	14145
869.017	14305
869.147	14374
869.278	14351
869.408	14259
869.539	14248
869.669	14389
869.799	14290
869.929	14377
870.06	14290
870.19	14560
870.32	14507
870.45	14587
870.58	14697
870.71	14712
870.84	14743
870.97	14560
871.1	14571
871.23	14800
871.36	14845
871.489	14705
871.619	14853
871.749	14842
871.879	14876
872.008	14902
872.138	14883
872.267	14807
872.397	14617
872.526	14762
872.656	14659
872.785	14602
872.915	14910
873.044	14929
873.173	14857
873.303	14921
873.432	14956
873.561	14967
873.69	14906
873.819	14883
873.948	14986
874.077	14929
874.206	14872
874.335	14883
874.464	14986
874.593	15180
874.722	15157
874.851	15294
874.979	15169
875.108	15249
875.237	15173
875.365	15226
875.494	15218
875.623	15230
875.751	15119
875.88	15264
876.008	15298
876.136	15408
876.265	15648
876.393	15698
876.521	15720
876.65	15770
876.778	15641
876.906	15576
877.034	15526
877.162	15622
877.29	15584
877.418	15534
877.546	15519
877.674	15648
877.802	15572
877.93	15637
878.058	15545
878.185	15488
878.313	15580
878.441	15572
878.568	15485
878.696	15610
878.824	15538
878.951	15770
879.079	15800
879.206	15930
879.333	15778
879.461	15717
879.588	15774
879.715	15873
879.842	15907
879.97	15694
880.097	15492
880.224	15523
880.351	15507
880.478	15458
880.605	15389
880.732	15485
880.859	15751
880.986	15568
881.112	15504
881.239	15351
881.366	15233
881.493	15157
881.619	15093
881.746	15138
881.872	15062
881.999	15119
882.125	15028
882.252	15157
882.378	15165
882.505	15222
882.631	15039
882.757	15077
882.883	15020
883.01	14960
883.136	14902
883.262	14773
883.388	14746
883.514	15047
883.64	14914
883.766	14872
883.892	14735
884.018	14788
884.143	14979
884.269	15047
884.395	14735
884.52	14594
884.646	14602
884.772	14564
884.897	14549
885.023	14549
885.148	14731
885.274	14811
885.399	14735
885.524	14705
885.65	14670
885.775	14625
885.9	14583
886.025	14750
886.15	14689
886.275	14549
886.4	14545
886.525	14648
886.65	14750
886.775	14636
886.9	14720
887.025	14952
887.149	14785
887.274	14457
887.399	14476
887.523	14545
887.648	14476
887.773	14290
887.897	14533
888.021	14583
888.146	14370
888.27	14556
888.395	14579
888.519	14526
888.643	14545
888.767	14552
888.891	14381
889.015	14309
889.139	14461
889.263	14385
889.387	14427
889.511	14606
889.635	14511
889.759	14343
889.883	14240
890.006	14366
890.13	14427
890.254	14278
890.377	14362
890.501	14229
890.624	14164
890.748	14164
890.871	14062
890.995	14043
891.118	13970
891.241	14069
891.364	14058
891.488	14256
891.611	14020
891.734	14031
891.857	14111
891.98	14123
892.103	14107
892.226	14168
892.349	13974
892.471	13955
892.594	13974
892.717	14081
892.839	14077
892.962	14077
893.085	14180
893.207	13963
893.33	13963
893.452	13890
893.575	14050
893.697	14046
893.819	14214
893.941	14278
894.064	14199
894.186	14054
894.308	14035
894.43	14100
894.552	14309
894.674	14157
894.796	14123
894.918	14123
895.04	13978
895.161	14225
895.283	14126
895.405	14100
895.526	14092
895.648	14172
895.769	14172
895.891	14278
896.012	14282
896.134	14267
896.255	14176
896.376	14149
896.498	14153
896.619	14214
896.74	14256
896.861	14358
896.982	14587
897.103	14735
897.224	14484
897.345	14434
897.466	14336
897.587	14465
897.708	14545
897.828	14556
897.949	14526
898.07	14305
898.19	14423
898.311	14636
898.431	14450
898.552	14537
898.672	14617
898.792	14537
898.913	14629
899.033	14564
899.153	14434
899.273	14328
899.393	14404
899.513	14358
899.633	14362
899.753	14522
899.873	14393
899.993	14495
900.113	14415
900.232	14442
900.352	14343
900.472	14328
900.591	14294
900.711	14374
900.83	14248
900.95	14427
901.069	14339
901.189	14305
901.308	14043
901.427	13906
901.546	13921
901.665	14012
901.784	13906
901.904	13845
902.023	13727
902.141	13480
902.26	13552
902.379	13677
902.498	13495
902.617	13502
902.735	13590
902.854	13548
902.973	13491
903.091	13312
903.21	13274
903.328	13327
903.446	13164
903.565	13107
903.683	13046
903.801	12951
903.919	13137
904.038	12993
904.156	12871
904.274	13019
904.392	12878
904.51	12905
904.627	12962
904.745	13034
904.863	13023
904.981	12730
905.098	12528
905.216	12616
905.334	12597
905.451	12658
905.569	12700
905.686	12673
905.803	12650
905.921	12380
906.038	12433
906.155	12445
906.272	12338
906.389	12327
906.506	12258
906.623	12285
906.74	12175
906.857	12136
906.974	12114
907.091	12262
907.208	12342
907.324	12292
907.441	12201
907.557	11942
907.674	11927
907.79	11965
907.907	11950
908.023	11916
908.139	12003
908.256	11863
908.372	11874
908.488	11802
908.604	11680
908.72	11668
908.836	11783
908.952	11668
909.068	11764
909.184	11863
909.3	11688
909.415	11688
909.531	11733
909.647	11482
909.762	11554
909.878	11486
909.993	11429
910.108	11482
910.224	11436
910.339	11528
910.454	11376
910.57	11292
910.685	11242
910.8	11604
910.915	11493
911.03	11414
911.145	11250
911.259	11201
911.374	11223
911.489	11102
911.604	11048
911.718	10953
911.833	10965
911.947	10828
912.062	10812
912.176	10866
912.291	10930
912.405	11014
912.519	11090
912.633	11181
912.748	10942
912.862	10949
912.976	10854
913.09	10645
913.204	10793
913.318	10835
913.431	11010
913.545	10991
913.659	11071
913.772	10797
913.886	10687
914	10668
914.113	10767
914.226	10824
914.34	10820
914.453	10721
914.566	10763
914.68	10618
914.793	10649
914.906	10440
915.019	10459
915.132	10398
915.245	10440
915.358	10459
915.47	10470
915.583	10428
915.696	10618
915.809	10626
915.921	10615
916.034	10443
916.146	10337
916.259	10379
916.371	10493
916.483	10447
916.595	10325
916.708	10417
916.82	10398
916.932	10398
917.044	10333
917.156	10261
917.268	10227
917.38	10284
917.491	10249
917.603	10299
917.715	10363
917.826	10360
917.938	10242
918.049	10143
918.161	10287
918.272	10382
918.384	10470
918.495	10356
918.606	10166
918.717	10131
918.828	10272
918.939	10249
919.05	10192
919.161	10166
919.272	9987
919.383	9953
919.494	10230
919.604	10409
919.715	10135
919.826	10029
919.936	10196
920.047	10223
920.157	10219
920.267	10333
920.378	10230
920.488	10181
920.598	10428
920.708	10584
920.818	10470
920.928	10341
921.038	10481
921.148	10504
921.258	10204
921.368	10192
921.477	10067
921.587	10093
921.697	9960
921.806	10101
921.916	9922
922.025	9793
922.134	9690
922.244	9709
922.353	9797
922.462	9667
922.571	9545
922.68	9454
922.789	9450
922.898	9378
923.007	9363
923.116	9469
923.224	9405
923.333	9412
923.442	9291
923.55	9275
923.659	9393
923.767	9397
923.876	9313
923.984	9325
924.092	9283
924.201	9283
924.309	9351
924.417	9264
924.525	9237
924.633	9256
924.741	10048
924.849	9157
924.956	9245
925.064	9074
925.172	8994
925.279	9142
925.387	9138
925.494	9036
925.602	9260
925.709	9146
925.816	8986
925.924	9085
926.031	9230
926.138	9077
926.245	9180
926.352	8979
926.459	9127
926.566	9127
926.673	9100
926.779	8963
926.886	8929
926.993	8845
927.099	8773
927.206	8849
927.312	8727
927.419	8883
927.525	8796
927.631	8834
927.737	8758
927.843	8800
927.95	8575
928.056	8697
928.162	8640
928.267	8769
928.373	9275
928.479	8788
928.585	8648
928.69	8712
928.796	8746
928.901	8610
929.007	8431
929.112	8629
929.218	8636
929.323	8575
929.428	8533
929.533	8674
929.638	8514
929.743	8480
929.848	8499
929.953	8579
930.058	8389
930.163	8202
930.267	8305
930.372	8465
930.477	8317
930.581	8503
930.685	8393
930.79	8240
930.894	8206
930.998	8248
931.103	8347
931.207	8065
931.311	7921
931.415	7898
931.519	7788
931.623	7700
