Data from test_V78500241_3090.txt Node
Date: Fri Mar 25 14:55:13 CST 2022
User: usil
Spectrometer: V785-0024
Trigger mode: 0
Integration Time (sec): 4.000000E-1
Scans to average: 1
Nonlinearity correction enabled: false
Boxcar width: 0
Storing dark spectrum: false
XAxis mode: Wavelengths
Number of Pixels in Spectrum: 1024
>>>>>Begin Spectral Data<<<<<
801.071	22032
801.214	21960
801.356	21728
801.499	21622
801.641	21374
801.783	21420
801.926	21488
802.068	21374
802.211	21329
802.353	21237
802.496	21017
802.638	20902
802.78	20883
802.923	20823
803.065	20682
803.208	20716
803.35	20792
803.492	20868
803.635	20826
803.777	20750
803.919	20887
804.061	21112
804.204	20762
804.346	20636
804.488	20674
804.63	20872
804.773	20765
804.915	20678
805.057	20724
805.199	20716
805.341	20758
805.483	20750
805.626	20750
805.768	20640
805.91	20629
806.052	20720
806.194	20476
806.336	20754
806.478	20560
806.62	20594
806.762	20739
806.904	20887
807.046	20921
807.188	21036
807.33	20921
807.472	21036
807.614	21028
807.756	20853
807.898	20842
808.04	20727
808.182	20918
808.324	20697
808.465	20979
808.607	20929
808.749	21169
808.891	21135
809.033	21199
809.174	21039
809.316	21024
809.458	21138
809.6	21074
809.741	21222
809.883	21146
810.025	21325
810.166	21199
810.308	21176
810.45	21028
810.591	21043
810.733	20906
810.875	20868
811.016	20800
811.158	20648
811.299	20910
811.441	20963
811.582	20868
811.724	20807
811.865	20735
812.007	20845
812.148	20735
812.29	20914
812.431	20868
812.573	21047
812.714	21157
812.855	21275
812.997	21317
813.138	21637
813.279	21374
813.421	21363
813.562	21252
813.703	21123
813.845	21066
813.986	20769
814.127	20446
814.268	20473
814.41	20476
814.551	20370
814.692	20541
814.833	20336
814.974	20370
815.115	20339
815.256	20065
815.397	20161
815.539	20210
815.68	20145
815.821	20020
815.962	20134
816.103	20043
816.244	19978
816.385	19780
816.526	19845
816.666	19647
816.807	19483
816.948	19529
817.089	19647
817.23	19537
817.371	19586
817.512	19544
817.653	19415
817.793	19396
817.934	19586
818.075	19540
818.216	19426
818.356	19384
818.497	19430
818.638	19137
818.778	19171
818.919	19190
819.06	19236
819.2	19316
819.341	19483
819.481	19327
819.622	19548
819.762	19655
819.903	19533
820.043	19533
820.184	19472
820.324	19411
820.465	19525
820.605	19430
820.746	19434
820.886	19289
821.026	19381
821.167	19415
821.307	19426
821.447	19430
821.588	19411
821.728	19198
821.868	19118
822.008	18738
822.149	18886
822.289	18954
822.429	18604
822.569	18517
822.709	18540
822.849	18471
822.99	18334
823.13	18403
823.27	18289
823.41	18258
823.55	18117
823.69	18136
823.83	18273
823.97	18049
824.11	17916
824.25	17908
824.389	17939
824.529	18049
824.669	17904
824.809	17977
824.949	17916
825.089	17984
825.228	17920
825.368	17809
825.508	17627
825.648	17718
825.787	17665
825.927	17775
826.067	17661
826.206	17649
826.346	17676
826.485	17684
826.625	17737
826.765	17821
826.904	17710
827.044	17398
827.183	17444
827.323	17398
827.462	17410
827.601	17425
827.741	17459
827.88	17482
828.02	17326
828.159	17398
828.298	17353
828.437	17311
828.577	17414
828.716	17474
828.855	17398
828.994	17189
829.134	17170
829.273	17102
829.412	17128
829.551	17102
829.69	17147
829.829	17254
829.968	17296
830.107	17322
830.246	17170
830.385	17159
830.524	16923
830.663	16987
830.802	16854
830.941	16725
831.08	16759
831.219	16812
831.357	16866
831.496	17052
831.635	16683
831.774	16653
831.913	16622
832.051	16455
832.19	16500
832.329	16561
832.467	16470
832.606	16417
832.744	16424
832.883	16493
833.022	16337
833.16	16462
833.299	16447
833.437	16402
833.576	16516
833.714	16485
833.852	16481
833.991	16500
834.129	16554
834.267	16497
834.406	16512
834.544	16493
834.682	16478
834.821	16382
834.959	16649
835.097	16390
835.235	16626
835.373	16462
835.511	16538
835.65	16363
835.788	16352
835.926	16211
836.064	16181
836.202	16150
836.34	16447
836.478	16474
836.615	16428
836.753	16462
836.891	16417
837.029	16538
837.167	16421
837.305	16284
837.443	16291
837.58	16291
837.718	16436
837.856	16303
837.993	16238
838.131	16363
838.269	16063
838.406	16059
838.544	16169
838.681	15960
838.819	15949
838.956	15778
839.094	15785
839.231	15854
839.369	15911
839.506	16143
839.643	15994
839.781	15793
839.918	15785
840.055	15736
840.193	15781
840.33	15713
840.467	15774
840.604	15797
840.742	16063
840.879	15587
841.016	15724
841.153	15622
841.29	15903
841.427	15895
841.564	15968
841.701	15880
841.838	15732
841.975	15663
842.112	15724
842.249	15481
842.385	15549
842.522	15759
842.659	15633
842.796	15599
842.933	15580
843.069	15587
843.206	15599
843.343	15553
843.479	15644
843.616	15610
843.752	15420
843.889	15412
844.025	15469
844.162	15351
844.298	15500
844.435	15321
844.571	15355
844.708	15363
844.844	15492
844.98	15564
845.117	15500
845.253	15291
845.389	15165
845.525	15363
845.661	15317
845.798	15150
845.934	15184
846.07	15097
846.206	15192
846.342	15275
846.478	15108
846.614	15058
846.75	14952
846.886	14872
847.022	14952
847.158	14941
847.294	14906
847.429	14853
847.565	14944
847.701	15146
847.837	14693
847.972	14610
848.108	14674
848.244	14777
848.379	14644
848.515	14549
848.65	14549
848.786	14488
848.921	14632
849.057	14613
849.192	14575
849.328	14625
849.463	14495
849.598	14442
849.734	14427
849.869	14377
850.004	14415
850.14	14396
850.275	14370
850.41	14123
850.545	14191
850.68	14267
850.815	14286
850.95	14263
851.085	14473
851.22	14473
851.355	14324
851.49	14259
851.625	14237
851.76	14267
851.895	14161
852.03	14134
852.165	14317
852.299	14377
852.434	14381
852.569	14347
852.703	14320
852.838	14434
852.973	14427
853.107	14423
853.242	14275
853.376	14191
853.511	14069
853.645	14073
853.78	14259
853.914	14248
854.048	14164
854.183	14153
854.317	14130
854.451	14370
854.585	14138
854.72	14180
854.854	14187
854.988	14088
855.122	14195
855.256	14039
855.39	14176
855.524	14229
855.658	14161
855.792	14206
855.926	14119
856.06	14214
856.194	14126
856.327	14149
856.461	14107
856.595	14016
856.729	14225
856.862	14309
856.996	14218
857.13	14286
857.263	14244
857.397	14309
857.53	14221
857.664	14176
857.797	14271
857.931	14271
858.064	14210
858.197	14298
858.331	14153
858.464	14126
858.597	14058
858.731	14149
858.864	14077
858.997	14229
859.13	14111
859.263	14172
859.396	14305
859.529	14050
859.662	14183
859.795	14138
859.928	14145
860.061	14408
860.194	14199
860.327	14183
860.46	14214
860.592	14290
860.725	14347
860.858	14237
860.99	14115
861.123	14031
861.256	14077
861.388	14157
861.521	14868
861.653	13993
861.786	13890
861.918	14058
862.05	14088
862.183	14172
862.315	14062
862.447	14138
862.58	14115
862.712	13997
862.844	13849
862.976	14096
863.108	14020
863.24	14366
863.372	13791
863.504	13928
863.636	13928
863.768	14065
863.9	14008
864.032	13830
864.164	13860
864.296	14062
864.428	14050
864.559	14027
864.691	14088
864.823	14001
864.954	13978
865.086	14016
865.217	13909
865.349	13902
865.48	13845
865.612	13940
865.743	14100
865.875	13902
866.006	13940
866.137	13967
866.269	13826
866.4	13993
866.531	13883
866.662	13860
866.793	13814
866.924	13947
867.055	13852
867.186	13928
867.317	13898
867.448	13875
867.579	13868
867.71	13803
867.841	13841
867.972	13944
868.103	13978
868.233	13932
868.364	14031
868.495	13963
868.625	14149
868.756	14267
868.886	14092
869.017	14180
869.147	14275
869.278	14282
869.408	14123
869.539	14278
869.669	14305
869.799	14153
869.929	14366
870.06	14343
870.19	14552
870.32	14476
870.45	14560
870.58	14552
870.71	14667
870.84	14667
870.97	14511
871.1	14537
871.23	14876
871.36	14895
871.489	14663
871.619	14697
871.749	14773
871.879	14800
872.008	14849
872.138	14819
872.267	14762
872.397	14735
872.526	14621
872.656	14617
872.785	14602
872.915	14773
873.044	14925
873.173	14815
873.303	14815
873.432	14842
873.561	14857
873.69	14861
873.819	14925
873.948	14823
874.077	14849
874.206	14891
874.335	14739
874.464	14979
874.593	15173
874.722	14971
874.851	15226
874.979	15104
875.108	15188
875.237	15085
875.365	15097
875.494	15161
875.623	15237
875.751	15077
875.88	15188
876.008	15199
876.136	15351
876.265	15576
876.393	15648
876.521	15660
876.65	15530
876.778	15614
876.906	15625
877.034	15431
877.162	15488
877.29	15393
877.418	15519
877.546	15568
877.674	15542
877.802	15504
877.93	15488
878.058	15515
878.185	15542
878.313	15507
878.441	15576
878.568	15321
878.696	15447
878.824	15549
878.951	15656
879.079	15720
879.206	15880
879.333	15743
879.461	15568
879.588	15728
879.715	15667
879.842	15770
879.97	15606
880.097	15351
880.224	15336
880.351	15481
880.478	15370
880.605	15462
880.732	15424
880.859	15629
880.986	15359
881.112	15462
881.239	15230
881.366	15249
881.493	15142
881.619	14944
881.746	15028
881.872	15161
881.999	15005
882.125	15093
882.252	15161
882.378	15157
882.505	15287
882.631	15081
882.757	14887
882.883	15070
883.01	14864
883.136	14861
883.262	14773
883.388	14769
883.514	14826
883.64	14849
883.766	14895
883.892	14781
884.018	14727
884.143	14891
884.269	14967
884.395	14621
884.52	14499
884.646	14598
884.772	14560
884.897	14457
885.023	14556
885.148	14705
885.274	14769
885.399	14716
885.524	14537
885.65	14549
885.775	14575
885.9	14560
886.025	14807
886.15	14686
886.275	14640
886.4	14434
886.525	14522
886.65	14568
886.775	14537
886.9	14693
887.025	14796
887.149	14560
887.274	14355
887.399	14389
887.523	14324
887.648	14404
887.773	14309
887.897	14484
888.021	14552
888.146	14415
888.27	14583
888.395	14541
888.519	14473
888.643	14454
888.767	14511
888.891	14393
889.015	14218
889.139	14355
889.263	14210
889.387	14358
889.511	14541
889.635	14404
889.759	14240
889.883	14290
890.006	14347
890.13	14336
890.254	14248
890.377	14263
890.501	14046
890.624	14134
890.748	14305
890.871	14039
890.995	13947
891.118	13940
891.241	13944
891.364	14024
891.488	14145
891.611	13967
891.734	14012
891.857	14054
891.98	14088
892.103	14065
892.226	14043
892.349	13978
892.471	13803
892.594	14005
892.717	13970
892.839	13864
892.962	14024
893.085	14005
893.207	13947
893.33	13951
893.452	13967
893.575	14096
893.697	14058
893.819	14111
893.941	14271
894.064	14088
894.186	13951
894.308	13970
894.43	14107
894.552	14202
894.674	14100
894.796	13963
894.918	14031
895.04	14031
895.161	14210
895.283	14149
895.405	13989
895.526	14069
895.648	14161
895.769	14210
895.891	14130
896.012	14256
896.134	14286
896.255	14218
896.376	14214
896.498	14282
896.619	14282
896.74	14218
896.861	14240
896.982	14583
897.103	14640
897.224	14541
897.345	14465
897.466	14393
897.587	14400
897.708	14495
897.828	14499
897.949	14465
898.07	14313
898.19	14400
898.311	14568
898.431	14503
898.552	14495
898.672	14629
898.792	14583
898.913	14522
899.033	14381
899.153	14423
899.273	14271
899.393	14309
899.513	14492
899.633	14381
899.753	14476
899.873	14317
899.993	14457
900.113	14370
900.232	14389
900.352	14469
900.472	14301
900.591	14210
900.711	14229
900.83	14305
900.95	14374
901.069	14351
901.189	14225
901.308	13898
901.427	13913
901.546	13932
901.665	13879
901.784	13868
901.904	13841
902.023	13731
902.141	13616
902.26	13480
902.379	13609
902.498	13499
902.617	13422
902.735	13597
902.854	13518
902.973	13483
903.091	13278
903.21	13217
903.328	13259
903.446	13129
903.565	13095
903.683	13126
903.801	12966
903.919	13126
904.038	13187
904.156	12882
904.274	12954
904.392	12840
904.51	12859
904.627	12886
904.745	12958
904.863	12878
904.981	12673
905.098	12517
905.216	12513
905.334	12665
905.451	12616
905.569	12517
905.686	12574
905.803	12570
905.921	12380
906.038	12525
906.155	12422
906.272	12311
906.389	12327
906.506	12114
906.623	12251
906.74	12102
906.857	11988
906.974	12144
907.091	12232
907.208	12338
907.324	12254
907.441	12091
907.557	12072
907.674	11859
907.79	11859
907.907	11889
908.023	11878
908.139	12003
908.256	11767
908.372	11821
908.488	11752
908.604	11714
908.72	11691
908.836	11722
908.952	11657
909.068	11676
909.184	11855
909.3	11672
909.415	11809
909.531	11649
909.647	11474
909.762	11429
909.878	11452
909.993	11379
910.108	11421
910.224	11414
910.339	11440
910.454	11349
910.57	11223
910.685	11212
910.8	11585
910.915	11417
911.03	11395
911.145	11143
911.259	11178
911.374	11083
911.489	11048
911.604	11025
911.718	10839
911.833	10862
911.947	10793
912.062	10714
912.176	10915
912.291	10866
912.405	10877
912.519	11102
912.633	11098
912.748	10949
912.862	10927
912.976	10793
913.09	10664
913.204	10721
913.318	10774
913.431	10953
913.545	10976
913.659	10919
913.772	10797
913.886	10641
914	10626
914.113	10706
914.226	10850
914.34	10778
914.453	10611
914.566	10710
914.68	10599
914.793	10672
914.906	10451
915.019	10310
915.132	10356
915.245	10344
915.358	10348
915.47	10436
915.583	10398
915.696	10466
915.809	10588
915.921	10584
916.034	10344
916.146	10341
916.259	10363
916.371	10440
916.483	10413
916.595	10455
916.708	10356
916.82	10329
916.932	10318
917.044	10344
917.156	10310
917.268	10188
917.38	10276
917.491	10219
917.603	10272
917.715	10379
917.826	10356
917.938	10246
918.049	10188
918.161	10253
918.272	10447
918.384	10363
918.495	10265
918.606	10162
918.717	10078
918.828	10192
918.939	10112
919.05	10071
919.161	10093
919.272	9983
919.383	9983
919.494	10204
919.604	10375
919.715	10219
919.826	10124
919.936	10158
920.047	10188
920.157	10230
920.267	10337
920.378	10166
920.488	10116
920.598	10325
920.708	10569
920.818	10310
920.928	10341
921.038	10417
921.148	10478
921.258	10192
921.368	10128
921.477	10063
921.587	10025
921.697	9835
921.806	9953
921.916	9842
922.025	9743
922.134	9759
922.244	9667
922.353	9770
922.462	9584
922.571	9587
922.68	9408
922.789	9351
922.898	9386
923.007	9291
923.116	9424
923.224	9412
923.333	9511
923.442	9359
923.55	9298
923.659	9329
923.767	9317
923.876	9222
923.984	9336
924.092	9249
924.201	9294
924.309	9294
924.417	9313
924.525	9199
924.633	9291
924.741	10166
924.849	9009
924.956	9192
925.064	9066
925.172	8998
925.279	9009
925.387	9116
925.494	9127
925.602	9142
925.709	9077
925.816	8990
925.924	9066
926.031	9089
926.138	8990
926.245	9116
926.352	8967
926.459	9112
926.566	9154
926.673	8952
926.779	8956
926.886	8921
926.993	8781
927.099	8788
927.206	8739
927.312	8716
927.419	8804
927.525	8773
927.631	8796
927.737	8655
927.843	8674
927.95	8571
928.056	8667
928.162	8701
928.267	8746
928.373	9340
928.479	8800
928.585	8492
928.69	8613
928.796	8804
928.901	8610
929.007	8469
929.112	8617
929.218	8617
929.323	8488
929.428	8541
929.533	8587
929.638	8514
929.743	8473
929.848	8526
929.953	8484
930.058	8404
930.163	8286
930.267	8332
930.372	8412
930.477	8248
930.581	8400
930.685	8370
930.79	8210
930.894	8240
930.998	8206
931.103	8408
931.207	8027
931.311	7936
931.415	7917
931.519	7677
931.623	7696
