Data from test_V78500241_1329.txt Node
Date: Fri Mar 25 14:42:58 CST 2022
User: usil
Spectrometer: V785-0024
Trigger mode: 0
Integration Time (sec): 4.000000E-1
Scans to average: 1
Nonlinearity correction enabled: false
Boxcar width: 0
Storing dark spectrum: false
XAxis mode: Wavelengths
Number of Pixels in Spectrum: 1024
>>>>>Begin Spectral Data<<<<<
801.071	22504
801.214	22329
801.356	21930
801.499	21930
801.641	21762
801.783	21762
801.926	21698
802.068	21660
802.211	21568
802.353	21595
802.496	21367
802.638	21199
802.78	21310
802.923	21264
803.065	21131
803.208	21070
803.35	21085
803.492	21154
803.635	21218
803.777	21176
803.919	21180
804.061	21428
804.204	21192
804.346	21116
804.488	20971
804.63	21013
804.773	20941
804.915	20998
805.057	21176
805.199	20952
805.341	21058
805.483	21085
805.626	21074
805.768	20914
805.91	20944
806.052	20979
806.194	21043
806.336	21142
806.478	20960
806.62	20986
806.762	21024
806.904	21036
807.046	21401
807.188	21298
807.33	21268
807.472	21534
807.614	21340
807.756	21420
807.898	21325
808.04	21058
808.182	21321
808.324	21165
808.465	21283
808.607	21450
808.749	21622
808.891	21648
809.033	21770
809.174	21618
809.316	21481
809.458	21485
809.6	21481
809.741	21545
809.883	21519
810.025	21663
810.166	21648
810.308	21648
810.45	21675
810.591	21401
810.733	21344
810.875	21291
811.016	21093
811.158	21108
811.299	21275
811.441	21291
811.582	21351
811.724	21249
811.865	21161
812.007	21184
812.148	21161
812.29	21230
812.431	21355
812.573	21397
812.714	21526
812.855	21614
812.997	21660
813.138	21911
813.279	21808
813.421	21660
813.562	21523
813.703	21412
813.845	21329
813.986	21020
814.127	20853
814.268	20826
814.41	20823
814.551	20727
814.692	20746
814.833	20667
814.974	20564
815.115	20849
815.256	20674
815.397	20583
815.539	20492
815.68	20408
815.821	20427
815.962	20396
816.103	20427
816.244	20355
816.385	20218
816.526	20229
816.666	20164
816.807	19928
816.948	19967
817.089	19978
817.23	19997
817.371	19799
817.512	19849
817.653	19822
817.793	19849
817.934	19898
818.075	19917
818.216	19917
818.356	19803
818.497	19651
818.638	19651
818.778	19502
818.919	19620
819.06	19548
819.2	19674
819.341	19765
819.481	19746
819.622	19917
819.762	20096
819.903	19951
820.043	19909
820.184	19849
820.324	19761
820.465	19890
820.605	19944
820.746	19856
820.886	19738
821.026	19837
821.167	19811
821.307	19921
821.447	19780
821.588	19719
821.728	19529
821.868	19297
822.008	19377
822.149	19228
822.289	19168
822.429	19027
822.569	18958
822.709	18840
822.849	18814
822.99	18833
823.13	18760
823.27	18661
823.41	18612
823.55	18486
823.69	18540
823.83	18601
823.97	18437
824.11	18395
824.25	18311
824.389	18437
824.529	18369
824.669	18251
824.809	18433
824.949	18327
825.089	18388
825.228	18399
825.368	18114
825.508	18262
825.648	18083
825.787	18239
825.927	18155
826.067	18186
826.206	18034
826.346	18171
826.485	18095
826.625	18053
826.765	18254
826.904	18136
827.044	17988
827.183	17882
827.323	17866
827.462	17802
827.601	17813
827.741	17832
827.88	17866
828.02	17703
828.159	17729
828.298	17767
828.437	17916
828.577	17790
828.716	17946
828.855	17760
828.994	17687
829.134	17661
829.273	17585
829.412	17459
829.551	17467
829.69	17505
829.829	17646
829.968	17638
830.107	17577
830.246	17554
830.385	17581
830.524	17634
830.663	17490
830.802	17284
830.941	17204
831.08	17155
831.219	17284
831.357	17345
831.496	17402
831.635	17140
831.774	17105
831.913	17022
832.051	16923
832.19	16965
832.329	17010
832.467	16938
832.606	16873
832.744	16953
832.883	16862
833.022	16869
833.16	16866
833.299	16919
833.437	16930
833.576	16915
833.714	16965
833.852	16987
833.991	16908
834.129	17022
834.267	17025
834.406	16873
834.544	17056
834.682	16953
834.821	16980
834.959	17121
835.097	16938
835.235	16877
835.373	16938
835.511	16961
835.65	16854
835.788	16900
835.926	16767
836.064	16664
836.202	16755
836.34	16782
836.478	16923
836.615	16919
836.753	16774
836.891	17022
837.029	16904
837.167	16820
837.305	16744
837.443	16805
837.58	16618
837.718	16763
837.856	16733
837.993	16736
838.131	16767
838.269	16672
838.406	16637
838.544	16603
838.681	16402
838.819	16348
838.956	16284
839.094	16253
839.231	16291
839.369	16276
839.506	16588
839.643	16470
839.781	16306
839.918	16162
840.055	16371
840.193	16150
840.33	16158
840.467	16363
840.604	16265
840.742	16531
840.879	16139
841.016	16143
841.153	16147
841.29	16291
841.427	16341
841.564	16344
841.701	16344
841.838	16276
841.975	16177
842.112	16215
842.249	16116
842.385	15934
842.522	16249
842.659	16169
842.796	16105
842.933	15998
843.069	16029
843.206	15968
843.343	16051
843.479	16086
843.616	16078
843.752	15789
843.889	15964
844.025	15945
844.162	15816
844.298	16063
844.435	15842
844.571	15789
844.708	15880
844.844	15949
844.98	16044
845.117	15991
845.253	15793
845.389	15717
845.525	15747
845.661	15945
845.798	15846
845.934	15884
846.07	15781
846.206	15838
846.342	15895
846.478	15732
846.614	15584
846.75	15485
846.886	15386
847.022	15492
847.158	15507
847.294	15336
847.429	15564
847.565	15386
847.701	15629
847.837	15097
847.972	15184
848.108	15241
848.244	15203
848.379	15116
848.515	14982
848.65	14990
848.786	15070
848.921	15013
849.057	15127
849.192	15089
849.328	14982
849.463	14933
849.598	14895
849.734	14895
849.869	14804
850.004	14765
850.14	14758
850.275	14739
850.41	14686
850.545	14724
850.68	14834
850.815	14781
850.95	14788
851.085	14918
851.22	14800
851.355	14826
851.49	14731
851.625	14739
851.76	14773
851.895	14629
852.03	14636
852.165	14762
852.299	14830
852.434	14891
852.569	14769
852.703	14781
852.838	14785
852.973	14956
853.107	14902
853.242	14693
853.376	14693
853.511	14602
853.645	14640
853.78	14712
853.914	14651
854.048	14583
854.183	14598
854.317	14640
854.451	14716
854.585	14545
854.72	14537
854.854	14674
854.988	14503
855.122	14571
855.256	14415
855.39	14526
855.524	14686
855.658	14674
855.792	14708
855.926	14682
856.06	14750
856.194	14697
856.327	14697
856.461	14480
856.595	14575
856.729	14583
856.862	14701
856.996	14610
857.13	14701
857.263	14705
857.397	14739
857.53	14625
857.664	14651
857.797	14697
857.931	14804
858.064	14667
858.197	14686
858.331	14594
858.464	14613
858.597	14598
858.731	14598
858.864	14598
858.997	14602
859.13	14640
859.263	14705
859.396	14667
859.529	14579
859.662	14556
859.795	14621
859.928	14708
860.061	14720
860.194	14811
860.327	14678
860.46	14594
860.592	14697
860.725	14796
860.858	14667
860.99	14648
861.123	14556
861.256	14602
861.388	14663
861.521	15260
861.653	14526
861.786	14438
861.918	14590
862.05	14583
862.183	14518
862.315	14644
862.447	14636
862.58	14575
862.712	14370
862.844	14370
862.976	14484
863.108	14492
863.24	14906
863.372	14351
863.504	14370
863.636	14370
863.768	14450
863.9	14434
864.032	14263
864.164	14301
864.296	14423
864.428	14545
864.559	14530
864.691	14507
864.823	14446
864.954	14488
865.086	14408
865.217	14389
865.349	14271
865.48	14332
865.612	14476
865.743	14480
865.875	14499
866.006	14336
866.137	14237
866.269	14393
866.4	14495
866.531	14457
866.662	14351
866.793	14374
866.924	14457
867.055	14396
867.186	14381
867.317	14332
867.448	14305
867.579	14259
867.71	14301
867.841	14256
867.972	14374
868.103	14298
868.233	14343
868.364	14465
868.495	14488
868.625	14587
868.756	14754
868.886	14469
869.017	14667
869.147	14724
869.278	14670
869.408	14693
869.539	14625
869.669	14758
869.799	14598
869.929	14697
870.06	14708
870.19	14952
870.32	14876
870.45	14883
870.58	14998
870.71	15047
870.84	15036
870.97	15013
871.1	14998
871.23	15245
871.36	15207
871.489	15116
871.619	15150
871.749	15169
871.879	15203
872.008	15287
872.138	15302
872.267	15188
872.397	15169
872.526	15036
872.656	15097
872.785	14982
872.915	15294
873.044	15298
873.173	15272
873.303	15310
873.432	15355
873.561	15344
873.69	15222
873.819	15195
873.948	15279
874.077	15272
874.206	15245
874.335	15260
874.464	15298
874.593	15603
874.722	15523
874.851	15557
874.979	15717
875.108	15542
875.237	15500
875.365	15469
875.494	15568
875.623	15576
875.751	15523
875.88	15576
876.008	15694
876.136	15770
876.265	15991
876.393	16120
876.521	16059
876.65	16074
876.778	15937
876.906	15800
877.034	15865
877.162	16021
877.29	15979
877.418	16006
877.546	15934
877.674	16002
877.802	15922
877.93	15922
878.058	15937
878.185	15915
878.313	15960
878.441	16048
878.568	15949
878.696	15915
878.824	16067
878.951	16158
879.079	16204
879.206	16402
879.333	16348
879.461	16124
879.588	16257
879.715	16299
879.842	16386
879.97	16162
880.097	15865
880.224	15895
880.351	15945
880.478	15937
880.605	15827
880.732	15854
880.859	16116
880.986	15918
881.112	15892
881.239	15732
881.366	15667
881.493	15622
881.619	15511
881.746	15496
881.872	15519
881.999	15511
882.125	15439
882.252	15652
882.378	15458
882.505	15663
882.631	15519
882.757	15405
882.883	15481
883.01	15424
883.136	15272
883.262	15169
883.388	15180
883.514	15268
883.64	15408
883.766	15382
883.892	15150
884.018	15203
884.143	15275
884.269	15401
884.395	15154
884.52	15077
884.646	15112
884.772	15070
884.897	14963
885.023	15077
885.148	15119
885.274	15169
885.399	15184
885.524	15039
885.65	14971
885.775	15074
885.9	15036
886.025	15116
886.15	15150
886.275	15005
886.4	14975
886.525	15024
886.65	14994
886.775	14941
886.9	15135
887.025	15340
887.149	15074
887.274	14891
887.399	14815
887.523	14792
887.648	14845
887.773	14845
887.897	14937
888.021	14906
888.146	14857
888.27	14906
888.395	14986
888.519	14895
888.643	14941
888.767	14914
888.891	14735
889.015	14674
889.139	14746
889.263	14686
889.387	14819
889.511	14872
889.635	14910
889.759	14765
889.883	14701
890.006	14617
890.13	14686
890.254	14568
890.377	14693
890.501	14461
890.624	14484
890.748	14533
890.871	14434
890.995	14381
891.118	14286
891.241	14446
891.364	14503
891.488	14476
891.611	14351
891.734	14393
891.857	14438
891.98	14393
892.103	14431
892.226	14396
892.349	14347
892.471	14202
892.594	14355
892.717	14518
892.839	14355
892.962	14393
893.085	14374
893.207	14313
893.33	14218
893.452	14320
893.575	14476
893.697	14320
893.819	14522
893.941	14602
894.064	14488
894.186	14438
894.308	14336
894.43	14476
894.552	14571
894.674	14579
894.796	14351
894.918	14370
895.04	14396
895.161	14400
895.283	14503
895.405	14412
895.526	14480
895.648	14438
895.769	14606
895.891	14545
896.012	14632
896.134	14594
896.255	14587
896.376	14560
896.498	14476
896.619	14583
896.74	14511
896.861	14655
896.982	14918
897.103	15051
897.224	14788
897.345	14845
897.466	14724
897.587	14754
897.708	14937
897.828	14842
897.949	14811
898.07	14758
898.19	14800
898.311	14941
898.431	14811
898.552	14868
898.672	15017
898.792	14979
898.913	15013
899.033	14758
899.153	14785
899.273	14724
899.393	14697
899.513	14811
899.633	14697
899.753	14815
899.873	14765
899.993	14880
900.113	14678
900.232	14750
900.352	14826
900.472	14682
900.591	14560
900.711	14602
900.83	14473
900.95	14613
901.069	14689
901.189	14549
901.308	14332
901.427	14301
901.546	14400
901.665	14252
901.784	14229
901.904	14275
902.023	14100
902.141	13837
902.26	13864
902.379	13902
902.498	13871
902.617	13803
902.735	13864
902.854	13788
902.973	13753
903.091	13662
903.21	13571
903.328	13525
903.446	13514
903.565	13411
903.683	13460
903.801	13301
903.919	13411
904.038	13312
904.156	13168
904.274	13217
904.392	13206
904.51	13107
904.627	13194
904.745	13206
904.863	13289
904.981	13057
905.098	12928
905.216	12897
905.334	12848
905.451	12901
905.569	12829
905.686	12913
905.803	12928
905.921	12688
906.038	12772
906.155	12753
906.272	12601
906.389	12616
906.506	12418
906.623	12559
906.74	12498
906.857	12330
906.974	12460
907.091	12528
907.208	12635
907.324	12544
907.441	12506
907.557	12266
907.674	12338
907.79	12228
907.907	12133
908.023	12266
908.139	12205
908.256	12133
908.372	12194
908.488	12106
908.604	11988
908.72	11973
908.836	11984
908.952	12015
909.068	12026
909.184	12152
909.3	11958
909.415	12053
909.531	12022
909.647	11870
909.762	11813
909.878	11718
909.993	11779
910.108	11767
910.224	11703
910.339	11710
910.454	11680
910.57	11608
910.685	11611
910.8	11859
910.915	11775
911.03	11611
911.145	11433
911.259	11326
911.374	11444
911.489	11288
911.604	11303
911.718	11242
911.833	11159
911.947	11113
912.062	11136
912.176	11250
912.291	11227
912.405	11292
912.519	11376
912.633	11391
912.748	11273
912.862	11197
912.976	11117
913.09	10987
913.204	11109
913.318	11155
913.431	11280
913.545	11166
913.659	11265
913.772	11098
913.886	10946
914	10961
914.113	11006
914.226	11098
914.34	11075
914.453	10885
914.566	10938
914.68	10873
914.793	10938
914.906	10714
915.019	10637
915.132	10733
915.245	10683
915.358	10755
915.47	10740
915.583	10702
915.696	10763
915.809	10873
915.921	10915
916.034	10725
916.146	10599
916.259	10599
916.371	10740
916.483	10664
916.595	10615
916.708	10672
916.82	10656
916.932	10584
917.044	10618
917.156	10641
917.268	10447
917.38	10592
917.491	10542
917.603	10554
917.715	10645
917.826	10649
917.938	10550
918.049	10455
918.161	10523
918.272	10748
918.384	10637
918.495	10607
918.606	10451
918.717	10352
918.828	10428
918.939	10424
919.05	10398
919.161	10417
919.272	10188
919.383	10257
919.494	10417
919.604	10588
919.715	10367
919.826	10322
919.936	10371
920.047	10424
920.157	10447
920.267	10687
920.378	10569
920.488	10470
920.598	10573
920.708	10755
920.818	10637
920.928	10584
921.038	10759
921.148	10717
921.258	10413
921.368	10382
921.477	10242
921.587	10238
921.697	10116
921.806	10333
921.916	10150
922.025	9994
922.134	9941
922.244	10006
922.353	9960
922.462	9888
922.571	9838
922.68	9641
922.789	9580
922.898	9679
923.007	9625
923.116	9671
923.224	9641
923.333	9526
923.442	9538
923.55	9515
923.659	9542
923.767	9595
923.876	9492
923.984	9564
924.092	9534
924.201	9511
924.309	9568
924.417	9523
924.525	9530
924.633	9523
924.741	10394
924.849	9317
924.956	9454
925.064	9272
925.172	9233
925.279	9256
925.387	9272
925.494	9226
925.602	9416
925.709	9393
925.816	9306
925.924	9348
926.031	9416
926.138	9348
926.245	9329
926.352	9226
926.459	9431
926.566	9370
926.673	9291
926.779	9127
926.886	9188
926.993	9055
927.099	9013
927.206	8876
927.312	8998
927.419	9024
927.525	9009
927.631	9032
927.737	8994
927.843	8929
927.95	8857
928.056	8861
928.162	8891
928.267	8956
928.373	9557
928.479	9039
928.585	8743
928.69	8910
928.796	8941
928.901	8845
929.007	8648
929.112	8842
929.218	8739
929.323	8777
929.428	8762
929.533	8925
929.638	8629
929.743	8663
929.848	8743
929.953	8720
930.058	8678
930.163	8438
930.267	8446
930.372	8674
930.477	8412
930.581	8727
930.685	8575
930.79	8503
930.894	8438
930.998	8476
931.103	8606
931.207	8218
931.311	8214
931.415	8081
931.519	7951
931.623	7887
