Data from test_V78500241_1395.txt Node
Date: Fri Mar 25 14:43:25 CST 2022
User: usil
Spectrometer: V785-0024
Trigger mode: 0
Integration Time (sec): 4.000000E-1
Scans to average: 1
Nonlinearity correction enabled: false
Boxcar width: 0
Storing dark spectrum: false
XAxis mode: Wavelengths
Number of Pixels in Spectrum: 1024
>>>>>Begin Spectral Data<<<<<
801.071	22554
801.214	22451
801.356	22177
801.499	21911
801.641	21873
801.783	21827
801.926	21873
802.068	21595
802.211	21660
802.353	21606
802.496	21469
802.638	21256
802.78	21382
802.923	21165
803.065	21116
803.208	21100
803.35	21096
803.492	21291
803.635	21283
803.777	21104
803.919	21245
804.061	21622
804.204	21138
804.346	21127
804.488	21024
804.63	21058
804.773	20975
804.915	21260
805.057	21165
805.199	21039
805.341	21146
805.483	21199
805.626	21070
805.768	21165
805.91	21055
806.052	21100
806.194	20845
806.336	21351
806.478	21047
806.62	21188
806.762	21169
806.904	21275
807.046	21557
807.188	21481
807.33	21469
807.472	21549
807.614	21367
807.756	21428
807.898	21302
808.04	21313
808.182	21420
808.324	21321
808.465	21443
808.607	21523
808.749	21663
808.891	21812
809.033	21850
809.174	21854
809.316	21553
809.458	21698
809.6	21526
809.741	21671
809.883	21671
810.025	21720
810.166	21690
810.308	21625
810.45	21675
810.591	21545
810.733	21348
810.875	21302
811.016	21161
811.158	21241
811.299	21332
811.441	21408
811.582	21481
811.724	21211
811.865	21214
812.007	21367
812.148	21287
812.29	21302
812.431	21462
812.573	21557
812.714	21694
812.855	21774
812.997	21922
813.138	22086
813.279	21945
813.421	21873
813.562	21705
813.703	21492
813.845	21401
813.986	21100
814.127	20956
814.268	20929
814.41	20785
814.551	20765
814.692	20872
814.833	20731
814.974	20815
815.115	20777
815.256	20750
815.397	20678
815.539	20659
815.68	20613
815.821	20571
815.962	20533
816.103	20389
816.244	20366
816.385	20256
816.526	20218
816.666	20191
816.807	19951
816.948	20062
817.089	20183
817.23	19963
817.371	20077
817.512	19841
817.653	19932
817.793	19947
817.934	20001
818.075	20024
818.216	19997
818.356	19883
818.497	19757
818.638	19567
818.778	19620
818.919	19712
819.06	19620
819.2	19704
819.341	19833
819.481	19871
819.622	20069
819.762	20157
819.903	20096
820.043	20035
820.184	19997
820.324	19997
820.465	19955
820.605	19955
820.746	19944
820.886	19780
821.026	19841
821.167	19875
821.307	19921
821.447	19715
821.588	19822
821.728	19731
821.868	19491
822.008	19384
822.149	19285
822.289	19244
822.429	19183
822.569	19050
822.709	18989
822.849	18897
822.99	18871
823.13	18753
823.27	18700
823.41	18665
823.55	18585
823.69	18608
823.83	18646
823.97	18540
824.11	18353
824.25	18338
824.389	18376
824.529	18532
824.669	18372
824.809	18445
824.949	18597
825.089	18540
825.228	18517
825.368	18163
825.508	18308
825.648	18155
825.787	18186
825.927	18270
826.067	18144
826.206	18148
826.346	18190
826.485	18220
826.625	18178
826.765	18346
826.904	18277
827.044	17965
827.183	17958
827.323	17901
827.462	17805
827.601	17973
827.741	17786
827.88	17916
828.02	17748
828.159	17840
828.298	17817
828.437	17954
828.577	17885
828.716	17885
828.855	17790
828.994	17691
829.134	17638
829.273	17653
829.412	17649
829.551	17558
829.69	17608
829.829	17630
829.968	17665
830.107	17691
830.246	17638
830.385	17581
830.524	17478
830.663	17398
830.802	17311
830.941	17307
831.08	17246
831.219	17288
831.357	17277
831.496	17440
831.635	17223
831.774	17098
831.913	17200
832.051	17064
832.19	17025
832.329	17041
832.467	17045
832.606	16862
832.744	16889
832.883	16976
833.022	16919
833.16	16991
833.299	16892
833.437	16881
833.576	16980
833.714	16984
833.852	17071
833.991	17041
834.129	16995
834.267	17098
834.406	16949
834.544	17045
834.682	17064
834.821	16919
834.959	17090
835.097	17045
835.235	17117
835.373	17079
835.511	16957
835.65	16934
835.788	16938
835.926	16748
836.064	16634
836.202	16843
836.34	16866
836.478	16965
836.615	16896
836.753	16892
836.891	16949
837.029	16885
837.167	16812
837.305	16786
837.443	16877
837.58	16740
837.718	16824
837.856	16778
837.993	16854
838.131	16740
838.269	16725
838.406	16691
838.544	16573
838.681	16493
838.819	16382
838.956	16337
839.094	16261
839.231	16360
839.369	16504
839.506	16653
839.643	16535
839.781	16276
839.918	16299
840.055	16314
840.193	16344
840.33	16234
840.467	16318
840.604	16352
840.742	16542
840.879	16124
841.016	16097
841.153	16246
841.29	16432
841.427	16325
841.564	16367
841.701	16268
841.838	16272
841.975	16246
842.112	16169
842.249	16112
842.385	15922
842.522	16268
842.659	16097
842.796	16051
842.933	16029
843.069	16116
843.206	15991
843.343	16150
843.479	16188
843.616	16131
843.752	15915
843.889	15865
844.025	16090
844.162	15846
844.298	15987
844.435	15915
844.571	15720
844.708	15941
844.844	16010
844.98	16051
845.117	15994
845.253	15934
845.389	15838
845.525	15861
845.661	15827
845.798	15797
845.934	16021
846.07	15915
846.206	15960
846.342	15979
846.478	15816
846.614	15644
846.75	15485
846.886	15435
847.022	15534
847.158	15496
847.294	15428
847.429	15458
847.565	15359
847.701	15644
847.837	15230
847.972	15176
848.108	15157
848.244	15249
848.379	15009
848.515	15123
848.65	15009
848.786	14990
848.921	15036
849.057	15131
849.192	15138
849.328	15085
849.463	15077
849.598	15062
849.734	14929
849.869	14792
850.004	14720
850.14	14910
850.275	14762
850.41	14644
850.545	14693
850.68	14712
850.815	14758
850.95	14632
851.085	14944
851.22	14834
851.355	14815
851.49	14693
851.625	14750
851.76	14792
851.895	14655
852.03	14560
852.165	14754
852.299	14872
852.434	14800
852.569	14777
852.703	14746
852.838	14921
852.973	14906
853.107	14929
853.242	14682
853.376	14659
853.511	14488
853.645	14632
853.78	14708
853.914	14708
854.048	14651
854.183	14636
854.317	14689
854.451	14796
854.585	14613
854.72	14613
854.854	14731
854.988	14552
855.122	14629
855.256	14457
855.39	14720
855.524	14716
855.658	14781
855.792	14701
855.926	14716
856.06	14701
856.194	14792
856.327	14686
856.461	14629
856.595	14644
856.729	14537
856.862	14674
856.996	14674
857.13	14682
857.263	14727
857.397	14659
857.53	14655
857.664	14727
857.797	14724
857.931	14769
858.064	14590
858.197	14796
858.331	14651
858.464	14594
858.597	14552
858.731	14625
858.864	14598
858.997	14701
859.13	14686
859.263	14636
859.396	14670
859.529	14651
859.662	14602
859.795	14522
859.928	14625
860.061	14811
860.194	14849
860.327	14689
860.46	14503
860.592	14769
860.725	14769
860.858	14758
860.99	14560
861.123	14648
861.256	14564
861.388	14678
861.521	15351
861.653	14533
861.786	14484
861.918	14556
862.05	14568
862.183	14617
862.315	14598
862.447	14804
862.58	14518
862.712	14427
862.844	14355
862.976	14533
863.108	14431
863.24	14864
863.372	14355
863.504	14343
863.636	14358
863.768	14377
863.9	14427
864.032	14400
864.164	14408
864.296	14476
864.428	14587
864.559	14495
864.691	14492
864.823	14457
864.954	14419
865.086	14408
865.217	14313
865.349	14328
865.48	14393
865.612	14389
865.743	14522
865.875	14419
866.006	14434
866.137	14305
866.269	14404
866.4	14446
866.531	14366
866.662	14355
866.793	14336
866.924	14374
867.055	14355
867.186	14393
867.317	14290
867.448	14271
867.579	14347
867.71	14267
867.841	14263
867.972	14408
868.103	14400
868.233	14419
868.364	14366
868.495	14408
868.625	14602
868.756	14758
868.886	14564
869.017	14606
869.147	14705
869.278	14739
869.408	14705
869.539	14632
869.669	14686
869.799	14644
869.929	14716
870.06	14689
870.19	14967
870.32	14944
870.45	14998
870.58	15097
870.71	15176
870.84	15188
870.97	15146
871.1	14948
871.23	15249
871.36	15218
871.489	15154
871.619	15146
871.749	15336
871.879	15264
872.008	15272
872.138	15340
872.267	15302
872.397	15039
872.526	15116
872.656	15032
872.785	15093
872.915	15230
873.044	15329
873.173	15283
873.303	15313
873.432	15332
873.561	15321
873.69	15344
873.819	15275
873.948	15348
874.077	15340
874.206	15298
874.335	15329
874.464	15481
874.593	15595
874.722	15549
874.851	15622
874.979	15644
875.108	15629
875.237	15584
875.365	15526
875.494	15553
875.623	15580
875.751	15614
875.88	15519
876.008	15804
876.136	15808
876.265	16017
876.393	16093
876.521	16120
876.65	16032
876.778	16051
876.906	16006
877.034	15903
877.162	15972
877.29	15888
877.418	16025
877.546	16067
877.674	15991
877.802	16029
877.93	15941
878.058	15964
878.185	15892
878.313	15998
878.441	16093
878.568	15968
878.696	15972
878.824	16120
878.951	16158
879.079	16352
879.206	16375
879.333	16344
879.461	16230
879.588	16230
879.715	16455
879.842	16382
879.97	16154
880.097	15876
880.224	15915
880.351	16013
880.478	15922
880.605	15945
880.732	15850
880.859	16086
880.986	15873
881.112	15968
881.239	15804
881.366	15660
881.493	15405
881.619	15580
881.746	15523
881.872	15515
881.999	15504
882.125	15466
882.252	15622
882.378	15595
882.505	15724
882.631	15519
882.757	15367
882.883	15492
883.01	15367
883.136	15279
883.262	15237
883.388	15230
883.514	15344
883.64	15443
883.766	15321
883.892	15245
884.018	15230
884.143	15184
884.269	15473
884.395	15150
884.52	15024
884.646	15036
884.772	14998
884.897	14982
885.023	14986
885.148	15218
885.274	15154
885.399	15161
885.524	15085
885.65	15020
885.775	15112
885.9	15127
886.025	15218
886.15	15169
886.275	15116
886.4	15066
886.525	15077
886.65	15039
886.775	15036
886.9	15085
887.025	15283
887.149	15043
887.274	14994
887.399	14823
887.523	14880
887.648	14758
887.773	14838
887.897	14960
888.021	14994
888.146	14868
888.27	14967
888.395	15081
888.519	14838
888.643	14845
888.767	14918
888.891	14785
889.015	14758
889.139	14670
889.263	14678
889.387	14796
889.511	14918
889.635	14815
889.759	14663
889.883	14644
890.006	14792
890.13	14834
890.254	14598
890.377	14629
890.501	14469
890.624	14469
890.748	14495
890.871	14396
890.995	14320
891.118	14183
891.241	14286
891.364	14412
891.488	14511
891.611	14434
891.734	14393
891.857	14571
891.98	14473
892.103	14537
892.226	14400
892.349	14393
892.471	14225
892.594	14396
892.717	14415
892.839	14385
892.962	14385
893.085	14511
893.207	14465
893.33	14161
893.452	14271
893.575	14431
893.697	14385
893.819	14522
893.941	14701
894.064	14606
894.186	14408
894.308	14419
894.43	14511
894.552	14598
894.674	14476
894.796	14366
894.918	14400
895.04	14412
895.161	14556
895.283	14541
895.405	14400
895.526	14408
895.648	14454
895.769	14552
895.891	14522
896.012	14590
896.134	14545
896.255	14602
896.376	14571
896.498	14556
896.619	14560
896.74	14594
896.861	14701
896.982	14872
897.103	14990
897.224	14807
897.345	14819
897.466	14712
897.587	14800
897.708	14872
897.828	14887
897.949	14845
898.07	14716
898.19	14773
898.311	14944
898.431	14823
898.552	14857
898.672	14925
898.792	15005
898.913	14948
899.033	14826
899.153	14727
899.273	14750
899.393	14739
899.513	14674
899.633	14830
899.753	14796
899.873	14750
899.993	14769
900.113	14743
900.232	14823
900.352	14796
900.472	14674
900.591	14602
900.711	14625
900.83	14625
900.95	14712
901.069	14708
901.189	14541
901.308	14343
901.427	14362
901.546	14278
901.665	14309
901.784	14301
901.904	14126
902.023	14111
902.141	13871
902.26	13902
902.379	13936
902.498	13780
902.617	13772
902.735	13951
902.854	13871
902.973	13738
903.091	13639
903.21	13556
903.328	13662
903.446	13388
903.565	13422
903.683	13369
903.801	13312
903.919	13335
904.038	13373
904.156	13183
904.274	13312
904.392	13156
904.51	13209
904.627	13171
904.745	13259
904.863	13217
904.981	13141
905.098	12913
905.216	12966
905.334	12901
905.451	12985
905.569	12935
905.686	12875
905.803	12924
905.921	12738
906.038	12833
906.155	12719
906.272	12639
906.389	12646
906.506	12467
906.623	12448
906.74	12437
906.857	12407
906.974	12410
907.091	12517
907.208	12566
907.324	12517
907.441	12555
907.557	12270
907.674	12175
907.79	12220
907.907	12300
908.023	12239
908.139	12338
908.256	12136
908.372	12079
908.488	12095
908.604	12026
908.72	11885
908.836	12049
908.952	11946
909.068	12038
909.184	12064
909.3	11980
909.415	12098
909.531	12030
909.647	11798
909.762	11790
909.878	11729
909.993	11699
910.108	11699
910.224	11748
910.339	11771
910.454	11672
910.57	11604
910.685	11554
910.8	11855
910.915	11752
911.03	11676
911.145	11433
911.259	11421
911.374	11532
911.489	11398
911.604	11322
911.718	11265
911.833	11258
911.947	11083
912.062	11071
912.176	11201
912.291	11239
912.405	11132
912.519	11368
912.633	11410
912.748	11254
912.862	11223
912.976	11098
913.09	11010
913.204	11014
913.318	11037
913.431	11117
913.545	11117
913.659	11185
913.772	11075
913.886	10957
914	10923
914.113	11075
914.226	11102
914.34	11064
914.453	10866
914.566	11079
914.68	10873
914.793	10934
914.906	10717
915.019	10725
915.132	10626
915.245	10603
915.358	10721
915.47	10767
915.583	10702
915.696	10683
915.809	10930
915.921	10866
916.034	10714
916.146	10698
916.259	10653
916.371	10687
916.483	10736
916.595	10592
916.708	10660
916.82	10592
916.932	10577
917.044	10573
917.156	10558
917.268	10474
917.38	10535
917.491	10470
917.603	10618
917.715	10630
917.826	10569
917.938	10516
918.049	10421
918.161	10550
918.272	10573
918.384	10721
918.495	10573
918.606	10421
918.717	10333
918.828	10398
918.939	10470
919.05	10257
919.161	10363
919.272	10158
919.383	10295
919.494	10516
919.604	10615
919.715	10386
919.826	10348
919.936	10291
920.047	10500
920.157	10535
920.267	10615
920.378	10462
920.488	10478
920.598	10645
920.708	10824
920.818	10607
920.928	10577
921.038	10793
921.148	10774
921.258	10375
921.368	10356
921.477	10257
921.587	10314
921.697	10207
921.806	10303
921.916	10166
922.025	9972
922.134	9991
922.244	9918
922.353	9930
922.462	9895
922.571	9774
922.68	9633
922.789	9660
922.898	9690
923.007	9576
923.116	9663
923.224	9625
923.333	9656
923.442	9584
923.55	9515
923.659	9553
923.767	9576
923.876	9545
923.984	9618
924.092	9450
924.201	9538
924.309	9488
924.417	9572
924.525	9462
924.633	9439
924.741	10386
924.849	9226
924.956	9431
925.064	9275
925.172	9195
925.279	9279
925.387	9310
925.494	9264
925.602	9408
925.709	9408
925.816	9275
925.924	9268
926.031	9363
926.138	9279
926.245	9351
926.352	9218
926.459	9389
926.566	9359
926.673	9241
926.779	9119
926.886	9173
926.993	8979
927.099	9009
927.206	8994
927.312	8952
927.419	8967
927.525	9024
927.631	9093
927.737	8918
927.843	8849
927.95	8826
928.056	8861
928.162	8876
928.267	8971
928.373	9568
928.479	8982
928.585	8762
928.69	8906
928.796	8979
928.901	8766
929.007	8781
929.112	8857
929.218	8807
929.323	8773
929.428	8788
929.533	8868
929.638	8667
929.743	8727
929.848	8746
929.953	8716
930.058	8617
930.163	8450
930.267	8469
930.372	8621
930.477	8511
930.581	8724
930.685	8530
930.79	8454
930.894	8465
930.998	8446
931.103	8606
931.207	8256
931.311	8119
931.415	8138
931.519	7974
931.623	7902
