Data from test_V78500241_1367.txt Node
Date: Fri Mar 25 14:43:14 CST 2022
User: usil
Spectrometer: V785-0024
Trigger mode: 0
Integration Time (sec): 4.000000E-1
Scans to average: 1
Nonlinearity correction enabled: false
Boxcar width: 0
Storing dark spectrum: false
XAxis mode: Wavelengths
Number of Pixels in Spectrum: 1024
>>>>>Begin Spectral Data<<<<<
801.071	22417
801.214	22409
801.356	22055
801.499	22078
801.641	21835
801.783	21781
801.926	21827
802.068	21709
802.211	21629
802.353	21542
802.496	21374
802.638	21268
802.78	21146
802.923	21032
803.065	21108
803.208	21074
803.35	21203
803.492	21264
803.635	21207
803.777	21150
803.919	21192
804.061	21511
804.204	21123
804.346	21032
804.488	20960
804.63	21036
804.773	21036
804.915	21104
805.057	21123
805.199	21066
805.341	21169
805.483	21169
805.626	21089
805.768	20963
805.91	21062
806.052	21089
806.194	20902
806.336	21127
806.478	21150
806.62	21017
806.762	21039
806.904	21275
807.046	21473
807.188	21439
807.33	21424
807.472	21542
807.614	21367
807.756	21359
807.898	21348
808.04	21199
808.182	21306
808.324	21275
808.465	21256
808.607	21515
808.749	21766
808.891	21755
809.033	21720
809.174	21717
809.316	21622
809.458	21580
809.6	21492
809.741	21504
809.883	21656
810.025	21728
810.166	21705
810.308	21743
810.45	21633
810.591	21466
810.733	21382
810.875	21260
811.016	21275
811.158	21173
811.299	21268
811.441	21416
811.582	21386
811.724	21302
811.865	21203
812.007	21207
812.148	21173
812.29	21332
812.431	21447
812.573	21488
812.714	21618
812.855	21637
812.997	21701
813.138	21873
813.279	21823
813.421	21610
813.562	21690
813.703	21526
813.845	21386
813.986	21116
814.127	20990
814.268	20823
814.41	20838
814.551	20765
814.692	20914
814.833	20712
814.974	20708
815.115	20712
815.256	20625
815.397	20549
815.539	20590
815.68	20541
815.821	20522
815.962	20469
816.103	20389
816.244	20332
816.385	20138
816.526	20221
816.666	20168
816.807	19803
816.948	20031
817.089	20054
817.23	19989
817.371	19928
817.512	19849
817.653	19917
817.793	19814
817.934	19909
818.075	19963
818.216	19921
818.356	19742
818.497	19750
818.638	19578
818.778	19605
818.919	19635
819.06	19571
819.2	19590
819.341	19746
819.481	19757
819.622	19921
819.762	20126
819.903	20058
820.043	20001
820.184	19986
820.324	19860
820.465	19951
820.605	19906
820.746	19959
820.886	19791
821.026	19765
821.167	19852
821.307	19913
821.447	19776
821.588	19685
821.728	19571
821.868	19533
822.008	19346
822.149	19377
822.289	19152
822.429	19031
822.569	18989
822.709	19023
822.849	18829
822.99	18916
823.13	18798
823.27	18859
823.41	18414
823.55	18536
823.69	18673
823.83	18661
823.97	18536
824.11	18365
824.25	18300
824.389	18311
824.529	18403
824.669	18380
824.809	18498
824.949	18384
825.089	18410
825.228	18456
825.368	18034
825.508	18159
825.648	18133
825.787	18342
825.927	18197
826.067	18152
826.206	18136
826.346	18076
826.485	18125
826.625	18079
826.765	18201
826.904	18102
827.044	17992
827.183	17958
827.323	17817
827.462	17863
827.601	17745
827.741	17821
827.88	17878
828.02	17756
828.159	17718
828.298	17764
828.437	17916
828.577	17809
828.716	17851
828.855	17722
828.994	17710
829.134	17592
829.273	17604
829.412	17585
829.551	17581
829.69	17630
829.829	17592
829.968	17627
830.107	17668
830.246	17604
830.385	17532
830.524	17467
830.663	17376
830.802	17303
830.941	17170
831.08	17220
831.219	17277
831.357	17326
831.496	17433
831.635	17147
831.774	17258
831.913	17166
832.051	17109
832.19	16949
832.329	17056
832.467	16972
832.606	16866
832.744	16911
832.883	16919
833.022	16896
833.16	16934
833.299	16869
833.437	16965
833.576	17041
833.714	16957
833.852	16972
833.991	17006
834.129	17155
834.267	17071
834.406	16984
834.544	17056
834.682	17064
834.821	16949
834.959	17151
835.097	16850
835.235	16976
835.373	17010
835.511	16976
835.65	16934
835.788	16869
835.926	16698
836.064	16554
836.202	16668
836.34	16923
836.478	16980
836.615	16717
836.753	16793
836.891	16965
837.029	16869
837.167	16801
837.305	16828
837.443	16752
837.58	16698
837.718	16847
837.856	16786
837.993	16660
838.131	16767
838.269	16645
838.406	16637
838.544	16687
838.681	16508
838.819	16405
838.956	16246
839.094	16352
839.231	16356
839.369	16398
839.506	16656
839.643	16485
839.781	16234
839.918	16120
840.055	16284
840.193	16284
840.33	16261
840.467	16329
840.604	16295
840.742	16558
840.879	16230
841.016	16207
841.153	16219
841.29	16348
841.427	16386
841.564	16356
841.701	16322
841.838	16276
841.975	16131
842.112	16223
842.249	16181
842.385	16021
842.522	16265
842.659	16093
842.796	16021
842.933	16029
843.069	16086
843.206	15991
843.343	16025
843.479	16093
843.616	16116
843.752	15922
843.889	15934
844.025	16036
844.162	15842
844.298	16082
844.435	15911
844.571	15755
844.708	15911
844.844	16021
844.98	16078
845.117	15983
845.253	15846
845.389	15751
845.525	15892
845.661	15895
845.798	15854
845.934	15934
846.07	16048
846.206	16055
846.342	15960
846.478	15892
846.614	15572
846.75	15530
846.886	15469
847.022	15492
847.158	15424
847.294	15401
847.429	15428
847.565	15473
847.701	15644
847.837	15188
847.972	15241
848.108	15203
848.244	15214
848.379	15043
848.515	15058
848.65	14994
848.786	15020
848.921	15039
849.057	15077
849.192	15093
849.328	15020
849.463	15024
849.598	14944
849.734	14899
849.869	14826
850.004	14834
850.14	14838
850.275	14819
850.41	14674
850.545	14708
850.68	14716
850.815	14762
850.95	14750
851.085	14902
851.22	14902
851.355	14735
851.49	14731
851.625	14743
851.76	14670
851.895	14644
852.03	14678
852.165	14773
852.299	14800
852.434	14876
852.569	14762
852.703	14743
852.838	14777
852.973	14937
853.107	14899
853.242	14830
853.376	14686
853.511	14568
853.645	14606
853.78	14785
853.914	14743
854.048	14587
854.183	14587
854.317	14560
854.451	14838
854.585	14693
854.72	14663
854.854	14746
854.988	14427
855.122	14583
855.256	14556
855.39	14575
855.524	14629
855.658	14689
855.792	14625
855.926	14648
856.06	14674
856.194	14708
856.327	14613
856.461	14549
856.595	14590
856.729	14651
856.862	14636
856.996	14663
857.13	14686
857.263	14651
857.397	14777
857.53	14651
857.664	14674
857.797	14701
857.931	14796
858.064	14697
858.197	14762
858.331	14632
858.464	14629
858.597	14640
858.731	14632
858.864	14602
858.997	14575
859.13	14606
859.263	14663
859.396	14739
859.529	14587
859.662	14621
859.795	14579
859.928	14727
860.061	14815
860.194	14807
860.327	14648
860.46	14693
860.592	14693
860.725	14739
860.858	14762
860.99	14629
861.123	14507
861.256	14773
861.388	14579
861.521	15336
861.653	14442
861.786	14480
861.918	14522
862.05	14556
862.183	14571
862.315	14625
862.447	14670
862.58	14674
862.712	14355
862.844	14339
862.976	14495
863.108	14412
863.24	14765
863.372	14370
863.504	14351
863.636	14396
863.768	14419
863.9	14393
864.032	14286
864.164	14320
864.296	14469
864.428	14541
864.559	14442
864.691	14568
864.823	14499
864.954	14396
865.086	14473
865.217	14370
865.349	14298
865.48	14396
865.612	14431
865.743	14568
865.875	14400
866.006	14317
866.137	14328
866.269	14362
866.4	14431
866.531	14366
866.662	14263
866.793	14408
866.924	14404
867.055	14404
867.186	14358
867.317	14259
867.448	14339
867.579	14320
867.71	14271
867.841	14199
867.972	14343
868.103	14393
868.233	14393
868.364	14347
868.495	14446
868.625	14663
868.756	14678
868.886	14484
869.017	14590
869.147	14731
869.278	14743
869.408	14602
869.539	14686
869.669	14727
869.799	14712
869.929	14678
870.06	14686
870.19	15017
870.32	15017
870.45	15001
870.58	15154
870.71	15074
870.84	15157
870.97	15058
871.1	15077
871.23	15173
871.36	15154
871.489	15116
871.619	15252
871.749	15199
871.879	15211
872.008	15199
872.138	15249
872.267	15245
872.397	15058
872.526	15066
872.656	14975
872.785	15001
872.915	15245
873.044	15378
873.173	15245
873.303	15214
873.432	15283
873.561	15374
873.69	15367
873.819	15443
873.948	15424
874.077	15249
874.206	15230
874.335	15302
874.464	15496
874.593	15504
874.722	15515
874.851	15679
874.979	15724
875.108	15720
875.237	15504
875.365	15561
875.494	15595
875.623	15732
875.751	15576
875.88	15667
876.008	15686
876.136	15797
876.265	16067
876.393	16040
876.521	16048
876.65	16051
876.778	15994
876.906	15949
877.034	15956
877.162	15975
877.29	15911
877.418	16051
877.546	16063
877.674	15994
877.802	16063
877.93	16021
878.058	16002
878.185	15838
878.313	16040
878.441	16029
878.568	15899
878.696	15956
878.824	16097
878.951	16036
879.079	16341
879.206	16424
879.333	16299
879.461	16287
879.588	16166
879.715	16303
879.842	16447
879.97	16272
880.097	15956
880.224	15930
880.351	15884
880.478	15899
880.605	15857
880.732	15857
880.859	16192
880.986	16013
881.112	15895
881.239	15873
881.366	15671
881.493	15622
881.619	15428
881.746	15530
881.872	15454
881.999	15553
882.125	15466
882.252	15481
882.378	15595
882.505	15732
882.631	15439
882.757	15310
882.883	15420
883.01	15389
883.136	15378
883.262	15214
883.388	15169
883.514	15359
883.64	15443
883.766	15275
883.892	15188
884.018	15226
884.143	15302
884.269	15397
884.395	15100
884.52	14994
884.646	15028
884.772	14944
884.897	14963
885.023	15077
885.148	15093
885.274	15264
885.399	15112
885.524	15039
885.65	15142
885.775	15135
885.9	14994
886.025	15131
886.15	15142
886.275	15135
886.4	14906
886.525	15055
886.65	14994
886.775	14960
886.9	15161
887.025	15237
887.149	15013
887.274	14902
887.399	14872
887.523	14868
887.648	14792
887.773	14670
887.897	14971
888.021	14944
888.146	14743
888.27	14944
888.395	14982
888.519	14937
888.643	14849
888.767	14914
888.891	14777
889.015	14686
889.139	14788
889.263	14674
889.387	14872
889.511	14895
889.635	14804
889.759	14754
889.883	14785
890.006	14792
890.13	14750
890.254	14644
890.377	14693
890.501	14480
890.624	14583
890.748	14533
890.871	14457
890.995	14381
891.118	14309
891.241	14355
891.364	14438
891.488	14514
891.611	14347
891.734	14480
891.857	14495
891.98	14473
892.103	14461
892.226	14495
892.349	14434
892.471	14305
892.594	14450
892.717	14461
892.839	14415
892.962	14465
893.085	14499
893.207	14324
893.33	14263
893.452	14320
893.575	14400
893.697	14339
893.819	14564
893.941	14530
894.064	14507
894.186	14324
894.308	14305
894.43	14552
894.552	14602
894.674	14530
894.796	14442
894.918	14507
895.04	14404
895.161	14549
895.283	14545
895.405	14355
895.526	14488
895.648	14556
895.769	14511
895.891	14526
896.012	14594
896.134	14560
896.255	14518
896.376	14492
896.498	14606
896.619	14629
896.74	14545
896.861	14636
896.982	14971
897.103	15066
897.224	14853
897.345	14868
897.466	14705
897.587	14800
897.708	14982
897.828	14849
897.949	14819
898.07	14712
898.19	14735
898.311	14929
898.431	14857
898.552	14891
898.672	14952
898.792	14986
898.913	14918
899.033	14800
899.153	14796
899.273	14640
899.393	14811
899.513	14746
899.633	14754
899.753	14811
899.873	14651
899.993	14773
900.113	14712
900.232	14746
900.352	14674
900.472	14644
900.591	14663
900.711	14629
900.83	14560
900.95	14621
901.069	14777
901.189	14587
901.308	14301
901.427	14206
901.546	14290
901.665	14339
901.784	14282
901.904	14088
902.023	14084
902.141	13917
902.26	13830
902.379	13986
902.498	13807
902.617	13826
902.735	13921
902.854	13845
902.973	13871
903.091	13510
903.21	13480
903.328	13628
903.446	13472
903.565	13419
903.683	13362
903.801	13278
903.919	13430
904.038	13419
904.156	13263
904.274	13312
904.392	13217
904.51	13175
904.627	13221
904.745	13293
904.863	13228
904.981	13042
905.098	12890
905.216	12943
905.334	13004
905.451	12924
905.569	12947
905.686	12943
905.803	12958
905.921	12741
906.038	12833
906.155	12726
906.272	12703
906.389	12726
906.506	12544
906.623	12494
906.74	12494
906.857	12433
906.974	12475
907.091	12642
907.208	12677
907.324	12513
907.441	12540
907.557	12243
907.674	12243
907.79	12155
907.907	12273
908.023	12235
908.139	12186
908.256	12186
908.372	12213
908.488	12140
908.604	12079
908.72	11996
908.836	12015
908.952	11923
909.068	11935
909.184	12114
909.3	12019
909.415	11996
909.531	11942
909.647	11794
909.762	11817
909.878	11760
909.993	11790
910.108	11748
910.224	11695
910.339	11676
910.454	11642
910.57	11653
910.685	11611
910.8	11821
910.915	11771
911.03	11646
911.145	11490
911.259	11433
911.374	11490
911.489	11425
911.604	11231
911.718	11185
911.833	11201
911.947	11105
912.062	11113
912.176	11204
912.291	11239
912.405	11212
912.519	11391
912.633	11414
912.748	11311
912.862	11185
912.976	11128
913.09	11003
913.204	11079
913.318	11041
913.431	11166
913.545	11117
913.659	11189
913.772	11090
913.886	11029
914	10927
914.113	11067
914.226	11151
914.34	10961
914.453	10908
914.566	11140
914.68	10946
914.793	10866
914.906	10687
915.019	10656
915.132	10580
915.245	10622
915.358	10774
915.47	10733
915.583	10717
915.696	10771
915.809	10843
915.921	10858
916.034	10691
916.146	10694
916.259	10679
916.371	10835
916.483	10736
916.595	10634
916.708	10649
916.82	10675
916.932	10714
917.044	10664
917.156	10611
917.268	10523
917.38	10462
917.491	10455
917.603	10546
917.715	10542
917.826	10584
917.938	10500
918.049	10443
918.161	10580
918.272	10683
918.384	10729
918.495	10554
918.606	10371
918.717	10402
918.828	10451
918.939	10405
919.05	10394
919.161	10421
919.272	10223
919.383	10329
919.494	10497
919.604	10596
919.715	10470
919.826	10352
919.936	10280
920.047	10497
920.157	10504
920.267	10611
920.378	10519
920.488	10398
920.598	10653
920.708	10759
920.818	10561
920.928	10668
921.038	10755
921.148	10721
921.258	10459
921.368	10360
921.477	10280
921.587	10242
921.697	10181
921.806	10306
921.916	10143
922.025	10055
922.134	9926
922.244	9880
922.353	9953
922.462	9861
922.571	9724
922.68	9622
922.789	9610
922.898	9682
923.007	9641
923.116	9671
923.224	9675
923.333	9686
923.442	9557
923.55	9526
923.659	9545
923.767	9644
923.876	9496
923.984	9568
924.092	9492
924.201	9519
924.309	9534
924.417	9488
924.525	9469
924.633	9488
924.741	10371
924.849	9199
924.956	9481
925.064	9348
925.172	9237
925.279	9253
925.387	9363
925.494	9233
925.602	9466
925.709	9340
925.816	9275
925.924	9253
926.031	9393
926.138	9306
926.245	9386
926.352	9203
926.459	9310
926.566	9370
926.673	9214
926.779	9150
926.886	9169
926.993	9043
927.099	9009
927.206	8979
927.312	8971
927.419	9123
927.525	9093
927.631	9062
927.737	8960
927.843	8910
927.95	8804
928.056	8845
928.162	8902
928.267	8979
928.373	9545
928.479	9074
928.585	8746
928.69	8929
928.796	8918
928.901	8807
929.007	8705
929.112	8830
929.218	8796
929.323	8655
929.428	8823
929.533	8804
929.638	8629
929.743	8781
929.848	8796
929.953	8781
930.058	8598
930.163	8488
930.267	8579
930.372	8625
930.477	8412
930.581	8758
930.685	8556
930.79	8457
930.894	8457
930.998	8381
931.103	8606
931.207	8298
931.311	8206
931.415	8161
931.519	7917
931.623	7944
