Data from test_V78500241_2236.txt Node
Date: Fri Mar 25 14:49:16 CST 2022
User: usil
Spectrometer: V785-0024
Trigger mode: 0
Integration Time (sec): 4.000000E-1
Scans to average: 1
Nonlinearity correction enabled: false
Boxcar width: 0
Storing dark spectrum: false
XAxis mode: Wavelengths
Number of Pixels in Spectrum: 1024
>>>>>Begin Spectral Data<<<<<
801.071	22200
801.214	22086
801.356	21724
801.499	21656
801.641	21610
801.783	21500
801.926	21561
802.068	21389
802.211	21473
802.353	21195
802.496	21150
802.638	21066
802.78	20986
802.923	20971
803.065	20857
803.208	20826
803.35	20861
803.492	20887
803.635	21017
803.777	20872
803.919	20963
804.061	21230
804.204	20918
804.346	20842
804.488	20648
804.63	20804
804.773	20674
804.915	20739
805.057	20834
805.199	20689
805.341	20902
805.483	20902
805.626	20819
805.768	20678
805.91	20788
806.052	20785
806.194	20617
806.336	20982
806.478	20804
806.62	20712
806.762	20830
806.904	20925
807.046	21226
807.188	21161
807.33	20963
807.472	21226
807.614	20998
807.756	21013
807.898	20948
808.04	20830
808.182	20857
808.324	20910
808.465	20941
808.607	21176
808.749	21268
808.891	21359
809.033	21226
809.174	21344
809.316	21085
809.458	21135
809.6	21123
809.741	21302
809.883	21302
810.025	21412
810.166	21351
810.308	21351
810.45	21249
810.591	21260
810.733	21077
810.875	21058
811.016	20967
811.158	20952
811.299	21043
811.441	21047
811.582	21192
811.724	21135
811.865	20925
812.007	20944
812.148	21020
812.29	20975
812.431	21135
812.573	21321
812.714	21336
812.855	21473
812.997	21629
813.138	21629
813.279	21564
813.421	21397
813.562	21298
813.703	21256
813.845	21108
813.986	20861
814.127	20682
814.268	20644
814.41	20632
814.551	20579
814.692	20530
814.833	20366
814.974	20488
815.115	20518
815.256	20412
815.397	20377
815.539	20347
815.68	20263
815.821	20237
815.962	20286
816.103	20267
816.244	20020
816.385	20035
816.526	19955
816.666	19723
816.807	19639
816.948	19708
817.089	19704
817.23	19586
817.371	19559
817.512	19700
817.653	19575
817.793	19514
817.934	19647
818.075	19616
818.216	19731
818.356	19578
818.497	19480
818.638	19301
818.778	19407
818.919	19441
819.06	19415
819.2	19499
819.341	19518
819.481	19586
819.622	19666
819.762	19902
819.903	19814
820.043	19704
820.184	19613
820.324	19529
820.465	19693
820.605	19666
820.746	19506
820.886	19514
821.026	19613
821.167	19662
821.307	19616
821.447	19472
821.588	19510
821.728	19274
821.868	19065
822.008	18954
822.149	19107
822.289	18909
822.429	18730
822.569	18650
822.709	18665
822.849	18639
822.99	18563
823.13	18429
823.27	18582
823.41	18258
823.55	18285
823.69	18357
823.83	18384
823.97	18194
824.11	18079
824.25	17923
824.389	18171
824.529	18224
824.669	18133
824.809	18148
824.949	18220
825.089	18163
825.228	18110
825.368	17847
825.508	17855
825.648	17870
825.787	17950
825.927	17855
826.067	17878
826.206	17733
826.346	17866
826.485	17965
826.625	17794
826.765	17927
826.904	17783
827.044	17634
827.183	17642
827.323	17543
827.462	17524
827.601	17482
827.741	17551
827.88	17615
828.02	17497
828.159	17562
828.298	17478
828.437	17543
828.577	17520
828.716	17687
828.855	17528
828.994	17368
829.134	17307
829.273	17288
829.412	17288
829.551	17311
829.69	17288
829.829	17299
829.968	17425
830.107	17368
830.246	17258
830.385	17296
830.524	17140
830.663	17242
830.802	17029
830.941	16961
831.08	16927
831.219	17064
831.357	16946
831.496	17086
831.635	16877
831.774	16862
831.913	16790
832.051	16691
832.19	16729
832.329	16793
832.467	16668
832.606	16645
832.744	16523
832.883	16554
833.022	16607
833.16	16706
833.299	16656
833.437	16580
833.576	16630
833.714	16672
833.852	16573
833.991	16653
834.129	16668
834.267	16668
834.406	16569
834.544	16672
834.682	16622
834.821	16603
834.959	16858
835.097	16584
835.235	16748
835.373	16668
835.511	16603
835.65	16459
835.788	16607
835.926	16394
836.064	16474
836.202	16363
836.34	16538
836.478	16538
836.615	16462
836.753	16455
836.891	16596
837.029	16542
837.167	16500
837.305	16470
837.443	16432
837.58	16432
837.718	16500
837.856	16424
837.993	16367
838.131	16440
838.269	16341
838.406	16455
838.544	16291
838.681	16112
838.819	16032
838.956	15975
839.094	15968
839.231	15888
839.369	16071
839.506	16322
839.643	16219
839.781	15918
839.918	15918
840.055	15979
840.193	15987
840.33	15857
840.467	15949
840.604	16025
840.742	16166
840.879	15732
841.016	15850
841.153	15808
841.29	16029
841.427	15972
841.564	15968
841.701	16044
841.838	15911
841.975	15854
842.112	15876
842.249	15766
842.385	15667
842.522	15876
842.659	15736
842.796	15641
842.933	15690
843.069	15774
843.206	15701
843.343	15827
843.479	15785
843.616	15751
843.752	15500
843.889	15515
844.025	15603
844.162	15538
844.298	15564
844.435	15477
844.571	15564
844.708	15523
844.844	15595
844.98	15660
845.117	15637
845.253	15408
845.389	15329
845.525	15553
845.661	15329
845.798	15279
845.934	15306
846.07	15298
846.206	15431
846.342	15348
846.478	15344
846.614	15135
846.75	15093
846.886	15051
847.022	15123
847.158	15119
847.294	15116
847.429	15085
847.565	15108
847.701	15325
847.837	14861
847.972	14754
848.108	14864
848.244	14921
848.379	14731
848.515	14655
848.65	14613
848.786	14705
848.921	14762
849.057	14739
849.192	14670
849.328	14743
849.463	14720
849.598	14617
849.734	14598
849.869	14488
850.004	14404
850.14	14419
850.275	14431
850.41	14434
850.545	14522
850.68	14366
850.815	14499
850.95	14434
851.085	14545
851.22	14568
851.355	14476
851.49	14412
851.625	14457
851.76	14423
851.895	14298
852.03	14377
852.165	14408
852.299	14431
852.434	14564
852.569	14499
852.703	14415
852.838	14454
852.973	14739
853.107	14533
853.242	14271
853.376	14355
853.511	14248
853.645	14351
853.78	14381
853.914	14267
854.048	14271
854.183	14282
854.317	14328
854.451	14434
854.585	14324
854.72	14351
854.854	14339
854.988	14237
855.122	14332
855.256	14123
855.39	14309
855.524	14389
855.658	14393
855.792	14374
855.926	14355
856.06	14393
856.194	14412
856.327	14381
856.461	14225
856.595	14214
856.729	14305
856.862	14328
856.996	14286
857.13	14343
857.263	14511
857.397	14465
857.53	14317
857.664	14385
857.797	14362
857.931	14389
858.064	14347
858.197	14442
858.331	14328
858.464	14221
858.597	14218
858.731	14370
858.864	14237
858.997	14317
859.13	14377
859.263	14313
859.396	14415
859.529	14351
859.662	14374
859.795	14267
859.928	14362
860.061	14389
860.194	14522
860.327	14400
860.46	14233
860.592	14450
860.725	14473
860.858	14419
860.99	14396
861.123	14271
861.256	14301
861.388	14278
861.521	14845
861.653	14244
861.786	14115
861.918	14202
862.05	14229
862.183	14282
862.315	14248
862.447	14381
862.58	14324
862.712	14096
862.844	14050
862.976	14161
863.108	14111
863.24	14495
863.372	13986
863.504	14103
863.636	14103
863.768	14145
863.9	14221
864.032	13989
864.164	13978
864.296	14088
864.428	14077
864.559	14199
864.691	14187
864.823	14172
864.954	14229
865.086	14233
865.217	14084
865.349	14020
865.48	14039
865.612	14126
865.743	14244
865.875	14069
866.006	14043
866.137	14001
866.269	14020
866.4	13978
866.531	14035
866.662	14046
866.793	14035
866.924	13963
867.055	14084
867.186	14084
867.317	14008
867.448	13963
867.579	14069
867.71	13963
867.841	13982
867.972	14077
868.103	14088
868.233	14081
868.364	14065
868.495	14161
868.625	14267
868.756	14438
868.886	14202
869.017	14301
869.147	14374
869.278	14518
869.408	14362
869.539	14347
869.669	14404
869.799	14358
869.929	14473
870.06	14507
870.19	14678
870.32	14617
870.45	14667
870.58	14762
870.71	14781
870.84	14815
870.97	14731
871.1	14678
871.23	14902
871.36	14895
871.489	14864
871.619	14880
871.749	14918
871.879	14990
872.008	15020
872.138	14914
872.267	14845
872.397	14762
872.526	14659
872.656	14765
872.785	14777
872.915	14998
873.044	14971
873.173	14887
873.303	15043
873.432	15032
873.561	15074
873.69	15001
873.819	14952
873.948	14971
874.077	15047
874.206	14948
874.335	14891
874.464	15116
874.593	15260
874.722	15199
874.851	15218
874.979	15207
875.108	15363
875.237	15184
875.365	15222
875.494	15180
875.623	15283
875.751	15310
875.88	15374
876.008	15428
876.136	15428
876.265	15694
876.393	15831
876.521	15743
876.65	15732
876.778	15610
876.906	15587
877.034	15549
877.162	15686
877.29	15614
877.418	15755
877.546	15800
877.674	15694
877.802	15660
877.93	15774
878.058	15534
878.185	15568
878.313	15614
878.441	15701
878.568	15641
878.696	15603
878.824	15713
878.951	15827
879.079	15880
879.206	16093
879.333	15827
879.461	15732
879.588	15774
879.715	15800
879.842	16010
879.97	15747
880.097	15462
880.224	15511
880.351	15576
880.478	15511
880.605	15519
880.732	15644
880.859	15679
880.986	15530
881.112	15641
881.239	15428
881.366	15367
881.493	15321
881.619	15313
881.746	15173
881.872	15241
881.999	15207
882.125	15264
882.252	15378
882.378	15344
882.505	15351
882.631	15203
882.757	15093
882.883	15089
883.01	14979
883.136	15009
883.262	14845
883.388	14895
883.514	15043
883.64	15093
883.766	14960
883.892	14899
884.018	14830
884.143	15077
884.269	15062
884.395	14826
884.52	14773
884.646	14823
884.772	14564
884.897	14682
885.023	14731
885.148	14887
885.274	14963
885.399	14762
885.524	14716
885.65	14708
885.775	14769
885.9	14712
886.025	14849
886.15	14807
886.275	14697
886.4	14629
886.525	14716
886.65	14636
886.775	14712
886.9	14941
887.025	15009
887.149	14758
887.274	14629
887.399	14488
887.523	14556
887.648	14530
887.773	14511
887.897	14636
888.021	14568
888.146	14579
888.27	14655
888.395	14807
888.519	14552
888.643	14651
888.767	14590
888.891	14503
889.015	14431
889.139	14476
889.263	14442
889.387	14530
889.511	14613
889.635	14488
889.759	14419
889.883	14381
890.006	14492
890.13	14579
890.254	14328
890.377	14457
890.501	14172
890.624	14259
890.748	14248
890.871	14142
890.995	14062
891.118	14088
891.241	14134
891.364	14081
891.488	14256
891.611	14111
891.734	14161
891.857	14237
891.98	14119
892.103	14206
892.226	14145
892.349	14123
892.471	13997
892.594	14084
892.717	14145
892.839	14065
892.962	14180
893.085	14202
893.207	14096
893.33	13997
893.452	14054
893.575	14164
893.697	14107
893.819	14278
893.941	14339
894.064	14252
894.186	14119
894.308	14111
894.43	14252
894.552	14393
894.674	14183
894.796	14065
894.918	14081
895.04	14062
895.161	14355
895.283	14305
895.405	14172
895.526	14305
895.648	14183
895.769	14202
895.891	14396
896.012	14377
896.134	14385
896.255	14313
896.376	14259
896.498	14370
896.619	14385
896.74	14259
896.861	14309
896.982	14667
897.103	14811
897.224	14587
897.345	14518
897.466	14526
897.587	14556
897.708	14659
897.828	14556
897.949	14537
898.07	14492
898.19	14450
898.311	14636
898.431	14644
898.552	14708
898.672	14785
898.792	14807
898.913	14693
899.033	14552
899.153	14530
899.273	14480
899.393	14526
899.513	14579
899.633	14583
899.753	14552
899.873	14492
899.993	14495
900.113	14511
900.232	14469
900.352	14537
900.472	14503
900.591	14347
900.711	14454
900.83	14400
900.95	14454
901.069	14556
901.189	14339
901.308	14126
901.427	13951
901.546	14065
901.665	14130
901.784	14145
901.904	13917
902.023	13894
902.141	13841
902.26	13696
902.379	13715
902.498	13677
902.617	13453
902.735	13605
902.854	13696
902.973	13620
903.091	13316
903.21	13388
903.328	13346
903.446	13263
903.565	13171
903.683	13213
903.801	13160
903.919	13232
904.038	13209
904.156	13031
904.274	13053
904.392	13004
904.51	12993
904.627	12920
904.745	13099
904.863	13080
904.981	12821
905.098	12658
905.216	12745
905.334	12635
905.451	12681
905.569	12631
905.686	12760
905.803	12669
905.921	12490
906.038	12631
906.155	12540
906.272	12346
906.389	12475
906.506	12254
906.623	12254
906.74	12300
906.857	12175
906.974	12175
907.091	12270
907.208	12407
907.324	12380
907.441	12270
907.557	12022
907.674	12140
907.79	11977
907.907	11999
908.023	12030
908.139	12045
908.256	12007
908.372	12068
908.488	12003
908.604	11870
908.72	11786
908.836	11851
908.952	11775
909.068	11809
909.184	11901
909.3	11828
909.415	11847
909.531	11767
909.647	11535
909.762	11520
909.878	11566
909.993	11524
910.108	11524
910.224	11486
910.339	11512
910.454	11459
910.57	11349
910.685	11330
910.8	11638
910.915	11619
911.03	11356
911.145	11246
911.259	11273
911.374	11204
911.489	11239
911.604	11212
911.718	11014
911.833	11060
911.947	10900
912.062	10854
912.176	10991
912.291	11090
912.405	11010
912.519	11204
912.633	11246
912.748	11083
912.862	10976
912.976	10927
913.09	10714
913.204	10850
913.318	10946
913.431	10953
913.545	10938
913.659	10968
913.772	10873
913.886	10786
914	10710
914.113	10839
914.226	10889
914.34	10816
914.453	10740
914.566	10839
914.68	10820
914.793	10694
914.906	10466
915.019	10485
915.132	10402
915.245	10462
915.358	10432
915.47	10573
915.583	10569
915.696	10649
915.809	10656
915.921	10687
916.034	10466
916.146	10443
916.259	10478
916.371	10519
916.483	10558
916.595	10402
916.708	10409
916.82	10375
916.932	10485
917.044	10432
917.156	10363
917.268	10417
917.38	10379
917.491	10299
917.603	10440
917.715	10443
917.826	10390
917.938	10314
918.049	10196
918.161	10375
918.272	10542
918.384	10440
918.495	10375
918.606	10211
918.717	10135
918.828	10306
918.939	10291
919.05	10158
919.161	10227
919.272	10006
919.383	10010
919.494	10325
919.604	10455
919.715	10314
919.826	10177
919.936	10185
920.047	10314
920.157	10303
920.267	10447
920.378	10261
920.488	10280
920.598	10390
920.708	10538
920.818	10417
920.928	10428
921.038	10615
921.148	10546
921.258	10344
921.368	10215
921.477	10105
921.587	10166
921.697	9994
921.806	10059
921.916	9991
922.025	9793
922.134	9816
922.244	9781
922.353	9778
922.462	9705
922.571	9606
922.68	9507
922.789	9450
922.898	9561
923.007	9447
923.116	9485
923.224	9481
923.333	9488
923.442	9351
923.55	9321
923.659	9450
923.767	9519
923.876	9317
923.984	9477
924.092	9249
924.201	9367
924.309	9374
924.417	9412
924.525	9336
924.633	9348
924.741	10242
924.849	9108
924.956	9188
925.064	9138
925.172	9108
925.279	9150
925.387	9169
925.494	9085
925.602	9363
925.709	9142
925.816	9062
925.924	9157
926.031	9249
926.138	9165
926.245	9184
926.352	9081
926.459	9154
926.566	9283
926.673	9089
926.779	8979
926.886	8937
926.993	8853
927.099	8914
927.206	8796
927.312	8876
927.419	8906
927.525	8925
927.631	8929
927.737	8785
927.843	8727
927.95	8590
928.056	8762
928.162	8788
928.267	8826
928.373	9401
928.479	8853
928.585	8629
928.69	8766
928.796	8876
928.901	8689
929.007	8488
929.112	8682
929.218	8644
929.323	8564
929.428	8499
929.533	8697
929.638	8495
929.743	8518
929.848	8598
929.953	8587
930.058	8545
930.163	8358
930.267	8385
930.372	8492
930.477	8298
930.581	8594
930.685	8374
930.79	8328
930.894	8385
930.998	8237
931.103	8393
931.207	8142
931.311	7982
931.415	7986
931.519	7807
931.623	7753
