Data from test_V78500241_2472.txt Node
Date: Fri Mar 25 14:50:55 CST 2022
User: usil
Spectrometer: V785-0024
Trigger mode: 0
Integration Time (sec): 4.000000E-1
Scans to average: 1
Nonlinearity correction enabled: false
Boxcar width: 0
Storing dark spectrum: false
XAxis mode: Wavelengths
Number of Pixels in Spectrum: 1024
>>>>>Begin Spectral Data<<<<<
801.071	22086
801.214	22021
801.356	21800
801.499	21720
801.641	21462
801.783	21466
801.926	21405
802.068	21363
802.211	21355
802.353	21359
802.496	21017
802.638	21024
802.78	20918
802.923	20845
803.065	20788
803.208	20663
803.35	20792
803.492	20925
803.635	20937
803.777	20777
803.919	20857
804.061	21077
804.204	20876
804.346	20826
804.488	20731
804.63	20750
804.773	20552
804.915	20743
805.057	20902
805.199	20667
805.341	20800
805.483	20960
805.626	20819
805.768	20598
805.91	20758
806.052	20807
806.194	20594
806.336	20807
806.478	20663
806.62	20602
806.762	20762
806.904	20849
807.046	21142
807.188	21047
807.33	20990
807.472	21180
807.614	20887
807.756	21036
807.898	20811
808.04	20651
808.182	20769
808.324	20724
808.465	20887
808.607	21017
808.749	21043
808.891	21146
809.033	21165
809.174	21245
809.316	21096
809.458	21047
809.6	20963
809.741	21058
809.883	21173
810.025	21245
810.166	21329
810.308	21135
810.45	21157
810.591	21104
810.733	20933
810.875	20918
811.016	20849
811.158	20781
811.299	20880
811.441	20971
811.582	20998
811.724	20876
811.865	20902
812.007	20906
812.148	20796
812.29	20887
812.431	21013
812.573	21146
812.714	21104
812.855	21428
812.997	21401
813.138	21652
813.279	21408
813.421	21492
813.562	21306
813.703	21188
813.845	20990
813.986	20735
814.127	20590
814.268	20473
814.41	20530
814.551	20389
814.692	20434
814.833	20389
814.974	20400
815.115	20381
815.256	20320
815.397	20256
815.539	20305
815.68	20142
815.821	20031
815.962	20149
816.103	20161
816.244	20062
816.385	19978
816.526	19799
816.666	19811
816.807	19674
816.948	19594
817.089	19776
817.23	19544
817.371	19601
817.512	19567
817.653	19441
817.793	19544
817.934	19514
818.075	19552
818.216	19518
818.356	19419
818.497	19369
818.638	19324
818.778	19221
818.919	19244
819.06	19206
819.2	19255
819.341	19476
819.481	19301
819.622	19480
819.762	19670
819.903	19734
820.043	19544
820.184	19495
820.324	19502
820.465	19491
820.605	19453
820.746	19571
820.886	19434
821.026	19400
821.167	19289
821.307	19525
821.447	19499
821.588	19343
821.728	19156
821.868	18989
822.008	18977
822.149	18943
822.289	18863
822.429	18700
822.569	18604
822.709	18665
822.849	18365
822.99	18357
823.13	18346
823.27	18483
823.41	18174
823.55	18144
823.69	18182
823.83	18171
823.97	18125
824.11	17969
824.25	18015
824.389	17988
824.529	18098
824.669	17996
824.809	18106
824.949	17984
825.089	18102
825.228	17992
825.368	17798
825.508	17824
825.648	17870
825.787	17756
825.927	17703
826.067	17733
826.206	17596
826.346	17775
826.485	17752
826.625	17748
826.765	17920
826.904	17748
827.044	17535
827.183	17501
827.323	17478
827.462	17463
827.601	17478
827.741	17414
827.88	17524
828.02	17356
828.159	17436
828.298	17497
828.437	17505
828.577	17303
828.716	17604
828.855	17410
828.994	17235
829.134	17208
829.273	17261
829.412	17113
829.551	17136
829.69	17178
829.829	17288
829.968	17280
830.107	17181
830.246	17193
830.385	17223
830.524	17143
830.663	17025
830.802	16999
830.941	16805
831.08	16771
831.219	16782
831.357	16850
831.496	17006
831.635	16736
831.774	16782
831.913	16831
832.051	16649
832.19	16615
832.329	16580
832.467	16569
832.606	16440
832.744	16523
832.883	16493
833.022	16428
833.16	16424
833.299	16611
833.437	16348
833.576	16626
833.714	16493
833.852	16573
833.991	16664
834.129	16641
834.267	16542
834.406	16554
834.544	16550
834.682	16599
834.821	16523
834.959	16683
835.097	16546
835.235	16615
835.373	16683
835.511	16577
835.65	16470
835.788	16447
835.926	16272
836.064	16284
836.202	16234
836.34	16466
836.478	16508
836.615	16394
836.753	16474
836.891	16531
837.029	16478
837.167	16379
837.305	16386
837.443	16432
837.58	16268
837.718	16421
837.856	16287
837.993	16287
838.131	16291
838.269	16322
838.406	16333
838.544	16181
838.681	16044
838.819	16067
838.956	15884
839.094	15899
839.231	15899
839.369	15953
839.506	16375
839.643	16105
839.781	15945
839.918	15888
840.055	15838
840.193	15899
840.33	15835
840.467	15850
840.604	15857
840.742	16147
840.879	15770
841.016	15816
841.153	15846
841.29	16048
841.427	15850
841.564	15884
841.701	15930
841.838	15781
841.975	15736
842.112	15766
842.249	15709
842.385	15622
842.522	15808
842.659	15739
842.796	15679
842.933	15717
843.069	15622
843.206	15572
843.343	15789
843.479	15599
843.616	15701
843.752	15492
843.889	15378
844.025	15587
844.162	15462
844.298	15534
844.435	15420
844.571	15325
844.708	15526
844.844	15637
844.98	15667
845.117	15587
845.253	15386
845.389	15329
845.525	15420
845.661	15294
845.798	15226
845.934	15351
846.07	15222
846.206	15298
846.342	15291
846.478	15348
846.614	15013
846.75	14979
846.886	14899
847.022	15123
847.158	14975
847.294	14979
847.429	15024
847.565	14944
847.701	15226
847.837	14823
847.972	14739
848.108	14895
848.244	14769
848.379	14716
848.515	14655
848.65	14564
848.786	14667
848.921	14648
849.057	14727
849.192	14693
849.328	14526
849.463	14735
849.598	14629
849.734	14644
849.869	14419
850.004	14438
850.14	14450
850.275	14423
850.41	14328
850.545	14286
850.68	14286
850.815	14377
850.95	14358
851.085	14575
851.22	14454
851.355	14408
851.49	14396
851.625	14317
851.76	14366
851.895	14218
852.03	14237
852.165	14438
852.299	14396
852.434	14389
852.569	14412
852.703	14362
852.838	14556
852.973	14537
853.107	14632
853.242	14347
853.376	14278
853.511	14126
853.645	14157
853.78	14347
853.914	14244
854.048	14233
854.183	14309
854.317	14248
854.451	14412
854.585	14199
854.72	14164
854.854	14358
854.988	14130
855.122	14172
855.256	14111
855.39	14267
855.524	14278
855.658	14339
855.792	14271
855.926	14240
856.06	14400
856.194	14332
856.327	14267
856.461	14180
856.595	14225
856.729	14180
856.862	14423
856.996	14290
857.13	14305
857.263	14438
857.397	14454
857.53	14218
857.664	14309
857.797	14396
857.931	14351
858.064	14370
858.197	14362
858.331	14275
858.464	14202
858.597	14153
858.731	14290
858.864	14233
858.997	14259
859.13	14199
859.263	14286
859.396	14336
859.529	14195
859.662	14290
859.795	14164
859.928	14229
860.061	14400
860.194	14503
860.327	14294
860.46	14176
860.592	14404
860.725	14396
860.858	14358
860.99	14183
861.123	14210
861.256	14199
861.388	14233
861.521	14838
861.653	14103
861.786	14046
861.918	14134
862.05	14138
862.183	14180
862.315	14202
862.447	14294
862.58	14164
862.712	14001
862.844	14005
862.976	14084
863.108	14050
863.24	14442
863.372	13982
863.504	14058
863.636	14081
863.768	14031
863.9	14039
864.032	14005
864.164	13936
864.296	14115
864.428	14138
864.559	14153
864.691	14058
864.823	14058
864.954	14103
865.086	14024
865.217	14035
865.349	14016
865.48	14126
865.612	14164
865.743	14168
865.875	14031
866.006	14088
866.137	14050
866.269	13989
866.4	13940
866.531	13925
866.662	13940
866.793	14043
866.924	13955
867.055	13963
867.186	14020
867.317	13940
867.448	13887
867.579	13902
867.71	13940
867.841	13932
867.972	13993
868.103	14103
868.233	14081
868.364	14001
868.495	14024
868.625	14282
868.756	14343
868.886	14134
869.017	14244
869.147	14339
869.278	14381
869.408	14381
869.539	14286
869.669	14347
869.799	14419
869.929	14442
870.06	14404
870.19	14530
870.32	14575
870.45	14613
870.58	14632
870.71	14823
870.84	14724
870.97	14693
871.1	14731
871.23	14804
871.36	14876
871.489	14731
871.619	14876
871.749	14857
871.879	14990
872.008	14979
872.138	14838
872.267	14838
872.397	14777
872.526	14689
872.656	14636
872.785	14617
872.915	14842
873.044	14918
873.173	14868
873.303	14956
873.432	14944
873.561	14979
873.69	14948
873.819	15001
873.948	14963
874.077	14986
874.206	14838
874.335	14967
874.464	15077
874.593	15218
874.722	15256
874.851	15329
874.979	15275
875.108	15241
875.237	15233
875.365	15161
875.494	15203
875.623	15275
875.751	15131
875.88	15245
876.008	15382
876.136	15485
876.265	15728
876.393	15873
876.521	15766
876.65	15694
876.778	15663
876.906	15538
877.034	15561
877.162	15591
877.29	15648
877.418	15606
877.546	15591
877.674	15553
877.802	15694
877.93	15618
878.058	15576
878.185	15534
878.313	15610
878.441	15690
878.568	15515
878.696	15568
878.824	15633
878.951	15751
879.079	15823
879.206	15953
879.333	15797
879.461	15618
879.588	15766
879.715	15789
879.842	15930
879.97	15724
880.097	15374
880.224	15545
880.351	15515
880.478	15386
880.605	15450
880.732	15447
880.859	15732
880.986	15454
881.112	15538
881.239	15378
881.366	15275
881.493	15230
881.619	15188
881.746	15173
881.872	15123
881.999	15131
882.125	15127
882.252	15207
882.378	15165
882.505	15283
882.631	15047
882.757	15020
882.883	15020
883.01	15058
883.136	14906
883.262	14891
883.388	14765
883.514	14899
883.64	14952
883.766	14883
883.892	14788
884.018	14769
884.143	14956
884.269	15081
884.395	14686
884.52	14720
884.646	14765
884.772	14689
884.897	14594
885.023	14769
885.148	14792
885.274	14819
885.399	14693
885.524	14678
885.65	14701
885.775	14686
885.9	14678
886.025	14777
886.15	14762
886.275	14606
886.4	14587
886.525	14594
886.65	14613
886.775	14621
886.9	14750
887.025	14906
887.149	14686
887.274	14465
887.399	14446
887.523	14446
887.648	14480
887.773	14385
887.897	14594
888.021	14514
888.146	14571
888.27	14556
888.395	14613
888.519	14549
888.643	14571
888.767	14613
888.891	14427
889.015	14446
889.139	14427
889.263	14301
889.387	14518
889.511	14549
889.635	14476
889.759	14301
889.883	14282
890.006	14438
890.13	14533
890.254	14317
890.377	14301
890.501	14218
890.624	14107
890.748	14195
890.871	14084
890.995	14107
891.118	13947
891.241	14119
891.364	14100
891.488	14225
891.611	14096
891.734	14016
891.857	14088
891.98	14050
892.103	14164
892.226	14069
892.349	14069
892.471	13849
892.594	14039
892.717	14081
892.839	14092
892.962	14020
893.085	14115
893.207	14096
893.33	13932
893.452	13928
893.575	14115
893.697	14016
893.819	14191
893.941	14218
894.064	14195
894.186	14050
894.308	14050
894.43	14221
894.552	14339
894.674	14225
894.796	14058
894.918	14191
895.04	14073
895.161	14214
895.283	14157
895.405	13982
895.526	14119
895.648	14161
895.769	14195
895.891	14172
896.012	14294
896.134	14298
896.255	14256
896.376	14218
896.498	14221
896.619	14301
896.74	14210
896.861	14366
896.982	14610
897.103	14834
897.224	14533
897.345	14484
897.466	14438
897.587	14442
897.708	14754
897.828	14579
897.949	14488
898.07	14377
898.19	14499
898.311	14568
898.431	14499
898.552	14659
898.672	14625
898.792	14655
898.913	14705
899.033	14503
899.153	14404
899.273	14351
899.393	14492
899.513	14450
899.633	14427
899.753	14560
899.873	14537
899.993	14545
900.113	14469
900.232	14454
900.352	14419
900.472	14358
900.591	14263
900.711	14374
900.83	14305
900.95	14450
901.069	14381
901.189	14191
901.308	14103
901.427	14043
901.546	13875
901.665	13978
901.784	14024
901.904	13917
902.023	13734
902.141	13639
902.26	13556
902.379	13685
902.498	13601
902.617	13514
902.735	13636
902.854	13563
902.973	13533
903.091	13346
903.21	13331
903.328	13263
903.446	13316
903.565	13145
903.683	13133
903.801	12993
903.919	13122
904.038	13194
904.156	12916
904.274	13015
904.392	12954
904.51	12909
904.627	12905
904.745	13031
904.863	13012
904.981	12703
905.098	12620
905.216	12681
905.334	12608
905.451	12646
905.569	12597
905.686	12715
905.803	12654
905.921	12376
906.038	12566
906.155	12452
906.272	12353
906.389	12467
906.506	12224
906.623	12232
906.74	12197
906.857	12064
906.974	12129
907.091	12213
907.208	12357
907.324	12243
907.441	12232
907.557	11973
907.674	11992
907.79	11977
907.907	11878
908.023	11969
908.139	11958
908.256	12007
908.372	11847
908.488	11885
908.604	11832
908.72	11668
908.836	11748
908.952	11718
909.068	11802
909.184	11874
909.3	11722
909.415	11828
909.531	11802
909.647	11570
909.762	11509
909.878	11493
909.993	11570
910.108	11524
910.224	11520
910.339	11474
910.454	11398
910.57	11341
910.685	11330
910.8	11566
910.915	11421
911.03	11356
911.145	11239
911.259	11235
911.374	11181
911.489	11071
911.604	11132
911.718	10987
911.833	11018
911.947	10873
912.062	10786
912.176	10911
912.291	10934
912.405	10938
912.519	11201
912.633	11121
912.748	11033
912.862	10972
912.976	10908
913.09	10683
913.204	10805
913.318	10877
913.431	10938
913.545	10877
913.659	10987
913.772	10911
913.886	10687
914	10740
914.113	10839
914.226	10778
914.34	10755
914.453	10653
914.566	10869
914.68	10626
914.793	10725
914.906	10478
915.019	10424
915.132	10276
915.245	10394
915.358	10485
915.47	10375
915.583	10516
915.696	10432
915.809	10596
915.921	10561
916.034	10485
916.146	10394
916.259	10455
916.371	10489
916.483	10512
916.595	10436
916.708	10394
916.82	10394
916.932	10462
917.044	10379
917.156	10322
917.268	10341
917.38	10295
917.491	10280
917.603	10337
917.715	10360
917.826	10424
917.938	10306
918.049	10181
918.161	10318
918.272	10413
918.384	10451
918.495	10265
918.606	10234
918.717	10135
918.828	10207
918.939	10242
919.05	10120
919.161	10188
919.272	10029
919.383	10067
919.494	10185
919.604	10379
919.715	10173
919.826	10097
919.936	10188
920.047	10295
920.157	10192
920.267	10386
920.378	10268
920.488	10215
920.598	10436
920.708	10535
920.818	10413
920.928	10356
921.038	10523
921.148	10489
921.258	10238
921.368	10169
921.477	10036
921.587	10063
921.697	9926
921.806	9998
921.916	9922
922.025	9755
922.134	9743
922.244	9728
922.353	9804
922.462	9671
922.571	9545
922.68	9496
922.789	9466
922.898	9382
923.007	9424
923.116	9481
923.224	9469
923.333	9477
923.442	9367
923.55	9313
923.659	9378
923.767	9424
923.876	9287
923.984	9378
924.092	9275
924.201	9378
924.309	9332
924.417	9344
924.525	9268
924.633	9279
924.741	10051
924.849	9176
924.956	9256
925.064	9036
925.172	8994
925.279	9127
925.387	9161
925.494	9070
925.602	9279
925.709	9226
925.816	9043
925.924	9097
926.031	9233
926.138	9146
926.245	9150
926.352	8986
926.459	9180
926.566	9146
926.673	9062
926.779	8952
926.886	8986
926.993	8857
927.099	8769
927.206	8819
927.312	8644
927.419	8838
927.525	8861
927.631	8872
927.737	8766
927.843	8678
927.95	8632
928.056	8731
928.162	8712
928.267	8853
928.373	9336
928.479	8838
928.585	8590
928.69	8697
928.796	8735
928.901	8636
929.007	8507
929.112	8720
929.218	8598
929.323	8545
929.428	8556
929.533	8659
929.638	8469
929.743	8503
929.848	8541
929.953	8537
930.058	8484
930.163	8271
930.267	8313
930.372	8400
930.477	8347
930.581	8537
930.685	8393
930.79	8259
930.894	8279
930.998	8279
931.103	8370
931.207	8077
931.311	8012
931.415	7947
931.519	7742
931.623	7746
