Data from test_V78500241_1522.txt Node
Date: Fri Mar 25 14:44:18 CST 2022
User: usil
Spectrometer: V785-0024
Trigger mode: 0
Integration Time (sec): 4.000000E-1
Scans to average: 1
Nonlinearity correction enabled: false
Boxcar width: 0
Storing dark spectrum: false
XAxis mode: Wavelengths
Number of Pixels in Spectrum: 1024
>>>>>Begin Spectral Data<<<<<
801.071	22535
801.214	22367
801.356	22124
801.499	22105
801.641	21899
801.783	21705
801.926	21831
802.068	21751
802.211	21713
802.353	21477
802.496	21351
802.638	21374
802.78	21264
802.923	21100
803.065	21066
803.208	21009
803.35	21100
803.492	21165
803.635	21367
803.777	21283
803.919	21233
804.061	21526
804.204	21275
804.346	21009
804.488	20883
804.63	21100
804.773	20944
804.915	20921
805.057	21203
805.199	20971
805.341	21093
805.483	21081
805.626	21127
805.768	21081
805.91	21077
806.052	21100
806.194	20967
806.336	21176
806.478	21066
806.62	21032
806.762	21108
806.904	21279
807.046	21466
807.188	21340
807.33	21412
807.472	21473
807.614	21363
807.756	21264
807.898	21252
808.04	21233
808.182	21180
808.324	21382
808.465	21218
808.607	21428
808.749	21633
808.891	21701
809.033	21671
809.174	21641
809.316	21477
809.458	21545
809.6	21538
809.741	21682
809.883	21511
810.025	21694
810.166	21610
810.308	21682
810.45	21610
810.591	21545
810.733	21397
810.875	21348
811.016	21112
811.158	21184
811.299	21275
811.441	21386
811.582	21348
811.724	21287
811.865	21310
812.007	21233
812.148	21192
812.29	21287
812.431	21382
812.573	21447
812.714	21530
812.855	21854
812.997	21869
813.138	21857
813.279	21774
813.421	21739
813.562	21717
813.703	21378
813.845	21378
813.986	21005
814.127	21009
814.268	20807
814.41	20712
814.551	20765
814.692	20830
814.833	20743
814.974	20788
815.115	20823
815.256	20651
815.397	20594
815.539	20629
815.68	20545
815.821	20469
815.962	20492
816.103	20389
816.244	20408
816.385	20271
816.526	20256
816.666	20039
816.807	19852
816.948	19993
817.089	19955
817.23	19993
817.371	19860
817.512	19890
817.653	19959
817.793	19746
817.934	19944
818.075	19917
818.216	19967
818.356	19917
818.497	19757
818.638	19674
818.778	19632
818.919	19613
819.06	19693
819.2	19811
819.341	19784
819.481	19731
819.622	19913
819.762	20100
819.903	20039
820.043	20035
820.184	19875
820.324	19951
820.465	20027
820.605	19864
820.746	19845
820.886	19750
821.026	19769
821.167	19928
821.307	19970
821.447	19833
821.588	19723
821.728	19681
821.868	19506
822.008	19232
822.149	19236
822.289	19293
822.429	19088
822.569	18886
822.709	19000
822.849	18688
822.99	18814
823.13	18837
823.27	18764
823.41	18608
823.55	18513
823.69	18639
823.83	18536
823.97	18544
824.11	18391
824.25	18300
824.389	18346
824.529	18361
824.669	18384
824.809	18448
824.949	18502
825.089	18403
825.228	18311
825.368	18258
825.508	18140
825.648	18060
825.787	18163
825.927	18232
826.067	18045
826.206	18144
826.346	18148
826.485	18201
826.625	18053
826.765	18178
826.904	18076
827.044	17935
827.183	17897
827.323	17863
827.462	18007
827.601	17779
827.741	17764
827.88	17802
828.02	17657
828.159	17843
828.298	17840
828.437	17882
828.577	17851
828.716	17996
828.855	17760
828.994	17600
829.134	17722
829.273	17623
829.412	17520
829.551	17532
829.69	17512
829.829	17642
829.968	17668
830.107	17642
830.246	17505
830.385	17486
830.524	17436
830.663	17497
830.802	17318
830.941	17181
831.08	17124
831.219	17261
831.357	17307
831.496	17356
831.635	17124
831.774	17155
831.913	16991
832.051	16923
832.19	17022
832.329	17056
832.467	16949
832.606	16835
832.744	16793
832.883	16980
833.022	16915
833.16	16824
833.299	16957
833.437	16831
833.576	16953
833.714	16896
833.852	17018
833.991	17003
834.129	16927
834.267	17056
834.406	17029
834.544	16961
834.682	17022
834.821	16919
834.959	17117
835.097	16881
835.235	17121
835.373	16938
835.511	16957
835.65	16885
835.788	16812
835.926	16778
836.064	16634
836.202	16664
836.34	16843
836.478	16892
836.615	16755
836.753	16862
836.891	16904
837.029	16930
837.167	16805
837.305	16698
837.443	16618
837.58	16683
837.718	16847
837.856	16592
837.993	16679
838.131	16664
838.269	16584
838.406	16588
838.544	16485
838.681	16379
838.819	16405
838.956	16344
839.094	16287
839.231	16181
839.369	16371
839.506	16550
839.643	16512
839.781	16249
839.918	16196
840.055	16234
840.193	16196
840.33	16112
840.467	16219
840.604	16284
840.742	16478
840.879	16078
841.016	16124
841.153	16109
841.29	16352
841.427	16284
841.564	16211
841.701	16257
841.838	16162
841.975	16025
842.112	16181
842.249	16078
842.385	15888
842.522	16112
842.659	15964
842.796	15964
842.933	15930
843.069	16010
843.206	15838
843.343	16078
843.479	15968
843.616	16025
843.752	15781
843.889	15785
844.025	15926
844.162	15770
844.298	15835
844.435	15682
844.571	15747
844.708	15785
844.844	15960
844.98	15953
845.117	15854
845.253	15713
845.389	15587
845.525	15770
845.661	15660
845.798	15701
845.934	15857
846.07	15743
846.206	15804
846.342	15876
846.478	15625
846.614	15405
846.75	15325
846.886	15287
847.022	15507
847.158	15355
847.294	15302
847.429	15332
847.565	15325
847.701	15515
847.837	15119
847.972	15024
848.108	15207
848.244	15142
848.379	14960
848.515	14944
848.65	14887
848.786	14933
848.921	15043
849.057	15020
849.192	15055
849.328	14880
849.463	14941
849.598	14838
849.734	14815
849.869	14864
850.004	14705
850.14	14754
850.275	14708
850.41	14594
850.545	14708
850.68	14594
850.815	14762
850.95	14587
851.085	14792
851.22	14724
851.355	14811
851.49	14708
851.625	14503
851.76	14644
851.895	14495
852.03	14545
852.165	14670
852.299	14743
852.434	14731
852.569	14762
852.703	14716
852.838	14800
852.973	14838
853.107	14849
853.242	14613
853.376	14575
853.511	14446
853.645	14564
853.78	14659
853.914	14651
854.048	14564
854.183	14495
854.317	14579
854.451	14746
854.585	14590
854.72	14533
854.854	14670
854.988	14442
855.122	14587
855.256	14370
855.39	14575
855.524	14560
855.658	14594
855.792	14541
855.926	14617
856.06	14739
856.194	14667
856.327	14530
856.461	14511
856.595	14583
856.729	14571
856.862	14693
856.996	14613
857.13	14682
857.263	14621
857.397	14708
857.53	14549
857.664	14629
857.797	14678
857.931	14739
858.064	14663
858.197	14632
858.331	14507
858.464	14503
858.597	14438
858.731	14537
858.864	14530
858.997	14568
859.13	14488
859.263	14587
859.396	14651
859.529	14590
859.662	14511
859.795	14560
859.928	14610
860.061	14689
860.194	14804
860.327	14575
860.46	14533
860.592	14663
860.725	14750
860.858	14697
860.99	14518
861.123	14518
861.256	14545
861.388	14568
861.521	15214
861.653	14499
861.786	14320
861.918	14385
862.05	14499
862.183	14465
862.315	14606
862.447	14606
862.58	14522
862.712	14423
862.844	14358
862.976	14457
863.108	14404
863.24	14811
863.372	14259
863.504	14415
863.636	14366
863.768	14370
863.9	14328
864.032	14324
864.164	14374
864.296	14381
864.428	14522
864.559	14400
864.691	14377
864.823	14454
864.954	14374
865.086	14370
865.217	14343
865.349	14206
865.48	14385
865.612	14317
865.743	14385
865.875	14377
866.006	14347
866.137	14320
866.269	14305
866.4	14221
866.531	14218
866.662	14218
866.793	14271
866.924	14301
867.055	14309
867.186	14328
867.317	14278
867.448	14199
867.579	14347
867.71	14240
867.841	14252
867.972	14294
868.103	14199
868.233	14263
868.364	14313
868.495	14332
868.625	14606
868.756	14575
868.886	14423
869.017	14495
869.147	14648
869.278	14629
869.408	14678
869.539	14549
869.669	14583
869.799	14606
869.929	14651
870.06	14617
870.19	14883
870.32	14883
870.45	14986
870.58	14948
870.71	15028
870.84	15028
870.97	14960
871.1	14986
871.23	15135
871.36	15127
871.489	15074
871.619	15199
871.749	15085
871.879	15176
872.008	15249
872.138	15195
872.267	15165
872.397	15001
872.526	14998
872.656	15055
872.785	15028
872.915	15211
873.044	15416
873.173	15252
873.303	15199
873.432	15272
873.561	15245
873.69	15230
873.819	15222
873.948	15233
874.077	15226
874.206	15146
874.335	15279
874.464	15370
874.593	15481
874.722	15397
874.851	15572
874.979	15561
875.108	15564
875.237	15488
875.365	15492
875.494	15504
875.623	15622
875.751	15450
875.88	15610
876.008	15690
876.136	15728
876.265	15987
876.393	16097
876.521	15979
876.65	15991
876.778	15930
876.906	15922
877.034	15930
877.162	16086
877.29	15861
877.418	15884
877.546	16017
877.674	15945
877.802	15991
877.93	15857
878.058	15972
878.185	15823
878.313	15888
878.441	15895
878.568	15812
878.696	15869
878.824	15983
878.951	16051
879.079	16219
879.206	16352
879.333	16185
879.461	16173
879.588	16036
879.715	16192
879.842	16333
879.97	16120
880.097	15861
880.224	15918
880.351	15854
880.478	15895
880.605	15701
880.732	15774
880.859	16040
880.986	15854
881.112	15861
881.239	15637
881.366	15454
881.493	15538
881.619	15466
881.746	15439
881.872	15439
881.999	15416
882.125	15340
882.252	15572
882.378	15500
882.505	15701
882.631	15416
882.757	15252
882.883	15310
883.01	15218
883.136	15226
883.262	15089
883.388	15154
883.514	15355
883.64	15252
883.766	15222
883.892	15089
884.018	15062
884.143	15252
884.269	15237
884.395	15036
884.52	14887
884.646	14982
884.772	14883
884.897	14933
885.023	15043
885.148	15089
885.274	15123
885.399	15150
885.524	15043
885.65	14960
885.775	15005
885.9	14971
886.025	15070
886.15	15188
886.275	14925
886.4	14883
886.525	14948
886.65	14830
886.775	14906
886.9	15104
887.025	15138
887.149	14963
887.274	14804
887.399	14705
887.523	14777
887.648	14689
887.773	14663
887.897	14800
888.021	14872
888.146	14754
888.27	14853
888.395	14906
888.519	14823
888.643	14880
888.767	14864
888.891	14686
889.015	14629
889.139	14693
889.263	14602
889.387	14686
889.511	14807
889.635	14735
889.759	14674
889.883	14659
890.006	14701
890.13	14769
890.254	14564
890.377	14594
890.501	14423
890.624	14434
890.748	14537
890.871	14332
890.995	14259
891.118	14336
891.241	14336
891.364	14244
891.488	14389
891.611	14347
891.734	14290
891.857	14366
891.98	14347
892.103	14450
892.226	14393
892.349	14332
892.471	14142
892.594	14339
892.717	14324
892.839	14328
892.962	14358
893.085	14412
893.207	14339
893.33	14206
893.452	14252
893.575	14339
893.697	14214
893.819	14461
893.941	14610
894.064	14522
894.186	14358
894.308	14244
894.43	14412
894.552	14507
894.674	14450
894.796	14229
894.918	14336
895.04	14294
895.161	14446
895.283	14393
895.405	14358
895.526	14393
895.648	14492
895.769	14427
895.891	14545
896.012	14632
896.134	14575
896.255	14495
896.376	14427
896.498	14522
896.619	14530
896.74	14495
896.861	14613
896.982	14849
897.103	15055
897.224	14785
897.345	14705
897.466	14659
897.587	14720
897.708	14914
897.828	14899
897.949	14682
898.07	14712
898.19	14663
898.311	14815
898.431	14716
898.552	14823
898.672	14952
898.792	14910
898.913	14807
899.033	14785
899.153	14689
899.273	14663
899.393	14663
899.513	14727
899.633	14720
899.753	14769
899.873	14617
899.993	14773
900.113	14651
900.232	14701
900.352	14800
900.472	14613
900.591	14549
900.711	14644
900.83	14560
900.95	14636
901.069	14708
901.189	14480
901.308	14362
901.427	14107
901.546	14221
901.665	14248
901.784	14351
901.904	14130
902.023	14115
902.141	13856
902.26	13727
902.379	13864
902.498	13849
902.617	13780
902.735	13791
902.854	13826
902.973	13780
903.091	13548
903.21	13582
903.328	13514
903.446	13419
903.565	13438
903.683	13381
903.801	13145
903.919	13282
904.038	13327
904.156	13156
904.274	13240
904.392	13133
904.51	13175
904.627	13225
904.745	13206
904.863	13270
904.981	12932
905.098	12894
905.216	12886
905.334	12901
905.451	12844
905.569	12840
905.686	12905
905.803	12935
905.921	12738
906.038	12760
906.155	12734
906.272	12623
906.389	12635
906.506	12521
906.623	12403
906.74	12429
906.857	12308
906.974	12403
907.091	12521
907.208	12608
907.324	12372
907.441	12323
907.557	12175
907.674	12254
907.79	12117
907.907	12213
908.023	12273
908.139	12178
908.256	12194
908.372	12190
908.488	12079
908.604	12007
908.72	11935
908.836	12053
908.952	11885
909.068	12095
909.184	12060
909.3	11958
909.415	12091
909.531	12064
909.647	11726
909.762	11703
909.878	11684
909.993	11733
910.108	11794
910.224	11707
910.339	11661
910.454	11657
910.57	11604
910.685	11535
910.8	11737
910.915	11661
911.03	11577
911.145	11341
911.259	11512
911.374	11417
911.489	11368
911.604	11296
911.718	11117
911.833	11170
911.947	11079
912.062	11010
912.176	11151
912.291	11204
912.405	11109
912.519	11326
912.633	11356
912.748	11223
912.862	11143
912.976	10957
913.09	10923
913.204	10991
913.318	10942
913.431	11143
913.545	11086
913.659	11189
913.772	11060
913.886	10930
914	10839
914.113	10995
914.226	11083
914.34	10995
914.453	10877
914.566	11010
914.68	10942
914.793	10892
914.906	10687
915.019	10683
915.132	10577
915.245	10660
915.358	10622
915.47	10664
915.583	10634
915.696	10710
915.809	10793
915.921	10847
916.034	10698
916.146	10641
916.259	10569
916.371	10694
916.483	10668
916.595	10558
916.708	10622
916.82	10649
916.932	10607
917.044	10519
917.156	10584
917.268	10447
917.38	10497
917.491	10417
917.603	10497
917.715	10531
917.826	10542
917.938	10489
918.049	10360
918.161	10485
918.272	10668
918.384	10592
918.495	10550
918.606	10341
918.717	10367
918.828	10375
918.939	10405
919.05	10329
919.161	10287
919.272	10177
919.383	10211
919.494	10375
919.604	10561
919.715	10402
919.826	10276
919.936	10348
920.047	10462
920.157	10337
920.267	10546
920.378	10402
920.488	10382
920.598	10611
920.708	10733
920.818	10516
920.928	10588
921.038	10687
921.148	10675
921.258	10428
921.368	10382
921.477	10185
921.587	10154
921.697	10078
921.806	10219
921.916	10135
922.025	9926
922.134	9880
922.244	9838
922.353	9953
922.462	9800
922.571	9781
922.68	9652
922.789	9675
922.898	9629
923.007	9561
923.116	9663
923.224	9614
923.333	9534
923.442	9500
923.55	9500
923.659	9561
923.767	9591
923.876	9412
923.984	9507
924.092	9424
924.201	9538
924.309	9500
924.417	9534
924.525	9397
924.633	9443
924.741	10318
924.849	9222
924.956	9393
925.064	9279
925.172	9169
925.279	9226
925.387	9237
925.494	9249
925.602	9359
925.709	9287
925.816	9161
925.924	9272
926.031	9389
926.138	9268
926.245	9344
926.352	9188
926.459	9344
926.566	9351
926.673	9214
926.779	9051
926.886	9188
926.993	9039
927.099	8872
927.206	8906
927.312	8910
927.419	8960
927.525	8963
927.631	9020
927.737	8925
927.843	8880
927.95	8708
928.056	8792
928.162	8929
928.267	8910
928.373	9504
928.479	8918
928.585	8697
928.69	8792
928.796	8906
928.901	8712
929.007	8632
929.112	8750
929.218	8792
929.323	8724
929.428	8705
929.533	8796
929.638	8705
929.743	8762
929.848	8758
929.953	8613
930.058	8625
930.163	8427
930.267	8514
930.372	8655
930.477	8389
930.581	8629
930.685	8492
930.79	8385
930.894	8469
930.998	8385
931.103	8492
931.207	8210
931.311	8164
931.415	8096
931.519	7826
931.623	7906
