Data from test_V78500241_3000.txt Node
Date: Fri Mar 25 14:54:36 CST 2022
User: usil
Spectrometer: V785-0024
Trigger mode: 0
Integration Time (sec): 4.000000E-1
Scans to average: 1
Nonlinearity correction enabled: false
Boxcar width: 0
Storing dark spectrum: false
XAxis mode: Wavelengths
Number of Pixels in Spectrum: 1024
>>>>>Begin Spectral Data<<<<<
801.071	22082
801.214	22017
801.356	21747
801.499	21682
801.641	21454
801.783	21504
801.926	21549
802.068	21424
802.211	21351
802.353	21298
802.496	21032
802.638	20929
802.78	20998
802.923	20887
803.065	20781
803.208	20670
803.35	20788
803.492	20948
803.635	21013
803.777	20781
803.919	20910
804.061	21165
804.204	20849
804.346	20594
804.488	20678
804.63	20777
804.773	20686
804.915	20689
805.057	20678
805.199	20708
805.341	20773
805.483	20693
805.626	20598
805.768	20606
805.91	20834
806.052	20705
806.194	20552
806.336	20804
806.478	20746
806.62	20579
806.762	20712
806.904	21017
807.046	21036
807.188	21123
807.33	21131
807.472	21184
807.614	21047
807.756	21020
807.898	20883
808.04	20815
808.182	20895
808.324	20857
808.465	20678
808.607	20918
808.749	21195
808.891	21275
809.033	21260
809.174	21138
809.316	21112
809.458	21169
809.6	21165
809.741	21184
809.883	21195
810.025	21275
810.166	21192
810.308	21237
810.45	21355
810.591	21066
810.733	21039
810.875	20971
811.016	20769
811.158	20727
811.299	20895
811.441	21020
811.582	20914
811.724	20815
811.865	20857
812.007	20826
812.148	20899
812.29	20895
812.431	21013
812.573	21150
812.714	21237
812.855	21249
812.997	21519
813.138	21614
813.279	21469
813.421	21477
813.562	21386
813.703	21104
813.845	21066
813.986	20754
814.127	20640
814.268	20336
814.41	20377
814.551	20377
814.692	20518
814.833	20454
814.974	20396
815.115	20389
815.256	20309
815.397	20199
815.539	20210
815.68	20103
815.821	20096
815.962	20278
816.103	20138
816.244	19959
816.385	19814
816.526	19849
816.666	19727
816.807	19586
816.948	19624
817.089	19681
817.23	19575
817.371	19628
817.512	19575
817.653	19540
817.793	19540
817.934	19510
818.075	19643
818.216	19556
818.356	19464
818.497	19331
818.638	19259
818.778	19175
818.919	19213
819.06	19270
819.2	19335
819.341	19449
819.481	19400
819.622	19548
819.762	19750
819.903	19586
820.043	19552
820.184	19472
820.324	19426
820.465	19613
820.605	19525
820.746	19483
820.886	19400
821.026	19476
821.167	19514
821.307	19582
821.447	19407
821.588	19327
821.728	19221
821.868	19053
822.008	18939
822.149	18993
822.289	18886
822.429	18612
822.569	18517
822.709	18688
822.849	18429
822.99	18323
823.13	18319
823.27	18395
823.41	18247
823.55	18232
823.69	18182
823.83	18140
823.97	18136
824.11	18015
824.25	17969
824.389	17897
824.529	18083
824.669	17950
824.809	17946
824.949	18068
825.089	18064
825.228	17931
825.368	17813
825.508	17863
825.648	17760
825.787	17786
825.927	17851
826.067	17798
826.206	17668
826.346	17634
826.485	17767
826.625	17687
826.765	17851
826.904	17794
827.044	17452
827.183	17490
827.323	17444
827.462	17482
827.601	17364
827.741	17303
827.88	17372
828.02	17318
828.159	17376
828.298	17379
828.437	17448
828.577	17379
828.716	17440
828.855	17372
828.994	17223
829.134	17132
829.273	17254
829.412	17090
829.551	17143
829.69	17208
829.829	17204
829.968	17250
830.107	17208
830.246	17246
830.385	17151
830.524	17048
830.663	16995
830.802	16835
830.941	16786
831.08	16710
831.219	16934
831.357	16843
831.496	16995
831.635	16767
831.774	16679
831.913	16668
832.051	16523
832.19	16478
832.329	16584
832.467	16485
832.606	16497
832.744	16470
832.883	16371
833.022	16443
833.16	16516
833.299	16485
833.437	16478
833.576	16512
833.714	16542
833.852	16561
833.991	16584
834.129	16592
834.267	16584
834.406	16622
834.544	16558
834.682	16580
834.821	16523
834.959	16660
835.097	16432
835.235	16641
835.373	16462
835.511	16561
835.65	16402
835.788	16382
835.926	16280
836.064	16181
836.202	16246
836.34	16428
836.478	16493
836.615	16421
836.753	16398
836.891	16478
837.029	16382
837.167	16295
837.305	16299
837.443	16341
837.58	16261
837.718	16299
837.856	16386
837.993	16147
838.131	16314
838.269	16188
838.406	16238
838.544	16162
838.681	16017
838.819	15960
838.956	15827
839.094	15762
839.231	15781
839.369	15983
839.506	16192
839.643	16029
839.781	15979
839.918	15770
840.055	15785
840.193	15785
840.33	15785
840.467	15827
840.604	15762
840.742	16147
840.879	15671
841.016	15800
841.153	15713
841.29	15861
841.427	15812
841.564	15869
841.701	15793
841.838	15720
841.975	15774
842.112	15804
842.249	15629
842.385	15568
842.522	15789
842.659	15660
842.796	15587
842.933	15663
843.069	15629
843.206	15526
843.343	15625
843.479	15648
843.616	15625
843.752	15348
843.889	15336
844.025	15473
844.162	15431
844.298	15367
844.435	15397
844.571	15336
844.708	15359
844.844	15492
844.98	15523
845.117	15504
845.253	15313
845.389	15192
845.525	15275
845.661	15226
845.798	15241
845.934	15222
846.07	15154
846.206	15264
846.342	15397
846.478	15161
846.614	15017
846.75	14891
846.886	15001
847.022	15154
847.158	14963
847.294	14963
847.429	14948
847.565	14887
847.701	15165
847.837	14754
847.972	14651
848.108	14769
848.244	14712
848.379	14697
848.515	14537
848.65	14522
848.786	14526
848.921	14556
849.057	14594
849.192	14526
849.328	14640
849.463	14617
849.598	14545
849.734	14522
849.869	14488
850.004	14389
850.14	14393
850.275	14355
850.41	14404
850.545	14275
850.68	14225
850.815	14313
850.95	14214
851.085	14396
851.22	14355
851.355	14278
851.49	14244
851.625	14278
851.76	14229
851.895	14252
852.03	14195
852.165	14206
852.299	14221
852.434	14427
852.569	14225
852.703	14427
852.838	14339
852.973	14423
853.107	14480
853.242	14214
853.376	14153
853.511	14115
853.645	14073
853.78	14294
853.914	14240
854.048	14172
854.183	14191
854.317	14202
854.451	14301
854.585	14100
854.72	14187
854.854	14271
854.988	14161
855.122	14142
855.256	14077
855.39	14062
855.524	14134
855.658	14229
855.792	14199
855.926	14180
856.06	14248
856.194	14320
856.327	14229
856.461	14233
856.595	14134
856.729	14149
856.862	14195
856.996	14248
857.13	14263
857.263	14309
857.397	14225
857.53	14164
857.664	14256
857.797	14301
857.931	14355
858.064	14282
858.197	14290
858.331	14168
858.464	14138
858.597	14107
858.731	14225
858.864	14077
858.997	14153
859.13	14305
859.263	14259
859.396	14233
859.529	14161
859.662	14187
859.795	14191
859.928	14092
860.061	14259
860.194	14328
860.327	14218
860.46	14153
860.592	14336
860.725	14237
860.858	14305
860.99	14187
861.123	14123
861.256	14153
861.388	14142
861.521	14887
861.653	14123
861.786	14058
861.918	14115
862.05	14149
862.183	14134
862.315	14138
862.447	14142
862.58	14138
862.712	13932
862.844	13932
862.976	14020
863.108	14031
863.24	14434
863.372	13906
863.504	13944
863.636	13959
863.768	13982
863.9	13921
864.032	13959
864.164	13963
864.296	13894
864.428	14134
864.559	14065
864.691	14100
864.823	14016
864.954	14058
865.086	13963
865.217	13856
865.349	13947
865.48	13932
865.612	14016
865.743	14024
865.875	13959
866.006	13864
866.137	13963
866.269	13986
866.4	13879
866.531	13822
866.662	13921
866.793	13959
866.924	13852
867.055	13898
867.186	13951
867.317	13898
867.448	13883
867.579	13814
867.71	13841
867.841	13753
867.972	13993
868.103	13986
868.233	13993
868.364	13951
868.495	14024
868.625	14126
868.756	14168
868.886	14039
869.017	14111
869.147	14149
869.278	14305
869.408	14237
869.539	14180
869.669	14301
869.799	14290
869.929	14282
870.06	14336
870.19	14473
870.32	14442
870.45	14526
870.58	14594
870.71	14750
870.84	14712
870.97	14697
871.1	14632
871.23	14720
871.36	14746
871.489	14716
871.619	14800
871.749	14823
871.879	14849
872.008	14834
872.138	14746
872.267	14842
872.397	14625
872.526	14587
872.656	14625
872.785	14621
872.915	14914
873.044	14902
873.173	14811
873.303	14941
873.432	14929
873.561	14906
873.69	14880
873.819	14849
873.948	14925
874.077	14826
874.206	14800
874.335	14941
874.464	14948
874.593	15142
874.722	15142
874.851	15180
874.979	15173
875.108	15222
875.237	15176
875.365	15100
875.494	15081
875.623	15230
875.751	15081
875.88	15207
876.008	15317
876.136	15416
876.265	15568
876.393	15835
876.521	15728
876.65	15633
876.778	15610
876.906	15507
877.034	15526
877.162	15557
877.29	15515
877.418	15511
877.546	15561
877.674	15542
877.802	15523
877.93	15572
878.058	15576
878.185	15488
878.313	15538
878.441	15603
878.568	15431
878.696	15553
878.824	15511
878.951	15595
879.079	15793
879.206	15972
879.333	15793
879.461	15515
879.588	15690
879.715	15694
879.842	15781
879.97	15652
880.097	15481
880.224	15401
880.351	15405
880.478	15386
880.605	15344
880.732	15378
880.859	15724
880.986	15412
881.112	15492
881.239	15294
881.366	15184
881.493	15093
881.619	15058
881.746	15074
881.872	15066
881.999	15077
882.125	14948
882.252	15058
882.378	15081
882.505	15226
882.631	15051
882.757	14853
882.883	14952
883.01	14918
883.136	14815
883.262	14826
883.388	14697
883.514	14990
883.64	14941
883.766	14708
883.892	14727
884.018	14667
884.143	14857
884.269	14929
884.395	14693
884.52	14556
884.646	14648
884.772	14571
884.897	14492
885.023	14526
885.148	14640
885.274	14815
885.399	14743
885.524	14526
885.65	14560
885.775	14552
885.9	14556
886.025	14724
886.15	14686
886.275	14564
886.4	14492
886.525	14438
886.65	14533
886.775	14552
886.9	14663
887.025	14788
887.149	14492
887.274	14442
887.399	14415
887.523	14465
887.648	14393
887.773	14358
887.897	14427
888.021	14537
888.146	14336
888.27	14537
888.395	14571
888.519	14644
888.643	14511
888.767	14499
888.891	14317
889.015	14278
889.139	14286
889.263	14389
889.387	14514
889.511	14518
889.635	14423
889.759	14237
889.883	14244
890.006	14355
890.13	14461
890.254	14275
890.377	14313
890.501	14142
890.624	14138
890.748	14195
890.871	14183
890.995	13959
891.118	13860
891.241	13997
891.364	13947
891.488	14119
891.611	14027
891.734	13928
891.857	14069
891.98	14062
892.103	14058
892.226	14012
892.349	13982
892.471	13845
892.594	14016
892.717	13940
892.839	13986
892.962	14065
893.085	14077
893.207	14058
893.33	13894
893.452	13970
893.575	14084
893.697	14024
893.819	14157
893.941	14267
894.064	14107
894.186	13944
894.308	13959
894.43	14119
894.552	14180
894.674	14088
894.796	13997
894.918	14046
895.04	14058
895.161	14191
895.283	14195
895.405	14012
895.526	14081
895.648	14187
895.769	14180
895.891	14183
896.012	14286
896.134	14206
896.255	14206
896.376	14073
896.498	14256
896.619	14218
896.74	14206
896.861	14259
896.982	14469
897.103	14655
897.224	14446
897.345	14442
897.466	14396
897.587	14404
897.708	14617
897.828	14598
897.949	14450
898.07	14282
898.19	14492
898.311	14518
898.431	14442
898.552	14560
898.672	14617
898.792	14670
898.913	14667
899.033	14530
899.153	14415
899.273	14374
899.393	14305
899.513	14408
899.633	14404
899.753	14431
899.873	14317
899.993	14446
900.113	14358
900.232	14457
900.352	14412
900.472	14290
900.591	14221
900.711	14301
900.83	14218
900.95	14355
901.069	14381
901.189	14187
901.308	13986
901.427	13986
901.546	13993
901.665	13978
901.784	13978
901.904	13864
902.023	13769
902.141	13521
902.26	13544
902.379	13537
902.498	13499
902.617	13480
902.735	13556
902.854	13601
902.973	13449
903.091	13247
903.21	13289
903.328	13274
903.446	13202
903.565	13107
903.683	13107
903.801	13031
903.919	13012
904.038	13118
904.156	12897
904.274	12985
904.392	12882
904.51	12825
904.627	12928
904.745	12954
904.863	12985
904.981	12700
905.098	12555
905.216	12620
905.334	12551
905.451	12620
905.569	12585
905.686	12589
905.803	12532
905.921	12399
906.038	12509
906.155	12384
906.272	12353
906.389	12346
906.506	12114
906.623	12220
906.74	12129
906.857	12022
906.974	12091
907.091	12285
907.208	12327
907.324	12190
907.441	12083
907.557	12003
907.674	11794
907.79	11836
907.907	11863
908.023	11942
908.139	11897
908.256	11786
908.372	11832
908.488	11851
908.604	11695
908.72	11657
908.836	11630
908.952	11676
909.068	11695
909.184	11748
909.3	11718
909.415	11718
909.531	11710
909.647	11509
909.762	11433
909.878	11436
909.993	11444
910.108	11425
910.224	11398
910.339	11433
910.454	11486
910.57	11250
910.685	11250
910.8	11417
910.915	11532
911.03	11349
911.145	11174
911.259	11090
911.374	11067
911.489	11075
911.604	11029
911.718	10930
911.833	10961
911.947	10717
912.062	10767
912.176	10896
912.291	10949
912.405	10934
912.519	11037
912.633	11075
912.748	10980
912.862	10839
912.976	10816
913.09	10729
913.204	10744
913.318	10793
913.431	10946
913.545	10831
913.659	10896
913.772	10801
913.886	10675
914	10615
914.113	10744
914.226	10812
914.34	10740
914.453	10679
914.566	10748
914.68	10626
914.793	10599
914.906	10363
915.019	10409
915.132	10303
915.245	10417
915.358	10398
915.47	10398
915.583	10474
915.696	10417
915.809	10592
915.921	10546
916.034	10371
916.146	10360
916.259	10402
916.371	10459
916.483	10405
916.595	10371
916.708	10455
916.82	10257
916.932	10371
917.044	10360
917.156	10265
917.268	10242
917.38	10268
917.491	10261
917.603	10272
917.715	10348
917.826	10398
917.938	10261
918.049	10169
918.161	10192
918.272	10386
918.384	10348
918.495	10280
918.606	10181
918.717	10063
918.828	10055
918.939	10181
919.05	10006
919.161	10177
919.272	9983
919.383	9964
919.494	10162
919.604	10367
919.715	10177
919.826	10071
919.936	10139
920.047	10154
920.157	10112
920.267	10306
920.378	10131
920.488	10131
920.598	10314
920.708	10451
920.818	10363
920.928	10379
921.038	10500
921.148	10402
921.258	10158
921.368	10230
921.477	9998
921.587	9911
921.697	9842
921.806	10131
921.916	9915
922.025	9778
922.134	9743
922.244	9682
922.353	9740
922.462	9667
922.571	9504
922.68	9416
922.789	9321
922.898	9420
923.007	9428
923.116	9462
923.224	9473
923.333	9401
923.442	9329
923.55	9291
923.659	9321
923.767	9439
923.876	9287
923.984	9351
924.092	9211
924.201	9275
924.309	9310
924.417	9329
924.525	9218
924.633	9188
924.741	10139
924.849	9036
924.956	9260
925.064	9062
925.172	9062
925.279	9150
925.387	9100
925.494	9150
925.602	9241
925.709	9176
925.816	8944
925.924	9142
926.031	9211
926.138	9123
926.245	9165
926.352	9013
926.459	9192
926.566	9253
926.673	9093
926.779	8971
926.886	8975
926.993	8807
927.099	8804
927.206	8781
927.312	8800
927.419	8918
927.525	8826
927.631	8910
927.737	8781
927.843	8701
927.95	8606
928.056	8762
928.162	8731
928.267	8754
928.373	9264
928.479	8845
928.585	8556
928.69	8769
928.796	8651
928.901	8648
929.007	8461
929.112	8663
929.218	8594
929.323	8518
929.428	8518
929.533	8629
929.638	8549
929.743	8503
929.848	8613
929.953	8518
930.058	8415
930.163	8313
930.267	8351
930.372	8415
930.477	8267
930.581	8545
930.685	8358
930.79	8271
930.894	8290
930.998	8237
931.103	8366
931.207	8058
931.311	8043
931.415	7932
931.519	7727
931.623	7704
