Data from test_V78500241_217.txt Node
Date: Fri Mar 25 14:35:14 CST 2022
User: usil
Spectrometer: V785-0024
Trigger mode: 0
Integration Time (sec): 4.000000E-1
Scans to average: 1
Nonlinearity correction enabled: false
Boxcar width: 0
Storing dark spectrum: false
XAxis mode: Wavelengths
Number of Pixels in Spectrum: 1024
>>>>>Begin Spectral Data<<<<<
801.071	27934
801.214	27781
801.356	27519
801.499	27454
801.641	27466
801.783	27310
801.926	27313
802.068	27169
802.211	27184
802.353	27135
802.496	27047
802.638	27032
802.78	26933
802.923	26895
803.065	26769
803.208	26693
803.35	26811
803.492	26796
803.635	26952
803.777	26864
803.919	26899
804.061	27199
804.204	26895
804.346	26906
804.488	26777
804.63	26735
804.773	26697
804.915	26891
805.057	26758
805.199	26838
805.341	26849
805.483	26998
805.626	26944
805.768	26918
805.91	26990
806.052	26902
806.194	26864
806.336	27058
806.478	26960
806.62	26967
806.762	27001
806.904	27089
807.046	27302
807.188	27310
807.33	27351
807.472	27386
807.614	27081
807.756	27332
807.898	27154
808.04	27203
808.182	27195
808.324	27321
808.465	27469
808.607	27553
808.749	27793
808.891	27934
809.033	27987
809.174	27964
809.316	27671
809.458	27736
809.6	27610
809.741	27583
809.883	27633
810.025	27675
810.166	27667
810.308	27709
810.45	27492
810.591	27511
810.733	27336
810.875	27306
811.016	27047
811.158	27135
811.299	27340
811.441	27389
811.582	27424
811.724	27325
811.865	27169
812.007	27100
812.148	27195
812.29	27195
812.431	27439
812.573	27420
812.714	27625
812.855	27728
812.997	27755
813.138	27914
813.279	27903
813.421	27713
813.562	27709
813.703	27340
813.845	27511
813.986	27176
814.127	26956
814.268	26754
814.41	26861
814.551	26819
814.692	26906
814.833	26777
814.974	26727
815.115	26857
815.256	26560
815.397	26530
815.539	26621
815.68	26488
815.821	26385
815.962	26556
816.103	26568
816.244	26423
816.385	26221
816.526	26218
816.666	26077
816.807	25959
816.948	25909
817.089	26008
817.23	25928
817.371	25932
817.512	25894
817.653	25765
817.793	25830
817.934	25864
818.075	26005
818.216	25803
818.356	25959
818.497	25708
818.638	25662
818.778	25696
818.919	25514
819.06	25715
819.2	25704
819.341	25883
819.481	25917
819.622	25951
819.762	26183
819.903	26088
820.043	26054
820.184	25871
820.324	25894
820.465	26001
820.605	25830
820.746	25822
820.886	25723
821.026	25826
821.167	25750
821.307	25837
821.447	25742
821.588	25696
821.728	25518
821.868	25308
822.008	25190
822.149	25266
822.289	25156
822.429	24939
822.569	24909
822.709	24913
822.849	24779
822.99	24757
823.13	24669
823.27	24574
823.41	24517
823.55	24540
823.69	24433
823.83	24505
823.97	24330
824.11	24220
824.25	24258
824.389	24178
824.529	24292
824.669	24232
824.809	24258
824.949	24350
825.089	24289
825.228	24266
825.368	24076
825.508	24011
825.648	24068
825.787	24182
825.927	24087
826.067	23984
826.206	24072
826.346	24053
826.485	24129
826.625	23996
826.765	24159
826.904	24038
827.044	23764
827.183	23657
827.323	23672
827.462	23737
827.601	23684
827.741	23703
827.88	23687
828.02	23535
828.159	23577
828.298	23634
828.437	23630
828.577	23509
828.716	23752
828.855	23573
828.994	23402
829.134	23440
829.273	23364
829.412	23341
829.551	23273
829.69	23440
829.829	23463
829.968	23471
830.107	23353
830.246	23349
830.385	23349
830.524	23387
830.663	23170
830.802	23067
830.941	22911
831.08	22900
831.219	23102
831.357	22957
831.496	23151
831.635	22820
831.774	22733
831.913	22755
832.051	22752
832.19	22691
832.329	22698
832.467	22615
832.606	22497
832.744	22565
832.883	22554
833.022	22577
833.16	22740
833.299	22668
833.437	22607
833.576	22561
833.714	22702
833.852	22645
833.991	22554
834.129	22656
834.267	22634
834.406	22565
834.544	22622
834.682	22584
834.821	22489
834.959	22687
835.097	22538
835.235	22554
835.373	22588
835.511	22577
835.65	22497
835.788	22310
835.926	22280
836.064	22200
836.202	22215
836.34	22508
836.478	22451
836.615	22367
836.753	22421
836.891	22382
837.029	22390
837.167	22272
837.305	22272
837.443	22230
837.58	22173
837.718	22287
837.856	22306
837.993	22128
838.131	22169
838.269	22112
838.406	22207
838.544	21987
838.681	21934
838.819	21895
838.956	21660
839.094	21622
839.231	21838
839.369	21804
839.506	22051
839.643	21888
839.781	21583
839.918	21610
840.055	21644
840.193	21576
840.33	21473
840.467	21660
840.604	21542
840.742	21838
840.879	21488
841.016	21523
841.153	21405
841.29	21549
841.427	21515
841.564	21625
841.701	21648
841.838	21530
841.975	21435
842.112	21397
842.249	21336
842.385	21241
842.522	21564
842.659	21222
842.796	21222
842.933	21336
843.069	21154
843.206	21146
843.343	21252
843.479	21199
843.616	21161
843.752	20967
843.889	20967
844.025	21116
844.162	20899
844.298	21089
844.435	21024
844.571	21043
844.708	21066
844.844	21230
844.98	21085
845.117	21264
845.253	21028
845.389	20948
845.525	21108
845.661	21138
845.798	21264
845.934	21393
846.07	21336
846.206	21336
846.342	21370
846.478	21039
846.614	20682
846.75	20606
846.886	20427
847.022	20537
847.158	20568
847.294	20419
847.429	20549
847.565	20438
847.701	20598
847.837	20145
847.972	20039
848.108	20233
848.244	20237
848.379	20039
848.515	20100
848.65	20065
848.786	19970
848.921	20050
849.057	20111
849.192	20058
849.328	20081
849.463	19944
849.598	19856
849.734	19887
849.869	19837
850.004	19807
850.14	19742
850.275	19772
850.41	19666
850.545	19776
850.68	19647
850.815	19772
850.95	19700
851.085	19913
851.22	19887
851.355	19811
851.49	19609
851.625	19651
851.76	19712
851.895	19556
852.03	19491
852.165	19753
852.299	19708
852.434	19753
852.569	19693
852.703	19624
852.838	19772
852.973	19803
853.107	19864
853.242	19658
853.376	19495
853.511	19453
853.645	19525
853.78	19746
853.914	19495
854.048	19457
854.183	19483
854.317	19719
854.451	19826
854.585	19537
854.72	19491
854.854	19677
854.988	19422
855.122	19449
855.256	19346
855.39	19525
855.524	19510
855.658	19502
855.792	19499
855.926	19449
856.06	19571
856.194	19552
856.327	19453
856.461	19540
856.595	19263
856.729	19483
856.862	19594
856.996	19514
857.13	19601
857.263	19632
857.397	19601
857.53	19453
857.664	19426
857.797	19525
857.931	19552
858.064	19605
858.197	19578
858.331	19499
858.464	19422
858.597	19392
858.731	19457
858.864	19491
858.997	19346
859.13	19468
859.263	19460
859.396	19597
859.529	19453
859.662	19422
859.795	19411
859.928	19499
860.061	19578
860.194	19540
860.327	19411
860.46	19468
860.592	19453
860.725	19575
860.858	19495
860.99	19441
861.123	19228
861.256	19259
861.388	19316
861.521	19955
861.653	19202
861.786	19236
861.918	19194
862.05	19476
862.183	19396
862.315	19476
862.447	19544
862.58	19339
862.712	19335
862.844	19228
862.976	19320
863.108	19270
863.24	19464
863.372	19156
863.504	19156
863.636	19198
863.768	19259
863.9	19194
864.032	19190
864.164	19133
864.296	19293
864.428	19221
864.559	19168
864.691	19183
864.823	19209
864.954	19137
865.086	19072
865.217	19031
865.349	19145
865.48	18943
865.612	19050
865.743	19202
865.875	19053
866.006	19012
866.137	19008
866.269	19118
866.4	19034
866.531	18996
866.662	19015
866.793	18962
866.924	18939
867.055	19072
867.186	18970
867.317	19031
867.448	18935
867.579	18928
867.71	18814
867.841	18848
867.972	19084
868.103	18985
868.233	19012
868.364	18970
868.495	19080
868.625	19198
868.756	19297
868.886	19232
869.017	19266
869.147	19400
869.278	19301
869.408	19259
869.539	19065
869.669	19282
869.799	19168
869.929	19316
870.06	19278
870.19	19563
870.32	19480
870.45	19628
870.58	19597
870.71	19693
870.84	19655
870.97	19712
871.1	19643
871.23	19795
871.36	19883
871.489	19624
871.619	19807
871.749	19879
871.879	19807
872.008	20001
872.138	19776
872.267	19818
872.397	19723
872.526	19571
872.656	19639
872.785	19586
872.915	19871
873.044	19970
873.173	19822
873.303	19963
873.432	19967
873.561	19902
873.69	19841
873.819	19852
873.948	19993
874.077	19784
874.206	19871
874.335	19830
874.464	20039
874.593	20001
874.722	20001
874.851	20168
874.979	20191
875.108	20153
875.237	20031
875.365	20058
875.494	20119
875.623	20183
875.751	20065
875.88	20180
876.008	20248
876.136	20343
876.265	20564
876.393	20667
876.521	20590
876.65	20587
876.778	20552
876.906	20644
877.034	20412
877.162	20419
877.29	20522
877.418	20419
877.546	20659
877.674	20492
877.802	20617
877.93	20530
878.058	20408
878.185	20450
878.313	20541
878.441	20533
878.568	20442
878.696	20533
878.824	20541
878.951	20632
879.079	20902
879.206	20990
879.333	20834
879.461	20804
879.588	20982
879.715	20944
879.842	21024
879.97	20697
880.097	20613
880.224	20427
880.351	20419
880.478	20480
880.605	20282
880.732	20473
880.859	20735
880.986	20355
881.112	20434
881.239	20301
881.366	20145
881.493	20145
881.619	20100
881.746	19963
881.872	19917
881.999	19959
882.125	19852
882.252	20005
882.378	19947
882.505	20176
882.631	19917
882.757	19765
882.883	19765
883.01	19833
883.136	19769
883.262	19582
883.388	19552
883.514	19750
883.64	19917
883.766	19753
883.892	19597
884.018	19605
884.143	19761
884.269	19769
884.395	19480
884.52	19487
884.646	19502
884.772	19411
884.897	19304
885.023	19480
885.148	19571
885.274	19548
885.399	19647
885.524	19434
885.65	19514
885.775	19472
885.9	19411
886.025	19510
886.15	19460
886.275	19308
886.4	19358
886.525	19403
886.65	19263
886.775	19240
886.9	19529
887.025	19586
887.149	19422
887.274	19255
887.399	19282
887.523	19198
887.648	19012
887.773	19076
887.897	19251
888.021	19209
888.146	19103
888.27	19194
888.395	19213
888.519	19168
888.643	19217
888.767	19244
888.891	19034
889.015	19057
889.139	19042
889.263	18958
889.387	19050
889.511	19179
889.635	19099
889.759	19012
889.883	19015
890.006	19008
890.13	19015
890.254	18909
890.377	18867
890.501	18623
890.624	18578
890.748	18787
890.871	18646
890.995	18608
891.118	18517
891.241	18551
891.364	18616
891.488	18677
891.611	18703
891.734	18517
891.857	18711
891.98	18700
892.103	18559
892.226	18513
892.349	18525
892.471	18365
892.594	18498
892.717	18585
892.839	18483
892.962	18388
893.085	18441
893.207	18403
893.33	18407
893.452	18361
893.575	18479
893.697	18422
893.819	18665
893.941	18620
894.064	18658
894.186	18437
894.308	18304
894.43	18563
894.552	18601
894.674	18486
894.796	18384
894.918	18452
895.04	18483
895.161	18490
895.283	18582
895.405	18456
895.526	18437
895.648	18502
895.769	18509
895.891	18578
896.012	18627
896.134	18559
896.255	18623
896.376	18429
896.498	18517
896.619	18654
896.74	18521
896.861	18555
896.982	18878
897.103	19118
897.224	18783
897.345	18722
897.466	18719
897.587	18749
897.708	18958
897.828	18814
897.949	18772
898.07	18642
898.19	18650
898.311	18859
898.431	18863
898.552	18783
898.672	18954
898.792	18749
898.913	18764
899.033	18673
899.153	18635
899.273	18429
899.393	18582
899.513	18521
899.633	18570
899.753	18639
899.873	18475
899.993	18585
900.113	18437
900.232	18467
900.352	18445
900.472	18391
900.591	18243
900.711	18395
900.83	18304
900.95	18445
901.069	18399
901.189	18243
901.308	18129
901.427	18019
901.546	18026
901.665	18019
901.784	17984
901.904	17802
902.023	17760
902.141	17558
902.26	17471
902.379	17562
902.498	17398
902.617	17379
902.735	17448
902.854	17372
902.973	17345
903.091	17128
903.21	17242
903.328	17140
903.446	17147
903.565	16946
903.683	16999
903.801	16858
903.919	16946
904.038	16953
904.156	16763
904.274	16767
904.392	16694
904.51	16736
904.627	16683
904.745	16668
904.863	16725
904.981	16580
905.098	16474
905.216	16379
905.334	16459
905.451	16424
905.569	16341
905.686	16409
905.803	16344
905.921	16162
906.038	16280
906.155	16112
906.272	16105
906.389	16101
906.506	15892
906.623	15930
906.74	15892
906.857	15785
906.974	15804
907.091	15915
907.208	16029
907.324	15846
907.441	15808
907.557	15656
907.674	15694
907.79	15580
907.907	15610
908.023	15576
908.139	15519
908.256	15557
908.372	15496
908.488	15496
908.604	15344
908.72	15249
908.836	15336
908.952	15306
909.068	15317
909.184	15370
909.3	15401
909.415	15294
909.531	15283
909.647	15047
909.762	15062
909.878	15028
909.993	15085
910.108	14914
910.224	14902
910.339	14986
910.454	14811
910.57	14785
910.685	14727
910.8	14929
910.915	14994
911.03	14849
911.145	14674
911.259	14488
911.374	14598
911.489	14507
911.604	14415
911.718	14385
911.833	14332
911.947	14290
912.062	14183
912.176	14370
912.291	14358
912.405	14267
912.519	14533
912.633	14457
912.748	14393
912.862	14374
912.976	14237
913.09	14084
913.204	14202
913.318	14180
913.431	14237
913.545	14126
913.659	14233
913.772	14172
913.886	14062
914	13879
914.113	14073
914.226	14134
914.34	14062
914.453	13852
914.566	14001
914.68	13887
914.793	13826
914.906	13719
915.019	13613
915.132	13567
915.245	13636
915.358	13731
915.47	13597
915.583	13582
915.696	13651
915.809	13807
915.921	13753
916.034	13613
916.146	13647
916.259	13575
916.371	13715
916.483	13632
916.595	13514
916.708	13506
916.82	13529
916.932	13472
917.044	13441
917.156	13529
917.268	13430
917.38	13411
917.491	13373
917.603	13270
917.715	13381
917.826	13392
917.938	13350
918.049	13198
918.161	13320
918.272	13396
918.384	13392
918.495	13365
918.606	13118
918.717	13065
918.828	13266
918.939	13122
919.05	13057
919.161	13061
919.272	12897
919.383	12962
919.494	13168
919.604	13358
919.715	13027
919.826	13065
919.936	13038
920.047	13194
920.157	13160
920.267	13240
920.378	13114
920.488	13038
920.598	13168
920.708	13369
920.818	13137
920.928	13187
921.038	13362
921.148	13266
921.258	13008
921.368	12886
921.477	12875
921.587	12848
921.697	12696
921.806	12905
921.916	12791
922.025	12536
922.134	12593
922.244	12517
922.353	12578
922.462	12323
922.571	12350
922.68	12129
922.789	12148
922.898	12209
923.007	12057
923.116	12129
923.224	12136
923.333	12197
923.442	12053
923.55	11961
923.659	11992
923.767	11965
923.876	11920
923.984	12003
924.092	11897
924.201	11984
924.309	12011
924.417	11980
924.525	11958
924.633	11863
924.741	12745
924.849	11726
924.956	11897
925.064	11653
925.172	11623
925.279	11608
925.387	11638
925.494	11570
925.602	11832
925.709	11665
925.816	11520
925.924	11600
926.031	11729
926.138	11585
926.245	11649
926.352	11501
926.459	11703
926.566	11653
926.673	11638
926.779	11398
926.886	11398
926.993	11379
927.099	11364
927.206	11239
927.312	11212
927.419	11258
927.525	11269
927.631	11318
927.737	11128
927.843	11178
927.95	11029
928.056	11121
928.162	11166
928.267	11151
928.373	11710
928.479	11227
928.585	10946
928.69	11094
928.796	11060
928.901	10904
929.007	10900
929.112	10953
929.218	10923
929.323	10820
929.428	10866
929.533	10991
929.638	10790
929.743	10752
929.848	10873
929.953	10828
930.058	10687
930.163	10561
930.267	10580
930.372	10691
930.477	10519
930.581	10748
930.685	10615
930.79	10341
930.894	10497
930.998	10417
931.103	10546
931.207	10185
931.311	10166
931.415	10086
931.519	9812
931.623	9888
