Data from test_V78500241_3507.txt Node
Date: Fri Mar 25 14:58:08 CST 2022
User: usil
Spectrometer: V785-0024
Trigger mode: 0
Integration Time (sec): 4.000000E-1
Scans to average: 1
Nonlinearity correction enabled: false
Boxcar width: 0
Storing dark spectrum: false
XAxis mode: Wavelengths
Number of Pixels in Spectrum: 1024
>>>>>Begin Spectral Data<<<<<
801.071	22017
801.214	21861
801.356	21545
801.499	21439
801.641	21374
801.783	21401
801.926	21313
802.068	21161
802.211	21161
802.353	20960
802.496	20811
802.638	20765
802.78	20655
802.923	20659
803.065	20571
803.208	20602
803.35	20587
803.492	20686
803.635	20754
803.777	20648
803.919	20720
804.061	20998
804.204	20686
804.346	20587
804.488	20499
804.63	20621
804.773	20545
804.915	20495
805.057	20552
805.199	20499
805.341	20552
805.483	20701
805.626	20541
805.768	20480
805.91	20522
806.052	20583
806.194	20476
806.336	20545
806.478	20537
806.62	20503
806.762	20613
806.904	20743
807.046	20864
807.188	20811
807.33	20880
807.472	20967
807.614	20746
807.756	20906
807.898	20720
808.04	20693
808.182	20632
808.324	20609
808.465	20651
808.607	20724
808.749	20823
808.891	20960
809.033	21089
809.174	20971
809.316	20883
809.458	20826
809.6	20815
809.741	20948
809.883	21009
810.025	21093
810.166	21001
810.308	21093
810.45	21112
810.591	20933
810.733	20739
810.875	20708
811.016	20602
811.158	20636
811.299	20678
811.441	20720
811.582	20754
811.724	20716
811.865	20648
812.007	20602
812.148	20560
812.29	20727
812.431	20781
812.573	21005
812.714	21127
812.855	21043
812.997	21180
813.138	21264
813.279	21245
813.421	21089
813.562	21116
813.703	20849
813.845	20712
813.986	20511
814.127	20408
814.268	20183
814.41	20290
814.551	20161
814.692	20343
814.833	20191
814.974	20168
815.115	20240
815.256	20031
815.397	19978
815.539	20058
815.68	19951
815.821	19852
815.962	20001
816.103	19921
816.244	19791
816.385	19677
816.526	19567
816.666	19480
816.807	19324
816.948	19464
817.089	19407
817.23	19365
817.371	19255
817.512	19282
817.653	19270
817.793	19331
817.934	19198
818.075	19259
818.216	19244
818.356	19217
818.497	19122
818.638	18916
818.778	19065
818.919	18951
819.06	19053
819.2	19072
819.341	19213
819.481	19270
819.622	19293
819.762	19445
819.903	19400
820.043	19411
820.184	19388
820.324	19255
820.465	19285
820.605	19384
820.746	19244
820.886	19148
821.026	19209
821.167	19278
821.307	19354
821.447	19293
821.588	19168
821.728	18989
821.868	18867
822.008	18745
822.149	18673
822.289	18749
822.429	18452
822.569	18372
822.709	18422
822.849	18228
822.99	18277
823.13	18083
823.27	18163
823.41	17977
823.55	17927
823.69	18053
823.83	17950
823.97	17946
824.11	17760
824.25	17726
824.389	17760
824.529	17809
824.669	17783
824.809	17920
824.949	17870
825.089	17832
825.228	17783
825.368	17638
825.508	17535
825.648	17642
825.787	17562
825.927	17627
826.067	17478
826.206	17528
826.346	17577
826.485	17608
826.625	17535
826.765	17699
826.904	17558
827.044	17315
827.183	17231
827.323	17189
827.462	17353
827.601	17284
827.741	17216
827.88	17254
828.02	17193
828.159	17098
828.298	17162
828.437	17292
828.577	17269
828.716	17436
828.855	17067
828.994	17071
829.134	17170
829.273	16972
829.412	16934
829.551	16949
829.69	16934
829.829	17151
829.968	17193
830.107	17060
830.246	17166
830.385	17060
830.524	16942
830.663	16824
830.802	16706
830.941	16729
831.08	16577
831.219	16744
831.357	16653
831.496	16850
831.635	16656
831.774	16538
831.913	16497
832.051	16402
832.19	16443
832.329	16466
832.467	16352
832.606	16268
832.744	16356
832.883	16344
833.022	16329
833.16	16371
833.299	16371
833.437	16405
833.576	16421
833.714	16428
833.852	16508
833.991	16493
834.129	16523
834.267	16409
834.406	16394
834.544	16398
834.682	16470
834.821	16363
834.959	16611
835.097	16428
835.235	16519
835.373	16443
835.511	16493
835.65	16348
835.788	16314
835.926	16173
836.064	16207
836.202	16192
836.34	16272
836.478	16409
836.615	16280
836.753	16299
836.891	16421
837.029	16325
837.167	16329
837.305	16219
837.443	16185
837.58	16071
837.718	16314
837.856	16280
837.993	16234
838.131	16162
838.269	15998
838.406	16101
838.544	16017
838.681	15960
838.819	15869
838.956	15713
839.094	15682
839.231	15774
839.369	15846
839.506	16139
839.643	16063
839.781	15819
839.918	15720
840.055	15781
840.193	15705
840.33	15690
840.467	15800
840.604	15854
840.742	16063
840.879	15686
841.016	15671
841.153	15614
841.29	15975
841.427	15751
841.564	15835
841.701	15724
841.838	15785
841.975	15614
842.112	15641
842.249	15492
842.385	15462
842.522	15743
842.659	15519
842.796	15511
842.933	15523
843.069	15462
843.206	15511
843.343	15576
843.479	15633
843.616	15595
843.752	15211
843.889	15310
844.025	15542
844.162	15325
844.298	15401
844.435	15389
844.571	15272
844.708	15401
844.844	15401
844.98	15386
845.117	15439
845.253	15329
845.389	15233
845.525	15252
845.661	15116
845.798	15093
845.934	15116
846.07	15017
846.206	15249
846.342	15218
846.478	15138
846.614	14861
846.75	14891
846.886	14842
847.022	14952
847.158	14864
847.294	14933
847.429	14906
847.565	14823
847.701	15157
847.837	14640
847.972	14667
848.108	14663
848.244	14773
848.379	14549
848.515	14495
848.65	14324
848.786	14541
848.921	14571
849.057	14632
849.192	14606
849.328	14511
849.463	14621
849.598	14480
849.734	14313
849.869	14415
850.004	14199
850.14	14343
850.275	14309
850.41	14240
850.545	14145
850.68	14115
850.815	14259
850.95	14282
851.085	14423
851.22	14328
851.355	14271
851.49	14320
851.625	14130
851.76	14229
851.895	14202
852.03	14054
852.165	14294
852.299	14263
852.434	14446
852.569	14286
852.703	14206
852.838	14320
852.973	14465
853.107	14358
853.242	14259
853.376	14100
853.511	13951
853.645	14065
853.78	14187
853.914	14168
854.048	14065
854.183	14046
854.317	14256
854.451	14317
854.585	14126
854.72	14081
854.854	14153
854.988	13974
855.122	14065
855.256	13940
855.39	14054
855.524	14229
855.658	14240
855.792	14206
855.926	14210
856.06	14214
856.194	14240
856.327	14103
856.461	14134
856.595	14088
856.729	14115
856.862	14229
856.996	14180
857.13	14111
857.263	14240
857.397	14290
857.53	14130
857.664	14301
857.797	14237
857.931	14153
858.064	14119
858.197	14248
858.331	14134
858.464	13978
858.597	14103
858.731	14096
858.864	14138
858.997	13989
859.13	14191
859.263	14157
859.396	14221
859.529	14138
859.662	14199
859.795	14043
859.928	14172
860.061	14347
860.194	14370
860.327	14115
860.46	14145
860.592	14210
860.725	14180
860.858	14240
860.99	14130
861.123	14054
861.256	14039
861.388	14123
861.521	14918
861.653	14012
861.786	13955
861.918	13947
862.05	14046
862.183	14035
862.315	14142
862.447	14214
862.58	13986
862.712	13860
862.844	13906
862.976	14016
863.108	13936
863.24	14248
863.372	13841
863.504	13906
863.636	13902
863.768	13913
863.9	13830
864.032	13944
864.164	13856
864.296	14001
864.428	13947
864.559	14005
864.691	14024
864.823	13970
864.954	13959
865.086	13906
865.217	13913
865.349	13826
865.48	13887
865.612	13856
865.743	14050
865.875	13864
866.006	13894
866.137	13913
866.269	13932
866.4	13925
866.531	13856
866.662	13826
866.793	13753
866.924	13822
867.055	13894
867.186	13826
867.317	13906
867.448	13818
867.579	13799
867.71	13814
867.841	13776
867.972	13871
868.103	13849
868.233	13963
868.364	13845
868.495	14012
868.625	14168
868.756	14240
868.886	14088
869.017	14176
869.147	14347
869.278	14233
869.408	14221
869.539	14153
869.669	14210
869.799	14092
869.929	14267
870.06	14252
870.19	14385
870.32	14484
870.45	14461
870.58	14499
870.71	14602
870.84	14674
870.97	14564
871.1	14503
871.23	14777
871.36	14765
871.489	14617
871.619	14705
871.749	14659
871.879	14769
872.008	14819
872.138	14762
872.267	14735
872.397	14583
872.526	14568
872.656	14689
872.785	14625
872.915	14838
873.044	14853
873.173	14861
873.303	14815
873.432	14777
873.561	14849
873.69	14777
873.819	14746
873.948	14853
874.077	14815
874.206	14861
874.335	14807
874.464	15093
874.593	15051
874.722	15062
874.851	15218
874.979	15104
875.108	15184
875.237	15058
875.365	14960
875.494	15055
875.623	15226
875.751	15199
875.88	15230
876.008	15249
876.136	15291
876.265	15534
876.393	15698
876.521	15584
876.65	15637
876.778	15587
876.906	15496
877.034	15458
877.162	15511
877.29	15420
877.418	15637
877.546	15553
877.674	15549
877.802	15538
877.93	15690
878.058	15443
878.185	15439
878.313	15572
878.441	15568
878.568	15408
878.696	15488
878.824	15473
878.951	15595
879.079	15618
879.206	15892
879.333	15793
879.461	15454
879.588	15690
879.715	15739
879.842	15800
879.97	15564
880.097	15355
880.224	15302
880.351	15469
880.478	15389
880.605	15329
880.732	15405
880.859	15644
880.986	15424
881.112	15393
881.239	15188
881.366	15039
881.493	15142
881.619	15123
881.746	15066
881.872	15051
881.999	15051
882.125	14986
882.252	15070
882.378	15138
882.505	15256
882.631	14975
882.757	14895
882.883	14861
883.01	14933
883.136	14830
883.262	14735
883.388	14663
883.514	14861
883.64	14910
883.766	14670
883.892	14651
884.018	14762
884.143	14899
884.269	14910
884.395	14552
884.52	14560
884.646	14606
884.772	14564
884.897	14488
885.023	14552
885.148	14701
885.274	14746
885.399	14716
885.524	14602
885.65	14587
885.775	14545
885.9	14495
886.025	14697
886.15	14560
886.275	14511
886.4	14495
886.525	14522
886.65	14446
886.775	14427
886.9	14629
887.025	14773
887.149	14469
887.274	14446
887.399	14366
887.523	14377
887.648	14374
887.773	14313
887.897	14454
888.021	14434
888.146	14465
888.27	14396
888.395	14545
888.519	14465
888.643	14400
888.767	14358
888.891	14374
889.015	14218
889.139	14358
889.263	14233
889.387	14374
889.511	14526
889.635	14396
889.759	14328
889.883	14240
890.006	14309
890.13	14454
890.254	14176
890.377	14142
890.501	14027
890.624	14081
890.748	14138
890.871	14050
890.995	13856
891.118	13921
891.241	13951
891.364	14050
891.488	14088
891.611	13928
891.734	13970
891.857	14046
891.98	13967
892.103	14130
892.226	13970
892.349	13940
892.471	13818
892.594	13959
892.717	14005
892.839	13951
892.962	14058
893.085	13970
893.207	13963
893.33	13788
893.452	13887
893.575	14054
893.697	14012
893.819	14180
893.941	14164
894.064	14214
894.186	13906
894.308	13944
894.43	14134
894.552	14206
894.674	14130
894.796	14008
894.918	14005
895.04	13959
895.161	14016
895.283	14115
895.405	13898
895.526	14115
895.648	14035
895.769	14157
895.891	14176
896.012	14142
896.134	14115
896.255	14096
896.376	14123
896.498	14161
896.619	14164
896.74	14062
896.861	14214
896.982	14492
897.103	14651
897.224	14457
897.345	14385
897.466	14400
897.587	14415
897.708	14537
897.828	14476
897.949	14389
898.07	14240
898.19	14404
898.311	14579
898.431	14320
898.552	14511
898.672	14590
898.792	14651
898.913	14530
899.033	14362
899.153	14385
899.273	14218
899.393	14313
899.513	14408
899.633	14332
899.753	14396
899.873	14339
899.993	14393
900.113	14358
900.232	14355
900.352	14301
900.472	14218
900.591	14206
900.711	14275
900.83	14130
900.95	14237
901.069	14256
901.189	14134
901.308	13986
901.427	13913
901.546	13845
901.665	13947
901.784	13894
901.904	13753
902.023	13681
902.141	13441
902.26	13510
902.379	13559
902.498	13396
902.617	13441
902.735	13483
902.854	13441
902.973	13365
903.091	13228
903.21	13190
903.328	13259
903.446	13183
903.565	12993
903.683	12970
903.801	12920
903.919	12996
904.038	12970
904.156	12848
904.274	12859
904.392	12859
904.51	12821
904.627	12837
904.745	12913
904.863	12859
904.981	12631
905.098	12471
905.216	12513
905.334	12589
905.451	12540
905.569	12566
905.686	12506
905.803	12582
905.921	12334
906.038	12388
906.155	12403
906.272	12247
906.389	12251
906.506	12076
906.623	12133
906.74	12053
906.857	12114
906.974	12026
907.091	12239
907.208	12308
907.324	12155
907.441	12045
907.557	11859
907.674	11805
907.79	11878
907.907	11878
908.023	11828
908.139	11916
908.256	11817
908.372	11786
908.488	11809
908.604	11733
908.72	11589
908.836	11570
908.952	11543
909.068	11672
909.184	11672
909.3	11634
909.415	11649
909.531	11589
909.647	11402
909.762	11524
909.878	11467
909.993	11356
910.108	11433
910.224	11364
910.339	11440
910.454	11296
910.57	11368
910.685	11258
910.8	11509
910.915	11379
911.03	11277
911.145	11166
911.259	11086
911.374	11105
911.489	11056
911.604	11003
911.718	10930
911.833	10949
911.947	10771
912.062	10748
912.176	10896
912.291	10839
912.405	10866
912.519	11048
912.633	11090
912.748	10934
912.862	10900
912.976	10725
913.09	10679
913.204	10736
913.318	10793
913.431	10816
913.545	10938
913.659	10831
913.772	10793
913.886	10584
914	10626
914.113	10767
914.226	10774
914.34	10767
914.453	10550
914.566	10714
914.68	10687
914.793	10561
914.906	10409
915.019	10329
915.132	10272
915.245	10394
915.358	10440
915.47	10310
915.583	10417
915.696	10367
915.809	10508
915.921	10565
916.034	10455
916.146	10314
916.259	10299
916.371	10527
916.483	10462
916.595	10352
916.708	10310
916.82	10310
916.932	10227
917.044	10375
917.156	10207
917.268	10196
917.38	10223
917.491	10257
917.603	10268
917.715	10360
917.826	10375
917.938	10253
918.049	10093
918.161	10207
918.272	10371
918.384	10344
918.495	10246
918.606	10112
918.717	10044
918.828	10112
918.939	10078
919.05	10078
919.161	10074
919.272	9892
919.383	9987
919.494	10063
919.604	10291
919.715	10162
919.826	10017
919.936	10166
920.047	10169
920.157	10139
920.267	10322
920.378	10105
920.488	10150
920.598	10341
920.708	10489
920.818	10249
920.928	10333
921.038	10390
921.148	10409
921.258	10181
921.368	10135
921.477	10013
921.587	9987
921.697	9888
921.806	9964
921.916	9884
922.025	9740
922.134	9667
922.244	9652
922.353	9698
922.462	9504
922.571	9523
922.68	9416
922.789	9389
922.898	9298
923.007	9359
923.116	9420
923.224	9348
923.333	9405
923.442	9264
923.55	9306
923.659	9287
923.767	9382
923.876	9275
923.984	9351
924.092	9116
924.201	9329
924.309	9195
924.417	9340
924.525	9180
924.633	9233
924.741	9937
924.849	8963
924.956	9188
925.064	9043
925.172	8921
925.279	9051
925.387	9051
925.494	9093
925.602	9138
925.709	9097
925.816	8990
925.924	9036
926.031	9104
926.138	9024
926.245	9085
926.352	9020
926.459	9074
926.566	9195
926.673	8979
926.779	8918
926.886	8864
926.993	8762
927.099	8773
927.206	8659
927.312	8705
927.419	8880
927.525	8739
927.631	8796
927.737	8701
927.843	8648
927.95	8560
928.056	8617
928.162	8667
928.267	8720
928.373	9317
928.479	8735
928.585	8507
928.69	8632
928.796	8689
928.901	8617
929.007	8374
929.112	8533
929.218	8503
929.323	8423
929.428	8415
929.533	8579
929.638	8374
929.743	8377
929.848	8552
929.953	8457
930.058	8442
930.163	8168
930.267	8210
930.372	8385
930.477	8290
930.581	8450
930.685	8301
930.79	8195
930.894	8259
930.998	8142
931.103	8328
931.207	7974
931.311	7955
931.415	7913
931.519	7696
931.623	7601
