Data from test_V78500241_1390.txt Node
Date: Fri Mar 25 14:43:23 CST 2022
User: usil
Spectrometer: V785-0024
Trigger mode: 0
Integration Time (sec): 4.000000E-1
Scans to average: 1
Nonlinearity correction enabled: false
Boxcar width: 0
Storing dark spectrum: false
XAxis mode: Wavelengths
Number of Pixels in Spectrum: 1024
>>>>>Begin Spectral Data<<<<<
801.071	22424
801.214	22424
801.356	22268
801.499	21869
801.641	21873
801.783	21937
801.926	21823
802.068	21713
802.211	21606
802.353	21542
802.496	21458
802.638	21195
802.78	21313
802.923	21180
803.065	21123
803.208	21203
803.35	21119
803.492	21211
803.635	21367
803.777	21032
803.919	21173
804.061	21515
804.204	21207
804.346	20956
804.488	21138
804.63	21051
804.773	21074
804.915	21146
805.057	21214
805.199	21066
805.341	21089
805.483	21138
805.626	21131
805.768	20979
805.91	20990
806.052	21089
806.194	20952
806.336	21272
806.478	21051
806.62	21123
806.762	21180
806.904	21298
807.046	21500
807.188	21313
807.33	21469
807.472	21473
807.614	21405
807.756	21443
807.898	21435
808.04	21287
808.182	21264
808.324	21313
808.465	21397
808.607	21625
808.749	21720
808.891	21869
809.033	21861
809.174	21648
809.316	21526
809.458	21622
809.6	21568
809.741	21717
809.883	21485
810.025	21774
810.166	21644
810.308	21633
810.45	21583
810.591	21496
810.733	21340
810.875	21184
811.016	21100
811.158	21264
811.299	21287
811.441	21431
811.582	21359
811.724	21256
811.865	21222
812.007	21245
812.148	21329
812.29	21302
812.431	21374
812.573	21530
812.714	21576
812.855	21663
812.997	21785
813.138	21865
813.279	21903
813.421	21804
813.562	21641
813.703	21466
813.845	21363
813.986	21001
814.127	20906
814.268	20762
814.41	20819
814.551	20792
814.692	20952
814.833	20804
814.974	20686
815.115	20701
815.256	20625
815.397	20617
815.539	20571
815.68	20568
815.821	20492
815.962	20480
816.103	20438
816.244	20393
816.385	20256
816.526	20290
816.666	20221
816.807	19986
816.948	20031
817.089	20103
817.23	19925
817.371	19978
817.512	19890
817.653	19997
817.793	19890
817.934	20008
818.075	19879
818.216	19970
818.356	19822
818.497	19780
818.638	19628
818.778	19651
818.919	19563
819.06	19693
819.2	19632
819.341	19788
819.481	19795
819.622	19898
819.762	20062
819.903	20069
820.043	19993
820.184	19951
820.324	19997
820.465	19940
820.605	19974
820.746	19868
820.886	19674
821.026	20020
821.167	19894
821.307	19944
821.447	19940
821.588	19700
821.728	19666
821.868	19430
822.008	19403
822.149	19274
822.289	19384
822.429	19034
822.569	18920
822.709	18977
822.849	18882
822.99	18753
823.13	18776
823.27	18772
823.41	18578
823.55	18509
823.69	18578
823.83	18631
823.97	18502
824.11	18372
824.25	18361
824.389	18426
824.529	18486
824.669	18448
824.809	18471
824.949	18506
825.089	18456
825.228	18426
825.368	18190
825.508	18239
825.648	18239
825.787	18213
825.927	18327
826.067	18072
826.206	18079
826.346	18026
826.485	18171
826.625	18178
826.765	18357
826.904	18201
827.044	17969
827.183	17965
827.323	17828
827.462	17927
827.601	17855
827.741	17786
827.88	17897
828.02	17790
828.159	17847
828.298	17927
828.437	17950
828.577	17756
828.716	17954
828.855	17813
828.994	17596
829.134	17619
829.273	17748
829.412	17516
829.551	17493
829.69	17634
829.829	17691
829.968	17703
830.107	17634
830.246	17581
830.385	17592
830.524	17505
830.663	17341
830.802	17353
830.941	17258
831.08	17250
831.219	17280
831.357	17315
831.496	17501
831.635	17288
831.774	17174
831.913	17105
832.051	17048
832.19	17098
832.329	17041
832.467	17071
832.606	16911
832.744	16995
832.883	16980
833.022	16961
833.16	16957
833.299	16999
833.437	17025
833.576	17094
833.714	17052
833.852	16961
833.991	16965
834.129	17014
834.267	17003
834.406	16984
834.544	17025
834.682	16965
834.821	16942
834.959	17162
835.097	16812
835.235	16991
835.373	17006
835.511	16995
835.65	16892
835.788	16850
835.926	16679
836.064	16759
836.202	16786
836.34	16957
836.478	17037
836.615	16763
836.753	16809
836.891	16923
837.029	16835
837.167	16793
837.305	16858
837.443	16748
837.58	16649
837.718	16812
837.856	16809
837.993	16729
838.131	16698
838.269	16634
838.406	16675
838.544	16634
838.681	16554
838.819	16371
838.956	16253
839.094	16154
839.231	16265
839.369	16440
839.506	16702
839.643	16478
839.781	16268
839.918	16246
840.055	16329
840.193	16318
840.33	16249
840.467	16325
840.604	16238
840.742	16531
840.879	16128
841.016	16219
841.153	16219
841.29	16363
841.427	16230
841.564	16314
841.701	16234
841.838	16303
841.975	16211
842.112	16181
842.249	16055
842.385	16032
842.522	16204
842.659	16139
842.796	16074
842.933	16074
843.069	16055
843.206	15930
843.343	16109
843.479	16002
843.616	16124
843.752	15930
843.889	15907
844.025	16013
844.162	15682
844.298	15918
844.435	15869
844.571	15819
844.708	15998
844.844	16017
844.98	15991
845.117	15926
845.253	15804
845.389	15781
845.525	15842
845.661	15895
845.798	15884
845.934	15972
846.07	15998
846.206	16029
846.342	15968
846.478	15850
846.614	15663
846.75	15469
846.886	15420
847.022	15538
847.158	15496
847.294	15458
847.429	15431
847.565	15450
847.701	15656
847.837	15070
847.972	15123
848.108	15195
848.244	15245
848.379	15001
848.515	15036
848.65	14944
848.786	15066
848.921	14963
849.057	15093
849.192	15180
849.328	15047
849.463	14921
849.598	14952
849.734	14929
849.869	14941
850.004	14796
850.14	14811
850.275	14800
850.41	14655
850.545	14667
850.68	14735
850.815	14743
850.95	14682
851.085	14937
851.22	14861
851.355	14914
851.49	14708
851.625	14720
851.76	14746
851.895	14625
852.03	14625
852.165	14739
852.299	14727
852.434	14796
852.569	14811
852.703	14842
852.838	14853
852.973	14941
853.107	14811
853.242	14754
853.376	14735
853.511	14617
853.645	14575
853.78	14754
853.914	14663
854.048	14648
854.183	14678
854.317	14663
854.451	14891
854.585	14579
854.72	14575
854.854	14746
854.988	14545
855.122	14598
855.256	14434
855.39	14674
855.524	14727
855.658	14674
855.792	14648
855.926	14670
856.06	14765
856.194	14746
856.327	14640
856.461	14579
856.595	14648
856.729	14590
856.862	14613
856.996	14754
857.13	14762
857.263	14807
857.397	14762
857.53	14594
857.664	14621
857.797	14716
857.931	14735
858.064	14735
858.197	14693
858.331	14617
858.464	14526
858.597	14598
858.731	14549
858.864	14651
858.997	14648
859.13	14667
859.263	14610
859.396	14716
859.529	14640
859.662	14457
859.795	14556
859.928	14655
860.061	14804
860.194	14754
860.327	14754
860.46	14587
860.592	14773
860.725	14712
860.858	14857
860.99	14765
861.123	14442
861.256	14560
861.388	14606
861.521	15363
861.653	14629
861.786	14450
861.918	14507
862.05	14518
862.183	14602
862.315	14533
862.447	14583
862.58	14549
862.712	14355
862.844	14412
862.976	14396
863.108	14503
863.24	14929
863.372	14366
863.504	14408
863.636	14336
863.768	14419
863.9	14351
864.032	14305
864.164	14370
864.296	14427
864.428	14571
864.559	14537
864.691	14511
864.823	14465
864.954	14469
865.086	14355
865.217	14431
865.349	14298
865.48	14370
865.612	14381
865.743	14533
865.875	14328
866.006	14389
866.137	14328
866.269	14484
866.4	14377
866.531	14423
866.662	14328
866.793	14374
866.924	14355
867.055	14431
867.186	14370
867.317	14256
867.448	14210
867.579	14298
867.71	14301
867.841	14298
867.972	14415
868.103	14313
868.233	14469
868.364	14427
868.495	14343
868.625	14667
868.756	14788
868.886	14442
869.017	14579
869.147	14731
869.278	14781
869.408	14731
869.539	14587
869.669	14720
869.799	14632
869.929	14655
870.06	14720
870.19	15005
870.32	14887
870.45	14944
870.58	14929
870.71	15169
870.84	15036
870.97	15055
871.1	14979
871.23	15199
871.36	15294
871.489	15100
871.619	15081
871.749	15154
871.879	15226
872.008	15317
872.138	15329
872.267	15188
872.397	15020
872.526	15058
872.656	15150
872.785	15024
872.915	15359
873.044	15252
873.173	15211
873.303	15211
873.432	15310
873.561	15332
873.69	15348
873.819	15401
873.948	15408
874.077	15428
874.206	15283
874.335	15332
874.464	15454
874.593	15545
874.722	15534
874.851	15652
874.979	15728
875.108	15648
875.237	15443
875.365	15443
875.494	15523
875.623	15644
875.751	15572
875.88	15591
876.008	15705
876.136	15861
876.265	15960
876.393	16223
876.521	16010
876.65	16112
876.778	16074
876.906	15949
877.034	15918
877.162	15930
877.29	15998
877.418	15994
877.546	15975
877.674	15991
877.802	16017
877.93	15994
878.058	15964
878.185	15911
878.313	16051
878.441	16112
878.568	15759
878.696	15983
878.824	16086
878.951	16112
879.079	16375
879.206	16489
879.333	16303
879.461	16219
879.588	16257
879.715	16390
879.842	16459
879.97	16120
880.097	15831
880.224	15903
880.351	15934
880.478	15873
880.605	15899
880.732	15972
880.859	16120
880.986	15987
881.112	15979
881.239	15698
881.366	15656
881.493	15500
881.619	15599
881.746	15523
881.872	15542
881.999	15557
882.125	15549
882.252	15591
882.378	15595
882.505	15724
882.631	15389
882.757	15306
882.883	15458
883.01	15389
883.136	15317
883.262	15154
883.388	15192
883.514	15321
883.64	15431
883.766	15283
883.892	15199
884.018	15226
884.143	15359
884.269	15393
884.395	15142
884.52	15024
884.646	15070
884.772	15017
884.897	14925
885.023	14979
885.148	15131
885.274	15195
885.399	15142
885.524	15009
885.65	14963
885.775	15116
885.9	15127
886.025	15157
886.15	15100
886.275	15066
886.4	14994
886.525	15077
886.65	14994
886.775	15009
886.9	15150
887.025	15226
887.149	15157
887.274	14857
887.399	14769
887.523	14804
887.648	14807
887.773	14773
887.897	14921
888.021	14853
888.146	14785
888.27	14990
888.395	14979
888.519	14921
888.643	14925
888.767	14906
888.891	14800
889.015	14663
889.139	14746
889.263	14701
889.387	14823
889.511	14800
889.635	14819
889.759	14708
889.883	14758
890.006	14693
890.13	14777
890.254	14636
890.377	14678
890.501	14545
890.624	14518
890.748	14571
890.871	14438
890.995	14400
891.118	14343
891.241	14385
891.364	14423
891.488	14587
891.611	14370
891.734	14404
891.857	14469
891.98	14396
892.103	14454
892.226	14446
892.349	14317
892.471	14343
892.594	14415
892.717	14461
892.839	14313
892.962	14339
893.085	14511
893.207	14358
893.33	14282
893.452	14355
893.575	14461
893.697	14377
893.819	14545
893.941	14644
894.064	14636
894.186	14351
894.308	14347
894.43	14511
894.552	14579
894.674	14579
894.796	14396
894.918	14408
895.04	14469
895.161	14602
895.283	14507
895.405	14492
895.526	14412
895.648	14469
895.769	14465
895.891	14495
896.012	14583
896.134	14590
896.255	14530
896.376	14587
896.498	14590
896.619	14587
896.74	14568
896.861	14495
896.982	14910
897.103	15058
897.224	14986
897.345	14765
897.466	14743
897.587	14731
897.708	15036
897.828	14800
897.949	14872
898.07	14686
898.19	14785
898.311	14902
898.431	14853
898.552	14895
898.672	14941
898.792	15013
898.913	14891
899.033	14773
899.153	14743
899.273	14648
899.393	14708
899.513	14724
899.633	14762
899.753	14788
899.873	14697
899.993	14819
900.113	14724
900.232	14792
900.352	14765
900.472	14693
900.591	14514
900.711	14708
900.83	14587
900.95	14689
901.069	14678
901.189	14667
901.308	14355
901.427	14271
901.546	14252
901.665	14271
901.784	14263
901.904	14157
902.023	14062
902.141	13875
902.26	13826
902.379	13925
902.498	13799
902.617	13807
902.735	13917
902.854	13803
902.973	13849
903.091	13567
903.21	13567
903.328	13586
903.446	13510
903.565	13491
903.683	13499
903.801	13365
903.919	13362
904.038	13365
904.156	13266
904.274	13320
904.392	13255
904.51	13160
904.627	13266
904.745	13244
904.863	13316
904.981	13000
905.098	12928
905.216	12913
905.334	12932
905.451	12875
905.569	12871
905.686	12989
905.803	12859
905.921	12722
906.038	12821
906.155	12711
906.272	12589
906.389	12715
906.506	12490
906.623	12490
906.74	12479
906.857	12422
906.974	12452
907.091	12593
907.208	12585
907.324	12536
907.441	12460
907.557	12319
907.674	12194
907.79	12224
907.907	12304
908.023	12266
908.139	12289
908.256	12213
908.372	12228
908.488	12087
908.604	11939
908.72	11923
908.836	11950
908.952	11996
909.068	11984
909.184	12091
909.3	11977
909.415	12053
909.531	12026
909.647	11794
909.762	11752
909.878	11748
909.993	11741
910.108	11691
910.224	11710
910.339	11821
910.454	11703
910.57	11646
910.685	11604
910.8	11882
910.915	11809
911.03	11657
911.145	11482
911.259	11471
911.374	11448
911.489	11356
911.604	11261
911.718	11223
911.833	11296
911.947	11132
912.062	11041
912.176	11124
912.291	11220
912.405	11181
912.519	11459
912.633	11436
912.748	11334
912.862	11288
912.976	11128
913.09	10968
913.204	11041
913.318	11098
913.431	11147
913.545	11174
913.659	11269
913.772	11102
913.886	10942
914	10862
914.113	11064
914.226	11197
914.34	11029
914.453	10930
914.566	11018
914.68	10968
914.793	10873
914.906	10744
915.019	10641
915.132	10660
915.245	10721
915.358	10748
915.47	10679
915.583	10748
915.696	10755
915.809	10820
915.921	10847
916.034	10698
916.146	10740
916.259	10649
916.371	10702
916.483	10694
916.595	10626
916.708	10596
916.82	10664
916.932	10634
917.044	10558
917.156	10535
917.268	10531
917.38	10519
917.491	10497
917.603	10569
917.715	10649
917.826	10592
917.938	10558
918.049	10371
918.161	10466
918.272	10672
918.384	10706
918.495	10531
918.606	10500
918.717	10348
918.828	10531
918.939	10386
919.05	10284
919.161	10413
919.272	10181
919.383	10310
919.494	10398
919.604	10706
919.715	10443
919.826	10291
919.936	10451
920.047	10500
920.157	10432
920.267	10596
920.378	10500
920.488	10443
920.598	10675
920.708	10778
920.818	10630
920.928	10622
921.038	10755
921.148	10767
921.258	10493
921.368	10405
921.477	10333
921.587	10318
921.697	10185
921.806	10333
921.916	10181
922.025	10013
922.134	9934
922.244	9899
922.353	10029
922.462	9854
922.571	9835
922.68	9667
922.789	9675
922.898	9694
923.007	9622
923.116	9682
923.224	9690
923.333	9572
923.442	9549
923.55	9545
923.659	9572
923.767	9644
923.876	9526
923.984	9564
924.092	9485
924.201	9507
924.309	9507
924.417	9504
924.525	9450
924.633	9405
924.741	10371
924.849	9253
924.956	9408
925.064	9302
925.172	9268
925.279	9306
925.387	9317
925.494	9275
925.602	9401
925.709	9431
925.816	9241
925.924	9332
926.031	9428
926.138	9294
926.245	9363
926.352	9275
926.459	9374
926.566	9386
926.673	9253
926.779	9165
926.886	9188
926.993	9043
927.099	8967
927.206	8979
927.312	8921
927.419	9024
927.525	9070
927.631	9051
927.737	8979
927.843	8941
927.95	8872
928.056	8861
928.162	8952
928.267	8918
928.373	9618
928.479	9055
928.585	8785
928.69	8941
928.796	9001
928.901	8861
929.007	8701
929.112	8781
929.218	8781
929.323	8781
929.428	8735
929.533	8823
929.638	8663
929.743	8682
929.848	8781
929.953	8689
930.058	8598
930.163	8484
930.267	8480
930.372	8564
930.477	8415
930.581	8670
930.685	8644
930.79	8454
930.894	8465
930.998	8492
931.103	8530
931.207	8214
931.311	8172
931.415	8199
931.519	7928
931.623	7940
