Data from test_V78500241_203.txt Node
Date: Fri Mar 25 14:35:08 CST 2022
User: usil
Spectrometer: V785-0024
Trigger mode: 0
Integration Time (sec): 4.000000E-1
Scans to average: 1
Nonlinearity correction enabled: false
Boxcar width: 0
Storing dark spectrum: false
XAxis mode: Wavelengths
Number of Pixels in Spectrum: 1024
>>>>>Begin Spectral Data<<<<<
801.071	28185
801.214	28017
801.356	27698
801.499	27534
801.641	27481
801.783	27427
801.926	27507
802.068	27412
802.211	27313
802.353	27260
802.496	27119
802.638	27032
802.78	27104
802.923	26975
803.065	26944
803.208	26800
803.35	27173
803.492	27146
803.635	27093
803.777	27112
803.919	27241
804.061	27420
804.204	27123
804.346	26952
804.488	26891
804.63	27005
804.773	26906
804.915	26967
805.057	27218
805.199	27142
805.341	27066
805.483	27146
805.626	27062
805.768	26910
805.91	26986
806.052	27085
806.194	27047
806.336	27321
806.478	27173
806.62	27062
806.762	27176
806.904	27329
807.046	27443
807.188	27431
807.33	27481
807.472	27603
807.614	27420
807.756	27618
807.898	27454
808.04	27534
808.182	27485
808.324	27667
808.465	27759
808.607	28105
808.749	28105
808.891	28401
809.033	28424
809.174	28295
809.316	28067
809.458	28150
809.6	27918
809.741	28021
809.883	27808
810.025	27987
810.166	27998
810.308	27941
810.45	27888
810.591	27656
810.733	27561
810.875	27504
811.016	27218
811.158	27367
811.299	27485
811.441	27591
811.582	27481
811.724	27378
811.865	27393
812.007	27294
812.148	27412
812.29	27481
812.431	27652
812.573	27675
812.714	27842
812.855	27953
812.997	27945
813.138	28162
813.279	28055
813.421	27979
813.562	27800
813.703	27724
813.845	27614
813.986	27325
814.127	27135
814.268	27043
814.41	27055
814.551	26940
814.692	27036
814.833	26960
814.974	26944
815.115	27058
815.256	27009
815.397	26853
815.539	26716
815.68	26769
815.821	26556
815.962	26750
816.103	26705
816.244	26465
816.385	26450
816.526	26301
816.666	26240
816.807	26138
816.948	26225
817.089	26191
817.23	26206
817.371	26054
817.512	26176
817.653	26183
817.793	25959
817.934	26058
818.075	26149
818.216	26096
818.356	26035
818.497	25883
818.638	25738
818.778	25868
818.919	25693
819.06	25871
819.2	25997
819.341	25936
819.481	26024
819.622	26065
819.762	26259
819.903	26096
820.043	25993
820.184	26012
820.324	26039
820.465	26050
820.605	26103
820.746	26119
820.886	25799
821.026	25936
821.167	26039
821.307	26084
821.447	25993
821.588	25811
821.728	25708
821.868	25552
822.008	25438
822.149	25407
822.289	25377
822.429	25084
822.569	25152
822.709	25107
822.849	24806
822.99	24806
823.13	24856
823.27	24791
823.41	24673
823.55	24700
823.69	24677
823.83	24555
823.97	24547
824.11	24372
824.25	24441
824.389	24311
824.529	24414
824.669	24365
824.809	24544
824.949	24502
825.089	24490
825.228	24505
825.368	24205
825.508	24281
825.648	24384
825.787	24319
825.927	24376
826.067	24289
826.206	24167
826.346	24121
826.485	24194
826.625	24121
826.765	24296
826.904	24133
827.044	23954
827.183	23893
827.323	23832
827.462	23889
827.601	23874
827.741	23885
827.88	23855
828.02	23722
828.159	23813
828.298	23752
828.437	23904
828.577	23786
828.716	23965
828.855	23843
828.994	23459
829.134	23524
829.273	23562
829.412	23581
829.551	23490
829.69	23558
829.829	23528
829.968	23619
830.107	23524
830.246	23562
830.385	23452
830.524	23349
830.663	23505
830.802	23265
830.941	22965
831.08	23048
831.219	23212
831.357	23197
831.496	23235
831.635	23071
831.774	23044
831.913	22999
832.051	22847
832.19	22850
832.329	22987
832.467	22949
832.606	22694
832.744	22710
832.883	22733
833.022	22793
833.16	22759
833.299	22748
833.437	22664
833.576	22801
833.714	22771
833.852	22812
833.991	22942
834.129	22919
834.267	22767
834.406	22786
834.544	22744
834.682	22721
834.821	22748
834.959	22976
835.097	22698
835.235	22687
835.373	22786
835.511	22702
835.65	22607
835.788	22626
835.926	22432
836.064	22352
836.202	22303
836.34	22565
836.478	22615
836.615	22615
836.753	22603
836.891	22607
837.029	22500
837.167	22489
837.305	22447
837.443	22432
837.58	22367
837.718	22512
837.856	22508
837.993	22367
838.131	22402
838.269	22272
838.406	22253
838.544	22257
838.681	22093
838.819	21964
838.956	21857
839.094	21778
839.231	21831
839.369	21915
839.506	22162
839.643	21994
839.781	21865
839.918	21690
840.055	21842
840.193	21728
840.33	21629
840.467	21644
840.604	21797
840.742	21937
840.879	21599
841.016	21682
841.153	21538
841.29	21728
841.427	21572
841.564	21804
841.701	21762
841.838	21694
841.975	21629
842.112	21618
842.249	21408
842.385	21405
842.522	21606
842.659	21561
842.796	21367
842.933	21504
843.069	21477
843.206	21294
843.343	21481
843.479	21458
843.616	21485
843.752	21131
843.889	21195
844.025	21359
844.162	21169
844.298	21340
844.435	21256
844.571	21096
844.708	21268
844.844	21313
844.98	21317
845.117	21348
845.253	21127
845.389	21024
845.525	21302
845.661	21515
845.798	21622
845.934	21899
846.07	22010
846.206	21937
846.342	21781
846.478	21363
846.614	21074
846.75	20785
846.886	20857
847.022	20823
847.158	20678
847.294	20629
847.429	20659
847.565	20640
847.701	20834
847.837	20434
847.972	20278
848.108	20339
848.244	20374
848.379	20233
848.515	20115
848.65	20271
848.786	20202
848.921	20225
849.057	20210
849.192	20153
849.328	20237
849.463	20256
849.598	20225
849.734	20050
849.869	20008
850.004	19902
850.14	19986
850.275	19909
850.41	19826
850.545	19769
850.68	19788
850.815	19879
850.95	19875
851.085	20088
851.22	20031
851.355	19830
851.49	19849
851.625	19879
851.76	19845
851.895	19700
852.03	19780
852.165	19833
852.299	19967
852.434	19970
852.569	19913
852.703	19772
852.838	19974
852.973	20005
853.107	20043
853.242	19685
853.376	19830
853.511	19757
853.645	19567
853.78	19852
853.914	19765
854.048	19780
854.183	19780
854.317	19742
854.451	19921
854.585	19734
854.72	19719
854.854	19772
854.988	19674
855.122	19731
855.256	19563
855.39	19704
855.524	19769
855.658	19746
855.792	19727
855.926	19594
856.06	19658
856.194	19723
856.327	19616
856.461	19597
856.595	19647
856.729	19605
856.862	19765
856.996	19753
857.13	19761
857.263	19795
857.397	19795
857.53	19666
857.664	19772
857.797	19715
857.931	19776
858.064	19776
858.197	19784
858.331	19586
858.464	19514
858.597	19502
858.731	19559
858.864	19601
858.997	19533
859.13	19723
859.263	19643
859.396	19734
859.529	19624
859.662	19609
859.795	19529
859.928	19628
860.061	19765
860.194	19826
860.327	19578
860.46	19605
860.592	19875
860.725	19666
860.858	19674
860.99	19525
861.123	19487
861.256	19578
861.388	19689
861.521	20229
861.653	19476
861.786	19468
861.918	19571
862.05	19563
862.183	19571
862.315	19586
862.447	19776
862.58	19616
862.712	19582
862.844	19377
862.976	19434
863.108	19502
863.24	19655
863.372	19213
863.504	19384
863.636	19244
863.768	19350
863.9	19274
864.032	19259
864.164	19384
864.296	19278
864.428	19430
864.559	19327
864.691	19327
864.823	19335
864.954	19320
865.086	19339
865.217	19297
865.349	19301
865.48	19244
865.612	19225
865.743	19384
865.875	19259
866.006	19168
866.137	19202
866.269	19266
866.4	19183
866.531	19190
866.662	19198
866.793	19118
866.924	19209
867.055	19206
867.186	19118
867.317	19084
867.448	19179
867.579	19095
867.71	19088
867.841	19061
867.972	19099
868.103	19160
868.233	19129
868.364	19148
868.495	19236
868.625	19339
868.756	19499
868.886	19339
869.017	19350
869.147	19487
869.278	19438
869.408	19339
869.539	19358
869.669	19438
869.799	19563
869.929	19548
870.06	19460
870.19	19704
870.32	19670
870.45	19780
870.58	19708
870.71	19902
870.84	19868
870.97	19803
871.1	19772
871.23	19887
871.36	19936
871.489	19947
871.619	19913
871.749	20069
871.879	19944
872.008	20096
872.138	20005
872.267	19993
872.397	19852
872.526	19818
872.656	19788
872.785	19811
872.915	19963
873.044	20035
873.173	19947
873.303	20005
873.432	20084
873.561	20107
873.69	19970
873.819	20084
873.948	20138
874.077	19963
874.206	20081
874.335	19978
874.464	20142
874.593	20389
874.722	20199
874.851	20320
874.979	20271
875.108	20271
875.237	20240
875.365	20347
875.494	20434
875.623	20336
875.751	20294
875.88	20328
876.008	20438
876.136	20598
876.265	20667
876.393	20796
876.521	20712
876.65	20811
876.778	20644
876.906	20720
877.034	20678
877.162	20644
877.29	20674
877.418	20629
877.546	20716
877.674	20701
877.802	20739
877.93	20583
878.058	20644
878.185	20583
878.313	20708
878.441	20697
878.568	20492
878.696	20762
878.824	20861
878.951	20967
879.079	21020
879.206	21222
879.333	21199
879.461	21108
879.588	21218
879.715	21310
879.842	21302
879.97	20986
880.097	20750
880.224	20769
880.351	20697
880.478	20716
880.605	20716
880.732	20644
880.859	20941
880.986	20686
881.112	20689
881.239	20454
881.366	20408
881.493	20320
881.619	20244
881.746	20225
881.872	20256
881.999	20172
882.125	20111
882.252	20313
882.378	20256
882.505	20393
882.631	20111
882.757	20073
882.883	20119
883.01	20020
883.136	20111
883.262	19917
883.388	19822
883.514	20058
883.64	19997
883.766	19955
883.892	19849
884.018	19917
884.143	19856
884.269	20107
884.395	19700
884.52	19681
884.646	19674
884.772	19537
884.897	19693
885.023	19605
885.148	19803
885.274	19750
885.399	19734
885.524	19647
885.65	19578
885.775	19613
885.9	19601
886.025	19818
886.15	19635
886.275	19632
886.4	19578
886.525	19609
886.65	19559
886.775	19502
886.9	19681
887.025	19742
887.149	19552
887.274	19278
887.399	19263
887.523	19343
887.648	19285
887.773	19259
887.897	19304
888.021	19411
888.146	19301
888.27	19365
888.395	19506
888.519	19426
888.643	19266
888.767	19419
888.891	19103
889.015	19114
889.139	19213
889.263	19107
889.387	19251
889.511	19327
889.635	19114
889.759	19050
889.883	19126
890.006	19095
890.13	19217
890.254	18958
890.377	19015
890.501	19000
890.624	18821
890.748	18905
890.871	18852
890.995	18658
891.118	18684
891.241	18711
891.364	18669
891.488	18745
891.611	18654
891.734	18741
891.857	18768
891.98	18650
892.103	18768
892.226	18700
892.349	18608
892.471	18528
892.594	18574
892.717	18715
892.839	18646
892.962	18623
893.085	18665
893.207	18570
893.33	18475
893.452	18471
893.575	18673
893.697	18566
893.819	18776
893.941	18791
894.064	18719
894.186	18604
894.308	18475
894.43	18654
894.552	18696
894.674	18635
894.796	18452
894.918	18555
895.04	18563
895.161	18700
895.283	18608
895.405	18502
895.526	18513
895.648	18620
895.769	18650
895.891	18597
896.012	18703
896.134	18669
896.255	18719
896.376	18601
896.498	18642
896.619	18677
896.74	18707
896.861	18802
896.982	19008
897.103	19164
897.224	18924
897.345	18863
897.466	18795
897.587	18909
897.708	19012
897.828	18878
897.949	18833
898.07	18703
898.19	18764
898.311	18913
898.431	18962
898.552	18954
898.672	18924
898.792	18985
898.913	18977
899.033	18734
899.153	18627
899.273	18574
899.393	18608
899.513	18669
899.633	18726
899.753	18700
899.873	18585
899.993	18601
900.113	18616
900.232	18623
900.352	18597
900.472	18563
900.591	18388
900.711	18532
900.83	18330
900.95	18460
901.069	18525
901.189	18410
901.308	18148
901.427	17942
901.546	18121
901.665	18194
901.784	18102
901.904	17889
902.023	17897
902.141	17718
902.26	17707
902.379	17710
902.498	17570
902.617	17615
902.735	17596
902.854	17501
902.973	17463
903.091	17376
903.21	17197
903.328	17212
903.446	17094
903.565	17010
903.683	17083
903.801	16946
903.919	17075
904.038	16987
904.156	16873
904.274	16915
904.392	16858
904.51	16900
904.627	16774
904.745	16786
904.863	16816
904.981	16630
905.098	16607
905.216	16523
905.334	16550
905.451	16470
905.569	16394
905.686	16443
905.803	16459
905.921	16242
906.038	16299
906.155	16268
906.272	16093
906.389	16131
906.506	15956
906.623	16093
906.74	15964
906.857	15937
906.974	15876
907.091	16090
907.208	16101
907.324	15983
907.441	15876
907.557	15739
907.674	15705
907.79	15675
907.907	15622
908.023	15732
908.139	15587
908.256	15679
908.372	15599
908.488	15587
908.604	15466
908.72	15355
908.836	15313
908.952	15416
909.068	15310
909.184	15412
909.3	15458
909.415	15393
909.531	15294
909.647	15180
909.762	15211
909.878	15142
909.993	15066
910.108	15123
910.224	15047
910.339	15116
910.454	15055
910.57	14868
910.685	14895
910.8	15188
910.915	15024
911.03	14861
911.145	14716
911.259	14754
911.374	14602
911.489	14629
911.604	14522
911.718	14450
911.833	14480
911.947	14355
912.062	14301
912.176	14400
912.291	14351
912.405	14454
912.519	14648
912.633	14697
912.748	14484
912.862	14374
912.976	14290
913.09	14218
913.204	14237
913.318	14191
913.431	14366
913.545	14309
913.659	14347
913.772	14195
913.886	14164
914	13989
914.113	14183
914.226	14248
914.34	14130
914.453	13951
914.566	14123
914.68	14138
914.793	14027
914.906	13849
915.019	13822
915.132	13712
915.245	13769
915.358	13826
915.47	13791
915.583	13799
915.696	13795
915.809	13883
915.921	13871
916.034	13677
916.146	13651
916.259	13578
916.371	13746
916.483	13674
916.595	13670
916.708	13571
916.82	13590
916.932	13499
917.044	13453
917.156	13506
917.268	13460
917.38	13483
917.491	13434
917.603	13552
917.715	13582
917.826	13445
917.938	13304
918.049	13236
918.161	13369
918.272	13563
918.384	13563
918.495	13396
918.606	13285
918.717	13190
918.828	13266
918.939	13343
919.05	13183
919.161	13156
919.272	12962
919.383	13019
919.494	13213
919.604	13327
919.715	13282
919.826	13042
919.936	13145
920.047	13202
920.157	13168
920.267	13339
920.378	13114
920.488	13107
920.598	13320
920.708	13514
920.818	13320
920.928	13259
921.038	13415
921.148	13434
921.258	13171
921.368	13076
921.477	13038
921.587	12985
921.697	12802
921.806	12909
921.916	12798
922.025	12658
922.134	12601
922.244	12593
922.353	12593
922.462	12509
922.571	12464
922.68	12319
922.789	12296
922.898	12247
923.007	12167
923.116	12323
923.224	12232
923.333	12186
923.442	12129
923.55	12049
923.659	12121
923.767	12213
923.876	12057
923.984	12186
924.092	11996
924.201	11984
924.309	12011
924.417	12125
924.525	11992
924.633	12007
924.741	12859
924.849	11741
924.956	11942
925.064	11794
925.172	11676
925.279	11764
925.387	11649
925.494	11672
925.602	11821
925.709	11760
925.816	11745
925.924	11691
926.031	11718
926.138	11665
926.245	11756
926.352	11577
926.459	11741
926.566	11771
926.673	11611
926.779	11528
926.886	11459
926.993	11368
927.099	11318
927.206	11231
927.312	11265
927.419	11337
927.525	11307
927.631	11383
927.737	11292
927.843	11178
927.95	11201
928.056	11132
928.162	11227
928.267	11220
928.373	11783
928.479	11239
928.585	11083
928.69	11075
928.796	11212
928.901	11060
929.007	10908
929.112	11060
929.218	11010
929.323	10980
929.428	10930
929.533	11064
929.638	10858
929.743	10885
929.848	10968
929.953	10839
930.058	10778
930.163	10668
930.267	10630
930.372	10710
930.477	10599
930.581	10778
930.685	10630
930.79	10527
930.894	10546
930.998	10516
931.103	10527
931.207	10253
931.311	10192
931.415	10071
931.519	9987
931.623	9941
