Data from test_V78500241_1893.txt Node
Date: Fri Mar 25 14:46:53 CST 2022
User: usil
Spectrometer: V785-0024
Trigger mode: 0
Integration Time (sec): 4.000000E-1
Scans to average: 1
Nonlinearity correction enabled: false
Boxcar width: 0
Storing dark spectrum: false
XAxis mode: Wavelengths
Number of Pixels in Spectrum: 1024
>>>>>Begin Spectral Data<<<<<
801.071	22097
801.214	21968
801.356	21804
801.499	21648
801.641	21511
801.783	21557
801.926	21511
802.068	21340
802.211	21329
802.353	21226
802.496	21066
802.638	20975
802.78	20895
802.923	20804
803.065	20746
803.208	20804
803.35	20796
803.492	20868
803.635	20895
803.777	20857
803.919	20861
804.061	21119
804.204	20842
804.346	20750
804.488	20648
804.63	20693
804.773	20651
804.915	20739
805.057	20792
805.199	20644
805.341	20796
805.483	20823
805.626	20868
805.768	20693
805.91	20788
806.052	20788
806.194	20644
806.336	20872
806.478	20777
806.62	20834
806.762	20670
806.904	20823
807.046	21077
807.188	20979
807.33	21096
807.472	20994
807.614	20891
807.756	20944
807.898	20773
808.04	20807
808.182	20785
808.324	20701
808.465	20743
808.607	20918
808.749	21036
808.891	21150
809.033	21241
809.174	21188
809.316	20918
809.458	21017
809.6	20960
809.741	21161
809.883	21150
810.025	21298
810.166	21260
810.308	21382
810.45	21150
810.591	21043
810.733	20948
810.875	20895
811.016	20731
811.158	20834
811.299	20864
811.441	21112
811.582	20990
811.724	20800
811.865	20815
812.007	20823
812.148	20857
812.29	20872
812.431	20956
812.573	21226
812.714	21306
812.855	21393
812.997	21629
813.138	21473
813.279	21424
813.421	21310
813.562	21302
813.703	21161
813.845	20891
813.986	20762
814.127	20617
814.268	20480
814.41	20404
814.551	20431
814.692	20457
814.833	20415
814.974	20328
815.115	20355
815.256	20408
815.397	20271
815.539	20233
815.68	20214
815.821	20130
815.962	20164
816.103	20050
816.244	19925
816.385	19894
816.526	19712
816.666	19731
816.807	19609
816.948	19632
817.089	19689
817.23	19639
817.371	19590
817.512	19476
817.653	19518
817.793	19476
817.934	19510
818.075	19559
818.216	19586
818.356	19563
818.497	19369
818.638	19373
818.778	19209
818.919	19110
819.06	19175
819.2	19297
819.341	19327
819.481	19544
819.622	19578
819.762	19772
819.903	19689
820.043	19609
820.184	19540
820.324	19502
820.465	19510
820.605	19525
820.746	19445
820.886	19396
821.026	19468
821.167	19518
821.307	19540
821.447	19430
821.588	19263
821.728	19114
821.868	19084
822.008	18943
822.149	18935
822.289	19042
822.429	18764
822.569	18578
822.709	18582
822.849	18429
822.99	18513
823.13	18479
823.27	18384
823.41	18254
823.55	18239
823.69	18285
823.83	18357
823.97	18190
824.11	18022
824.25	17996
824.389	18068
824.529	18095
824.669	18015
824.809	18174
824.949	18011
825.089	18095
825.228	18030
825.368	17874
825.508	17939
825.648	17840
825.787	17923
825.927	17980
826.067	17767
826.206	17764
826.346	17832
826.485	17707
826.625	17741
826.765	17901
826.904	17851
827.044	17630
827.183	17577
827.323	17509
827.462	17501
827.601	17501
827.741	17455
827.88	17570
828.02	17341
828.159	17497
828.298	17452
828.437	17512
828.577	17448
828.716	17474
828.855	17376
828.994	17311
829.134	17261
829.273	17223
829.412	17280
829.551	17288
829.69	17239
829.829	17269
829.968	17307
830.107	17296
830.246	17132
830.385	17166
830.524	17151
830.663	17037
830.802	17041
830.941	16927
831.08	16816
831.219	16953
831.357	16980
831.496	17105
831.635	16927
831.774	16831
831.913	16797
832.051	16653
832.19	16645
832.329	16630
832.467	16527
832.606	16538
832.744	16615
832.883	16561
833.022	16516
833.16	16519
833.299	16550
833.437	16626
833.576	16675
833.714	16615
833.852	16603
833.991	16687
834.129	16664
834.267	16683
834.406	16615
834.544	16584
834.682	16679
834.821	16622
834.959	16721
835.097	16660
835.235	16687
835.373	16649
835.511	16694
835.65	16455
835.788	16573
835.926	16413
836.064	16371
836.202	16363
836.34	16653
836.478	16656
836.615	16500
836.753	16428
836.891	16588
837.029	16580
837.167	16523
837.305	16554
837.443	16405
837.58	16356
837.718	16531
837.856	16352
837.993	16413
838.131	16497
838.269	16379
838.406	16333
838.544	16299
838.681	16135
838.819	16048
838.956	15953
839.094	15907
839.231	15937
839.369	16135
839.506	16325
839.643	16261
839.781	15941
839.918	15854
840.055	16101
840.193	15953
840.33	15979
840.467	15888
840.604	15953
840.742	16204
840.879	15861
841.016	15838
841.153	15846
841.29	16010
841.427	15956
841.564	16051
841.701	15975
841.838	15865
841.975	15835
842.112	15861
842.249	15854
842.385	15736
842.522	15873
842.659	15766
842.796	15793
842.933	15755
843.069	15629
843.206	15747
843.343	15793
843.479	15686
843.616	15842
843.752	15580
843.889	15584
844.025	15622
844.162	15462
844.298	15660
844.435	15515
844.571	15515
844.708	15603
844.844	15739
844.98	15690
845.117	15641
845.253	15393
845.389	15408
845.525	15466
845.661	15439
845.798	15386
845.934	15351
846.07	15287
846.206	15401
846.342	15405
846.478	15325
846.614	15256
846.75	15081
846.886	15074
847.022	15233
847.158	15176
847.294	15097
847.429	15058
847.565	15131
847.701	15367
847.837	14868
847.972	14830
848.108	14979
848.244	14914
848.379	14708
848.515	14689
848.65	14765
848.786	14735
848.921	14712
849.057	14811
849.192	14762
849.328	14644
849.463	14701
849.598	14606
849.734	14735
849.869	14613
850.004	14427
850.14	14545
850.275	14488
850.41	14358
850.545	14457
850.68	14438
850.815	14495
850.95	14503
851.085	14617
851.22	14590
851.355	14450
851.49	14469
851.625	14476
851.76	14431
851.895	14343
852.03	14442
852.165	14400
852.299	14457
852.434	14552
852.569	14495
852.703	14507
852.838	14492
852.973	14678
853.107	14693
853.242	14533
853.376	14423
853.511	14195
853.645	14252
853.78	14488
853.914	14366
854.048	14343
854.183	14385
854.317	14324
854.451	14480
854.585	14377
854.72	14324
854.854	14423
854.988	14218
855.122	14328
855.256	14180
855.39	14358
855.524	14446
855.658	14336
855.792	14286
855.926	14381
856.06	14412
856.194	14438
856.327	14313
856.461	14332
856.595	14298
856.729	14339
856.862	14579
856.996	14473
857.13	14419
857.263	14552
857.397	14545
857.53	14301
857.664	14320
857.797	14450
857.931	14419
858.064	14396
858.197	14431
858.331	14343
858.464	14294
858.597	14252
858.731	14252
858.864	14366
858.997	14248
859.13	14301
859.263	14427
859.396	14385
859.529	14275
859.662	14351
859.795	14229
859.928	14332
860.061	14530
860.194	14488
860.327	14347
860.46	14370
860.592	14446
860.725	14396
860.858	14499
860.99	14328
861.123	14336
861.256	14237
861.388	14431
861.521	14902
861.653	14221
861.786	14183
861.918	14218
862.05	14229
862.183	14195
862.315	14286
862.447	14309
862.58	14267
862.712	14126
862.844	14115
862.976	14210
863.108	14183
863.24	14537
863.372	14062
863.504	14157
863.636	14111
863.768	14138
863.9	14119
864.032	14065
864.164	14130
864.296	14145
864.428	14237
864.559	14202
864.691	14221
864.823	14103
864.954	14210
865.086	14180
865.217	14088
865.349	14081
865.48	14100
865.612	14077
865.743	14290
865.875	14096
866.006	14062
866.137	14012
866.269	14240
866.4	14161
866.531	14142
866.662	14084
866.793	14027
866.924	14043
867.055	14073
867.186	14138
867.317	14031
867.448	14008
867.579	14039
867.71	14142
867.841	14001
867.972	14115
868.103	14020
868.233	14119
868.364	14107
868.495	14199
868.625	14286
868.756	14530
868.886	14263
869.017	14317
869.147	14492
869.278	14514
869.408	14351
869.539	14377
869.669	14419
869.799	14385
869.929	14484
870.06	14461
870.19	14758
870.32	14686
870.45	14716
870.58	14708
870.71	14914
870.84	14861
870.97	14807
871.1	14815
871.23	14925
871.36	15032
871.489	14777
871.619	14944
871.749	14986
871.879	15020
872.008	15089
872.138	14861
872.267	14868
872.397	14739
872.526	14834
872.656	14785
872.785	14773
872.915	14925
873.044	15058
873.173	14960
873.303	15055
873.432	15024
873.561	15043
873.69	15062
873.819	15013
873.948	15138
874.077	15062
874.206	14948
874.335	15001
874.464	15135
874.593	15237
874.722	15241
874.851	15275
874.979	15401
875.108	15306
875.237	15348
875.365	15173
875.494	15298
875.623	15424
875.751	15359
875.88	15405
876.008	15439
876.136	15557
876.265	15789
876.393	15876
876.521	15816
876.65	15861
876.778	15698
876.906	15713
877.034	15694
877.162	15663
877.29	15694
877.418	15728
877.546	15751
877.674	15713
877.802	15827
877.93	15644
878.058	15724
878.185	15656
878.313	15827
878.441	15812
878.568	15545
878.696	15625
878.824	15797
878.951	15876
879.079	15911
879.206	16044
879.333	15846
879.461	15812
879.588	15888
879.715	15835
879.842	16021
879.97	15774
880.097	15660
880.224	15580
880.351	15572
880.478	15603
880.605	15545
880.732	15526
880.859	15831
880.986	15625
881.112	15618
881.239	15435
881.366	15367
881.493	15272
881.619	15283
881.746	15306
881.872	15306
881.999	15260
882.125	15142
882.252	15252
882.378	15214
882.505	15397
882.631	15207
882.757	15100
882.883	14971
883.01	15039
883.136	14998
883.262	14895
883.388	14910
883.514	15062
883.64	15001
883.766	14986
883.892	14739
884.018	14914
884.143	15055
884.269	15093
884.395	14834
884.52	14762
884.646	14762
884.772	14720
884.897	14621
885.023	14769
885.148	14887
885.274	14994
885.399	14785
885.524	14857
885.65	14792
885.775	14773
885.9	14689
886.025	14899
886.15	14765
886.275	14743
886.4	14606
886.525	14724
886.65	14682
886.775	14640
886.9	14838
887.025	14986
887.149	14842
887.274	14549
887.399	14617
887.523	14530
887.648	14568
887.773	14438
887.897	14682
888.021	14587
888.146	14518
888.27	14678
888.395	14648
888.519	14537
888.643	14610
888.767	14788
888.891	14549
889.015	14450
889.139	14522
889.263	14480
889.387	14625
889.511	14689
889.635	14594
889.759	14370
889.883	14419
890.006	14431
890.13	14492
890.254	14408
890.377	14358
890.501	14202
890.624	14267
890.748	14305
890.871	14157
890.995	14088
891.118	14130
891.241	14134
891.364	14256
891.488	14275
891.611	14214
891.734	14218
891.857	14229
891.98	14225
892.103	14206
892.226	14225
892.349	14126
892.471	14050
892.594	14142
892.717	14172
892.839	14130
892.962	14191
893.085	14237
893.207	14157
893.33	14012
893.452	14039
893.575	14183
893.697	14153
893.819	14313
893.941	14347
894.064	14271
894.186	14084
894.308	14062
894.43	14339
894.552	14362
894.674	14278
894.796	14073
894.918	14199
895.04	14176
895.161	14301
895.283	14199
895.405	14210
895.526	14259
895.648	14164
895.769	14267
895.891	14343
896.012	14347
896.134	14271
896.255	14374
896.376	14282
896.498	14324
896.619	14351
896.74	14370
896.861	14450
896.982	14625
897.103	14823
897.224	14594
897.345	14590
897.466	14514
897.587	14667
897.708	14735
897.828	14617
897.949	14571
898.07	14415
898.19	14571
898.311	14667
898.431	14587
898.552	14659
898.672	14765
898.792	14587
898.913	14758
899.033	14530
899.153	14499
899.273	14305
899.393	14507
899.513	14457
899.633	14499
899.753	14499
899.873	14545
899.993	14594
900.113	14457
900.232	14522
900.352	14495
900.472	14374
900.591	14347
900.711	14313
900.83	14332
900.95	14419
901.069	14499
901.189	14355
901.308	14138
901.427	14043
901.546	14069
901.665	14024
901.784	14020
901.904	13894
902.023	13913
902.141	13662
902.26	13571
902.379	13620
902.498	13655
902.617	13563
902.735	13605
902.854	13460
902.973	13525
903.091	13285
903.21	13320
903.328	13358
903.446	13274
903.565	13232
903.683	13198
903.801	13053
903.919	13179
904.038	13145
904.156	12985
904.274	13031
904.392	13053
904.51	13008
904.627	12909
904.745	13099
904.863	13004
904.981	12776
905.098	12688
905.216	12673
905.334	12677
905.451	12692
905.569	12669
905.686	12738
905.803	12696
905.921	12528
906.038	12589
906.155	12597
906.272	12388
906.389	12407
906.506	12209
906.623	12289
906.74	12289
906.857	12247
906.974	12224
907.091	12384
907.208	12380
907.324	12281
907.441	12190
907.557	11984
907.674	12007
907.79	11901
907.907	12007
908.023	12095
908.139	12041
908.256	12053
908.372	11870
908.488	11954
908.604	11855
908.72	11840
908.836	11798
908.952	11802
909.068	11802
909.184	11828
909.3	11752
909.415	11790
909.531	11817
909.647	11615
909.762	11543
909.878	11520
909.993	11604
910.108	11528
910.224	11524
910.339	11665
910.454	11436
910.57	11368
910.685	11273
910.8	11634
910.915	11558
911.03	11474
911.145	11337
911.259	11201
911.374	11181
911.489	11181
911.604	11113
911.718	11041
911.833	11109
911.947	10938
912.062	10839
912.176	10949
912.291	10942
912.405	10984
912.519	11178
912.633	11216
912.748	11105
912.862	10972
912.976	10835
913.09	10793
913.204	10911
913.318	10934
913.431	10942
913.545	11022
913.659	11014
913.772	10816
913.886	10771
914	10755
914.113	10854
914.226	10828
914.34	10835
914.453	10706
914.566	10812
914.68	10752
914.793	10740
914.906	10550
915.019	10561
915.132	10470
915.245	10550
915.358	10584
915.47	10538
915.583	10561
915.696	10580
915.809	10637
915.921	10706
916.034	10417
916.146	10474
916.259	10516
916.371	10569
916.483	10481
916.595	10478
916.708	10417
916.82	10519
916.932	10382
917.044	10462
917.156	10333
917.268	10341
917.38	10371
917.491	10325
917.603	10280
917.715	10405
917.826	10470
917.938	10344
918.049	10276
918.161	10352
918.272	10508
918.384	10459
918.495	10356
918.606	10261
918.717	10162
918.828	10242
918.939	10207
919.05	10124
919.161	10150
919.272	9964
919.383	9994
919.494	10158
919.604	10440
919.715	10257
919.826	10150
919.936	10314
920.047	10322
920.157	10272
920.267	10481
920.378	10280
920.488	10227
920.598	10516
920.708	10542
920.818	10443
920.928	10443
921.038	10641
921.148	10527
921.258	10261
921.368	10150
921.477	10109
921.587	10040
921.697	9987
921.806	10078
921.916	9994
922.025	9861
922.134	9850
922.244	9785
922.353	9835
922.462	9728
922.571	9641
922.68	9504
922.789	9504
922.898	9507
923.007	9477
923.116	9526
923.224	9504
923.333	9416
923.442	9363
923.55	9382
923.659	9416
923.767	9393
923.876	9397
923.984	9382
924.092	9298
924.201	9382
924.309	9294
924.417	9355
924.525	9329
924.633	9367
924.741	10341
924.849	9211
924.956	9313
925.064	9116
925.172	9074
925.279	9135
925.387	9154
925.494	9154
925.602	9321
925.709	9150
925.816	9104
925.924	9138
926.031	9222
926.138	9131
926.245	9256
926.352	9051
926.459	9203
926.566	9207
926.673	9077
926.779	9051
926.886	8986
926.993	8880
927.099	8861
927.206	8845
927.312	8788
927.419	8902
927.525	8887
927.631	8902
927.737	8864
927.843	8758
927.95	8621
928.056	8766
928.162	8762
928.267	8834
928.373	9374
928.479	8826
928.585	8625
928.69	8758
928.796	8766
928.901	8758
929.007	8518
929.112	8667
929.218	8606
929.323	8587
929.428	8549
929.533	8682
929.638	8507
929.743	8583
929.848	8610
929.953	8602
930.058	8549
930.163	8313
930.267	8404
930.372	8442
930.477	8332
930.581	8533
930.685	8503
930.79	8233
930.894	8286
930.998	8263
931.103	8404
931.207	8145
931.311	8027
931.415	7951
931.519	7864
931.623	7780
