Data from test_V78500241_705.txt Node
Date: Fri Mar 25 14:38:37 CST 2022
User: usil
Spectrometer: V785-0024
Trigger mode: 0
Integration Time (sec): 4.000000E-1
Scans to average: 1
Nonlinearity correction enabled: false
Boxcar width: 0
Storing dark spectrum: false
XAxis mode: Wavelengths
Number of Pixels in Spectrum: 1024
>>>>>Begin Spectral Data<<<<<
801.071	27816
801.214	27671
801.356	27355
801.499	27264
801.641	27146
801.783	27104
801.926	27203
802.068	26963
802.211	26952
802.353	26853
802.496	26682
802.638	26609
802.78	26514
802.923	26514
803.065	26518
803.208	26533
803.35	26514
803.492	26697
803.635	26929
803.777	26701
803.919	26705
804.061	27089
804.204	26857
804.346	26765
804.488	26762
804.63	26887
804.773	26830
804.915	26883
805.057	27180
805.199	26990
805.341	27211
805.483	27252
805.626	27340
805.768	27416
805.91	27572
806.052	27603
806.194	27671
806.336	28093
806.478	28135
806.62	28329
806.762	28504
806.904	29003
807.046	29558
807.188	29657
807.33	30273
807.472	30836
807.614	31499
807.756	32457
807.898	33420
808.04	35056
808.182	37190
808.324	39694
808.465	42654
808.607	46021
808.749	48916
808.891	50686
809.033	50864
809.174	49213
809.316	46219
809.458	42939
809.6	39469
809.741	36677
809.883	34295
810.025	32906
810.166	31814
810.308	31107
810.45	30372
810.591	29992
810.733	29280
810.875	28995
811.016	28611
811.158	28261
811.299	28474
811.441	28230
811.582	28185
811.724	27987
811.865	27812
812.007	27648
812.148	27591
812.29	27515
812.431	27477
812.573	27739
812.714	27778
812.855	27713
812.997	27918
813.138	27850
813.279	27766
813.421	27622
813.562	27454
813.703	27336
813.845	27039
813.986	26705
814.127	26678
814.268	26408
814.41	26541
814.551	26286
814.692	26389
814.833	26233
814.974	26233
815.115	26298
815.256	26092
815.397	26199
815.539	26126
815.68	25947
815.821	25989
815.962	25890
816.103	25845
816.244	25662
816.385	25601
816.526	25438
816.666	25403
816.807	25293
816.948	25228
817.089	25255
817.23	25282
817.371	25266
817.512	25255
817.653	25065
817.793	25080
817.934	25209
818.075	25202
818.216	25050
818.356	25080
818.497	24852
818.638	24817
818.778	24711
818.919	24848
819.06	24859
819.2	25027
819.341	25027
819.481	24970
819.622	25103
819.762	25293
819.903	25187
820.043	25050
820.184	25069
820.324	25008
820.465	25031
820.605	24916
820.746	25000
820.886	24817
821.026	24772
821.167	24871
821.307	24814
821.447	24844
821.588	24658
821.728	24589
821.868	24460
822.008	24254
822.149	24125
822.289	24174
822.429	23965
822.569	23882
822.709	23961
822.849	23653
822.99	23642
823.13	23794
823.27	23581
823.41	23478
823.55	23269
823.69	23444
823.83	23444
823.97	23326
824.11	23098
824.25	23174
824.389	23174
824.529	23208
824.669	23155
824.809	23212
824.949	23303
825.089	23265
825.228	23242
825.368	23044
825.508	22957
825.648	22999
825.787	23048
825.927	23033
826.067	22938
826.206	23010
826.346	22987
826.485	22900
826.625	22904
826.765	23140
826.904	22976
827.044	22691
827.183	22831
827.323	22656
827.462	22702
827.601	22653
827.741	22615
827.88	22729
828.02	22519
828.159	22474
828.298	22603
828.437	22664
828.577	22554
828.716	22664
828.855	22550
828.994	22287
829.134	22402
829.273	22352
829.412	22356
829.551	22223
829.69	22276
829.829	22337
829.968	22303
830.107	22329
830.246	22253
830.385	22246
830.524	22207
830.663	22154
830.802	22067
830.941	21918
831.08	21915
831.219	22040
831.357	21994
831.496	22204
831.635	21861
831.774	21918
831.913	21827
832.051	21797
832.19	21759
832.329	21911
832.467	21865
832.606	21720
832.744	21781
832.883	21857
833.022	21895
833.16	22029
833.299	22223
833.437	22375
833.576	22318
833.714	22573
833.852	22599
833.991	22793
834.129	22980
834.267	23010
834.406	22805
834.544	22816
834.682	22653
834.821	22542
834.959	22607
835.097	22215
835.235	22177
835.373	22021
835.511	22078
835.65	21953
835.788	21766
835.926	21675
836.064	21397
836.202	21401
836.34	21572
836.478	21633
836.615	21526
836.753	21462
836.891	21542
837.029	21561
837.167	21351
837.305	21355
837.443	21287
837.58	21279
837.718	21195
837.856	21188
837.993	21264
838.131	21340
838.269	21233
838.406	21081
838.544	21093
838.681	20853
838.819	20830
838.956	20819
839.094	20705
839.231	20842
839.369	20948
839.506	21104
839.643	20868
839.781	20689
839.918	20587
840.055	20655
840.193	20716
840.33	20636
840.467	20731
840.604	20617
840.742	20975
840.879	20488
841.016	20549
841.153	20568
841.29	20777
841.427	20613
841.564	20705
841.701	20606
841.838	20613
841.975	20617
842.112	20575
842.249	20492
842.385	20240
842.522	20678
842.659	20564
842.796	20423
842.933	20415
843.069	20427
843.206	20454
843.343	20712
843.479	20556
843.616	20511
843.752	20514
843.889	20568
844.025	20773
844.162	20636
844.298	20743
844.435	20941
844.571	21043
844.708	21412
844.844	21770
844.98	22234
845.117	22946
845.253	23908
845.389	25715
845.525	29448
845.661	35372
845.798	42186
845.934	47280
846.07	49141
846.206	47684
846.342	42848
846.478	35927
846.614	30083
846.75	26343
846.886	24087
847.022	22603
847.158	21705
847.294	21154
847.429	20720
847.565	20530
847.701	20609
847.837	20088
847.972	20008
848.108	19940
848.244	19753
848.379	19597
848.515	19438
848.65	19403
848.786	19445
848.921	19514
849.057	19514
849.192	19502
849.328	19495
849.463	19384
849.598	19327
849.734	19240
849.869	19194
850.004	19084
850.14	19156
850.275	19129
850.41	18993
850.545	19053
850.68	19004
850.815	19076
850.95	18989
851.085	19152
851.22	19244
851.355	19107
851.49	19156
851.625	19065
851.76	19065
851.895	19012
852.03	18909
852.165	19072
852.299	19126
852.434	19152
852.569	19133
852.703	19190
852.838	19126
852.973	19187
853.107	19400
853.242	19110
853.376	19164
853.511	18962
853.645	19057
853.78	19365
853.914	19179
854.048	19346
854.183	19293
854.317	19365
854.451	19464
854.585	19339
854.72	19289
854.854	19320
854.988	19145
855.122	19110
855.256	19023
855.39	19042
855.524	19057
855.658	19126
855.792	19080
855.926	19065
856.06	19099
856.194	19034
856.327	18996
856.461	18882
856.595	18901
856.729	18844
856.862	18996
856.996	18943
857.13	18909
857.263	18890
857.397	19038
857.53	18875
857.664	18928
857.797	18844
857.931	18951
858.064	18848
858.197	18913
858.331	18665
858.464	18715
858.597	18764
858.731	18825
858.864	18757
858.997	18677
859.13	18871
859.263	18776
859.396	18772
859.529	18848
859.662	18677
859.795	18639
859.928	18814
860.061	18772
860.194	18924
860.327	18616
860.46	18844
860.592	18783
860.725	18810
860.858	18738
860.99	18612
861.123	18513
861.256	18582
861.388	18681
861.521	19468
861.653	18506
861.786	18563
861.918	18547
862.05	18604
862.183	18612
862.315	18688
862.447	18711
862.58	18623
862.712	18414
862.844	18327
862.976	18483
863.108	18437
863.24	18749
863.372	18365
863.504	18311
863.636	18353
863.768	18357
863.9	18467
864.032	18380
864.164	18247
864.296	18395
864.428	18441
864.559	18384
864.691	18437
864.823	18437
864.954	18380
865.086	18304
865.217	18251
865.349	18224
865.48	18235
865.612	18266
865.743	18338
865.875	18448
866.006	18251
866.137	18277
866.269	18258
866.4	18228
866.531	18136
866.662	18136
866.793	18254
866.924	18262
867.055	18182
867.186	18243
867.317	18190
867.448	18133
867.579	18182
867.71	18201
867.841	18049
867.972	18270
868.103	18201
868.233	18270
868.364	18273
868.495	18467
868.625	18452
868.756	18502
868.886	18407
869.017	18509
869.147	18711
869.278	18597
869.408	18532
869.539	18506
869.669	18631
869.799	18559
869.929	18616
870.06	18730
870.19	18859
870.32	18825
870.45	18943
870.58	18913
870.71	18985
870.84	19118
870.97	19107
871.1	18985
871.23	19107
871.36	19148
871.489	19088
871.619	19213
871.749	19236
871.879	19289
872.008	19327
872.138	19183
872.267	19232
872.397	19194
872.526	19129
872.656	19183
872.785	19099
872.915	19259
873.044	19476
873.173	19327
873.303	19289
873.432	19518
873.561	19537
873.69	19441
873.819	19495
873.948	19552
874.077	19540
874.206	19544
874.335	19605
874.464	19696
874.593	19959
874.722	19864
874.851	19864
874.979	20020
875.108	20020
875.237	19986
875.365	20008
875.494	20134
875.623	20149
875.751	20103
875.88	20237
876.008	20571
876.136	20526
876.265	20785
876.393	20925
876.521	20902
876.65	20948
876.778	21085
876.906	21127
877.034	21146
877.162	21161
877.29	21176
877.418	21355
877.546	21317
877.674	21507
877.802	21618
877.93	21762
878.058	21983
878.185	21991
878.313	22337
878.441	22683
878.568	23014
878.696	23638
878.824	24566
878.951	25495
879.079	27127
879.206	29254
879.333	31350
879.461	33036
879.588	34253
879.715	34036
879.842	33233
879.97	31556
880.097	29254
880.224	27591
880.351	26492
880.478	25635
880.605	24966
880.732	24528
880.859	24525
880.986	24015
881.112	24064
881.239	23863
881.366	23642
881.493	23615
881.619	23703
881.746	23562
881.872	23589
881.999	23604
882.125	23646
882.252	23733
882.378	23771
882.505	23954
882.631	23653
882.757	23630
882.883	23680
883.01	23726
883.136	23646
883.262	23531
883.388	23353
883.514	23509
883.64	23535
883.766	23493
883.892	23436
884.018	23421
884.143	23535
884.269	23646
884.395	23364
884.52	23296
884.646	23307
884.772	23212
884.897	23402
885.023	23391
885.148	23505
885.274	23455
885.399	23296
885.524	23037
885.65	23037
885.775	22896
885.9	22729
886.025	22774
886.15	22481
886.275	22200
886.4	22101
886.525	22036
886.65	21797
886.775	21618
886.9	21778
887.025	21785
887.149	21488
887.274	21237
887.399	21051
887.523	20982
887.648	20811
887.773	20682
887.897	20811
888.021	20636
888.146	20556
888.27	20590
888.395	20533
888.519	20575
888.643	20454
888.767	20431
888.891	20237
889.015	20134
889.139	20149
889.263	19963
889.387	20031
889.511	20073
889.635	20065
889.759	19837
889.883	19852
890.006	19909
890.13	19746
890.254	19719
890.377	19769
890.501	19434
890.624	19430
890.748	19388
890.871	19350
890.995	19194
891.118	19091
891.241	19122
891.364	19194
891.488	19225
891.611	19038
891.734	19031
891.857	18981
891.98	18943
892.103	19137
892.226	18878
892.349	18913
892.471	18665
892.594	18806
892.717	18814
892.839	18608
892.962	18661
893.085	18582
893.207	18753
893.33	18490
893.452	18681
893.575	18528
893.697	18437
893.819	18547
893.941	18646
894.064	18597
894.186	18376
894.308	18399
894.43	18380
894.552	18540
894.674	18513
894.796	18232
894.918	18327
895.04	18266
895.161	18429
895.283	18353
895.405	18220
895.526	18235
895.648	18365
895.769	18247
895.891	18205
896.012	18292
896.134	18213
896.255	18235
896.376	18167
896.498	18174
896.619	18281
896.74	18144
896.861	18190
896.982	18460
897.103	18642
897.224	18426
897.345	18422
897.466	18239
897.587	18281
897.708	18429
897.828	18429
897.949	18270
898.07	18178
898.19	18304
898.311	18441
898.431	18285
898.552	18289
898.672	18410
898.792	18384
898.913	18445
899.033	18190
899.153	18163
899.273	18083
899.393	18155
899.513	18171
899.633	18045
899.753	18159
899.873	18129
899.993	18224
900.113	18072
900.232	18072
900.352	18022
900.472	17996
900.591	17908
900.711	17996
900.83	17973
900.95	18038
901.069	17912
901.189	17790
901.308	17520
901.427	17478
901.546	17532
901.665	17486
901.784	17509
901.904	17315
902.023	17261
902.141	16972
902.26	16957
902.379	17079
902.498	17006
902.617	16767
902.735	16976
902.854	16805
902.973	16843
903.091	16580
903.21	16497
903.328	16603
903.446	16436
903.565	16390
903.683	16356
903.801	16215
903.919	16261
904.038	16314
904.156	16200
904.274	16181
904.392	16166
904.51	16124
904.627	16074
904.745	16116
904.863	16090
904.981	15831
905.098	15781
905.216	15720
905.334	15759
905.451	15675
905.569	15724
905.686	15743
905.803	15686
905.921	15534
906.038	15530
906.155	15511
906.272	15386
906.389	15416
906.506	15264
906.623	15313
906.74	15237
906.857	15070
906.974	15157
907.091	15260
907.208	15336
907.324	15321
907.441	15097
907.557	15032
907.674	15032
907.79	14948
907.907	14857
908.023	15032
908.139	14960
908.256	14899
908.372	14800
908.488	14842
908.604	14724
908.72	14602
908.836	14743
908.952	14590
909.068	14651
909.184	14788
909.3	14640
909.415	14686
909.531	14724
909.647	14374
909.762	14362
909.878	14454
909.993	14419
910.108	14374
910.224	14355
910.339	14393
910.454	14275
910.57	14267
910.685	14225
910.8	14381
910.915	14332
911.03	14305
911.145	13997
911.259	14012
911.374	14020
911.489	13970
911.604	13925
911.718	13856
911.833	13826
911.947	13689
912.062	13662
912.176	13693
912.291	13731
912.405	13742
912.519	14012
912.633	13944
912.748	13871
912.862	13761
912.976	13643
913.09	13556
913.204	13582
913.318	13597
913.431	13738
913.545	13700
913.659	13712
913.772	13571
913.886	13552
914	13480
914.113	13559
914.226	13578
914.34	13609
914.453	13358
914.566	13521
914.68	13441
914.793	13343
914.906	13156
915.019	13110
915.132	13152
915.245	13152
915.358	13209
915.47	13236
915.583	13221
915.696	13228
915.809	13187
915.921	13422
916.034	13126
916.146	13088
916.259	13069
916.371	13168
916.483	13141
916.595	13160
916.708	13091
916.82	13072
916.932	13118
917.044	13061
917.156	13012
917.268	12947
917.38	12989
917.491	12840
917.603	12970
917.715	12913
917.826	12954
917.938	12856
918.049	12726
918.161	12867
918.272	12970
918.384	12970
918.495	12863
918.606	12757
918.717	12665
918.828	12658
918.939	12669
919.05	12551
919.161	12700
919.272	12445
919.383	12559
919.494	12726
919.604	12901
919.715	12650
919.826	12559
919.936	12604
920.047	12722
920.157	12669
920.267	12814
920.378	12642
920.488	12563
920.598	12783
920.708	12863
920.818	12760
920.928	12768
921.038	12958
921.148	12905
921.258	12502
921.368	12498
921.477	12391
921.587	12369
921.697	12251
921.806	12460
921.916	12285
922.025	12091
922.134	12057
922.244	12026
922.353	12091
922.462	11973
922.571	11882
922.68	11695
922.789	11684
922.898	11726
923.007	11589
923.116	11707
923.224	11733
923.333	11657
923.442	11646
923.55	11532
923.659	11611
923.767	11604
923.876	11516
923.984	11581
924.092	11440
924.201	11471
924.309	11551
924.417	11520
924.525	11429
924.633	11444
924.741	12418
924.849	11254
924.956	11402
925.064	11254
925.172	11109
925.279	11273
925.387	11258
925.494	11280
925.602	11376
925.709	11212
925.816	11159
925.924	11280
926.031	11227
926.138	11258
926.245	11204
926.352	11151
926.459	11231
926.566	11254
926.673	11121
926.779	10984
926.886	11029
926.993	10869
927.099	10877
927.206	10774
927.312	10835
927.419	10843
927.525	10763
927.631	10904
927.737	10729
927.843	10763
927.95	10596
928.056	10660
928.162	10744
928.267	10782
928.373	11258
928.479	10736
928.585	10584
928.69	10675
928.796	10797
928.901	10580
929.007	10478
929.112	10645
929.218	10592
929.323	10527
929.428	10542
929.533	10599
929.638	10459
929.743	10481
929.848	10523
929.953	10489
930.058	10382
930.163	10196
930.267	10223
930.372	10276
930.477	10143
930.581	10413
930.685	10169
930.79	10051
930.894	10181
930.998	10128
931.103	10211
931.207	9888
931.311	9766
931.415	9774
931.519	9561
931.623	9614
