Data from test_V78500241_3688.txt Node
Date: Fri Mar 25 14:59:24 CST 2022
User: usil
Spectrometer: V785-0024
Trigger mode: 0
Integration Time (sec): 4.000000E-1
Scans to average: 1
Nonlinearity correction enabled: false
Boxcar width: 0
Storing dark spectrum: false
XAxis mode: Wavelengths
Number of Pixels in Spectrum: 1024
>>>>>Begin Spectral Data<<<<<
801.071	21956
801.214	21728
801.356	21633
801.499	21359
801.641	21447
801.783	21245
801.926	21249
802.068	21264
802.211	21138
802.353	21062
802.496	20849
802.638	20845
802.78	20689
802.923	20644
803.065	20598
803.208	20492
803.35	20549
803.492	20594
803.635	20773
803.777	20579
803.919	20598
804.061	21039
804.204	20792
804.346	20461
804.488	20476
804.63	20541
804.773	20484
804.915	20503
805.057	20648
805.199	20499
805.341	20575
805.483	20533
805.626	20545
805.768	20545
805.91	20564
806.052	20587
806.194	20358
806.336	20625
806.478	20419
806.62	20419
806.762	20526
806.904	20663
807.046	20990
807.188	20796
807.33	20845
807.472	20929
807.614	20693
807.756	20807
807.898	20564
808.04	20594
808.182	20590
808.324	20587
808.465	20590
808.607	20712
808.749	20861
808.891	20872
809.033	20944
809.174	20891
809.316	20872
809.458	20830
809.6	20708
809.741	20941
809.883	20868
810.025	21089
810.166	20937
810.308	20918
810.45	21009
810.591	20811
810.733	20651
810.875	20640
811.016	20556
811.158	20579
811.299	20762
811.441	20750
811.582	20796
811.724	20617
811.865	20541
812.007	20648
812.148	20609
812.29	20621
812.431	20785
812.573	20986
812.714	21112
812.855	21112
812.997	21169
813.138	21329
813.279	21214
813.421	21116
813.562	21074
813.703	20963
813.845	20762
813.986	20537
814.127	20259
814.268	20210
814.41	20176
814.551	20157
814.692	20180
814.833	20100
814.974	20058
815.115	20153
815.256	19944
815.397	19917
815.539	19963
815.68	19890
815.821	19864
815.962	19932
816.103	19814
816.244	19700
816.385	19559
816.526	19559
816.666	19514
816.807	19259
816.948	19419
817.089	19438
817.23	19438
817.371	19312
817.512	19350
817.653	19369
817.793	19152
817.934	19213
818.075	19232
818.216	19171
818.356	19278
818.497	19072
818.638	18962
818.778	18905
818.919	19000
819.06	19118
819.2	19110
819.341	19187
819.481	19160
819.622	19282
819.762	19495
819.903	19419
820.043	19316
820.184	19365
820.324	19278
820.465	19362
820.605	19228
820.746	19228
820.886	19084
821.026	19289
821.167	19168
821.307	19198
821.447	19110
821.588	18973
821.728	19145
821.868	18844
822.008	18749
822.149	18726
822.289	18658
822.429	18513
822.569	18372
822.709	18319
822.849	18235
822.99	18045
823.13	18152
823.27	18034
823.41	17916
823.55	17889
823.69	17923
823.83	18098
823.97	17923
824.11	17665
824.25	17783
824.389	17722
824.529	17847
824.669	17745
824.809	17840
824.949	17714
825.089	17805
825.228	17748
825.368	17532
825.508	17566
825.648	17505
825.787	17532
825.927	17558
826.067	17520
826.206	17482
826.346	17505
826.485	17573
826.625	17474
826.765	17665
826.904	17493
827.044	17273
827.183	17212
827.323	17231
827.462	17318
827.601	17185
827.741	17178
827.88	17292
828.02	17056
828.159	17109
828.298	17242
828.437	17242
828.577	17235
828.716	17318
828.855	17181
828.994	17029
829.134	17060
829.273	16972
829.412	17022
829.551	16889
829.69	16877
829.829	17067
829.968	16991
830.107	17121
830.246	16957
830.385	17006
830.524	16908
830.663	16805
830.802	16691
830.941	16653
831.08	16622
831.219	16675
831.357	16649
831.496	16885
831.635	16592
831.774	16455
831.913	16512
832.051	16440
832.19	16474
832.329	16451
832.467	16333
832.606	16306
832.744	16272
832.883	16344
833.022	16276
833.16	16382
833.299	16333
833.437	16390
833.576	16280
833.714	16341
833.852	16375
833.991	16424
834.129	16474
834.267	16417
834.406	16474
834.544	16417
834.682	16367
834.821	16394
834.959	16432
835.097	16341
835.235	16527
835.373	16344
835.511	16356
835.65	16261
835.788	16276
835.926	16196
836.064	16143
836.202	16029
836.34	16329
836.478	16299
836.615	16204
836.753	16314
836.891	16474
837.029	16341
837.167	16234
837.305	16226
837.443	16120
837.58	16124
837.718	16249
837.856	16143
837.993	16173
838.131	16173
838.269	16074
838.406	16147
838.544	16040
838.681	15915
838.819	15850
838.956	15701
839.094	15667
839.231	15812
839.369	15842
839.506	16173
839.643	15953
839.781	15751
839.918	15724
840.055	15709
840.193	15759
840.33	15667
840.467	15675
840.604	15812
840.742	15968
840.879	15557
841.016	15663
841.153	15629
841.29	15880
841.427	15762
841.564	15675
841.701	15713
841.838	15759
841.975	15591
842.112	15663
842.249	15519
842.385	15443
842.522	15694
842.659	15534
842.796	15538
842.933	15504
843.069	15462
843.206	15443
843.343	15603
843.479	15469
843.616	15526
843.752	15408
843.889	15374
844.025	15447
844.162	15291
844.298	15329
844.435	15363
844.571	15230
844.708	15359
844.844	15447
844.98	15466
845.117	15367
845.253	15275
845.389	15199
845.525	15245
845.661	15211
845.798	15135
845.934	15097
846.07	15070
846.206	15180
846.342	15176
846.478	15005
846.614	14952
846.75	14849
846.886	14804
847.022	14944
847.158	14902
847.294	14925
847.429	14895
847.565	14773
847.701	15146
847.837	14594
847.972	14682
848.108	14765
848.244	14674
848.379	14507
848.515	14415
848.65	14423
848.786	14442
848.921	14469
849.057	14674
849.192	14617
849.328	14533
849.463	14396
849.598	14309
849.734	14465
849.869	14233
850.004	14252
850.14	14313
850.275	14259
850.41	14202
850.545	14202
850.68	14237
850.815	14244
850.95	14263
851.085	14381
851.22	14377
851.355	14237
851.49	14210
851.625	14187
851.76	14183
851.895	14210
852.03	14172
852.165	14218
852.299	14305
852.434	14362
852.569	14317
852.703	14206
852.838	14252
852.973	14415
853.107	14358
853.242	14195
853.376	14157
853.511	13967
853.645	14035
853.78	14229
853.914	14229
854.048	14111
854.183	14077
854.317	14065
854.451	14362
854.585	14092
854.72	14050
854.854	14115
854.988	13989
855.122	14031
855.256	14046
855.39	14142
855.524	14252
855.658	14077
855.792	14103
855.926	14271
856.06	14138
856.194	14278
856.327	14202
856.461	14065
856.595	13989
856.729	14191
856.862	14142
856.996	14024
857.13	14073
857.263	14259
857.397	14271
857.53	14138
857.664	14271
857.797	14214
857.931	14233
858.064	14225
858.197	14134
858.331	14084
858.464	14062
858.597	14062
858.731	14081
858.864	14100
858.997	14126
859.13	14206
859.263	14050
859.396	14088
859.529	14062
859.662	14084
859.795	14046
859.928	14142
860.061	14187
860.194	14324
860.327	14126
860.46	14103
860.592	14187
860.725	14267
860.858	14191
860.99	14157
861.123	14008
861.256	14111
861.388	14172
861.521	14830
861.653	14008
861.786	13970
861.918	13986
862.05	13955
862.183	14062
862.315	14164
862.447	14058
862.58	14054
862.712	13852
862.844	13826
862.976	14031
863.108	13879
863.24	14278
863.372	13852
863.504	13967
863.636	13807
863.768	13864
863.9	13932
864.032	13887
864.164	13879
864.296	13875
864.428	13970
864.559	13913
864.691	13974
864.823	13944
864.954	13963
865.086	14016
865.217	13826
865.349	13917
865.48	13860
865.612	13822
865.743	13978
865.875	13875
866.006	13932
866.137	13894
866.269	13925
866.4	13784
866.531	13700
866.662	13890
866.793	13849
866.924	13837
867.055	13856
867.186	13883
867.317	13833
867.448	13765
867.579	13894
867.71	13898
867.841	13849
867.972	13913
868.103	13826
868.233	13925
868.364	13841
868.495	13925
868.625	14168
868.756	14233
868.886	14100
869.017	14096
869.147	14237
869.278	14221
869.408	14115
869.539	14107
869.669	14275
869.799	14115
869.929	14172
870.06	14317
870.19	14370
870.32	14434
870.45	14511
870.58	14549
870.71	14712
870.84	14598
870.97	14583
871.1	14545
871.23	14758
871.36	14716
871.489	14606
871.619	14644
871.749	14796
871.879	14750
872.008	14815
872.138	14708
872.267	14762
872.397	14640
872.526	14579
872.656	14629
872.785	14579
872.915	14777
873.044	14826
873.173	14773
873.303	14743
873.432	14815
873.561	14914
873.69	14815
873.819	14834
873.948	14906
874.077	14853
874.206	14796
874.335	14781
874.464	14982
874.593	15097
874.722	15020
874.851	15146
874.979	15195
875.108	15218
875.237	15055
875.365	15028
875.494	15165
875.623	15252
875.751	15161
875.88	15119
876.008	15260
876.136	15279
876.265	15530
876.393	15694
876.521	15591
876.65	15614
876.778	15488
876.906	15485
877.034	15515
877.162	15466
877.29	15515
877.418	15549
877.546	15507
877.674	15481
877.802	15450
877.93	15534
878.058	15462
878.185	15424
878.313	15488
878.441	15515
878.568	15458
878.696	15477
878.824	15580
878.951	15591
879.079	15709
879.206	15701
879.333	15648
879.461	15488
879.588	15606
879.715	15785
879.842	15785
879.97	15557
880.097	15355
880.224	15275
880.351	15420
880.478	15336
880.605	15336
880.732	15431
880.859	15690
880.986	15359
881.112	15443
881.239	15344
881.366	15184
881.493	15150
881.619	15051
881.746	15070
881.872	15108
881.999	15074
882.125	15039
882.252	15165
882.378	15001
882.505	15214
882.631	14990
882.757	14948
882.883	14902
883.01	14864
883.136	14823
883.262	14712
883.388	14716
883.514	14807
883.64	14872
883.766	14792
883.892	14571
884.018	14758
884.143	14929
884.269	15020
884.395	14610
884.52	14545
884.646	14511
884.772	14442
884.897	14568
885.023	14556
885.148	14636
885.274	14735
885.399	14594
885.524	14492
885.65	14579
885.775	14579
885.9	14610
886.025	14617
886.15	14587
886.275	14575
886.4	14419
886.525	14651
886.65	14461
886.775	14457
886.9	14712
887.025	14773
887.149	14560
887.274	14370
887.399	14313
887.523	14294
887.648	14286
887.773	14324
887.897	14419
888.021	14419
888.146	14320
888.27	14465
888.395	14556
888.519	14480
888.643	14347
888.767	14454
888.891	14305
889.015	14248
889.139	14294
889.263	14240
889.387	14366
889.511	14412
889.635	14324
889.759	14252
889.883	14298
890.006	14358
890.13	14381
890.254	14168
890.377	14210
890.501	14031
890.624	14073
890.748	14138
890.871	14024
890.995	13906
891.118	13887
891.241	14012
891.364	13993
891.488	14115
891.611	13913
891.734	14031
891.857	14084
891.98	13936
892.103	13951
892.226	13989
892.349	13879
892.471	13818
892.594	13852
892.717	13917
892.839	13974
892.962	13993
893.085	14081
893.207	13947
893.33	13860
893.452	13837
893.575	14100
893.697	13909
893.819	14142
893.941	14225
894.064	14153
894.186	14001
894.308	13913
894.43	14115
894.552	14202
894.674	14103
894.796	13925
894.918	14062
895.04	13955
895.161	14043
895.283	14107
895.405	14031
895.526	14096
895.648	14164
895.769	14073
895.891	14172
896.012	14176
896.134	14183
896.255	14172
896.376	14164
896.498	14202
896.619	14183
896.74	14119
896.861	14176
896.982	14533
897.103	14613
897.224	14530
897.345	14358
897.466	14313
897.587	14473
897.708	14495
897.828	14579
897.949	14370
898.07	14237
898.19	14370
898.311	14564
898.431	14431
898.552	14469
898.672	14556
898.792	14560
898.913	14400
899.033	14446
899.153	14324
899.273	14271
899.393	14294
899.513	14385
899.633	14305
899.753	14396
899.873	14305
899.993	14461
900.113	14282
900.232	14438
900.352	14309
900.472	14290
900.591	14138
900.711	14145
900.83	14115
900.95	14298
901.069	14423
901.189	14256
901.308	13879
901.427	13830
901.546	13856
901.665	13963
901.784	13875
901.904	13769
902.023	13670
902.141	13392
902.26	13563
902.379	13506
902.498	13472
902.617	13403
902.735	13422
902.854	13434
902.973	13396
903.091	13046
903.21	13110
903.328	13168
903.446	13202
903.565	12958
903.683	13046
903.801	13004
903.919	12943
904.038	13015
904.156	12859
904.274	12871
904.392	12833
904.51	12825
904.627	12760
904.745	12890
904.863	12901
904.981	12650
905.098	12467
905.216	12570
905.334	12547
905.451	12551
905.569	12426
905.686	12612
905.803	12502
905.921	12365
906.038	12486
906.155	12346
906.272	12216
906.389	12235
906.506	12213
906.623	12194
906.74	12171
906.857	12095
906.974	12060
907.091	12224
907.208	12270
907.324	12133
907.441	12022
907.557	11973
907.674	11961
907.79	11813
907.907	11870
908.023	12003
908.139	11874
908.256	11851
908.372	11786
908.488	11779
908.604	11703
908.72	11535
908.836	11695
908.952	11551
909.068	11634
909.184	11779
909.3	11577
909.415	11794
909.531	11585
909.647	11410
909.762	11368
909.878	11421
909.993	11440
910.108	11402
910.224	11410
910.339	11444
910.454	11265
910.57	11273
910.685	11201
910.8	11463
910.915	11391
911.03	11277
911.145	11102
911.259	11105
911.374	11147
911.489	11018
911.604	10987
911.718	10877
911.833	10942
911.947	10816
912.062	10702
912.176	10866
912.291	10915
912.405	10885
912.519	10968
912.633	11121
912.748	10942
912.862	10881
912.976	10793
913.09	10588
913.204	10702
913.318	10774
913.431	10923
913.545	10877
913.659	10896
913.772	10782
913.886	10656
914	10615
914.113	10706
914.226	10748
914.34	10691
914.453	10596
914.566	10668
914.68	10561
914.793	10599
914.906	10413
915.019	10382
915.132	10337
915.245	10379
915.358	10402
915.47	10500
915.583	10303
915.696	10466
915.809	10512
915.921	10573
916.034	10394
916.146	10284
916.259	10329
916.371	10402
916.483	10333
916.595	10249
916.708	10329
916.82	10333
916.932	10367
917.044	10371
917.156	10238
917.268	10173
917.38	10158
917.491	10185
917.603	10234
917.715	10291
917.826	10268
917.938	10249
918.049	10147
918.161	10200
918.272	10375
918.384	10424
918.495	10253
918.606	10166
918.717	9979
918.828	10090
918.939	10158
919.05	10040
919.161	10071
919.272	9892
919.383	10040
919.494	10249
919.604	10367
919.715	10090
919.826	10048
919.936	10116
920.047	10154
920.157	10143
920.267	10367
920.378	10135
920.488	10112
920.598	10337
920.708	10428
920.818	10265
920.928	10295
921.038	10573
921.148	10455
921.258	10192
921.368	10006
921.477	9972
921.587	9922
921.697	9835
921.806	10059
921.916	9873
922.025	9679
922.134	9625
922.244	9625
922.353	9698
922.462	9534
922.571	9481
922.68	9511
922.789	9351
922.898	9367
923.007	9222
923.116	9363
923.224	9382
923.333	9428
923.442	9256
923.55	9279
923.659	9317
923.767	9264
923.876	9268
923.984	9207
924.092	9154
924.201	9260
924.309	9264
924.417	9230
924.525	9291
924.633	9192
924.741	10093
924.849	8990
924.956	9165
925.064	9028
925.172	8895
925.279	8971
925.387	9055
925.494	8990
925.602	9100
925.709	9093
925.816	8994
925.924	9062
926.031	9116
926.138	9062
926.245	9100
926.352	8960
926.459	9055
926.566	9146
926.673	9047
926.779	8918
926.886	8899
926.993	8815
927.099	8788
927.206	8697
927.312	8629
927.419	8819
927.525	8792
927.631	8842
927.737	8655
927.843	8708
927.95	8545
928.056	8686
928.162	8667
928.267	8708
928.373	9237
928.479	8735
928.585	8503
928.69	8533
928.796	8670
928.901	8514
929.007	8404
929.112	8583
929.218	8495
929.323	8465
929.428	8473
929.533	8571
929.638	8377
929.743	8442
929.848	8590
929.953	8492
930.058	8404
930.163	8259
930.267	8244
930.372	8434
930.477	8168
930.581	8530
930.685	8271
930.79	8206
930.894	8256
930.998	8161
931.103	8328
931.207	7936
931.311	7940
931.415	7856
931.519	7647
931.623	7708
