Data from test_V78500241_3311.txt Node
Date: Fri Mar 25 14:56:46 CST 2022
User: usil
Spectrometer: V785-0024
Trigger mode: 0
Integration Time (sec): 4.000000E-1
Scans to average: 1
Nonlinearity correction enabled: false
Boxcar width: 0
Storing dark spectrum: false
XAxis mode: Wavelengths
Number of Pixels in Spectrum: 1024
>>>>>Begin Spectral Data<<<<<
801.071	21956
801.214	21842
801.356	21606
801.499	21622
801.641	21302
801.783	21325
801.926	21412
802.068	21287
802.211	21218
802.353	21089
802.496	20857
802.638	20716
802.78	20716
802.923	20739
803.065	20575
803.208	20655
803.35	20804
803.492	20823
803.635	20804
803.777	20632
803.919	20731
804.061	21058
804.204	20663
804.346	20514
804.488	20583
804.63	20617
804.773	20636
804.915	20530
805.057	20701
805.199	20469
805.341	20537
805.483	20629
805.626	20518
805.768	20526
805.91	20495
806.052	20514
806.194	20514
806.336	20575
806.478	20617
806.62	20545
806.762	20537
806.904	20815
807.046	21028
807.188	20902
807.33	20906
807.472	20883
807.614	20804
807.756	20849
807.898	20621
808.04	20625
808.182	20648
808.324	20674
808.465	20609
808.607	20952
808.749	20963
808.891	20986
809.033	21074
809.174	21017
809.316	20883
809.458	20845
809.6	20830
809.741	20998
809.883	21074
810.025	21089
810.166	21081
810.308	21123
810.45	20990
810.591	20876
810.733	20838
810.875	20716
811.016	20625
811.158	20594
811.299	20823
811.441	20952
811.582	20868
811.724	20655
811.865	20636
812.007	20705
812.148	20621
812.29	20682
812.431	20838
812.573	21017
812.714	21074
812.855	21173
812.997	21252
813.138	21378
813.279	21252
813.421	21157
813.562	21211
813.703	21020
813.845	20781
813.986	20518
814.127	20454
814.268	20389
814.41	20305
814.551	20275
814.692	20332
814.833	20122
814.974	20145
815.115	20168
815.256	20031
815.397	20218
815.539	20122
815.68	19978
815.821	19887
815.962	19967
816.103	19944
816.244	19765
816.385	19704
816.526	19715
816.666	19472
816.807	19327
816.948	19495
817.089	19487
817.23	19426
817.371	19441
817.512	19411
817.653	19301
817.793	19400
817.934	19388
818.075	19419
818.216	19350
818.356	19285
818.497	19206
818.638	19084
818.778	19076
818.919	19031
819.06	19126
819.2	19023
819.341	19354
819.481	19335
819.622	19350
819.762	19559
819.903	19586
820.043	19354
820.184	19449
820.324	19270
820.465	19350
820.605	19400
820.746	19297
820.886	19251
821.026	19346
821.167	19266
821.307	19350
821.447	19168
821.588	19213
821.728	18947
821.868	18871
822.008	18852
822.149	18802
822.289	18677
822.429	18445
822.569	18540
822.709	18418
822.849	18300
822.99	18304
823.13	18342
823.27	18186
823.41	18129
823.55	17961
823.69	18125
823.83	18026
823.97	18045
824.11	17847
824.25	17855
824.389	17889
824.529	17935
824.669	17836
824.809	17939
824.949	17885
825.089	17874
825.228	17893
825.368	17718
825.508	17665
825.648	17589
825.787	17718
825.927	17741
826.067	17539
826.206	17554
826.346	17748
826.485	17729
826.625	17554
826.765	17707
826.904	17687
827.044	17379
827.183	17402
827.323	17277
827.462	17398
827.601	17353
827.741	17246
827.88	17220
828.02	17143
828.159	17307
828.298	17364
828.437	17467
828.577	17155
828.716	17341
828.855	17273
828.994	17151
829.134	17067
829.273	17052
829.412	17037
829.551	17033
829.69	16881
829.829	17117
829.968	17109
830.107	17121
830.246	17094
830.385	16976
830.524	17075
830.663	16847
830.802	16641
830.941	16698
831.08	16698
831.219	16763
831.357	16820
831.496	16892
831.635	16721
831.774	16599
831.913	16672
832.051	16504
832.19	16508
832.329	16588
832.467	16413
832.606	16386
832.744	16322
832.883	16322
833.022	16352
833.16	16390
833.299	16352
833.437	16371
833.576	16363
833.714	16402
833.852	16417
833.991	16478
834.129	16561
834.267	16481
834.406	16432
834.544	16478
834.682	16421
834.821	16413
834.959	16542
835.097	16295
835.235	16504
835.373	16538
835.511	16440
835.65	16375
835.788	16272
835.926	16169
836.064	16158
836.202	16234
836.34	16265
836.478	16303
836.615	16329
836.753	16417
836.891	16371
837.029	16382
837.167	16242
837.305	16306
837.443	16280
837.58	16219
837.718	16329
837.856	16299
837.993	16226
838.131	16166
838.269	16181
838.406	16143
838.544	16116
838.681	15983
838.819	15941
838.956	15854
839.094	15713
839.231	15774
839.369	15953
839.506	16143
839.643	16051
839.781	15717
839.918	15720
840.055	15850
840.193	15713
840.33	15766
840.467	15789
840.604	15911
840.742	16006
840.879	15679
841.016	15648
841.153	15751
841.29	15911
841.427	15629
841.564	15793
841.701	15812
841.838	15743
841.975	15720
842.112	15641
842.249	15591
842.385	15511
842.522	15720
842.659	15561
842.796	15519
842.933	15584
843.069	15545
843.206	15534
843.343	15652
843.479	15572
843.616	15523
843.752	15317
843.889	15317
844.025	15580
844.162	15321
844.298	15424
844.435	15313
844.571	15260
844.708	15420
844.844	15538
844.98	15488
845.117	15389
845.253	15313
845.389	15233
845.525	15325
845.661	15176
845.798	15112
845.934	15165
846.07	15077
846.206	15207
846.342	15268
846.478	15154
846.614	14967
846.75	14956
846.886	14880
847.022	15043
847.158	14944
847.294	14952
847.429	14902
847.565	14982
847.701	15028
847.837	14636
847.972	14655
848.108	14735
848.244	14731
848.379	14579
848.515	14484
848.65	14476
848.786	14526
848.921	14571
849.057	14613
849.192	14575
849.328	14537
849.463	14674
849.598	14530
849.734	14438
849.869	14454
850.004	14282
850.14	14355
850.275	14214
850.41	14123
850.545	14119
850.68	14332
850.815	14336
850.95	14317
851.085	14457
851.22	14374
851.355	14320
851.49	14286
851.625	14259
851.76	14278
851.895	14123
852.03	14161
852.165	14202
852.299	14290
852.434	14389
852.569	14240
852.703	14225
852.838	14358
852.973	14377
853.107	14450
853.242	14180
853.376	14142
853.511	14065
853.645	14065
853.78	14267
853.914	14168
854.048	14103
854.183	14043
854.317	14183
854.451	14328
854.585	14237
854.72	14153
854.854	14225
854.988	14107
855.122	14050
855.256	14027
855.39	14187
855.524	14328
855.658	14153
855.792	14115
855.926	14145
856.06	14176
856.194	14271
856.327	14115
856.461	14145
856.595	14100
856.729	14119
856.862	14233
856.996	14244
857.13	14267
857.263	14252
857.397	14343
857.53	14153
857.664	14187
857.797	14351
857.931	14282
858.064	14259
858.197	14244
858.331	14187
858.464	14115
858.597	14111
858.731	14138
858.864	14107
858.997	14005
859.13	14176
859.263	14126
859.396	14256
859.529	14092
859.662	14202
859.795	14172
859.928	14282
860.061	14381
860.194	14450
860.327	14126
860.46	14161
860.592	14259
860.725	14282
860.858	14199
860.99	14134
861.123	14039
861.256	14103
861.388	14126
861.521	14944
861.653	14016
861.786	13974
861.918	13974
862.05	14046
862.183	14115
862.315	14103
862.447	14263
862.58	14062
862.712	13974
862.844	13989
862.976	14035
863.108	13921
863.24	14206
863.372	13879
863.504	14043
863.636	13887
863.768	14012
863.9	13967
864.032	13879
864.164	13925
864.296	13887
864.428	14069
864.559	14073
864.691	14073
864.823	14024
864.954	13909
865.086	13894
865.217	14031
865.349	13875
865.48	13963
865.612	13951
865.743	14100
865.875	13860
866.006	13928
866.137	13967
866.269	13883
866.4	13967
866.531	13814
866.662	13852
866.793	13860
866.924	13944
867.055	13837
867.186	13970
867.317	13963
867.448	13795
867.579	13902
867.71	13799
867.841	13841
867.972	13951
868.103	13963
868.233	13982
868.364	14081
868.495	13978
868.625	14092
868.756	14233
868.886	14138
869.017	14077
869.147	14324
869.278	14343
869.408	14210
869.539	14259
869.669	14301
869.799	14142
869.929	14240
870.06	14199
870.19	14526
870.32	14476
870.45	14556
870.58	14655
870.71	14648
870.84	14667
870.97	14571
871.1	14583
871.23	14826
871.36	14746
871.489	14663
871.619	14750
871.749	14785
871.879	14800
872.008	14845
872.138	14682
872.267	14899
872.397	14651
872.526	14587
872.656	14590
872.785	14610
872.915	14746
873.044	14887
873.173	14758
873.303	14872
873.432	14845
873.561	14948
873.69	14788
873.819	14746
873.948	14956
874.077	14899
874.206	14765
874.335	14899
874.464	14906
874.593	15157
874.722	14944
874.851	15161
874.979	15116
875.108	15173
875.237	15077
875.365	15043
875.494	15104
875.623	15195
875.751	15142
875.88	15306
876.008	15268
876.136	15374
876.265	15564
876.393	15759
876.521	15610
876.65	15648
876.778	15625
876.906	15637
877.034	15507
877.162	15523
877.29	15424
877.418	15564
877.546	15587
877.674	15526
877.802	15534
877.93	15606
878.058	15454
878.185	15469
878.313	15557
878.441	15523
878.568	15397
878.696	15424
878.824	15587
878.951	15637
879.079	15705
879.206	15956
879.333	15724
879.461	15675
879.588	15633
879.715	15690
879.842	15835
879.97	15629
880.097	15450
880.224	15428
880.351	15462
880.478	15405
880.605	15355
880.732	15382
880.859	15679
880.986	15526
881.112	15458
881.239	15325
881.366	15218
881.493	15100
881.619	15039
881.746	15131
881.872	15028
881.999	15039
882.125	15036
882.252	15077
882.378	15081
882.505	15188
882.631	15058
882.757	14914
882.883	15005
883.01	14910
883.136	14819
883.262	14758
883.388	14686
883.514	14891
883.64	14830
883.766	14811
883.892	14613
884.018	14804
884.143	14887
884.269	14963
884.395	14659
884.52	14518
884.646	14625
884.772	14476
884.897	14454
885.023	14613
885.148	14697
885.274	14716
885.399	14727
885.524	14537
885.65	14590
885.775	14621
885.9	14568
886.025	14701
886.15	14670
886.275	14484
886.4	14423
886.525	14610
886.65	14518
886.775	14579
886.9	14689
887.025	14845
887.149	14644
887.274	14415
887.399	14454
887.523	14377
887.648	14427
887.773	14332
887.897	14393
888.021	14503
888.146	14358
888.27	14522
888.395	14697
888.519	14450
888.643	14503
888.767	14495
888.891	14381
889.015	14225
889.139	14305
889.263	14233
889.387	14313
889.511	14434
889.635	14530
889.759	14370
889.883	14396
890.006	14351
890.13	14530
890.254	14199
890.377	14259
890.501	14058
890.624	14130
890.748	14096
890.871	14092
890.995	13982
891.118	13890
891.241	14054
891.364	14031
891.488	14069
891.611	13955
891.734	13944
891.857	13959
891.98	14031
892.103	14100
892.226	14035
892.349	13993
892.471	13906
892.594	13921
892.717	13978
892.839	13947
892.962	13989
893.085	14096
893.207	13982
893.33	13894
893.452	13974
893.575	14031
893.697	13925
893.819	14096
893.941	14199
894.064	14107
894.186	13982
894.308	13970
894.43	14134
894.552	14183
894.674	14111
894.796	13909
894.918	14054
895.04	14058
895.161	14199
895.283	14176
895.405	14096
895.526	14096
895.648	14111
895.769	14062
895.891	14107
896.012	14176
896.134	14199
896.255	14199
896.376	14176
896.498	14218
896.619	14176
896.74	14115
896.861	14248
896.982	14499
897.103	14644
897.224	14541
897.345	14438
897.466	14385
897.587	14423
897.708	14602
897.828	14514
897.949	14457
898.07	14305
898.19	14431
898.311	14560
898.431	14438
898.552	14549
898.672	14594
898.792	14678
898.913	14651
899.033	14404
899.153	14427
899.273	14229
899.393	14347
899.513	14412
899.633	14415
899.753	14362
899.873	14347
899.993	14526
900.113	14305
900.232	14450
900.352	14366
900.472	14343
900.591	14237
900.711	14237
900.83	14187
900.95	14396
901.069	14290
901.189	14195
901.308	13947
901.427	13860
901.546	13932
901.665	13906
901.784	13963
901.904	13921
902.023	13719
902.141	13563
902.26	13521
902.379	13575
902.498	13472
902.617	13487
902.735	13495
902.854	13518
902.973	13453
903.091	13202
903.21	13206
903.328	13194
903.446	13152
903.565	13084
903.683	13046
903.801	13004
903.919	12947
904.038	13004
904.156	12848
904.274	12966
904.392	12882
904.51	12875
904.627	12894
904.745	12913
904.863	12909
904.981	12677
905.098	12490
905.216	12593
905.334	12555
905.451	12544
905.569	12585
905.686	12597
905.803	12559
905.921	12296
906.038	12517
906.155	12475
906.272	12304
906.389	12353
906.506	12220
906.623	12087
906.74	12178
906.857	12041
906.974	12076
907.091	12243
907.208	12273
907.324	12277
907.441	12076
907.557	11904
907.674	11878
907.79	11950
907.907	11977
908.023	11988
908.139	11969
908.256	11802
908.372	11802
908.488	11786
908.604	11733
908.72	11646
908.836	11672
908.952	11623
909.068	11646
909.184	11863
909.3	11718
909.415	11688
909.531	11627
909.647	11490
909.762	11474
909.878	11398
909.993	11474
910.108	11501
910.224	11436
910.339	11554
910.454	11303
910.57	11242
910.685	11181
910.8	11482
910.915	11440
911.03	11315
911.145	11258
911.259	11090
911.374	11132
911.489	11037
911.604	11025
911.718	10957
911.833	10946
911.947	10771
912.062	10694
912.176	10854
912.291	10835
912.405	10847
912.519	11083
912.633	11075
912.748	11033
912.862	10938
912.976	10763
913.09	10740
913.204	10755
913.318	10824
913.431	10904
913.545	10828
913.659	10839
913.772	10850
913.886	10706
914	10596
914.113	10820
914.226	10759
914.34	10771
914.453	10546
914.566	10660
914.68	10687
914.793	10573
914.906	10379
915.019	10352
915.132	10409
915.245	10421
915.358	10462
915.47	10421
915.583	10421
915.696	10489
915.809	10538
915.921	10561
916.034	10413
916.146	10402
916.259	10348
916.371	10497
916.483	10508
916.595	10352
916.708	10375
916.82	10413
916.932	10318
917.044	10287
917.156	10333
917.268	10177
917.38	10253
917.491	10200
917.603	10246
917.715	10352
917.826	10356
917.938	10200
918.049	10166
918.161	10215
918.272	10375
918.384	10314
918.495	10287
918.606	10109
918.717	10090
918.828	10169
918.939	10120
919.05	10044
919.161	10135
919.272	9903
919.383	10013
919.494	10211
919.604	10337
919.715	10227
919.826	10025
919.936	10116
920.047	10276
920.157	10101
920.267	10363
920.378	10162
920.488	10124
920.598	10329
920.708	10500
920.818	10409
920.928	10360
921.038	10447
921.148	10451
921.258	10211
921.368	10105
921.477	10032
921.587	10067
921.697	9907
921.806	10078
921.916	9922
922.025	9720
922.134	9720
922.244	9606
922.353	9728
922.462	9538
922.571	9500
922.68	9408
922.789	9443
922.898	9485
923.007	9428
923.116	9500
923.224	9412
923.333	9351
923.442	9329
923.55	9302
923.659	9272
923.767	9370
923.876	9279
923.984	9306
924.092	9199
924.201	9313
924.309	9272
924.417	9298
924.525	9131
924.633	9283
924.741	10147
924.849	9032
924.956	9207
925.064	9032
925.172	8956
925.279	9074
925.387	9093
925.494	8994
925.602	9211
925.709	9161
925.816	8971
925.924	9058
926.031	9161
926.138	9051
926.245	9142
926.352	8967
926.459	9127
926.566	9165
926.673	9062
926.779	8952
926.886	8956
926.993	8800
927.099	8731
927.206	8724
927.312	8720
927.419	8861
927.525	8800
927.631	8823
927.737	8640
927.843	8720
927.95	8518
928.056	8629
928.162	8708
928.267	8750
928.373	9378
928.479	8781
928.585	8503
928.69	8640
928.796	8663
928.901	8682
929.007	8454
929.112	8598
929.218	8556
929.323	8552
929.428	8480
929.533	8670
929.638	8332
929.743	8476
929.848	8564
929.953	8442
930.058	8423
930.163	8180
930.267	8286
930.372	8377
930.477	8206
930.581	8537
930.685	8343
930.79	8275
930.894	8290
930.998	8199
931.103	8408
931.207	8008
931.311	7959
931.415	7909
931.519	7715
931.623	7742
