Data from test_V78500241_159.txt Node
Date: Fri Mar 25 14:34:49 CST 2022
User: usil
Spectrometer: V785-0024
Trigger mode: 0
Integration Time (sec): 4.000000E-1
Scans to average: 1
Nonlinearity correction enabled: false
Boxcar width: 0
Storing dark spectrum: false
XAxis mode: Wavelengths
Number of Pixels in Spectrum: 1024
>>>>>Begin Spectral Data<<<<<
801.071	29322
801.214	29334
801.356	28942
801.499	28987
801.641	28896
801.783	28801
801.926	28801
802.068	28698
802.211	28687
802.353	28527
802.496	28546
802.638	28421
802.78	28314
802.923	28333
803.065	28215
803.208	28394
803.35	28211
803.492	28417
803.635	28375
803.777	28443
803.919	28459
804.061	28752
804.204	28447
804.346	28390
804.488	28405
804.63	28280
804.773	28303
804.915	28516
805.057	28508
805.199	28542
805.341	28630
805.483	28675
805.626	28512
805.768	28584
805.91	28542
806.052	28759
806.194	28672
806.336	28881
806.478	28786
806.62	28812
806.762	28927
806.904	29117
807.046	29535
807.188	29360
807.33	29486
807.472	29638
807.614	29748
807.756	29874
807.898	30129
808.04	30490
808.182	30973
808.324	31700
808.465	32237
808.607	33161
808.749	33823
808.891	34295
809.033	34337
809.174	33812
809.316	33036
809.458	32248
809.6	31510
809.741	30958
809.883	30707
810.025	30498
810.166	30334
810.308	29954
810.45	29714
810.591	29634
810.733	29455
810.875	29284
811.016	29124
811.158	29041
811.299	29265
811.441	29296
811.582	29200
811.724	29033
811.865	29029
812.007	29102
812.148	28888
812.29	28930
812.431	29250
812.573	29383
812.714	29330
812.855	29330
812.997	29539
813.138	29551
813.279	29531
813.421	29410
813.562	29368
813.703	29117
813.845	29041
813.986	28812
814.127	28679
814.268	28493
814.41	28462
814.551	28405
814.692	28516
814.833	28371
814.974	28287
815.115	28432
815.256	28253
815.397	28356
815.539	28234
815.68	28097
815.821	27960
815.962	28124
816.103	28139
816.244	27888
816.385	27869
816.526	27781
816.666	27568
816.807	27538
816.948	27549
817.089	27485
817.23	27580
817.371	27488
817.512	27340
817.653	27450
817.793	27355
817.934	27393
818.075	27496
818.216	27393
818.356	27367
818.497	27226
818.638	27207
818.778	27207
818.919	27096
819.06	27294
819.2	27233
819.341	27272
819.481	27515
819.622	27519
819.762	27599
819.903	27424
820.043	27462
820.184	27298
820.324	27378
820.465	27359
820.605	27439
820.746	27249
820.886	27176
821.026	27317
821.167	27165
821.307	27340
821.447	27283
821.588	27051
821.728	26998
821.868	26697
822.008	26667
822.149	26564
822.289	26636
822.429	26446
822.569	26343
822.709	26305
822.849	26157
822.99	26199
823.13	26096
823.27	26046
823.41	25986
823.55	25852
823.69	25993
823.83	25970
823.97	25761
824.11	25586
824.25	25620
824.389	25708
824.529	25864
824.669	25620
824.809	25791
824.949	25822
825.089	25734
825.228	25700
825.368	25544
825.508	25582
825.648	25464
825.787	25586
825.927	25434
826.067	25476
826.206	25384
826.346	25609
826.485	25365
826.625	25457
826.765	25578
826.904	25491
827.044	25388
827.183	25209
827.323	25190
827.462	25301
827.601	25088
827.741	25168
827.88	25152
828.02	25046
828.159	25126
828.298	25000
828.437	25122
828.577	25080
828.716	25152
828.855	25141
828.994	24890
829.134	24951
829.273	24795
829.412	24696
829.551	24593
829.69	24810
829.829	24806
829.968	24810
830.107	24837
830.246	24764
830.385	24829
830.524	24661
830.663	24559
830.802	24517
830.941	24357
831.08	24304
831.219	24391
831.357	24407
831.496	24555
831.635	24330
831.774	24163
831.913	24300
832.051	24197
832.19	24018
832.329	24152
832.467	24045
832.606	24068
832.744	23980
832.883	24064
833.022	24133
833.16	24076
833.299	24178
833.437	24144
833.576	24209
833.714	24129
833.852	24254
833.991	24273
834.129	24399
834.267	24216
834.406	24266
834.544	24224
834.682	24190
834.821	24148
834.959	24391
835.097	24098
835.235	24098
835.373	24026
835.511	23931
835.65	23851
835.788	23802
835.926	23733
836.064	23604
836.202	23684
836.34	23794
836.478	23946
836.615	23786
836.753	23752
836.891	23923
837.029	23779
837.167	23790
837.305	23619
837.443	23653
837.58	23627
837.718	23566
837.856	23592
837.993	23467
838.131	23497
838.269	23535
838.406	23524
838.544	23414
838.681	23307
838.819	23303
838.956	23159
839.094	22961
839.231	22946
839.369	23143
839.506	23391
839.643	23166
839.781	22987
839.918	22968
840.055	22987
840.193	22976
840.33	22972
840.467	22873
840.604	22854
840.742	23067
840.879	22748
841.016	22790
841.153	22710
841.29	22896
841.427	22877
841.564	22858
841.701	22892
841.838	22729
841.975	22668
842.112	22687
842.249	22706
842.385	22668
842.522	22809
842.659	22565
842.796	22675
842.933	22656
843.069	22630
843.206	22504
843.343	22561
843.479	22649
843.616	22767
843.752	22516
843.889	22348
844.025	22500
844.162	22344
844.298	22519
844.435	22432
844.571	22497
844.708	22523
844.844	22725
844.98	22740
845.117	23006
845.253	23006
845.389	23200
845.525	24053
845.661	25324
845.798	26864
845.934	28002
846.07	28508
846.206	28188
846.342	27374
846.478	25875
846.614	24403
846.75	23284
846.886	22763
847.022	22481
847.158	22333
847.294	22181
847.429	22013
847.565	21827
847.701	22147
847.837	21663
847.972	21637
848.108	21629
848.244	21526
848.379	21481
848.515	21348
848.65	21370
848.786	21367
848.921	21340
849.057	21389
849.192	21458
849.328	21344
849.463	21237
849.598	21367
849.734	21363
849.869	21207
850.004	21085
850.14	21112
850.275	21123
850.41	21036
850.545	21036
850.68	21020
850.815	21013
850.95	20979
851.085	21214
851.22	21058
851.355	20975
851.49	20960
851.625	20963
851.76	21036
851.895	20842
852.03	20956
852.165	20876
852.299	20910
852.434	21135
852.569	20948
852.703	20967
852.838	21089
852.973	21241
853.107	21157
853.242	21062
853.376	20857
853.511	20708
853.645	20963
853.78	21058
853.914	20880
854.048	20887
854.183	20937
854.317	21009
854.451	21074
854.585	20857
854.72	20902
854.854	20914
854.988	20800
855.122	20861
855.256	20819
855.39	20887
855.524	20895
855.658	20956
855.792	20941
855.926	20857
856.06	20868
856.194	20990
856.327	20807
856.461	20815
856.595	20743
856.729	20750
856.862	20982
856.996	20773
857.13	20788
857.263	20895
857.397	20864
857.53	20792
857.664	20838
857.797	20788
857.931	20807
858.064	20830
858.197	20975
858.331	20758
858.464	20693
858.597	20648
858.731	20640
858.864	20693
858.997	20750
859.13	20788
859.263	20705
859.396	20815
859.529	20640
859.662	20640
859.795	20644
859.928	20651
860.061	20880
860.194	20910
860.327	20727
860.46	20686
860.592	20834
860.725	20842
860.858	20807
860.99	20587
861.123	20594
861.256	20663
861.388	20602
861.521	21393
861.653	20480
861.786	20568
861.918	20625
862.05	20648
862.183	20621
862.315	20663
862.447	20750
862.58	20636
862.712	20415
862.844	20343
862.976	20648
863.108	20351
863.24	20842
863.372	20358
863.504	20434
863.636	20446
863.768	20503
863.9	20320
864.032	20317
864.164	20362
864.296	20412
864.428	20560
864.559	20465
864.691	20408
864.823	20450
864.954	20324
865.086	20244
865.217	20389
865.349	20187
865.48	20301
865.612	20381
865.743	20393
865.875	20377
866.006	20336
866.137	20301
866.269	20313
866.4	20237
866.531	20183
866.662	20180
866.793	20298
866.924	20202
867.055	20126
867.186	20161
867.317	20134
867.448	20145
867.579	20069
867.71	20058
867.841	20153
867.972	20130
868.103	20267
868.233	20180
868.364	20328
868.495	20370
868.625	20415
868.756	20465
868.886	20370
869.017	20530
869.147	20564
869.278	20629
869.408	20374
869.539	20446
869.669	20594
869.799	20366
869.929	20552
870.06	20526
870.19	20754
870.32	20689
870.45	20929
870.58	20773
870.71	20914
870.84	20910
870.97	20918
871.1	20781
871.23	20967
871.36	21066
871.489	20982
871.619	20956
871.749	21036
871.879	21036
872.008	21154
872.138	21119
872.267	21142
872.397	20994
872.526	20918
872.656	20918
872.785	20849
872.915	21058
873.044	21230
873.173	21150
873.303	21127
873.432	21138
873.561	21306
873.69	21154
873.819	21070
873.948	21188
874.077	21142
874.206	21161
874.335	21214
874.464	21211
874.593	21329
874.722	21408
874.851	21542
874.979	21553
875.108	21378
875.237	21412
875.365	21264
875.494	21401
875.623	21633
875.751	21473
875.88	21511
876.008	21618
876.136	21778
876.265	21937
876.393	21941
876.521	22010
876.65	22032
876.778	22017
876.906	21979
877.034	21907
877.162	22021
877.29	21979
877.418	22101
877.546	22135
877.674	21987
877.802	22131
877.93	22124
878.058	22032
878.185	22139
878.313	22246
878.441	22402
878.568	22287
878.696	22432
878.824	22683
878.951	23022
879.079	23581
879.206	23923
879.333	24399
879.461	24566
879.588	25103
879.715	25072
879.842	24916
879.97	24376
880.097	23756
880.224	23303
880.351	23083
880.478	22839
880.605	22577
880.732	22611
880.859	22771
880.986	22542
881.112	22626
881.239	22440
881.366	22207
881.493	22204
881.619	22017
881.746	22097
881.872	22032
881.999	22101
882.125	22029
882.252	22082
882.378	22219
882.505	22265
882.631	22078
882.757	21983
882.883	21968
883.01	21945
883.136	21819
883.262	21789
883.388	21709
883.514	21907
883.64	21838
883.766	21800
883.892	21713
884.018	21648
884.143	21812
884.269	21922
884.395	21637
884.52	21435
884.646	21523
884.772	21553
884.897	21367
885.023	21405
885.148	21580
885.274	21736
885.399	21523
885.524	21431
885.65	21408
885.775	21382
885.9	21344
886.025	21378
886.15	21397
886.275	21226
886.4	21077
886.525	21093
886.65	21066
886.775	21051
886.9	21207
887.025	21294
887.149	21055
887.274	20826
887.399	20758
887.523	20769
887.648	20777
887.773	20632
887.897	20910
888.021	20788
888.146	20560
888.27	20750
888.395	20796
888.519	20655
888.643	20640
888.767	20602
888.891	20503
889.015	20488
889.139	20522
889.263	20408
889.387	20442
889.511	20609
889.635	20484
889.759	20355
889.883	20263
890.006	20404
890.13	20294
890.254	20225
890.377	20202
890.501	20134
890.624	20012
890.748	20138
890.871	19978
890.995	19909
891.118	19856
891.241	19875
891.364	19871
891.488	19959
891.611	19852
891.734	19887
891.857	19883
891.98	19822
892.103	19951
892.226	19871
892.349	19845
892.471	19632
892.594	19826
892.717	19811
892.839	19742
892.962	19681
893.085	19826
893.207	19757
893.33	19590
893.452	19540
893.575	19658
893.697	19696
893.819	19761
893.941	19841
894.064	19772
894.186	19609
894.308	19544
894.43	19807
894.552	19864
894.674	19769
894.796	19457
894.918	19491
895.04	19662
895.161	19776
895.283	19670
895.405	19540
895.526	19651
895.648	19635
895.769	19628
895.891	19655
896.012	19700
896.134	19727
896.255	19708
896.376	19666
896.498	19594
896.619	19639
896.74	19571
896.861	19738
896.982	19921
897.103	20092
897.224	19993
897.345	19830
897.466	19841
897.587	19898
897.708	19864
897.828	19925
897.949	19837
898.07	19582
898.19	19712
898.311	19921
898.431	19693
898.552	19746
898.672	19932
898.792	19864
898.913	19780
899.033	19734
899.153	19696
899.273	19575
899.393	19605
899.513	19613
899.633	19624
899.753	19647
899.873	19605
899.993	19491
900.113	19510
900.232	19571
900.352	19445
900.472	19411
900.591	19308
900.711	19426
900.83	19388
900.95	19483
901.069	19525
901.189	19384
901.308	19034
901.427	18962
901.546	18954
901.665	19031
901.784	19015
901.904	18837
902.023	18852
902.141	18528
902.26	18566
902.379	18528
902.498	18498
902.617	18498
902.735	18422
902.854	18346
902.973	18285
903.091	18121
903.21	18057
903.328	18072
903.446	17996
903.565	17923
903.683	17843
903.801	17836
903.919	17821
904.038	17866
904.156	17691
904.274	17729
904.392	17566
904.51	17589
904.627	17577
904.745	17577
904.863	17733
904.981	17482
905.098	17436
905.216	17258
905.334	17395
905.451	17235
905.569	17299
905.686	17337
905.803	17258
905.921	17067
906.038	17090
906.155	17048
906.272	16976
906.389	16957
906.506	16763
906.623	16683
906.74	16790
906.857	16752
906.974	16774
907.091	16877
907.208	16809
907.324	16843
907.441	16736
907.557	16481
907.674	16470
907.79	16519
907.907	16356
908.023	16493
908.139	16417
908.256	16424
908.372	16333
908.488	16230
908.604	16211
908.72	16105
908.836	16112
908.952	16025
909.068	16116
909.184	16276
909.3	15987
909.415	16086
909.531	16105
909.647	15865
909.762	15812
909.878	15804
909.993	15831
910.108	15854
910.224	15717
910.339	15766
910.454	15724
910.57	15694
910.685	15564
910.8	15728
910.915	15831
911.03	15644
911.145	15462
911.259	15412
911.374	15412
911.489	15321
911.604	15313
911.718	15207
911.833	15169
911.947	14994
912.062	14963
912.176	15112
912.291	15146
912.405	15104
912.519	15382
912.633	15435
912.748	15207
912.862	15135
912.976	15009
913.09	14872
913.204	14899
913.318	15017
913.431	15097
913.545	14990
913.659	15093
913.772	14918
913.886	14800
914	14785
914.113	14819
914.226	14967
914.34	14933
914.453	14670
914.566	14891
914.68	14762
914.793	14724
914.906	14526
915.019	14469
915.132	14278
915.245	14434
915.358	14419
915.47	14473
915.583	14450
915.696	14511
915.809	14568
915.921	14537
916.034	14427
916.146	14286
916.259	14301
916.371	14442
916.483	14385
916.595	14351
916.708	14290
916.82	14324
916.932	14263
917.044	14252
917.156	14157
917.268	14031
917.38	14187
917.491	14119
917.603	14088
917.715	14187
917.826	14153
917.938	14065
918.049	13928
918.161	14069
918.272	14088
918.384	14172
918.495	13944
918.606	13921
918.717	13769
918.828	13906
918.939	13955
919.05	13780
919.161	13845
919.272	13620
919.383	13708
919.494	13894
919.604	14077
919.715	13841
919.826	13757
919.936	13814
920.047	13788
920.157	13750
920.267	13906
920.378	13761
920.488	13811
920.598	13913
920.708	14077
920.818	13818
920.928	13856
921.038	14062
921.148	13993
921.258	13723
921.368	13594
921.477	13518
921.587	13521
921.697	13365
921.806	13499
921.916	13373
922.025	13346
922.134	13156
922.244	13149
922.353	13221
922.462	13110
922.571	13038
922.68	12856
922.789	12894
922.898	12791
923.007	12829
923.116	12840
923.224	12890
923.333	12722
923.442	12673
923.55	12646
923.659	12601
923.767	12783
923.876	12612
923.984	12734
924.092	12593
924.201	12582
924.309	12593
924.417	12540
924.525	12509
924.633	12509
924.741	13422
924.849	12277
924.956	12502
925.064	12308
925.172	12281
925.279	12186
925.387	12300
925.494	12205
925.602	12433
925.709	12388
925.816	12186
925.924	12281
926.031	12342
926.138	12186
926.245	12216
926.352	12114
926.459	12289
926.566	12224
926.673	12068
926.779	12072
926.886	12015
926.993	11920
927.099	11817
927.206	11859
927.312	11752
927.419	11931
927.525	11874
927.631	11847
927.737	11733
927.843	11680
927.95	11596
928.056	11695
928.162	11691
928.267	11741
928.373	12334
928.479	11832
928.585	11554
928.69	11779
928.796	11634
928.901	11638
929.007	11414
929.112	11532
929.218	11592
929.323	11436
929.428	11452
929.533	11562
929.638	11417
929.743	11345
929.848	11501
929.953	11414
930.058	11311
930.163	11121
930.267	11121
930.372	11345
930.477	11048
930.581	11376
930.685	11204
930.79	10957
930.894	11094
930.998	11029
931.103	11166
931.207	10767
931.311	10714
931.415	10717
931.519	10470
931.623	10379
