Data from test_V78500241_2052.txt Node
Date: Fri Mar 25 14:48:00 CST 2022
User: usil
Spectrometer: V785-0024
Trigger mode: 0
Integration Time (sec): 4.000000E-1
Scans to average: 1
Nonlinearity correction enabled: false
Boxcar width: 0
Storing dark spectrum: false
XAxis mode: Wavelengths
Number of Pixels in Spectrum: 1024
>>>>>Begin Spectral Data<<<<<
801.071	22166
801.214	22032
801.356	21724
801.499	21709
801.641	21530
801.783	21431
801.926	21504
802.068	21450
802.211	21488
802.353	21332
802.496	20963
802.638	21024
802.78	20921
802.923	20811
803.065	20834
803.208	20887
803.35	20838
803.492	20785
803.635	20963
803.777	20899
803.919	20941
804.061	21173
804.204	20899
804.346	20743
804.488	20648
804.63	20864
804.773	20712
804.915	20838
805.057	20891
805.199	20712
805.341	20781
805.483	20937
805.626	20826
805.768	20674
805.91	20648
806.052	20781
806.194	20678
806.336	20914
806.478	20705
806.62	20632
806.762	20864
806.904	20921
807.046	21249
807.188	21142
807.33	21135
807.472	21116
807.614	21104
807.756	20971
807.898	20986
808.04	20712
808.182	20842
808.324	20861
808.465	20849
808.607	21100
808.749	21142
808.891	21332
809.033	21264
809.174	21165
809.316	20956
809.458	21154
809.6	21085
809.741	21214
809.883	21222
810.025	21214
810.166	21325
810.308	21367
810.45	21344
810.591	21180
810.733	20925
810.875	20921
811.016	20773
811.158	20792
811.299	20906
811.441	21085
811.582	21047
811.724	20815
811.865	20849
812.007	21024
812.148	20933
812.29	20830
812.431	21131
812.573	21207
812.714	21313
812.855	21344
812.997	21408
813.138	21686
813.279	21637
813.421	21287
813.562	21226
813.703	21013
813.845	21017
813.986	20914
814.127	20693
814.268	20423
814.41	20648
814.551	20446
814.692	20590
814.833	20419
814.974	20476
815.115	20541
815.256	20431
815.397	20263
815.539	20309
815.68	20210
815.821	20122
815.962	20138
816.103	20164
816.244	20081
816.385	19837
816.526	19849
816.666	19753
816.807	19639
816.948	19734
817.089	19776
817.23	19594
817.371	19639
817.512	19594
817.653	19605
817.793	19514
817.934	19567
818.075	19578
818.216	19734
818.356	19571
818.497	19320
818.638	19331
818.778	19225
818.919	19255
819.06	19316
819.2	19289
819.341	19518
819.481	19468
819.622	19449
819.762	19845
819.903	19734
820.043	19594
820.184	19575
820.324	19472
820.465	19586
820.605	19491
820.746	19563
820.886	19529
821.026	19567
821.167	19499
821.307	19613
821.447	19422
821.588	19392
821.728	19354
821.868	19160
822.008	18954
822.149	18973
822.289	19023
822.429	18692
822.569	18639
822.709	18555
822.849	18517
822.99	18407
823.13	18540
823.27	18494
823.41	18319
823.55	18171
823.69	18201
823.83	18353
823.97	18273
824.11	18098
824.25	18057
824.389	17973
824.529	18053
824.669	18125
824.809	18224
824.949	18087
825.089	18114
825.228	18098
825.368	17889
825.508	17855
825.648	17832
825.787	17893
825.927	17923
826.067	17821
826.206	17760
826.346	17779
826.485	17756
826.625	17775
826.765	17870
826.904	17783
827.044	17649
827.183	17604
827.323	17417
827.462	17543
827.601	17646
827.741	17410
827.88	17497
828.02	17410
828.159	17402
828.298	17551
828.437	17611
828.577	17387
828.716	17642
828.855	17512
828.994	17242
829.134	17299
829.273	17277
829.412	17231
829.551	17235
829.69	17277
829.829	17296
829.968	17372
830.107	17383
830.246	17280
830.385	17181
830.524	17174
830.663	17102
830.802	16957
830.941	16866
831.08	16873
831.219	16965
831.357	16896
831.496	17117
831.635	16839
831.774	16797
831.913	16771
832.051	16694
832.19	16691
832.329	16691
832.467	16580
832.606	16577
832.744	16554
832.883	16527
833.022	16519
833.16	16607
833.299	16596
833.437	16672
833.576	16675
833.714	16603
833.852	16649
833.991	16694
834.129	16679
834.267	16641
834.406	16622
834.544	16649
834.682	16634
834.821	16580
834.959	16752
835.097	16603
835.235	16675
835.373	16622
835.511	16672
835.65	16535
835.788	16573
835.926	16291
836.064	16219
836.202	16398
836.34	16565
836.478	16653
836.615	16535
836.753	16538
836.891	16805
837.029	16554
837.167	16466
837.305	16428
837.443	16413
837.58	16447
837.718	16584
837.856	16405
837.993	16367
838.131	16402
838.269	16299
838.406	16299
838.544	16314
838.681	16101
838.819	16090
838.956	15922
839.094	15979
839.231	15987
839.369	16147
839.506	16341
839.643	16226
839.781	15968
839.918	16002
840.055	16013
840.193	15876
840.33	15926
840.467	15926
840.604	16002
840.742	16192
840.879	15831
841.016	15739
841.153	15827
841.29	16074
841.427	15983
841.564	15987
841.701	15975
841.838	15975
841.975	15838
842.112	15842
842.249	15739
842.385	15720
842.522	15854
842.659	15743
842.796	15717
842.933	15667
843.069	15682
843.206	15660
843.343	15800
843.479	15827
843.616	15812
843.752	15545
843.889	15519
844.025	15751
844.162	15549
844.298	15595
844.435	15428
844.571	15473
844.708	15553
844.844	15675
844.98	15652
845.117	15606
845.253	15397
845.389	15443
845.525	15496
845.661	15416
845.798	15230
845.934	15317
846.07	15287
846.206	15359
846.342	15412
846.478	15329
846.614	15157
846.75	15005
846.886	15043
847.022	15237
847.158	15097
847.294	15066
847.429	15165
847.565	15085
847.701	15291
847.837	14914
847.972	14845
848.108	14967
848.244	14872
848.379	14758
848.515	14705
848.65	14651
848.786	14686
848.921	14701
849.057	14815
849.192	14777
849.328	14743
849.463	14750
849.598	14644
849.734	14610
849.869	14507
850.004	14511
850.14	14442
850.275	14484
850.41	14389
850.545	14495
850.68	14332
850.815	14473
850.95	14347
851.085	14579
851.22	14495
851.355	14438
851.49	14423
851.625	14465
851.76	14480
851.895	14412
852.03	14256
852.165	14434
852.299	14507
852.434	14530
852.569	14484
852.703	14518
852.838	14484
852.973	14606
853.107	14587
853.242	14362
853.376	14332
853.511	14248
853.645	14362
853.78	14415
853.914	14320
854.048	14309
854.183	14336
854.317	14339
854.451	14488
854.585	14358
854.72	14351
854.854	14328
854.988	14218
855.122	14229
855.256	14168
855.39	14275
855.524	14396
855.658	14347
855.792	14408
855.926	14328
856.06	14415
856.194	14415
856.327	14317
856.461	14248
856.595	14275
856.729	14362
856.862	14381
856.996	14377
857.13	14347
857.263	14465
857.397	14473
857.53	14240
857.664	14389
857.797	14434
857.931	14317
858.064	14305
858.197	14476
858.331	14408
858.464	14259
858.597	14176
858.731	14374
858.864	14298
858.997	14309
859.13	14343
859.263	14362
859.396	14366
859.529	14248
859.662	14225
859.795	14107
859.928	14339
860.061	14442
860.194	14587
860.327	14400
860.46	14396
860.592	14438
860.725	14484
860.858	14389
860.99	14301
861.123	14290
861.256	14267
861.388	14377
861.521	15138
861.653	14157
861.786	14187
861.918	14271
862.05	14229
862.183	14328
862.315	14244
862.447	14393
862.58	14259
862.712	14138
862.844	14046
862.976	14149
863.108	14202
863.24	14484
863.372	14035
863.504	14100
863.636	14073
863.768	14119
863.9	14130
864.032	14062
864.164	14035
864.296	14157
864.428	14111
864.559	14206
864.691	14259
864.823	14111
864.954	14115
865.086	14119
865.217	14065
865.349	14027
865.48	14206
865.612	14138
865.743	14210
865.875	14149
866.006	14062
866.137	14065
866.269	13993
866.4	14168
866.531	14077
866.662	14069
866.793	14016
866.924	13997
867.055	14069
867.186	14077
867.317	14027
867.448	14020
867.579	14054
867.71	14054
867.841	14005
867.972	14153
868.103	14092
868.233	14016
868.364	14092
868.495	14172
868.625	14286
868.756	14396
868.886	14298
869.017	14290
869.147	14408
869.278	14442
869.408	14396
869.539	14366
869.669	14450
869.799	14374
869.929	14473
870.06	14442
870.19	14640
870.32	14659
870.45	14648
870.58	14739
870.71	14800
870.84	14864
870.97	14777
871.1	14788
871.23	14929
871.36	14883
871.489	14910
871.619	14819
871.749	14853
871.879	14937
872.008	15055
872.138	14861
872.267	14952
872.397	14811
872.526	14689
872.656	14735
872.785	14644
872.915	14914
873.044	14967
873.173	14887
873.303	15135
873.432	14990
873.561	15100
873.69	15047
873.819	14963
873.948	15150
874.077	15032
874.206	14937
874.335	15005
874.464	15135
874.593	15275
874.722	15214
874.851	15252
874.979	15355
875.108	15279
875.237	15233
875.365	15237
875.494	15272
875.623	15420
875.751	15161
875.88	15294
876.008	15428
876.136	15576
876.265	15717
876.393	15835
876.521	15747
876.65	15781
876.778	15766
876.906	15652
877.034	15671
877.162	15759
877.29	15682
877.418	15762
877.546	15637
877.674	15793
877.802	15728
877.93	15778
878.058	15690
878.185	15595
878.313	15629
878.441	15694
878.568	15515
878.696	15660
878.824	15675
878.951	15728
879.079	15899
879.206	16074
879.333	15903
879.461	15698
879.588	15762
879.715	15956
879.842	15972
879.97	15778
880.097	15511
880.224	15481
880.351	15603
880.478	15526
880.605	15625
880.732	15504
880.859	15774
880.986	15618
881.112	15625
881.239	15462
881.366	15279
881.493	15252
881.619	15173
881.746	15256
881.872	15291
881.999	15123
882.125	15150
882.252	15207
882.378	15203
882.505	15382
882.631	15093
882.757	14967
882.883	15028
883.01	15077
883.136	15104
883.262	14952
883.388	14929
883.514	15028
883.64	15108
883.766	15013
883.892	14861
884.018	14807
884.143	15089
884.269	15058
884.395	14804
884.52	14720
884.646	14674
884.772	14617
884.897	14735
885.023	14693
885.148	14834
885.274	14921
885.399	14777
885.524	14765
885.65	14800
885.775	14811
885.9	14724
886.025	14838
886.15	14773
886.275	14804
886.4	14579
886.525	14682
886.65	14632
886.775	14594
886.9	14845
887.025	14975
887.149	14670
887.274	14613
887.399	14469
887.523	14575
887.648	14446
887.773	14492
887.897	14697
888.021	14648
888.146	14427
888.27	14640
888.395	14743
888.519	14632
888.643	14621
888.767	14644
888.891	14545
889.015	14446
889.139	14495
889.263	14404
889.387	14507
889.511	14720
889.635	14541
889.759	14393
889.883	14431
890.006	14442
890.13	14518
890.254	14263
890.377	14301
890.501	14176
890.624	14275
890.748	14313
890.871	14233
890.995	14126
891.118	14111
891.241	14202
891.364	14138
891.488	14206
891.611	14161
891.734	14058
891.857	14229
891.98	14119
892.103	14195
892.226	14206
892.349	14073
892.471	13989
892.594	14138
892.717	14191
892.839	14077
892.962	14183
893.085	14191
893.207	14107
893.33	14065
893.452	14016
893.575	14240
893.697	14069
893.819	14233
893.941	14404
894.064	14278
894.186	14153
894.308	14168
894.43	14233
894.552	14248
894.674	14393
894.796	14153
894.918	14210
895.04	14195
895.161	14286
895.283	14309
895.405	14164
895.526	14225
895.648	14294
895.769	14183
895.891	14237
896.012	14336
896.134	14381
896.255	14374
896.376	14221
896.498	14263
896.619	14309
896.74	14244
896.861	14423
896.982	14651
897.103	14857
897.224	14602
897.345	14533
897.466	14461
897.587	14507
897.708	14750
897.828	14640
897.949	14499
898.07	14400
898.19	14511
898.311	14716
898.431	14564
898.552	14640
898.672	14743
898.792	14705
898.913	14712
899.033	14636
899.153	14461
899.273	14503
899.393	14514
899.513	14533
899.633	14549
899.753	14636
899.873	14454
899.993	14514
900.113	14556
900.232	14606
900.352	14419
900.472	14412
900.591	14415
900.711	14370
900.83	14343
900.95	14446
901.069	14541
901.189	14355
901.308	14172
901.427	14096
901.546	14073
901.665	14107
901.784	14058
901.904	13909
902.023	13818
902.141	13693
902.26	13670
902.379	13761
902.498	13643
902.617	13636
902.735	13590
902.854	13685
902.973	13540
903.091	13350
903.21	13206
903.328	13263
903.446	13316
903.565	13164
903.683	13198
903.801	13133
903.919	13179
904.038	13137
904.156	12947
904.274	13076
904.392	13015
904.51	12985
904.627	12993
904.745	13034
904.863	13023
904.981	12776
905.098	12677
905.216	12715
905.334	12715
905.451	12715
905.569	12681
905.686	12700
905.803	12753
905.921	12525
906.038	12722
906.155	12498
906.272	12353
906.389	12494
906.506	12258
906.623	12289
906.74	12346
906.857	12163
906.974	12243
907.091	12384
907.208	12452
907.324	12266
907.441	12232
907.557	11992
907.674	12045
907.79	11961
907.907	11965
908.023	12034
908.139	12026
908.256	11996
908.372	11946
908.488	11901
908.604	11832
908.72	11767
908.836	11760
908.952	11786
909.068	11836
909.184	11927
909.3	11813
909.415	11851
909.531	11752
909.647	11554
909.762	11532
909.878	11570
909.993	11562
910.108	11512
910.224	11589
910.339	11547
910.454	11467
910.57	11402
910.685	11326
910.8	11634
910.915	11630
911.03	11436
911.145	11239
911.259	11284
911.374	11239
911.489	11231
911.604	11094
911.718	10991
911.833	10968
911.947	11006
912.062	10862
912.176	10949
912.291	11048
912.405	11029
912.519	11216
912.633	11136
912.748	11079
912.862	11071
912.976	10972
913.09	10771
913.204	10843
913.318	10923
913.431	11048
913.545	10911
913.659	10980
913.772	10843
913.886	10740
914	10748
914.113	10946
914.226	10934
914.34	10972
914.453	10656
914.566	10820
914.68	10653
914.793	10759
914.906	10550
915.019	10440
915.132	10344
915.245	10428
915.358	10611
915.47	10497
915.583	10546
915.696	10504
915.809	10615
915.921	10656
916.034	10428
916.146	10398
916.259	10447
916.371	10542
916.483	10508
916.595	10398
916.708	10428
916.82	10413
916.932	10447
917.044	10440
917.156	10455
917.268	10333
917.38	10402
917.491	10299
917.603	10394
917.715	10436
917.826	10447
917.938	10360
918.049	10276
918.161	10363
918.272	10447
918.384	10466
918.495	10398
918.606	10272
918.717	10169
918.828	10200
918.939	10253
919.05	10109
919.161	10242
919.272	10025
919.383	10059
919.494	10276
919.604	10462
919.715	10223
919.826	10139
919.936	10177
920.047	10329
920.157	10223
920.267	10325
920.378	10306
920.488	10253
920.598	10481
920.708	10603
920.818	10424
920.928	10424
921.038	10542
921.148	10500
921.258	10253
921.368	10219
921.477	10101
921.587	10135
921.697	9991
921.806	10059
921.916	9960
922.025	9812
922.134	9808
922.244	9800
922.353	9876
922.462	9724
922.571	9614
922.68	9492
922.789	9469
922.898	9557
923.007	9428
923.116	9572
923.224	9458
923.333	9549
923.442	9397
923.55	9256
923.659	9340
923.767	9439
923.876	9363
923.984	9378
924.092	9260
924.201	9355
924.309	9332
924.417	9336
924.525	9256
924.633	9279
924.741	10242
924.849	9161
924.956	9283
925.064	9131
925.172	9058
925.279	9058
925.387	9119
925.494	9093
925.602	9283
925.709	9222
925.816	9100
925.924	9135
926.031	9230
926.138	9131
926.245	9203
926.352	9097
926.459	9203
926.566	9218
926.673	9058
926.779	8986
926.886	9058
926.993	8811
927.099	8891
927.206	8861
927.312	8906
927.419	8876
927.525	8845
927.631	8944
927.737	8804
927.843	8750
927.95	8678
928.056	8750
928.162	8788
928.267	8758
928.373	9389
928.479	8804
928.585	8655
928.69	8754
928.796	8788
928.901	8594
929.007	8511
929.112	8636
929.218	8613
929.323	8621
929.428	8587
929.533	8678
929.638	8598
929.743	8575
929.848	8545
929.953	8636
930.058	8480
930.163	8351
930.267	8259
930.372	8484
930.477	8313
930.581	8530
930.685	8396
930.79	8244
930.894	8267
930.998	8282
931.103	8393
931.207	8100
931.311	8058
931.415	7978
931.519	7792
931.623	7780
