Data from test_V78500241_311.txt Node
Date: Fri Mar 25 14:35:53 CST 2022
User: usil
Spectrometer: V785-0024
Trigger mode: 0
Integration Time (sec): 4.000000E-1
Scans to average: 1
Nonlinearity correction enabled: false
Boxcar width: 0
Storing dark spectrum: false
XAxis mode: Wavelengths
Number of Pixels in Spectrum: 1024
>>>>>Begin Spectral Data<<<<<
801.071	27142
801.214	27062
801.356	26826
801.499	26754
801.641	26556
801.783	26503
801.926	26575
802.068	26381
802.211	26434
802.353	26187
802.496	26244
802.638	26111
802.78	26096
802.923	25913
803.065	26005
803.208	25955
803.35	26103
803.492	26218
803.635	26107
803.777	26122
803.919	26153
804.061	26351
804.204	26138
804.346	26005
804.488	25887
804.63	25970
804.773	25849
804.915	26096
805.057	26157
805.199	26115
805.341	26240
805.483	26027
805.626	26134
805.768	26111
805.91	26153
806.052	26157
806.194	26107
806.336	26396
806.478	26081
806.62	25993
806.762	26172
806.904	26351
807.046	26617
807.188	26404
807.33	26503
807.472	26389
807.614	26374
807.756	26419
807.898	26370
808.04	26294
808.182	26187
808.324	26332
808.465	26309
808.607	26480
808.749	26655
808.891	26750
809.033	26902
809.174	26678
809.316	26587
809.458	26632
809.6	26564
809.741	26571
809.883	26739
810.025	26769
810.166	26796
810.308	26937
810.45	26689
810.591	26762
810.733	26636
810.875	26396
811.016	26415
811.158	26313
811.299	26393
811.441	26693
811.582	26541
811.724	26495
811.865	26404
812.007	26446
812.148	26457
812.29	26533
812.431	26773
812.573	26663
812.714	26758
812.855	26792
812.997	26895
813.138	27131
813.279	27062
813.421	26921
813.562	26754
813.703	26701
813.845	26686
813.986	26320
814.127	26164
814.268	26210
814.41	26054
814.551	25986
814.692	26096
814.833	25947
814.974	26016
815.115	26046
815.256	25719
815.397	25909
815.539	25822
815.68	25799
815.821	25731
815.962	25826
816.103	25738
816.244	25582
816.385	25559
816.526	25491
816.666	25293
816.807	25171
816.948	25183
817.089	25259
817.23	25171
817.371	25072
817.512	25152
817.653	25118
817.793	25000
817.934	25031
818.075	25145
818.216	25080
818.356	25126
818.497	24939
818.638	24768
818.778	24878
818.919	24783
819.06	24730
819.2	25046
819.341	25046
819.481	24913
819.622	25282
819.762	25297
819.903	25384
820.043	25156
820.184	25084
820.324	25133
820.465	25209
820.605	25190
820.746	25152
820.886	24958
821.026	25118
821.167	25076
821.307	25110
821.447	25080
821.588	24916
821.728	24840
821.868	24642
822.008	24452
822.149	24441
822.289	24391
822.429	24254
822.569	24060
822.709	24018
822.849	23977
822.99	23828
823.13	23771
823.27	23882
823.41	23722
823.55	23558
823.69	23745
823.83	23627
823.97	23630
824.11	23490
824.25	23436
824.389	23353
824.529	23463
824.669	23337
824.809	23539
824.949	23482
825.089	23493
825.228	23501
825.368	23269
825.508	23261
825.648	23334
825.787	23239
825.927	23258
826.067	23261
826.206	23250
826.346	23303
826.485	23273
826.625	23269
826.765	23216
826.904	23292
827.044	22987
827.183	23010
827.323	22965
827.462	22946
827.601	22900
827.741	22892
827.88	22892
828.02	22835
828.159	22839
828.298	22919
828.437	22828
828.577	22877
828.716	22987
828.855	22847
828.994	22691
829.134	22675
829.273	22698
829.412	22542
829.551	22653
829.69	22512
829.829	22664
829.968	22752
830.107	22649
830.246	22679
830.385	22523
830.524	22485
830.663	22470
830.802	22246
830.941	22147
831.08	22116
831.219	22265
831.357	22299
831.496	22333
831.635	22086
831.774	22074
831.913	22105
832.051	22059
832.19	22017
832.329	21987
832.467	21827
832.606	21804
832.744	21770
832.883	21816
833.022	21770
833.16	21762
833.299	21857
833.437	21876
833.576	21888
833.714	21915
833.852	21922
833.991	21827
834.129	21991
834.267	22010
834.406	21808
834.544	21800
834.682	21888
834.821	21903
834.959	21968
835.097	21789
835.235	21873
835.373	21785
835.511	21804
835.65	21663
835.788	21633
835.926	21618
836.064	21443
836.202	21530
836.34	21690
836.478	21755
836.615	21580
836.753	21656
836.891	21682
837.029	21629
837.167	21694
837.305	21553
837.443	21671
837.58	21534
837.718	21603
837.856	21504
837.993	21363
838.131	21447
838.269	21485
838.406	21477
838.544	21386
838.681	21218
838.819	21207
838.956	20963
839.094	20971
839.231	21100
839.369	21154
839.506	21374
839.643	21329
839.781	20963
839.918	20921
840.055	20929
840.193	20956
840.33	20899
840.467	20804
840.604	20921
840.742	21154
840.879	20724
841.016	20788
841.153	20777
841.29	20979
841.427	20902
841.564	20941
841.701	20918
841.838	20838
841.975	20708
842.112	20788
842.249	20609
842.385	20575
842.522	20731
842.659	20594
842.796	20537
842.933	20560
843.069	20438
843.206	20465
843.343	20602
843.479	20530
843.616	20632
843.752	20351
843.889	20381
844.025	20511
844.162	20214
844.298	20358
844.435	20263
844.571	20286
844.708	20423
844.844	20415
844.98	20571
845.117	20492
845.253	20286
845.389	20294
845.525	20240
845.661	20267
845.798	20073
845.934	20221
846.07	20206
846.206	20278
846.342	20301
846.478	20164
846.614	19864
846.75	19811
846.886	19753
847.022	19837
847.158	19826
847.294	19727
847.429	19750
847.565	19757
847.701	20050
847.837	19544
847.972	19396
848.108	19597
848.244	19639
848.379	19434
848.515	19354
848.65	19259
848.786	19457
848.921	19350
849.057	19495
849.192	19502
849.328	19438
849.463	19419
849.598	19335
849.734	19183
849.869	19217
850.004	19145
850.14	19133
850.275	19118
850.41	19042
850.545	18996
850.68	19038
850.815	19133
850.95	19065
851.085	19244
851.22	19190
851.355	19175
851.49	19152
851.625	19099
851.76	18981
851.895	18897
852.03	18954
852.165	19038
852.299	19190
852.434	19145
852.569	19156
852.703	19072
852.838	19099
852.973	19251
853.107	19213
853.242	19091
853.376	18894
853.511	18897
853.645	18806
853.78	18973
853.914	18962
854.048	18848
854.183	18901
854.317	18928
854.451	19046
854.585	18928
854.72	18894
854.854	19027
854.988	18802
855.122	18977
855.256	18764
855.39	18894
855.524	18993
855.658	18947
855.792	18859
855.926	18981
856.06	18852
856.194	19000
856.327	18943
856.461	18852
856.595	18852
856.729	18901
856.862	19091
856.996	19019
857.13	18901
857.263	18913
857.397	19038
857.53	18817
857.664	19004
857.797	18886
857.931	19046
858.064	18856
858.197	18943
858.331	18962
858.464	18848
858.597	18772
858.731	18890
858.864	18810
858.997	18764
859.13	18848
859.263	18947
859.396	18939
859.529	18783
859.662	18840
859.795	18798
859.928	18951
860.061	18939
860.194	19000
860.327	18791
860.46	18817
860.592	18905
860.725	18966
860.858	18863
860.99	18821
861.123	18795
861.256	18677
861.388	18772
861.521	19616
861.653	18764
861.786	18661
861.918	18734
862.05	18749
862.183	18856
862.315	18905
862.447	18852
862.58	18837
862.712	18700
862.844	18589
862.976	18719
863.108	18608
863.24	18977
863.372	18429
863.504	18578
863.636	18604
863.768	18544
863.9	18547
864.032	18361
864.164	18494
864.296	18570
864.428	18631
864.559	18608
864.691	18593
864.823	18536
864.954	18494
865.086	18536
865.217	18532
865.349	18414
865.48	18399
865.612	18494
865.743	18639
865.875	18399
866.006	18308
866.137	18525
866.269	18483
866.4	18452
866.531	18391
866.662	18407
866.793	18376
866.924	18395
867.055	18399
867.186	18441
867.317	18346
867.448	18308
867.579	18361
867.71	18460
867.841	18323
867.972	18410
868.103	18376
868.233	18475
868.364	18422
868.495	18448
868.625	18688
868.756	18734
868.886	18661
869.017	18589
869.147	18768
869.278	18768
869.408	18635
869.539	18703
869.669	18760
869.799	18715
869.929	18677
870.06	18703
870.19	19088
870.32	18878
870.45	18878
870.58	19095
870.71	19145
870.84	19129
870.97	18993
871.1	18989
871.23	19168
871.36	19228
871.489	19122
871.619	19187
871.749	19297
871.879	19225
872.008	19346
872.138	19217
872.267	19324
872.397	19190
872.526	18996
872.656	19053
872.785	19042
872.915	19198
873.044	19285
873.173	19190
873.303	19346
873.432	19263
873.561	19434
873.69	19251
873.819	19194
873.948	19381
874.077	19232
874.206	19213
874.335	19179
874.464	19464
874.593	19377
874.722	19449
874.851	19586
874.979	19556
875.108	19571
875.237	19480
875.365	19537
875.494	19502
875.623	19582
875.751	19480
875.88	19620
876.008	19628
876.136	19864
876.265	19868
876.393	19925
876.521	20103
876.65	19955
876.778	19986
876.906	19925
877.034	20001
877.162	19868
877.29	19799
877.418	19852
877.546	19967
877.674	19921
877.802	19902
877.93	19898
878.058	19928
878.185	19807
878.313	19887
878.441	19906
878.568	19727
878.696	19898
878.824	19917
878.951	20046
879.079	19993
879.206	20377
879.333	20142
879.461	20100
879.588	20081
879.715	20153
879.842	20298
879.97	19989
880.097	19772
880.224	19890
880.351	19826
880.478	19788
880.605	19746
880.732	19807
880.859	20039
880.986	19875
881.112	19883
881.239	19670
881.366	19590
881.493	19384
881.619	19411
881.746	19445
881.872	19426
881.999	19293
882.125	19324
882.252	19434
882.378	19400
882.505	19586
882.631	19362
882.757	19156
882.883	19289
883.01	19228
883.136	19065
883.262	19031
883.388	19015
883.514	19187
883.64	19206
883.766	19198
883.892	18878
884.018	19061
884.143	19145
884.269	19247
884.395	18871
884.52	18776
884.646	18757
884.772	18825
884.897	18677
885.023	18837
885.148	18958
885.274	18954
885.399	18943
885.524	18707
885.65	18878
885.775	18890
885.9	18787
886.025	18920
886.15	18810
886.275	18734
886.4	18589
886.525	18825
886.65	18734
886.775	18772
886.9	18935
887.025	18966
887.149	18726
887.274	18574
887.399	18566
887.523	18566
887.648	18433
887.773	18486
887.897	18589
888.021	18627
888.146	18517
888.27	18700
888.395	18544
888.519	18627
888.643	18521
888.767	18559
888.891	18502
889.015	18315
889.139	18517
889.263	18213
889.387	18418
889.511	18498
889.635	18426
889.759	18365
889.883	18353
890.006	18384
890.13	18372
890.254	18247
890.377	18330
890.501	18026
890.624	18079
890.748	18174
890.871	18030
890.995	17999
891.118	17908
891.241	18026
891.364	17931
891.488	18045
891.611	18019
891.734	17908
891.857	17965
891.98	17931
892.103	17992
892.226	18148
892.349	18015
892.471	17722
892.594	18007
892.717	17942
892.839	17920
892.962	17935
893.085	18015
893.207	17939
893.33	17756
893.452	17863
893.575	17965
893.697	17980
893.819	18015
893.941	18087
894.064	18102
894.186	17756
894.308	17901
894.43	18095
894.552	18121
894.674	17954
894.796	17908
894.918	17893
895.04	17931
895.161	18022
895.283	17923
895.405	17809
895.526	17984
895.648	17980
895.769	17908
895.891	17965
896.012	18041
896.134	18007
896.255	17965
896.376	17977
896.498	18034
896.619	18011
896.74	17958
896.861	18053
896.982	18365
897.103	18483
897.224	18254
897.345	18251
897.466	18235
897.587	18201
897.708	18414
897.828	18148
897.949	18220
898.07	18144
898.19	18053
898.311	18357
898.431	18201
898.552	18197
898.672	18228
898.792	18163
898.913	18308
899.033	18072
899.153	18102
899.273	17927
899.393	18030
899.513	18049
899.633	17980
899.753	17999
899.873	17927
899.993	18049
900.113	17950
900.232	17958
900.352	17904
900.472	17882
900.591	17847
900.711	17748
900.83	17676
900.95	17878
901.069	17931
901.189	17756
901.308	17562
901.427	17448
901.546	17414
901.665	17463
901.784	17482
901.904	17296
902.023	17334
902.141	17052
902.26	16946
902.379	17022
902.498	17029
902.617	16892
902.735	16984
902.854	16995
902.973	16869
903.091	16516
903.21	16702
903.328	16641
903.446	16592
903.565	16516
903.683	16470
903.801	16382
903.919	16440
904.038	16459
904.156	16185
904.274	16211
904.392	16207
904.51	16204
904.627	16200
904.745	16230
904.863	16329
904.981	16082
905.098	15827
905.216	15850
905.334	15918
905.451	15930
905.569	15876
905.686	15903
905.803	15960
905.921	15660
906.038	15694
906.155	15644
906.272	15435
906.389	15644
906.506	15447
906.623	15454
906.74	15397
906.857	15332
906.974	15367
907.091	15481
907.208	15523
907.324	15428
907.441	15291
907.557	15294
907.674	15241
907.79	15077
907.907	15104
908.023	15119
908.139	15157
908.256	15116
908.372	15005
908.488	15112
908.604	14891
908.72	14731
908.836	14834
908.952	14853
909.068	14762
909.184	15020
909.3	14762
909.415	14906
909.531	14765
909.647	14560
909.762	14511
909.878	14465
909.993	14651
910.108	14590
910.224	14518
910.339	14537
910.454	14343
910.57	14431
910.685	14313
910.8	14575
910.915	14507
911.03	14412
911.145	14202
911.259	14130
911.374	14149
911.489	14180
911.604	14103
911.718	13887
911.833	13959
911.947	13871
912.062	13811
912.176	13879
912.291	13898
912.405	13890
912.519	14123
912.633	14107
912.748	13955
912.862	13993
912.976	13750
913.09	13605
913.204	13613
913.318	13811
913.431	13814
913.545	13864
913.659	13925
913.772	13704
913.886	13639
914	13567
914.113	13693
914.226	13666
914.34	13696
914.453	13468
914.566	13708
914.68	13609
914.793	13472
914.906	13297
915.019	13297
915.132	13240
915.245	13209
915.358	13350
915.47	13312
915.583	13320
915.696	13251
915.809	13346
915.921	13422
916.034	13179
916.146	13156
916.259	13103
916.371	13263
916.483	13202
916.595	13072
916.708	13114
916.82	13076
916.932	13072
917.044	13069
917.156	13110
917.268	13019
917.38	12970
917.491	12909
917.603	12958
917.715	12985
917.826	13050
917.938	13004
918.049	12829
918.161	12928
918.272	13038
918.384	13126
918.495	12973
918.606	12734
918.717	12707
918.828	12859
918.939	12821
919.05	12681
919.161	12696
919.272	12502
919.383	12521
919.494	12837
919.604	13008
919.715	12779
919.826	12654
919.936	12726
920.047	12764
920.157	12795
920.267	12989
920.378	12726
920.488	12616
920.598	12894
920.708	13031
920.818	12928
920.928	12825
921.038	13008
921.148	13000
921.258	12749
921.368	12631
921.477	12475
921.587	12467
921.697	12414
921.806	12563
921.916	12296
922.025	12209
922.134	12182
922.244	12114
922.353	12171
922.462	12049
922.571	12011
922.68	11832
922.789	11828
922.898	11855
923.007	11775
923.116	11847
923.224	11786
923.333	11855
923.442	11630
923.55	11657
923.659	11665
923.767	11695
923.876	11596
923.984	11764
924.092	11623
924.201	11695
924.309	11684
924.417	11661
924.525	11539
924.633	11570
924.741	12311
924.849	11391
924.956	11516
925.064	11395
925.172	11330
925.279	11303
925.387	11455
925.494	11467
925.602	11539
925.709	11448
925.816	11292
925.924	11341
926.031	11471
926.138	11307
926.245	11429
926.352	11326
926.459	11360
926.566	11387
926.673	11330
926.779	11143
926.886	11162
926.993	10976
927.099	11006
927.206	11010
927.312	10862
927.419	11079
927.525	11018
927.631	10972
927.737	10889
927.843	10850
927.95	10778
928.056	10923
928.162	10911
928.267	10908
928.373	11425
928.479	10892
928.585	10740
928.69	10831
928.796	10877
928.901	10668
929.007	10577
929.112	10717
929.218	10721
929.323	10645
929.428	10615
929.533	10687
929.638	10500
929.743	10497
929.848	10607
929.953	10508
930.058	10432
930.163	10284
930.267	10352
930.372	10451
930.477	10249
930.581	10558
930.685	10367
930.79	10147
930.894	10154
930.998	10166
931.103	10348
931.207	9983
931.311	9892
931.415	9808
931.519	9610
931.623	9713
