Data from test_V78500241_3414.txt Node
Date: Fri Mar 25 14:57:29 CST 2022
User: usil
Spectrometer: V785-0024
Trigger mode: 0
Integration Time (sec): 4.000000E-1
Scans to average: 1
Nonlinearity correction enabled: false
Boxcar width: 0
Storing dark spectrum: false
XAxis mode: Wavelengths
Number of Pixels in Spectrum: 1024
>>>>>Begin Spectral Data<<<<<
801.071	21899
801.214	21922
801.356	21622
801.499	21629
801.641	21188
801.783	21241
801.926	21302
802.068	21275
802.211	21165
802.353	21093
802.496	20804
802.638	20834
802.78	20705
802.923	20716
803.065	20602
803.208	20522
803.35	20667
803.492	20796
803.635	20785
803.777	20598
803.919	20667
804.061	20941
804.204	20663
804.346	20579
804.488	20450
804.63	20511
804.773	20621
804.915	20526
805.057	20674
805.199	20503
805.341	20568
805.483	20663
805.626	20590
805.768	20617
805.91	20663
806.052	20545
806.194	20499
806.336	20701
806.478	20419
806.62	20476
806.762	20583
806.904	20545
807.046	20906
807.188	20788
807.33	20853
807.472	20933
807.614	20625
807.756	20731
807.898	20621
808.04	20571
808.182	20583
808.324	20659
808.465	20629
808.607	20781
808.749	20887
808.891	20982
809.033	21093
809.174	20944
809.316	20826
809.458	20933
809.6	20765
809.741	20963
809.883	20925
810.025	21062
810.166	21058
810.308	21096
810.45	21062
810.591	20975
810.733	20708
810.875	20651
811.016	20598
811.158	20537
811.299	20724
811.441	20735
811.582	20670
811.724	20697
811.865	20613
812.007	20606
812.148	20617
812.29	20659
812.431	20765
812.573	20895
812.714	20975
812.855	21005
812.997	21180
813.138	21431
813.279	21169
813.421	21077
813.562	21017
813.703	20804
813.845	20788
813.986	20522
814.127	20358
814.268	20309
814.41	20244
814.551	20180
814.692	20191
814.833	20134
814.974	20157
815.115	20187
815.256	20062
815.397	20001
815.539	20122
815.68	19784
815.821	19845
815.962	19902
816.103	19894
816.244	19601
816.385	19750
816.526	19723
816.666	19495
816.807	19354
816.948	19426
817.089	19354
817.23	19453
817.371	19373
817.512	19304
817.653	19274
817.793	19293
817.934	19365
818.075	19419
818.216	19384
818.356	19324
818.497	19103
818.638	18909
818.778	19000
818.919	18958
819.06	18993
819.2	19133
819.341	19168
819.481	19076
819.622	19365
819.762	19502
819.903	19510
820.043	19225
820.184	19324
820.324	19198
820.465	19266
820.605	19327
820.746	19263
820.886	19114
821.026	19343
821.167	19236
821.307	19331
821.447	19304
821.588	19148
821.728	18890
821.868	18795
822.008	18684
822.149	18658
822.289	18700
822.429	18456
822.569	18467
822.709	18452
822.849	18243
822.99	18068
823.13	18235
823.27	18171
823.41	17980
823.55	17893
823.69	18034
823.83	18026
823.97	17988
824.11	17764
824.25	17783
824.389	17764
824.529	17840
824.669	17745
824.809	17897
824.949	17878
825.089	17764
825.228	17832
825.368	17482
825.508	17497
825.648	17592
825.787	17577
825.927	17634
826.067	17562
826.206	17532
826.346	17486
826.485	17627
826.625	17516
826.765	17691
826.904	17627
827.044	17345
827.183	17406
827.323	17269
827.462	17288
827.601	17360
827.741	17273
827.88	17349
828.02	17239
828.159	17235
828.298	17334
828.437	17341
828.577	17322
828.716	17406
828.855	17162
828.994	17075
829.134	16965
829.273	17041
829.412	16934
829.551	16896
829.69	16984
829.829	16942
829.968	17117
830.107	17083
830.246	17052
830.385	16942
830.524	16923
830.663	16801
830.802	16778
830.941	16584
831.08	16561
831.219	16710
831.357	16729
831.496	16782
831.635	16554
831.774	16474
831.913	16512
832.051	16375
832.19	16451
832.329	16516
832.467	16325
832.606	16223
832.744	16333
832.883	16284
833.022	16318
833.16	16303
833.299	16295
833.437	16325
833.576	16432
833.714	16394
833.852	16428
833.991	16474
834.129	16470
834.267	16447
834.406	16421
834.544	16470
834.682	16352
834.821	16284
834.959	16599
835.097	16318
835.235	16455
835.373	16436
835.511	16478
835.65	16356
835.788	16306
835.926	16177
836.064	16112
836.202	16238
836.34	16367
836.478	16322
836.615	16268
836.753	16352
836.891	16417
837.029	16379
837.167	16261
837.305	16280
837.443	16162
837.58	16226
837.718	16207
837.856	16166
837.993	16147
838.131	16272
838.269	16169
838.406	15979
838.544	16029
838.681	15979
838.819	15846
838.956	15717
839.094	15766
839.231	15800
839.369	15953
839.506	16169
839.643	15960
839.781	15751
839.918	15644
840.055	15660
840.193	15743
840.33	15781
840.467	15728
840.604	15739
840.742	15987
840.879	15519
841.016	15698
841.153	15732
841.29	15899
841.427	15694
841.564	15804
841.701	15755
841.838	15690
841.975	15572
842.112	15660
842.249	15591
842.385	15545
842.522	15663
842.659	15523
842.796	15603
842.933	15485
843.069	15469
843.206	15485
843.343	15568
843.479	15488
843.616	15523
843.752	15291
843.889	15302
844.025	15462
844.162	15317
844.298	15443
844.435	15275
844.571	15325
844.708	15233
844.844	15511
844.98	15393
845.117	15393
845.253	15310
845.389	15142
845.525	15169
845.661	15214
845.798	15077
845.934	15195
846.07	15077
846.206	15085
846.342	15268
846.478	15127
846.614	14902
846.75	14781
846.886	14899
847.022	14979
847.158	14838
847.294	14891
847.429	14994
847.565	14849
847.701	15127
847.837	14632
847.972	14522
848.108	14743
848.244	14781
848.379	14560
848.515	14499
848.65	14484
848.786	14522
848.921	14590
849.057	14533
849.192	14571
849.328	14499
849.463	14587
849.598	14571
849.734	14450
849.869	14298
850.004	14336
850.14	14305
850.275	14214
850.41	14191
850.545	14202
850.68	14305
850.815	14317
850.95	14233
851.085	14446
851.22	14442
851.355	14400
851.49	14225
851.625	14317
851.76	14218
851.895	14183
852.03	14206
852.165	14199
852.299	14294
852.434	14400
852.569	14305
852.703	14339
852.838	14370
852.973	14446
853.107	14423
853.242	14298
853.376	14172
853.511	14035
853.645	14161
853.78	14259
853.914	14123
854.048	14168
854.183	14195
854.317	14202
854.451	14271
854.585	14199
854.72	14248
854.854	14336
854.988	14142
855.122	14161
855.256	14016
855.39	14244
855.524	14202
855.658	14126
855.792	14244
855.926	14210
856.06	14271
856.194	14221
856.327	14168
856.461	14058
856.595	14096
856.729	14191
856.862	14248
856.996	14123
857.13	14381
857.263	14339
857.397	14278
857.53	14115
857.664	14298
857.797	14271
857.931	14267
858.064	14202
858.197	14267
858.331	14210
858.464	14103
858.597	14073
858.731	14183
858.864	14183
858.997	14107
859.13	14210
859.263	14168
859.396	14225
859.529	14069
859.662	14142
859.795	14115
859.928	14221
860.061	14358
860.194	14347
860.327	14161
860.46	14145
860.592	14282
860.725	14320
860.858	14324
860.99	14161
861.123	14199
861.256	14027
861.388	14267
861.521	14788
861.653	13997
861.786	14039
861.918	14058
862.05	14096
862.183	14145
862.315	14259
862.447	14225
862.58	14054
862.712	13936
862.844	13811
862.976	14103
863.108	13906
863.24	14427
863.372	13906
863.504	13970
863.636	13902
863.768	14065
863.9	13807
864.032	13906
864.164	13932
864.296	14012
864.428	14065
864.559	14058
864.691	14039
864.823	13974
864.954	14035
865.086	13967
865.217	13898
865.349	13909
865.48	13925
865.612	13997
865.743	14050
865.875	14039
866.006	13871
866.137	13967
866.269	13936
866.4	13917
866.531	13883
866.662	13807
866.793	13913
866.924	13902
867.055	14027
867.186	13925
867.317	13921
867.448	13944
867.579	13944
867.71	13837
867.841	13830
867.972	13871
868.103	13879
868.233	14077
868.364	13947
868.495	14020
868.625	14123
868.756	14282
868.886	14123
869.017	14164
869.147	14324
869.278	14313
869.408	14271
869.539	14252
869.669	14256
869.799	14199
869.929	14267
870.06	14317
870.19	14454
870.32	14427
870.45	14492
870.58	14556
870.71	14735
870.84	14689
870.97	14575
871.1	14495
871.23	14716
871.36	14735
871.489	14693
871.619	14697
871.749	14792
871.879	14781
872.008	14918
872.138	14777
872.267	14769
872.397	14663
872.526	14556
872.656	14587
872.785	14678
872.915	14754
873.044	14834
873.173	14823
873.303	14918
873.432	14906
873.561	14975
873.69	14853
873.819	14800
873.948	14868
874.077	14842
874.206	14826
874.335	14823
874.464	14948
874.593	15150
874.722	15138
874.851	15131
874.979	15245
875.108	15192
875.237	15097
875.365	15009
875.494	15214
875.623	15214
875.751	15112
875.88	15214
876.008	15294
876.136	15397
876.265	15458
876.393	15720
876.521	15698
876.65	15652
876.778	15637
876.906	15538
877.034	15599
877.162	15553
877.29	15557
877.418	15557
877.546	15515
877.674	15545
877.802	15633
877.93	15660
878.058	15523
878.185	15488
878.313	15580
878.441	15564
878.568	15382
878.696	15401
878.824	15492
878.951	15572
879.079	15610
879.206	15892
879.333	15724
879.461	15675
879.588	15644
879.715	15732
879.842	15800
879.97	15618
880.097	15450
880.224	15416
880.351	15466
880.478	15511
880.605	15477
880.732	15473
880.859	15637
880.986	15447
881.112	15492
881.239	15348
881.366	15306
881.493	15146
881.619	15097
881.746	15127
881.872	15070
881.999	14998
882.125	14986
882.252	15112
882.378	15097
882.505	15157
882.631	15051
882.757	14895
882.883	14975
883.01	14883
883.136	14921
883.262	14746
883.388	14746
883.514	14956
883.64	14906
883.766	14902
883.892	14651
884.018	14716
884.143	14921
884.269	14998
884.395	14655
884.52	14587
884.646	14640
884.772	14518
884.897	14499
885.023	14632
885.148	14670
885.274	14712
885.399	14720
885.524	14621
885.65	14689
885.775	14655
885.9	14590
886.025	14739
886.15	14674
886.275	14526
886.4	14522
886.525	14552
886.65	14587
886.775	14526
886.9	14667
887.025	14826
887.149	14697
887.274	14438
887.399	14389
887.523	14355
887.648	14298
887.773	14252
887.897	14514
888.021	14461
888.146	14389
888.27	14400
888.395	14560
888.519	14427
888.643	14476
888.767	14511
888.891	14358
889.015	14172
889.139	14290
889.263	14282
889.387	14412
889.511	14454
889.635	14339
889.759	14218
889.883	14248
890.006	14343
890.13	14434
890.254	14180
890.377	14237
890.501	14035
890.624	14088
890.748	14240
890.871	14001
890.995	13868
891.118	13917
891.241	13989
891.364	13955
891.488	14138
891.611	14001
891.734	13947
891.857	14043
891.98	14016
892.103	14046
892.226	13963
892.349	14054
892.471	13845
892.594	14012
892.717	14077
892.839	13959
892.962	13936
893.085	14172
893.207	13993
893.33	13784
893.452	13997
893.575	14062
893.697	14043
893.819	14153
893.941	14126
894.064	14149
894.186	13951
894.308	13902
894.43	14199
894.552	14229
894.674	14096
894.796	13849
894.918	13978
895.04	14054
895.161	14103
895.283	14138
895.405	14043
895.526	14081
895.648	14111
895.769	14123
895.891	14115
896.012	14206
896.134	14138
896.255	14058
896.376	14050
896.498	14157
896.619	14237
896.74	14180
896.861	14263
896.982	14499
897.103	14697
897.224	14454
897.345	14366
897.466	14298
897.587	14374
897.708	14495
897.828	14431
897.949	14362
898.07	14206
898.19	14404
898.311	14590
898.431	14473
898.552	14514
898.672	14541
898.792	14644
898.913	14549
899.033	14507
899.153	14465
899.273	14256
899.393	14336
899.513	14495
899.633	14438
899.753	14317
899.873	14370
899.993	14454
900.113	14377
900.232	14442
900.352	14389
900.472	14290
900.591	14191
900.711	14183
900.83	14263
900.95	14324
901.069	14298
901.189	14180
901.308	13856
901.427	13803
901.546	13906
901.665	13959
901.784	13978
901.904	13727
902.023	13750
902.141	13510
902.26	13559
902.379	13571
902.498	13453
902.617	13499
902.735	13533
902.854	13502
902.973	13403
903.091	13266
903.21	13236
903.328	13194
903.446	13103
903.565	13065
903.683	13042
903.801	12993
903.919	13031
904.038	13095
904.156	12856
904.274	12970
904.392	12871
904.51	12897
904.627	12871
904.745	12951
904.863	12947
904.981	12707
905.098	12616
905.216	12593
905.334	12593
905.451	12517
905.569	12559
905.686	12540
905.803	12513
905.921	12429
906.038	12494
906.155	12433
906.272	12315
906.389	12296
906.506	12171
906.623	12186
906.74	12136
906.857	11988
906.974	12049
907.091	12258
907.208	12209
907.324	12194
907.441	12129
907.557	11939
907.674	11946
907.79	11840
907.907	11999
908.023	11889
908.139	11824
908.256	11874
908.372	11802
908.488	11790
908.604	11722
908.72	11585
908.836	11623
908.952	11634
909.068	11672
909.184	11790
909.3	11646
909.415	11707
909.531	11646
909.647	11474
909.762	11421
909.878	11379
909.993	11486
910.108	11402
910.224	11455
910.339	11448
910.454	11356
910.57	11265
910.685	11231
910.8	11539
910.915	11467
911.03	11353
911.145	11166
911.259	11102
911.374	11098
911.489	11174
911.604	10946
911.718	10938
911.833	10934
911.947	10923
912.062	10816
912.176	10866
912.291	10858
912.405	10938
912.519	11079
912.633	11079
912.748	10942
912.862	10953
912.976	10733
913.09	10672
913.204	10694
913.318	10809
913.431	10881
913.545	10824
913.659	10930
913.772	10763
913.886	10660
914	10558
914.113	10778
914.226	10797
914.34	10778
914.453	10573
914.566	10698
914.68	10565
914.793	10611
914.906	10455
915.019	10409
915.132	10295
915.245	10367
915.358	10474
915.47	10363
915.583	10386
915.696	10432
915.809	10550
915.921	10508
916.034	10371
916.146	10363
916.259	10367
916.371	10405
916.483	10421
916.595	10333
916.708	10394
916.82	10398
916.932	10341
917.044	10344
917.156	10314
917.268	10287
917.38	10261
917.491	10230
917.603	10322
917.715	10360
917.826	10325
917.938	10276
918.049	10162
918.161	10318
918.272	10398
918.384	10341
918.495	10299
918.606	10196
918.717	10090
918.828	10109
918.939	10268
919.05	10040
919.161	10071
919.272	10055
919.383	10082
919.494	10207
919.604	10402
919.715	10173
919.826	10074
919.936	10204
920.047	10249
920.157	10131
920.267	10497
920.378	10230
920.488	10219
920.598	10329
920.708	10588
920.818	10424
920.928	10318
921.038	10531
921.148	10508
921.258	10207
921.368	10131
921.477	10048
921.587	10051
921.697	9930
921.806	10071
921.916	9869
922.025	9827
922.134	9785
922.244	9675
922.353	9724
922.462	9587
922.571	9504
922.68	9431
922.789	9431
922.898	9454
923.007	9374
923.116	9405
923.224	9416
923.333	9435
923.442	9363
923.55	9332
923.659	9310
923.767	9435
923.876	9218
923.984	9359
924.092	9253
924.201	9332
924.309	9291
924.417	9317
924.525	9279
924.633	9241
924.741	10169
924.849	9097
924.956	9260
925.064	9047
925.172	9032
925.279	9032
925.387	9142
925.494	9077
925.602	9214
925.709	9150
925.816	9055
925.924	9131
926.031	9142
926.138	9146
926.245	9150
926.352	8986
926.459	9150
926.566	9176
926.673	9112
926.779	8990
926.886	8952
926.993	8762
927.099	8830
927.206	8750
927.312	8689
927.419	8899
927.525	8861
927.631	8792
927.737	8735
927.843	8682
927.95	8655
928.056	8708
928.162	8731
928.267	8766
928.373	9291
928.479	8800
928.585	8590
928.69	8678
928.796	8735
928.901	8590
929.007	8560
929.112	8659
929.218	8644
929.323	8480
929.428	8522
929.533	8659
929.638	8492
929.743	8484
929.848	8507
929.953	8571
930.058	8469
930.163	8263
930.267	8252
930.372	8457
930.477	8271
930.581	8469
930.685	8366
930.79	8210
930.894	8244
930.998	8157
931.103	8362
931.207	8058
931.311	7951
931.415	7959
931.519	7731
931.623	7757
