Data from test_V78500241_793.txt Node
Date: Fri Mar 25 14:39:14 CST 2022
User: usil
Spectrometer: V785-0024
Trigger mode: 0
Integration Time (sec): 4.000000E-1
Scans to average: 1
Nonlinearity correction enabled: false
Boxcar width: 0
Storing dark spectrum: false
XAxis mode: Wavelengths
Number of Pixels in Spectrum: 1024
>>>>>Begin Spectral Data<<<<<
801.071	26594
801.214	26438
801.356	26168
801.499	26096
801.641	25944
801.783	25913
801.926	25913
802.068	25925
802.211	25685
802.353	25738
802.496	25476
802.638	25499
802.78	25483
802.923	25362
803.065	25331
803.208	25308
803.35	25468
803.492	25438
803.635	25537
803.777	25358
803.919	25476
804.061	25769
804.204	25590
804.346	25506
804.488	25575
804.63	25647
804.773	25578
804.915	25700
805.057	25776
805.199	25841
805.341	25894
805.483	25913
805.626	26008
805.768	26081
805.91	26199
806.052	26339
806.194	26218
806.336	26758
806.478	26606
806.62	26819
806.762	27131
806.904	27382
807.046	27949
807.188	28158
807.33	28542
807.472	28961
807.614	29452
807.756	30433
807.898	31202
808.04	32457
808.182	34090
808.324	36460
808.465	39070
808.607	41676
808.749	44309
808.891	45538
809.033	45846
809.174	44275
809.316	42011
809.458	38982
809.6	36167
809.741	33903
809.883	32050
810.025	30768
810.166	29897
810.308	29166
810.45	28694
810.591	28185
810.733	27838
810.875	27348
811.016	27062
811.158	26819
811.299	26826
811.441	26853
811.582	26678
811.724	26507
811.865	26282
812.007	26214
812.148	26218
812.29	26168
812.431	26252
812.573	26492
812.714	26385
812.855	26495
812.997	26575
813.138	26613
813.279	26495
813.421	26301
813.562	26202
813.703	26012
813.845	25769
813.986	25597
814.127	25346
814.268	25289
814.41	25194
814.551	25061
814.692	25160
814.833	25008
814.974	24932
815.115	25095
815.256	25012
815.397	24901
815.539	24856
815.68	24760
815.821	24578
815.962	24684
816.103	24604
816.244	24395
816.385	24330
816.526	24380
816.666	24232
816.807	24060
816.948	24178
817.089	24148
817.23	24060
817.371	23977
817.512	23946
817.653	24011
817.793	23851
817.934	23942
818.075	23996
818.216	24015
818.356	23866
818.497	23729
818.638	23596
818.778	23684
818.919	23577
819.06	23710
819.2	23703
819.341	23714
819.481	23714
819.622	23992
819.762	24152
819.903	24064
820.043	23866
820.184	23965
820.324	23984
820.465	23874
820.605	23912
820.746	23722
820.886	23566
821.026	23676
821.167	23653
821.307	23897
821.447	23657
821.588	23577
821.728	23261
821.868	23277
822.008	23166
822.149	23067
822.289	23048
822.429	22748
822.569	22771
822.709	22717
822.849	22637
822.99	22596
823.13	22394
823.27	22413
823.41	22272
823.55	22299
823.69	22421
823.83	22272
823.97	22303
824.11	22139
824.25	21854
824.389	22017
824.529	21953
824.669	22021
824.809	22150
824.949	22135
825.089	22010
825.228	22162
825.368	21876
825.508	21873
825.648	21812
825.787	22017
825.927	22029
826.067	21808
826.206	21739
826.346	21857
826.485	21865
826.625	21675
826.765	21800
826.904	21922
827.044	21469
827.183	21568
827.323	21405
827.462	21515
827.601	21496
827.741	21454
827.88	21363
828.02	21363
828.159	21382
828.298	21477
828.437	21591
828.577	21420
828.716	21466
828.855	21367
828.994	21142
829.134	21256
829.273	21218
829.412	21077
829.551	21051
829.69	21157
829.829	21199
829.968	21180
830.107	21146
830.246	21142
830.385	21138
830.524	21077
830.663	21005
830.802	20868
830.941	20796
831.08	20746
831.219	20830
831.357	20800
831.496	20914
831.635	20800
831.774	20621
831.913	20670
832.051	20621
832.19	20629
832.329	20663
832.467	20579
832.606	20530
832.744	20701
832.883	20712
833.022	20701
833.16	20883
833.299	20944
833.437	21005
833.576	21256
833.714	21291
833.852	21332
833.991	21374
834.129	21564
834.267	21511
834.406	21507
834.544	21363
834.682	21462
834.821	21214
834.959	21237
835.097	21001
835.235	20971
835.373	20842
835.511	20807
835.65	20629
835.788	20564
835.926	20324
836.064	20256
836.202	20233
836.34	20530
836.478	20404
836.615	20298
836.753	20225
836.891	20434
837.029	20366
837.167	20294
837.305	20191
837.443	20172
837.58	20031
837.718	20164
837.856	20092
837.993	20020
838.131	20168
838.269	20054
838.406	20005
838.544	20020
838.681	19864
838.819	19769
838.956	19548
839.094	19632
839.231	19590
839.369	19864
839.506	20001
839.643	19772
839.781	19666
839.918	19575
840.055	19677
840.193	19578
840.33	19533
840.467	19601
840.604	19597
840.742	19841
840.879	19369
841.016	19472
841.153	19518
841.29	19666
841.427	19670
841.564	19499
841.701	19514
841.838	19422
841.975	19411
842.112	19548
842.249	19403
842.385	19255
842.522	19472
842.659	19369
842.796	19244
842.933	19388
843.069	19308
843.206	19400
843.343	19415
843.479	19441
843.616	19537
843.752	19365
843.889	19483
844.025	19514
844.162	19476
844.298	19662
844.435	19643
844.571	19856
844.708	20012
844.844	20507
844.98	20883
845.117	21355
845.253	22097
845.389	23589
845.525	26655
845.661	31434
845.798	37038
845.934	41482
846.07	43198
846.206	42178
846.342	38358
846.478	32590
846.614	27313
846.75	24220
846.886	22268
847.022	21165
847.158	20320
847.294	19970
847.429	19480
847.565	19354
847.701	19377
847.837	18863
847.972	18707
848.108	18798
848.244	18696
848.379	18532
848.515	18365
848.65	18353
848.786	18285
848.921	18384
849.057	18479
849.192	18448
849.328	18338
849.463	18327
849.598	18228
849.734	18251
849.869	18041
850.004	18038
850.14	18121
850.275	17996
850.41	17824
850.545	17980
850.68	18076
850.815	18106
850.95	17912
851.085	18136
851.22	18194
851.355	18030
851.49	17931
851.625	18034
851.76	17878
851.895	17805
852.03	17859
852.165	17882
852.299	17984
852.434	18034
852.569	18060
852.703	18049
852.838	18034
852.973	18224
853.107	18277
853.242	18087
853.376	17965
853.511	17893
853.645	18083
853.78	18083
853.914	18194
854.048	18110
854.183	18205
854.317	18186
854.451	18483
854.585	18152
854.72	18049
854.854	18220
854.988	18095
855.122	18038
855.256	17931
855.39	18041
855.524	18038
855.658	17973
855.792	17931
855.926	17946
856.06	18011
856.194	18003
856.327	17889
856.461	17794
856.595	17775
856.729	17904
856.862	17855
856.996	17893
857.13	17878
857.263	17904
857.397	17954
857.53	17699
857.664	17794
857.797	17764
857.931	17836
858.064	17779
858.197	17809
858.331	17657
858.464	17634
858.597	17566
858.731	17695
858.864	17718
858.997	17760
859.13	17630
859.263	17733
859.396	17794
859.529	17630
859.662	17665
859.795	17554
859.928	17672
860.061	17790
860.194	17874
860.327	17703
860.46	17672
860.592	17703
860.725	17729
860.858	17775
860.99	17665
861.123	17532
861.256	17547
861.388	17600
861.521	18273
861.653	17528
861.786	17414
861.918	17444
862.05	17600
862.183	17573
862.315	17661
862.447	17733
862.58	17589
862.712	17383
862.844	17440
862.976	17410
863.108	17372
863.24	17802
863.372	17220
863.504	17337
863.636	17341
863.768	17356
863.9	17330
864.032	17277
864.164	17307
864.296	17299
864.428	17474
864.559	17364
864.691	17436
864.823	17330
864.954	17341
865.086	17299
865.217	17315
865.349	17181
865.48	17231
865.612	17383
865.743	17471
865.875	17102
866.006	17185
866.137	17280
866.269	17288
866.4	17216
866.531	17261
866.662	17113
866.793	17265
866.924	17185
867.055	17368
867.186	17162
867.317	17193
867.448	17189
867.579	17227
867.71	17109
867.841	17223
867.972	17277
868.103	17269
868.233	17265
868.364	17303
868.495	17353
868.625	17379
868.756	17649
868.886	17440
869.017	17436
869.147	17573
869.278	17570
869.408	17615
869.539	17558
869.669	17649
869.799	17448
869.929	17608
870.06	17665
870.19	17821
870.32	17851
870.45	17893
870.58	18022
870.71	18133
870.84	18068
870.97	17901
871.1	18003
871.23	18087
871.36	18133
871.489	17939
871.619	18152
871.749	18319
871.879	18155
872.008	18464
872.138	18171
872.267	18205
872.397	18117
872.526	18102
872.656	18121
872.785	18117
872.915	18353
873.044	18346
873.173	18270
873.303	18456
873.432	18384
873.561	18525
873.69	18460
873.819	18464
873.948	18513
874.077	18623
874.206	18460
874.335	18547
874.464	18722
874.593	18943
874.722	18814
874.851	18829
874.979	19076
875.108	18924
875.237	18958
875.365	18894
875.494	19031
875.623	19072
875.751	19110
875.88	19213
876.008	19255
876.136	19548
876.265	19693
876.393	19693
876.521	19826
876.65	19932
876.778	20024
876.906	19936
877.034	19982
877.162	20001
877.29	20027
877.418	20069
877.546	20130
877.674	20229
877.802	20358
877.93	20442
878.058	20735
878.185	20765
878.313	20956
878.441	21321
878.568	21542
878.696	22063
878.824	22683
878.951	23824
879.079	25095
879.206	26876
879.333	28592
879.461	29999
879.588	31069
879.715	31031
879.842	30353
879.97	28394
880.097	26731
880.224	25308
880.351	24338
880.478	23649
880.605	23067
880.732	22778
880.859	22900
880.986	22474
881.112	22295
881.239	22173
881.366	21934
881.493	21991
881.619	21888
881.746	21998
881.872	21994
881.999	21934
882.125	22032
882.252	21964
882.378	22219
882.505	22188
882.631	22070
882.757	21994
882.883	21899
883.01	22051
883.136	21991
883.262	21915
883.388	21835
883.514	21960
883.64	21987
883.766	21888
883.892	21663
884.018	21705
884.143	21953
884.269	21873
884.395	21671
884.52	21587
884.646	21660
884.772	21667
884.897	21663
885.023	21724
885.148	21629
885.274	21751
885.399	21603
885.524	21542
885.65	21332
885.775	21241
885.9	21119
886.025	21077
886.15	20986
886.275	20739
886.4	20480
886.525	20526
886.65	20415
886.775	20183
886.9	20385
887.025	20370
887.149	20054
887.274	19731
887.399	19750
887.523	19643
887.648	19407
887.773	19495
887.897	19597
888.021	19537
888.146	19301
888.27	19468
888.395	19430
888.519	19228
888.643	19206
888.767	19270
888.891	19038
889.015	18882
889.139	18871
889.263	18783
889.387	19027
889.511	19038
889.635	18928
889.759	18642
889.883	18711
890.006	18661
890.13	18722
890.254	18445
890.377	18464
890.501	18403
890.624	18270
890.748	18334
890.871	18144
890.995	18022
891.118	18076
891.241	18068
891.364	18076
891.488	18049
891.611	18003
891.734	17973
891.857	18174
891.98	17824
892.103	17912
892.226	17840
892.349	17923
892.471	17676
892.594	17752
892.717	17805
892.839	17695
892.962	17672
893.085	17798
893.207	17665
893.33	17630
893.452	17493
893.575	17733
893.697	17520
893.819	17638
893.941	17756
894.064	17566
894.186	17482
894.308	17372
894.43	17486
894.552	17600
894.674	17535
894.796	17356
894.918	17318
895.04	17349
895.161	17539
895.283	17417
895.405	17303
895.526	17364
895.648	17391
895.769	17334
895.891	17303
896.012	17364
896.134	17414
896.255	17368
896.376	17372
896.498	17326
896.619	17429
896.74	17292
896.861	17261
896.982	17627
897.103	17737
897.224	17638
897.345	17410
897.466	17562
897.587	17474
897.708	17543
897.828	17543
897.949	17467
898.07	17288
898.19	17467
898.311	17619
898.431	17467
898.552	17425
898.672	17672
898.792	17474
898.913	17414
899.033	17406
899.153	17387
899.273	17337
899.393	17334
899.513	17261
899.633	17318
899.753	17258
899.873	17322
899.993	17239
900.113	17330
900.232	17269
900.352	17284
900.472	17200
900.591	17098
900.711	17090
900.83	16999
900.95	17212
901.069	17254
901.189	17056
901.308	16736
901.427	16835
901.546	16767
901.665	16835
901.784	16649
901.904	16535
902.023	16386
902.141	16276
902.26	16223
902.379	16291
902.498	16207
902.617	16112
902.735	16204
902.854	16082
902.973	16139
903.091	15865
903.21	15766
903.328	15804
903.446	15755
903.565	15606
903.683	15618
903.801	15500
903.919	15614
904.038	15587
904.156	15313
904.274	15614
904.392	15408
904.51	15355
904.627	15302
904.745	15447
904.863	15416
904.981	15154
905.098	15055
905.216	15043
905.334	15119
905.451	15161
905.569	14990
905.686	15081
905.803	14979
905.921	14796
906.038	14834
906.155	14823
906.272	14632
906.389	14811
906.506	14621
906.623	14590
906.74	14480
906.857	14419
906.974	14419
907.091	14556
907.208	14659
907.324	14461
907.441	14480
907.557	14256
907.674	14237
907.79	14164
907.907	14240
908.023	14362
908.139	14332
908.256	14191
908.372	14210
908.488	14142
908.604	13993
908.72	13955
908.836	14050
908.952	13993
909.068	13970
909.184	14012
909.3	13978
909.415	14043
909.531	14039
909.647	13746
909.762	13761
909.878	13700
909.993	13689
910.108	13715
910.224	13700
910.339	13731
910.454	13628
910.57	13620
910.685	13476
910.8	13719
910.915	13670
911.03	13533
911.145	13426
911.259	13354
911.374	13381
911.489	13350
911.604	13282
911.718	13088
911.833	13103
911.947	13027
912.062	13038
912.176	13034
912.291	13122
912.405	13110
912.519	13282
912.633	13232
912.748	13183
912.862	13110
912.976	12894
913.09	12875
913.204	12939
913.318	12958
913.431	13095
913.545	13095
913.659	13107
913.772	12947
913.886	12848
914	12837
914.113	12920
914.226	12863
914.34	12916
914.453	12696
914.566	12875
914.68	12745
914.793	12749
914.906	12551
915.019	12509
915.132	12437
915.245	12532
915.358	12616
915.47	12551
915.583	12601
915.696	12517
915.809	12715
915.921	12730
916.034	12464
916.146	12490
916.259	12540
916.371	12479
916.483	12593
916.595	12471
916.708	12509
916.82	12437
916.932	12441
917.044	12407
917.156	12471
917.268	12414
917.38	12399
917.491	12384
917.603	12296
917.715	12410
917.826	12395
917.938	12247
918.049	12205
918.161	12243
918.272	12357
918.384	12338
918.495	12262
918.606	12117
918.717	12045
918.828	12110
918.939	12091
919.05	12087
919.161	12053
919.272	11866
919.383	11912
919.494	12064
919.604	12102
919.715	12133
919.826	12019
919.936	12019
920.047	12064
920.157	12038
920.267	12251
920.378	12152
920.488	12045
920.598	12266
920.708	12376
920.818	12247
920.928	12224
921.038	12323
921.148	12281
921.258	12140
921.368	11946
921.477	11855
921.587	11843
921.697	11688
921.806	11809
921.916	11752
922.025	11592
922.134	11467
922.244	11512
922.353	11554
922.462	11490
922.571	11356
922.68	11201
922.789	11201
922.898	11201
923.007	11086
923.116	11261
923.224	11132
923.333	11117
923.442	11102
923.55	10961
923.659	11052
923.767	11056
923.876	11155
923.984	11045
924.092	10919
924.201	11041
924.309	10927
924.417	11045
924.525	10911
924.633	10980
924.741	11821
924.849	10748
924.956	10854
925.064	10767
925.172	10687
925.279	10698
925.387	10744
925.494	10675
925.602	10835
925.709	10767
925.816	10615
925.924	10664
926.031	10733
926.138	10729
926.245	10790
926.352	10588
926.459	10706
926.566	10748
926.673	10721
926.779	10641
926.886	10561
926.993	10493
927.099	10314
927.206	10382
927.312	10306
927.419	10432
927.525	10356
927.631	10360
927.737	10257
927.843	10291
927.95	10059
928.056	10185
928.162	10291
928.267	10287
928.373	10934
928.479	10246
928.585	10059
928.69	10173
928.796	10246
928.901	10207
929.007	10044
929.112	10192
929.218	10116
929.323	10055
929.428	10036
929.533	10143
929.638	10002
929.743	9979
929.848	10055
929.953	9991
930.058	9930
930.163	9732
930.267	9740
930.372	9873
930.477	9747
930.581	9953
930.685	9846
930.79	9717
930.894	9720
930.998	9690
931.103	9823
931.207	9443
931.311	9378
931.415	9256
931.519	9116
931.623	9104
