Data from test_V78500241_2121.txt Node
Date: Fri Mar 25 14:48:28 CST 2022
User: usil
Spectrometer: V785-0024
Trigger mode: 0
Integration Time (sec): 4.000000E-1
Scans to average: 1
Nonlinearity correction enabled: false
Boxcar width: 0
Storing dark spectrum: false
XAxis mode: Wavelengths
Number of Pixels in Spectrum: 1024
>>>>>Begin Spectral Data<<<<<
801.071	22185
801.214	21975
801.356	21789
801.499	21660
801.641	21435
801.783	21599
801.926	21488
802.068	21401
802.211	21344
802.353	21176
802.496	21024
802.638	21036
802.78	21043
802.923	20960
803.065	20796
803.208	20769
803.35	20956
803.492	20929
803.635	21055
803.777	20811
803.919	20910
804.061	21146
804.204	20914
804.346	20830
804.488	20670
804.63	20602
804.773	20674
804.915	20792
805.057	20864
805.199	20788
805.341	20849
805.483	20872
805.626	20914
805.768	20727
805.91	20823
806.052	20708
806.194	20777
806.336	20849
806.478	20785
806.62	20716
806.762	20731
806.904	21009
807.046	21173
807.188	21169
807.33	21001
807.472	21188
807.614	20914
807.756	20979
807.898	20838
808.04	20876
808.182	20838
808.324	20864
808.465	20948
808.607	20967
808.749	21058
808.891	21249
809.033	21332
809.174	21096
809.316	21096
809.458	21138
809.6	21001
809.741	21055
809.883	21272
810.025	21294
810.166	21412
810.308	21272
810.45	21104
810.591	21188
810.733	20998
810.875	20979
811.016	20849
811.158	20762
811.299	20887
811.441	20956
811.582	21096
811.724	20883
811.865	20807
812.007	20876
812.148	20880
812.29	20914
812.431	21013
812.573	21100
812.714	21291
812.855	21424
812.997	21378
813.138	21519
813.279	21393
813.421	21447
813.562	21325
813.703	21100
813.845	21055
813.986	20617
814.127	20686
814.268	20556
814.41	20602
814.551	20389
814.692	20469
814.833	20317
814.974	20450
815.115	20442
815.256	20267
815.397	20256
815.539	20199
815.68	20096
815.821	20119
815.962	20218
816.103	20130
816.244	19921
816.385	19849
816.526	19833
816.666	19746
816.807	19620
816.948	19590
817.089	19746
817.23	19518
817.371	19529
817.512	19609
817.653	19544
817.793	19559
817.934	19506
818.075	19556
818.216	19693
818.356	19510
818.497	19400
818.638	19225
818.778	19282
818.919	19289
819.06	19285
819.2	19335
819.341	19499
819.481	19453
819.622	19586
819.762	19696
819.903	19742
820.043	19537
820.184	19521
820.324	19430
820.465	19605
820.605	19525
820.746	19495
820.886	19362
821.026	19590
821.167	19563
821.307	19597
821.447	19514
821.588	19362
821.728	19148
821.868	19103
822.008	19019
822.149	18962
822.289	18935
822.429	18825
822.569	18745
822.709	18673
822.849	18475
822.99	18490
823.13	18525
823.27	18384
823.41	18292
823.55	18239
823.69	18243
823.83	18315
823.97	18155
824.11	17954
824.25	17992
824.389	18022
824.529	18182
824.669	18152
824.809	18300
824.949	18194
825.089	18087
825.228	18144
825.368	17843
825.508	17870
825.648	17817
825.787	17927
825.927	17912
826.067	17821
826.206	17733
826.346	17817
826.485	17893
826.625	17794
826.765	17961
826.904	17885
827.044	17592
827.183	17630
827.323	17497
827.462	17592
827.601	17551
827.741	17539
827.88	17551
828.02	17429
828.159	17512
828.298	17539
828.437	17627
828.577	17474
828.716	17703
828.855	17436
828.994	17368
829.134	17273
829.273	17280
829.412	17235
829.551	17269
829.69	17261
829.829	17421
829.968	17337
830.107	17296
830.246	17235
830.385	17128
830.524	17128
830.663	17083
830.802	16991
830.941	16965
831.08	16896
831.219	17033
831.357	16896
831.496	17178
831.635	16980
831.774	16767
831.913	16858
832.051	16721
832.19	16660
832.329	16736
832.467	16603
832.606	16535
832.744	16519
832.883	16504
833.022	16512
833.16	16630
833.299	16592
833.437	16630
833.576	16691
833.714	16569
833.852	16634
833.991	16691
834.129	16763
834.267	16725
834.406	16531
834.544	16611
834.682	16683
834.821	16656
834.959	16790
835.097	16611
835.235	16721
835.373	16668
835.511	16637
835.65	16455
835.788	16535
835.926	16440
836.064	16223
836.202	16402
836.34	16577
836.478	16637
836.615	16573
836.753	16603
836.891	16660
837.029	16573
837.167	16451
837.305	16424
837.443	16443
837.58	16363
837.718	16497
837.856	16379
837.993	16386
838.131	16367
838.269	16272
838.406	16421
838.544	16360
838.681	16143
838.819	16135
838.956	15857
839.094	15930
839.231	15991
839.369	16063
839.506	16295
839.643	16268
839.781	15972
839.918	15972
840.055	15998
840.193	15934
840.33	15953
840.467	15934
840.604	15964
840.742	16246
840.879	15781
841.016	15911
841.153	15964
841.29	16067
841.427	15983
841.564	15994
841.701	15994
841.838	15918
841.975	15819
842.112	15869
842.249	15751
842.385	15793
842.522	15956
842.659	15781
842.796	15694
842.933	15774
843.069	15701
843.206	15705
843.343	15755
843.479	15838
843.616	15766
843.752	15587
843.889	15591
844.025	15671
844.162	15435
844.298	15671
844.435	15576
844.571	15450
844.708	15641
844.844	15736
844.98	15663
845.117	15660
845.253	15454
845.389	15393
845.525	15389
845.661	15386
845.798	15382
845.934	15408
846.07	15256
846.206	15439
846.342	15477
846.478	15370
846.614	15123
846.75	15070
846.886	15013
847.022	15169
847.158	15093
847.294	15135
847.429	15100
847.565	15020
847.701	15264
847.837	14861
847.972	14765
848.108	14956
848.244	14899
848.379	14830
848.515	14632
848.65	14693
848.786	14644
848.921	14724
849.057	14765
849.192	14750
849.328	14765
849.463	14762
849.598	14743
849.734	14590
849.869	14602
850.004	14480
850.14	14568
850.275	14442
850.41	14454
850.545	14434
850.68	14434
850.815	14412
850.95	14526
851.085	14644
851.22	14602
851.355	14431
851.49	14423
851.625	14434
851.76	14389
851.895	14476
852.03	14320
852.165	14366
852.299	14530
852.434	14537
852.569	14423
852.703	14533
852.838	14511
852.973	14625
853.107	14701
853.242	14343
853.376	14370
853.511	14187
853.645	14229
853.78	14400
853.914	14278
854.048	14336
854.183	14301
854.317	14347
854.451	14568
854.585	14381
854.72	14324
854.854	14446
854.988	14195
855.122	14339
855.256	14164
855.39	14351
855.524	14465
855.658	14408
855.792	14381
855.926	14355
856.06	14419
856.194	14408
856.327	14320
856.461	14347
856.595	14309
856.729	14343
856.862	14560
856.996	14263
857.13	14434
857.263	14400
857.397	14495
857.53	14244
857.664	14400
857.797	14446
857.931	14461
858.064	14434
858.197	14484
858.331	14351
858.464	14294
858.597	14237
858.731	14339
858.864	14309
858.997	14298
859.13	14408
859.263	14339
859.396	14442
859.529	14305
859.662	14305
859.795	14267
859.928	14381
860.061	14473
860.194	14514
860.327	14370
860.46	14385
860.592	14442
860.725	14484
860.858	14461
860.99	14290
861.123	14252
861.256	14210
861.388	14393
861.521	15119
861.653	14271
861.786	14199
861.918	14191
862.05	14210
862.183	14301
862.315	14218
862.447	14339
862.58	14294
862.712	14088
862.844	14016
862.976	14115
863.108	14149
863.24	14454
863.372	14130
863.504	14130
863.636	14020
863.768	14126
863.9	14149
864.032	14031
864.164	14088
864.296	14176
864.428	14225
864.559	14084
864.691	14134
864.823	14225
864.954	14172
865.086	14054
865.217	14103
865.349	14008
865.48	14164
865.612	14115
865.743	14244
865.875	14119
866.006	13978
866.137	14092
866.269	14149
866.4	14073
866.531	14046
866.662	14100
866.793	14046
866.924	14027
867.055	14035
867.186	14058
867.317	14012
867.448	13967
867.579	14027
867.71	13951
867.841	13997
867.972	14092
868.103	13982
868.233	14039
868.364	14039
868.495	14073
868.625	14309
868.756	14446
868.886	14240
869.017	14408
869.147	14480
869.278	14396
869.408	14377
869.539	14389
869.669	14446
869.799	14385
869.929	14511
870.06	14457
870.19	14583
870.32	14693
870.45	14659
870.58	14819
870.71	14861
870.84	14769
870.97	14746
871.1	14701
871.23	14861
871.36	14948
871.489	14762
871.619	14853
871.749	14921
871.879	14963
872.008	15055
872.138	15001
872.267	14990
872.397	14792
872.526	14842
872.656	14716
872.785	14849
872.915	14963
873.044	14967
873.173	15005
873.303	14941
873.432	15039
873.561	15005
873.69	15036
873.819	15039
873.948	15051
874.077	14963
874.206	14967
874.335	15001
874.464	15222
874.593	15176
874.722	15245
874.851	15313
874.979	15294
875.108	15351
875.237	15161
875.365	15237
875.494	15245
875.623	15370
875.751	15230
875.88	15287
876.008	15504
876.136	15507
876.265	15679
876.393	15865
876.521	15717
876.65	15785
876.778	15759
876.906	15660
877.034	15648
877.162	15671
877.29	15641
877.418	15682
877.546	15819
877.674	15720
877.802	15580
877.93	15751
878.058	15576
878.185	15663
878.313	15690
878.441	15717
878.568	15568
878.696	15568
878.824	15694
878.951	15751
879.079	15937
879.206	16131
879.333	16017
879.461	15762
879.588	15808
879.715	15850
879.842	15998
879.97	15770
880.097	15549
880.224	15561
880.351	15530
880.478	15553
880.605	15667
880.732	15542
880.859	15854
880.986	15534
881.112	15690
881.239	15435
881.366	15420
881.493	15199
881.619	15214
881.746	15214
881.872	15245
881.999	15119
882.125	15233
882.252	15237
882.378	15203
882.505	15363
882.631	15214
882.757	15051
882.883	15154
883.01	15051
883.136	15013
883.262	14944
883.388	14845
883.514	15093
883.64	15070
883.766	15009
883.892	14838
884.018	14811
884.143	15036
884.269	15077
884.395	14769
884.52	14689
884.646	14758
884.772	14613
884.897	14727
885.023	14792
885.148	14880
885.274	14963
885.399	14861
885.524	14819
885.65	14705
885.775	14720
885.9	14731
886.025	14876
886.15	14910
886.275	14686
886.4	14682
886.525	14777
886.65	14617
886.775	14655
886.9	14849
887.025	15036
887.149	14674
887.274	14549
887.399	14583
887.523	14549
887.648	14545
887.773	14404
887.897	14617
888.021	14598
888.146	14454
888.27	14693
888.395	14610
888.519	14613
888.643	14621
888.767	14670
888.891	14495
889.015	14450
889.139	14530
889.263	14438
889.387	14434
889.511	14617
889.635	14560
889.759	14473
889.883	14370
890.006	14423
890.13	14442
890.254	14339
890.377	14423
890.501	14187
890.624	14161
890.748	14286
890.871	14233
890.995	14096
891.118	13982
891.241	14081
891.364	14218
891.488	14267
891.611	14062
891.734	14142
891.857	14199
891.98	14229
892.103	14164
892.226	14164
892.349	14084
892.471	14092
892.594	14069
892.717	14096
892.839	14161
892.962	14119
893.085	14218
893.207	14008
893.33	14027
893.452	13997
893.575	14202
893.697	14096
893.819	14256
893.941	14339
894.064	14225
894.186	14100
894.308	14077
894.43	14244
894.552	14233
894.674	14229
894.796	14119
894.918	14153
895.04	14115
895.161	14221
895.283	14176
895.405	14210
895.526	14237
895.648	14142
895.769	14244
895.891	14320
896.012	14309
896.134	14275
896.255	14259
896.376	14324
896.498	14244
896.619	14324
896.74	14290
896.861	14374
896.982	14621
897.103	14792
897.224	14610
897.345	14465
897.466	14438
897.587	14541
897.708	14648
897.828	14670
897.949	14541
898.07	14461
898.19	14537
898.311	14667
898.431	14579
898.552	14617
898.672	14701
898.792	14765
898.913	14621
899.033	14488
899.153	14507
899.273	14351
899.393	14404
899.513	14541
899.633	14511
899.753	14571
899.873	14465
899.993	14492
900.113	14514
900.232	14617
900.352	14484
900.472	14408
900.591	14305
900.711	14404
900.83	14347
900.95	14503
901.069	14400
901.189	14278
901.308	14138
901.427	14008
901.546	14058
901.665	14092
901.784	14016
901.904	14001
902.023	13864
902.141	13700
902.26	13597
902.379	13616
902.498	13613
902.617	13624
902.735	13601
902.854	13632
902.973	13518
903.091	13327
903.21	13331
903.328	13339
903.446	13285
903.565	13137
903.683	13240
903.801	13057
903.919	13228
904.038	13145
904.156	13015
904.274	13046
904.392	12894
904.51	12970
904.627	12954
904.745	12985
904.863	13065
904.981	12757
905.098	12760
905.216	12696
905.334	12734
905.451	12665
905.569	12631
905.686	12715
905.803	12642
905.921	12544
906.038	12604
906.155	12452
906.272	12391
906.389	12395
906.506	12319
906.623	12201
906.74	12243
906.857	12182
906.974	12258
907.091	12327
907.208	12467
907.324	12342
907.441	12197
907.557	12038
907.674	12030
907.79	11920
907.907	12057
908.023	12049
908.139	12060
908.256	11946
908.372	11901
908.488	11878
908.604	11794
908.72	11817
908.836	11786
908.952	11718
909.068	11821
909.184	11935
909.3	11805
909.415	11863
909.531	11805
909.647	11486
909.762	11554
909.878	11562
909.993	11493
910.108	11535
910.224	11421
910.339	11604
910.454	11467
910.57	11452
910.685	11379
910.8	11600
910.915	11547
911.03	11406
911.145	11280
911.259	11353
911.374	11288
911.489	11197
911.604	11124
911.718	10976
911.833	10968
911.947	10904
912.062	10828
912.176	11010
912.291	11094
912.405	10946
912.519	11143
912.633	11204
912.748	11128
912.862	10953
912.976	10946
913.09	10702
913.204	10831
913.318	10881
913.431	10980
913.545	11006
913.659	10965
913.772	10904
913.886	10786
914	10778
914.113	10877
914.226	10873
914.34	10892
914.453	10675
914.566	10892
914.68	10744
914.793	10721
914.906	10584
915.019	10493
915.132	10394
915.245	10489
915.358	10577
915.47	10569
915.583	10554
915.696	10558
915.809	10611
915.921	10592
916.034	10508
916.146	10428
916.259	10508
916.371	10577
916.483	10584
916.595	10405
916.708	10379
916.82	10432
916.932	10455
917.044	10489
917.156	10421
917.268	10360
917.38	10287
917.491	10287
917.603	10299
917.715	10394
917.826	10500
917.938	10306
918.049	10291
918.161	10306
918.272	10489
918.384	10405
918.495	10348
918.606	10238
918.717	10067
918.828	10242
918.939	10272
919.05	10124
919.161	10188
919.272	9972
919.383	10112
919.494	10268
919.604	10443
919.715	10291
919.826	10097
919.936	10166
920.047	10310
920.157	10291
920.267	10451
920.378	10306
920.488	10211
920.598	10451
920.708	10531
920.818	10474
920.928	10344
921.038	10550
921.148	10546
921.258	10348
921.368	10181
921.477	10128
921.587	10048
921.697	9949
921.806	10131
921.916	9968
922.025	9888
922.134	9778
922.244	9743
922.353	9823
922.462	9686
922.571	9682
922.68	9500
922.789	9492
922.898	9462
923.007	9500
923.116	9561
923.224	9469
923.333	9511
923.442	9420
923.55	9378
923.659	9332
923.767	9393
923.876	9310
923.984	9389
924.092	9302
924.201	9302
924.309	9340
924.417	9279
924.525	9218
924.633	9317
924.741	10253
924.849	9161
924.956	9283
925.064	9176
925.172	9074
925.279	9097
925.387	9184
925.494	9097
925.602	9268
925.709	9176
925.816	9093
925.924	9184
926.031	9157
926.138	9123
926.245	9161
926.352	9074
926.459	9207
926.566	9226
926.673	9081
926.779	8956
926.886	8982
926.993	8861
927.099	8845
927.206	8811
927.312	8739
927.419	8883
927.525	8777
927.631	8876
927.737	8830
927.843	8716
927.95	8617
928.056	8708
928.162	8758
928.267	8762
928.373	9272
928.479	8845
928.585	8526
928.69	8724
928.796	8735
928.901	8739
929.007	8541
929.112	8739
929.218	8667
929.323	8552
929.428	8549
929.533	8739
929.638	8579
929.743	8518
929.848	8602
929.953	8549
930.058	8480
930.163	8347
930.267	8358
930.372	8473
930.477	8355
930.581	8514
930.685	8385
930.79	8271
930.894	8275
930.998	8267
931.103	8400
931.207	8096
931.311	7970
931.415	7978
931.519	7814
931.623	7807
