Data from test_V78500241_2022.txt Node
Date: Fri Mar 25 14:47:47 CST 2022
User: usil
Spectrometer: V785-0024
Trigger mode: 0
Integration Time (sec): 4.000000E-1
Scans to average: 1
Nonlinearity correction enabled: false
Boxcar width: 0
Storing dark spectrum: false
XAxis mode: Wavelengths
Number of Pixels in Spectrum: 1024
>>>>>Begin Spectral Data<<<<<
801.071	21998
801.214	21930
801.356	21770
801.499	21591
801.641	21568
801.783	21534
801.926	21587
802.068	21450
802.211	21405
802.353	21389
802.496	21108
802.638	20960
802.78	20941
802.923	20887
803.065	20682
803.208	20731
803.35	20785
803.492	20868
803.635	20845
803.777	20864
803.919	20921
804.061	21317
804.204	20918
804.346	20796
804.488	20750
804.63	20811
804.773	20754
804.915	20727
805.057	20785
805.199	20739
805.341	20762
805.483	20823
805.626	20750
805.768	20712
805.91	20712
806.052	20796
806.194	20754
806.336	20834
806.478	20727
806.62	20746
806.762	20960
806.904	20861
807.046	21188
807.188	20941
807.33	20990
807.472	21131
807.614	20899
807.756	20948
807.898	20720
808.04	20765
808.182	20655
808.324	20899
808.465	20880
808.607	20925
808.749	21119
808.891	21199
809.033	21287
809.174	21173
809.316	21169
809.458	21154
809.6	21005
809.741	21211
809.883	21180
810.025	21287
810.166	21336
810.308	21272
810.45	21089
810.591	21173
810.733	21005
810.875	20925
811.016	20823
811.158	20697
811.299	20929
811.441	20998
811.582	21028
811.724	20933
811.865	20823
812.007	20800
812.148	20864
812.29	21032
812.431	21051
812.573	21176
812.714	21268
812.855	21382
812.997	21359
813.138	21576
813.279	21542
813.421	21488
813.562	21321
813.703	21032
813.845	21081
813.986	20743
814.127	20541
814.268	20473
814.41	20492
814.551	20431
814.692	20457
814.833	20332
814.974	20480
815.115	20450
815.256	20202
815.397	20313
815.539	20214
815.68	20126
815.821	20134
815.962	20259
816.103	20096
816.244	19974
816.385	19921
816.526	19784
816.666	19704
816.807	19514
816.948	19738
817.089	19674
817.23	19632
817.371	19586
817.512	19491
817.653	19438
817.793	19548
817.934	19635
818.075	19681
818.216	19540
818.356	19521
818.497	19358
818.638	19263
818.778	19221
818.919	19156
819.06	19255
819.2	19278
819.341	19316
819.481	19384
819.622	19540
819.762	19734
819.903	19738
820.043	19540
820.184	19613
820.324	19605
820.465	19666
820.605	19567
820.746	19506
820.886	19384
821.026	19426
821.167	19514
821.307	19537
821.447	19518
821.588	19274
821.728	19129
821.868	19072
822.008	18985
822.149	18905
822.289	18859
822.429	18692
822.569	18616
822.709	18612
822.849	18460
822.99	18479
823.13	18407
823.27	18327
823.41	18247
823.55	18197
823.69	18239
823.83	18117
823.97	18190
824.11	18038
824.25	18060
824.389	18015
824.529	18064
824.669	17980
824.809	18030
824.949	18167
825.089	18034
825.228	17954
825.368	17794
825.508	17817
825.648	17805
825.787	17874
825.927	17874
826.067	17805
826.206	17863
826.346	17745
826.485	17950
826.625	17741
826.765	17923
826.904	17908
827.044	17554
827.183	17649
827.323	17630
827.462	17592
827.601	17501
827.741	17501
827.88	17566
828.02	17417
828.159	17532
828.298	17482
828.437	17543
828.577	17596
828.716	17665
828.855	17433
828.994	17322
829.134	17299
829.273	17273
829.412	17231
829.551	17189
829.69	17227
829.829	17330
829.968	17349
830.107	17242
830.246	17322
830.385	17197
830.524	17265
830.663	17155
830.802	16953
830.941	16934
831.08	16835
831.219	17003
831.357	16938
831.496	17113
831.635	16839
831.774	16778
831.913	16858
832.051	16687
832.19	16679
832.329	16603
832.467	16603
832.606	16569
832.744	16523
832.883	16538
833.022	16615
833.16	16588
833.299	16596
833.437	16596
833.576	16588
833.714	16698
833.852	16660
833.991	16683
834.129	16687
834.267	16713
834.406	16622
834.544	16736
834.682	16626
834.821	16565
834.959	16725
835.097	16641
835.235	16733
835.373	16573
835.511	16653
835.65	16478
835.788	16630
835.926	16386
836.064	16352
836.202	16413
836.34	16565
836.478	16596
836.615	16481
836.753	16599
836.891	16721
837.029	16645
837.167	16561
837.305	16462
837.443	16405
837.58	16409
837.718	16584
837.856	16356
837.993	16356
838.131	16455
838.269	16390
838.406	16367
838.544	16325
838.681	16158
838.819	16188
838.956	16025
839.094	15854
839.231	16006
839.369	16093
839.506	16318
839.643	16204
839.781	16002
839.918	15960
840.055	16093
840.193	15964
840.33	15956
840.467	15911
840.604	15964
840.742	16158
840.879	15918
841.016	15861
841.153	15884
841.29	16074
841.427	16006
841.564	15964
841.701	16040
841.838	15983
841.975	15915
842.112	15888
842.249	15838
842.385	15724
842.522	15949
842.659	15808
842.796	15766
842.933	15705
843.069	15625
843.206	15682
843.343	15743
843.479	15751
843.616	15778
843.752	15526
843.889	15523
844.025	15793
844.162	15576
844.298	15648
844.435	15511
844.571	15538
844.708	15542
844.844	15804
844.98	15724
845.117	15667
845.253	15473
845.389	15466
845.525	15431
845.661	15401
845.798	15363
845.934	15545
846.07	15291
846.206	15435
846.342	15477
846.478	15370
846.614	15097
846.75	15100
846.886	15066
847.022	15203
847.158	15123
847.294	15176
847.429	15116
847.565	15097
847.701	15351
847.837	14834
847.972	14876
848.108	14998
848.244	14960
848.379	14849
848.515	14674
848.65	14579
848.786	14708
848.921	14686
849.057	14849
849.192	14872
849.328	14842
849.463	14773
849.598	14701
849.734	14629
849.869	14602
850.004	14473
850.14	14537
850.275	14514
850.41	14457
850.545	14465
850.68	14545
850.815	14526
850.95	14370
851.085	14590
851.22	14499
851.355	14522
851.49	14484
851.625	14351
851.76	14362
851.895	14301
852.03	14465
852.165	14514
852.299	14396
852.434	14575
852.569	14537
852.703	14522
852.838	14602
852.973	14705
853.107	14655
853.242	14469
853.376	14358
853.511	14206
853.645	14317
853.78	14446
853.914	14419
854.048	14305
854.183	14267
854.317	14317
854.451	14454
854.585	14358
854.72	14252
854.854	14446
854.988	14290
855.122	14336
855.256	14210
855.39	14317
855.524	14400
855.658	14480
855.792	14419
855.926	14358
856.06	14419
856.194	14396
856.327	14370
856.461	14301
856.595	14275
856.729	14370
856.862	14438
856.996	14362
857.13	14393
857.263	14404
857.397	14560
857.53	14377
857.664	14450
857.797	14454
857.931	14522
858.064	14488
858.197	14404
858.331	14374
858.464	14301
858.597	14206
858.731	14358
858.864	14317
858.997	14332
859.13	14450
859.263	14419
859.396	14393
859.529	14442
859.662	14339
859.795	14259
859.928	14313
860.061	14465
860.194	14518
860.327	14427
860.46	14347
860.592	14419
860.725	14541
860.858	14473
860.99	14339
861.123	14298
861.256	14237
861.388	14328
861.521	15024
861.653	14256
861.786	14168
861.918	14267
862.05	14214
862.183	14301
862.315	14309
862.447	14339
862.58	14278
862.712	14069
862.844	14138
862.976	14183
863.108	14183
863.24	14419
863.372	14024
863.504	14107
863.636	14115
863.768	14187
863.9	14240
864.032	14157
864.164	14050
864.296	14065
864.428	14237
864.559	14157
864.691	14248
864.823	14199
864.954	14123
865.086	14130
865.217	14107
865.349	13978
865.48	14119
865.612	14183
865.743	14259
865.875	14123
866.006	14115
866.137	14115
866.269	14073
866.4	13997
866.531	14096
866.662	14130
866.793	14123
866.924	14008
867.055	14111
867.186	14119
867.317	14077
867.448	14005
867.579	14096
867.71	14001
867.841	14001
867.972	14103
868.103	14138
868.233	14096
868.364	14073
868.495	14214
868.625	14301
868.756	14507
868.886	14320
869.017	14374
869.147	14476
869.278	14415
869.408	14336
869.539	14351
869.669	14374
869.799	14446
869.929	14419
870.06	14469
870.19	14686
870.32	14644
870.45	14739
870.58	14727
870.71	14868
870.84	14933
870.97	14758
871.1	14731
871.23	14872
871.36	14937
871.489	14899
871.619	14883
871.749	14910
871.879	14937
872.008	15001
872.138	14963
872.267	14963
872.397	14815
872.526	14891
872.656	14826
872.785	14785
872.915	14925
873.044	15089
873.173	15032
873.303	15032
873.432	14952
873.561	15005
873.69	15013
873.819	15039
873.948	15112
874.077	15074
874.206	15013
874.335	14933
874.464	15047
874.593	15245
874.722	15283
874.851	15325
874.979	15329
875.108	15454
875.237	15367
875.365	15260
875.494	15291
875.623	15359
875.751	15260
875.88	15408
876.008	15447
876.136	15519
876.265	15671
876.393	15880
876.521	15800
876.65	15831
876.778	15789
876.906	15663
877.034	15625
877.162	15743
877.29	15629
877.418	15728
877.546	15762
877.674	15717
877.802	15739
877.93	15701
878.058	15724
878.185	15561
878.313	15762
878.441	15698
878.568	15587
878.696	15614
878.824	15766
878.951	15823
879.079	15937
879.206	16017
879.333	15998
879.461	15766
879.588	15804
879.715	15956
879.842	15937
879.97	15892
880.097	15652
880.224	15553
880.351	15713
880.478	15610
880.605	15618
880.732	15572
880.859	15850
880.986	15526
881.112	15667
881.239	15469
881.366	15332
881.493	15291
881.619	15161
881.746	15226
881.872	15279
881.999	15211
882.125	15142
882.252	15283
882.378	15321
882.505	15340
882.631	15203
882.757	15108
882.883	15203
883.01	15127
883.136	15013
883.262	14963
883.388	14887
883.514	15104
883.64	15135
883.766	15009
883.892	14944
884.018	14853
884.143	15062
884.269	15119
884.395	14804
884.52	14788
884.646	14629
884.772	14651
884.897	14663
885.023	14830
885.148	14891
885.274	14880
885.399	14921
885.524	14762
885.65	14792
885.775	14781
885.9	14746
886.025	14849
886.15	14727
886.275	14712
886.4	14590
886.525	14731
886.65	14644
886.775	14762
886.9	14929
887.025	14971
887.149	14727
887.274	14678
887.399	14511
887.523	14518
887.648	14522
887.773	14484
887.897	14651
888.021	14590
888.146	14606
888.27	14731
888.395	14735
888.519	14693
888.643	14636
888.767	14644
888.891	14495
889.015	14366
889.139	14450
889.263	14377
889.387	14454
889.511	14689
889.635	14522
889.759	14415
889.883	14336
890.006	14503
890.13	14514
890.254	14396
890.377	14396
890.501	14317
890.624	14187
890.748	14286
890.871	14142
890.995	14103
891.118	14054
891.241	14161
891.364	14065
891.488	14187
891.611	14229
891.734	14149
891.857	14237
891.98	14126
892.103	14214
892.226	14092
892.349	14096
892.471	13982
892.594	14103
892.717	14107
892.839	14077
892.962	14168
893.085	14195
893.207	14206
893.33	13982
893.452	14092
893.575	14145
893.697	14062
893.819	14381
893.941	14320
894.064	14374
894.186	14096
894.308	14134
894.43	14244
894.552	14347
894.674	14237
894.796	14157
894.918	14111
895.04	14180
895.161	14267
895.283	14358
895.405	14229
895.526	14221
895.648	14229
895.769	14290
895.891	14210
896.012	14332
896.134	14320
896.255	14229
896.376	14221
896.498	14309
896.619	14457
896.74	14328
896.861	14507
896.982	14636
897.103	14811
897.224	14651
897.345	14511
897.466	14511
897.587	14590
897.708	14739
897.828	14651
897.949	14514
898.07	14495
898.19	14571
898.311	14701
898.431	14663
898.552	14606
898.672	14670
898.792	14689
898.913	14739
899.033	14625
899.153	14473
899.273	14442
899.393	14511
899.513	14537
899.633	14499
899.753	14533
899.873	14488
899.993	14575
900.113	14473
900.232	14503
900.352	14450
900.472	14419
900.591	14298
900.711	14461
900.83	14343
900.95	14476
901.069	14442
901.189	14351
901.308	14176
901.427	14046
901.546	14012
901.665	14073
901.784	14145
901.904	13928
902.023	14020
902.141	13666
902.26	13620
902.379	13605
902.498	13609
902.617	13483
902.735	13681
902.854	13662
902.973	13571
903.091	13285
903.21	13308
903.328	13293
903.446	13308
903.565	13164
903.683	13240
903.801	13042
903.919	13225
904.038	13126
904.156	13069
904.274	13084
904.392	13031
904.51	12958
904.627	13107
904.745	13015
904.863	12932
904.981	12837
905.098	12684
905.216	12654
905.334	12837
905.451	12791
905.569	12620
905.686	12802
905.803	12776
905.921	12563
906.038	12585
906.155	12467
906.272	12471
906.389	12277
906.506	12311
906.623	12304
906.74	12266
906.857	12220
906.974	12209
907.091	12361
907.208	12391
907.324	12315
907.441	12190
907.557	12060
907.674	12022
907.79	11954
907.907	11984
908.023	12053
908.139	11996
908.256	11942
908.372	11923
908.488	11977
908.604	11859
908.72	11798
908.836	11737
908.952	11741
909.068	11790
909.184	11882
909.3	11882
909.415	11813
909.531	11851
909.647	11566
909.762	11611
909.878	11493
909.993	11535
910.108	11554
910.224	11547
910.339	11577
910.454	11433
910.57	11444
910.685	11299
910.8	11653
910.915	11566
911.03	11402
911.145	11220
911.259	11330
911.374	11284
911.489	11201
911.604	11201
911.718	11052
911.833	11018
911.947	10889
912.062	10889
912.176	10984
912.291	11075
912.405	11090
912.519	11151
912.633	11216
912.748	11079
912.862	11045
912.976	10938
913.09	10824
913.204	10889
913.318	10908
913.431	10984
913.545	10949
913.659	10938
913.772	10881
913.886	10729
914	10820
914.113	10877
914.226	10961
914.34	10828
914.453	10675
914.566	10850
914.68	10790
914.793	10694
914.906	10569
915.019	10592
915.132	10394
915.245	10474
915.358	10466
915.47	10596
915.583	10641
915.696	10611
915.809	10611
915.921	10660
916.034	10489
916.146	10462
916.259	10470
916.371	10554
916.483	10516
916.595	10417
916.708	10481
916.82	10421
916.932	10398
917.044	10466
917.156	10417
917.268	10333
917.38	10405
917.491	10348
917.603	10379
917.715	10344
917.826	10462
917.938	10367
918.049	10227
918.161	10360
918.272	10462
918.384	10485
918.495	10402
918.606	10272
918.717	10181
918.828	10223
918.939	10341
919.05	10169
919.161	10207
919.272	10013
919.383	10116
919.494	10196
919.604	10516
919.715	10265
919.826	10200
919.936	10272
920.047	10314
920.157	10295
920.267	10405
920.378	10276
920.488	10211
920.598	10379
920.708	10558
920.818	10409
920.928	10428
921.038	10512
921.148	10618
921.258	10257
921.368	10192
921.477	10135
921.587	10044
921.697	9949
921.806	10086
921.916	9941
922.025	9846
922.134	9808
922.244	9709
922.353	9846
922.462	9682
922.571	9584
922.68	9572
922.789	9424
922.898	9439
923.007	9462
923.116	9526
923.224	9462
923.333	9515
923.442	9408
923.55	9336
923.659	9435
923.767	9443
923.876	9287
923.984	9389
924.092	9329
924.201	9367
924.309	9393
924.417	9294
924.525	9317
924.633	9313
924.741	10253
924.849	9108
924.956	9264
925.064	9188
925.172	9089
925.279	9039
925.387	9192
925.494	9093
925.602	9340
925.709	9199
925.816	9058
925.924	9146
926.031	9146
926.138	9150
926.245	9165
926.352	9047
926.459	9176
926.566	9211
926.673	9066
926.779	9074
926.886	9028
926.993	8845
927.099	8819
927.206	8811
927.312	8792
927.419	8960
927.525	8872
927.631	8887
927.737	8769
927.843	8815
927.95	8636
928.056	8632
928.162	8724
928.267	8845
928.373	9450
928.479	8876
928.585	8571
928.69	8758
928.796	8735
928.901	8678
929.007	8507
929.112	8629
929.218	8724
929.323	8560
929.428	8575
929.533	8758
929.638	8556
929.743	8552
929.848	8526
929.953	8533
930.058	8412
930.163	8339
930.267	8389
930.372	8541
930.477	8298
930.581	8575
930.685	8423
930.79	8275
930.894	8271
930.998	8240
931.103	8419
931.207	8119
931.311	8027
931.415	7993
931.519	7742
931.623	7769
