Data from test_V78500241_3086.txt Node
Date: Fri Mar 25 14:55:12 CST 2022
User: usil
Spectrometer: V785-0024
Trigger mode: 0
Integration Time (sec): 4.000000E-1
Scans to average: 1
Nonlinearity correction enabled: false
Boxcar width: 0
Storing dark spectrum: false
XAxis mode: Wavelengths
Number of Pixels in Spectrum: 1024
>>>>>Begin Spectral Data<<<<<
801.071	21934
801.214	21930
801.356	21869
801.499	21576
801.641	21481
801.783	21374
801.926	21416
802.068	21363
802.211	21374
802.353	21241
802.496	20998
802.638	20952
802.78	20971
802.923	20804
803.065	20773
803.208	20735
803.35	20758
803.492	20815
803.635	20899
803.777	20826
803.919	20743
804.061	20994
804.204	20864
804.346	20716
804.488	20659
804.63	20693
804.773	20629
804.915	20640
805.057	20746
805.199	20556
805.341	20686
805.483	20861
805.626	20739
805.768	20560
805.91	20705
806.052	20682
806.194	20663
806.336	20788
806.478	20746
806.62	20682
806.762	20750
806.904	20921
807.046	21112
807.188	20975
807.33	21005
807.472	21123
807.614	20914
807.756	20929
807.898	20868
808.04	20727
808.182	20629
808.324	20762
808.465	20800
808.607	20963
808.749	21066
808.891	21226
809.033	21230
809.174	21085
809.316	21081
809.458	21036
809.6	21017
809.741	21062
809.883	21180
810.025	21146
810.166	21104
810.308	21249
810.45	21173
810.591	21074
810.733	20998
810.875	20838
811.016	20857
811.158	20857
811.299	20876
811.441	20960
811.582	20941
811.724	20887
811.865	20815
812.007	20887
812.148	20811
812.29	20811
812.431	20872
812.573	20967
812.714	21169
812.855	21374
812.997	21466
813.138	21553
813.279	21439
813.421	21401
813.562	21169
813.703	20982
813.845	20937
813.986	20602
814.127	20530
814.268	20492
814.41	20446
814.551	20362
814.692	20469
814.833	20282
814.974	20324
815.115	20309
815.256	20275
815.397	20256
815.539	20153
815.68	20081
815.821	20069
815.962	20069
816.103	20077
816.244	20062
816.385	19860
816.526	19837
816.666	19624
816.807	19499
816.948	19563
817.089	19544
817.23	19525
817.371	19415
817.512	19415
817.653	19430
817.793	19510
817.934	19506
818.075	19495
818.216	19445
818.356	19384
818.497	19289
818.638	19084
818.778	19213
818.919	19160
819.06	19209
819.2	19217
819.341	19377
819.481	19365
819.622	19521
819.762	19685
819.903	19518
820.043	19605
820.184	19518
820.324	19445
820.465	19491
820.605	19510
820.746	19453
820.886	19187
821.026	19411
821.167	19354
821.307	19438
821.447	19331
821.588	19217
821.728	19080
821.868	19152
822.008	18875
822.149	18894
822.289	18753
822.429	18559
822.569	18570
822.709	18559
822.849	18376
822.99	18448
823.13	18292
823.27	18308
823.41	18243
823.55	18125
823.69	18167
823.83	18201
823.97	18125
824.11	17958
824.25	17824
824.389	18053
824.529	18026
824.669	17939
824.809	17942
824.949	17954
825.089	17874
825.228	17958
825.368	17737
825.508	17699
825.648	17737
825.787	17775
825.927	17748
826.067	17642
826.206	17592
826.346	17691
826.485	17764
826.625	17699
826.765	17783
826.904	17634
827.044	17459
827.183	17467
827.323	17398
827.462	17326
827.601	17410
827.741	17417
827.88	17429
828.02	17235
828.159	17277
828.298	17429
828.437	17436
828.577	17417
828.716	17478
828.855	17277
828.994	17128
829.134	17147
829.273	17166
829.412	17132
829.551	16995
829.69	17075
829.829	17193
829.968	17204
830.107	17159
830.246	17216
830.385	17060
830.524	16984
830.663	16858
830.802	16782
830.941	16771
831.08	16790
831.219	16885
831.357	16771
831.496	16930
831.635	16672
831.774	16679
831.913	16706
832.051	16535
832.19	16523
832.329	16607
832.467	16428
832.606	16424
832.744	16390
832.883	16341
833.022	16386
833.16	16417
833.299	16478
833.437	16428
833.576	16531
833.714	16447
833.852	16466
833.991	16508
834.129	16535
834.267	16535
834.406	16481
834.544	16561
834.682	16462
834.821	16451
834.959	16607
835.097	16443
835.235	16573
835.373	16561
835.511	16531
835.65	16421
835.788	16348
835.926	16173
836.064	16215
836.202	16238
836.34	16352
836.478	16390
836.615	16268
836.753	16417
836.891	16440
837.029	16466
837.167	16261
837.305	16276
837.443	16314
837.58	16268
837.718	16337
837.856	16299
837.993	16128
838.131	16242
838.269	16215
838.406	16181
838.544	16029
838.681	15907
838.819	15903
838.956	15778
839.094	15732
839.231	15884
839.369	15975
839.506	16200
839.643	16051
839.781	15778
839.918	15766
840.055	15838
840.193	15774
840.33	15713
840.467	15709
840.604	15797
840.742	16025
840.879	15644
841.016	15739
841.153	15675
841.29	15953
841.427	15701
841.564	15800
841.701	15743
841.838	15759
841.975	15762
842.112	15701
842.249	15648
842.385	15580
842.522	15766
842.659	15663
842.796	15500
842.933	15561
843.069	15504
843.206	15492
843.343	15644
843.479	15519
843.616	15717
843.752	15397
843.889	15340
844.025	15504
844.162	15386
844.298	15469
844.435	15332
844.571	15302
844.708	15370
844.844	15561
844.98	15549
845.117	15473
845.253	15291
845.389	15203
845.525	15310
845.661	15283
845.798	15165
845.934	15173
846.07	15070
846.206	15138
846.342	15302
846.478	15252
846.614	15020
846.75	14815
846.886	14876
847.022	15009
847.158	14937
847.294	15017
847.429	14937
847.565	15020
847.701	15116
847.837	14746
847.972	14545
848.108	14746
848.244	14804
848.379	14629
848.515	14495
848.65	14461
848.786	14579
848.921	14568
849.057	14693
849.192	14571
849.328	14522
849.463	14499
849.598	14400
849.734	14423
849.869	14370
850.004	14237
850.14	14377
850.275	14259
850.41	14267
850.545	14240
850.68	14134
850.815	14286
850.95	14317
851.085	14374
851.22	14377
851.355	14286
851.49	14298
851.625	14221
851.76	14282
851.895	14161
852.03	14073
852.165	14282
852.299	14256
852.434	14355
852.569	14298
852.703	14305
852.838	14385
852.973	14476
853.107	14396
853.242	14294
853.376	14218
853.511	14039
853.645	14092
853.78	14271
853.914	14202
854.048	14103
854.183	14096
854.317	14183
854.451	14267
854.585	14210
854.72	14111
854.854	14191
854.988	14058
855.122	14077
855.256	13993
855.39	14123
855.524	14240
855.658	14218
855.792	14244
855.926	14210
856.06	14103
856.194	14294
856.327	14187
856.461	14069
856.595	14126
856.729	14111
856.862	14202
856.996	14164
857.13	14309
857.263	14271
857.397	14263
857.53	14240
857.664	14221
857.797	14221
857.931	14252
858.064	14172
858.197	14317
858.331	14256
858.464	14084
858.597	14084
858.731	14172
858.864	14046
858.997	14134
859.13	14206
859.263	14221
859.396	14248
859.529	14111
859.662	14157
859.795	14145
859.928	14153
860.061	14271
860.194	14389
860.327	14168
860.46	14176
860.592	14309
860.725	14305
860.858	14225
860.99	14168
861.123	14065
861.256	14103
861.388	14096
861.521	14834
861.653	14016
861.786	14065
861.918	14027
862.05	13989
862.183	14153
862.315	14229
862.447	14202
862.58	14111
862.712	13989
862.844	13875
862.976	13951
863.108	13970
863.24	14256
863.372	13807
863.504	13989
863.636	13932
863.768	13928
863.9	13978
864.032	13898
864.164	13890
864.296	14092
864.428	14103
864.559	14157
864.691	14092
864.823	14043
864.954	13970
865.086	13894
865.217	13890
865.349	13833
865.48	13875
865.612	13940
865.743	14092
865.875	13967
866.006	13860
866.137	13970
866.269	13906
866.4	13955
866.531	13909
866.662	13811
866.793	13875
866.924	13974
867.055	13959
867.186	13898
867.317	13887
867.448	13860
867.579	13944
867.71	13902
867.841	13883
867.972	13906
868.103	13936
868.233	13978
868.364	14001
868.495	13997
868.625	14240
868.756	14286
868.886	14153
869.017	14221
869.147	14419
869.278	14317
869.408	14278
869.539	14191
869.669	14214
869.799	14290
869.929	14317
870.06	14393
870.19	14514
870.32	14492
870.45	14511
870.58	14507
870.71	14648
870.84	14708
870.97	14644
871.1	14663
871.23	14864
871.36	14785
871.489	14644
871.619	14804
871.749	14788
871.879	14815
872.008	14937
872.138	14842
872.267	14807
872.397	14667
872.526	14663
872.656	14590
872.785	14655
872.915	14887
873.044	14891
873.173	14910
873.303	14857
873.432	14845
873.561	14864
873.69	14868
873.819	14937
873.948	14948
874.077	14781
874.206	14849
874.335	14925
874.464	15055
874.593	15218
874.722	15104
874.851	15222
874.979	15214
875.108	15245
875.237	15154
875.365	15104
875.494	15249
875.623	15245
875.751	15112
875.88	15302
876.008	15359
876.136	15405
876.265	15595
876.393	15747
876.521	15671
876.65	15633
876.778	15720
876.906	15549
877.034	15572
877.162	15599
877.29	15568
877.418	15648
877.546	15595
877.674	15625
877.802	15629
877.93	15633
878.058	15572
878.185	15564
878.313	15534
878.441	15614
878.568	15397
878.696	15443
878.824	15603
878.951	15618
879.079	15781
879.206	15915
879.333	15793
879.461	15663
879.588	15739
879.715	15804
879.842	15838
879.97	15652
880.097	15462
880.224	15439
880.351	15466
880.478	15485
880.605	15458
880.732	15435
880.859	15625
880.986	15538
881.112	15412
881.239	15291
881.366	15195
881.493	15058
881.619	15165
881.746	15108
881.872	15180
881.999	15195
882.125	15058
882.252	15131
882.378	15142
882.505	15348
882.631	14990
882.757	14899
882.883	14979
883.01	14967
883.136	14849
883.262	14781
883.388	14765
883.514	14910
883.64	14937
883.766	15001
883.892	14800
884.018	14777
884.143	14963
884.269	14910
884.395	14651
884.52	14617
884.646	14667
884.772	14564
884.897	14583
885.023	14594
885.148	14731
885.274	14819
885.399	14724
885.524	14644
885.65	14659
885.775	14655
885.9	14648
886.025	14716
886.15	14693
886.275	14541
886.4	14579
886.525	14583
886.65	14495
886.775	14598
886.9	14838
887.025	14933
887.149	14693
887.274	14442
887.399	14473
887.523	14495
887.648	14317
887.773	14358
887.897	14560
888.021	14393
888.146	14423
888.27	14621
888.395	14560
888.519	14514
888.643	14530
888.767	14533
888.891	14377
889.015	14259
889.139	14263
889.263	14355
889.387	14495
889.511	14461
889.635	14431
889.759	14324
889.883	14240
890.006	14381
890.13	14393
890.254	14286
890.377	14221
890.501	14100
890.624	14031
890.748	14199
890.871	14008
890.995	14012
891.118	13936
891.241	13967
891.364	14027
891.488	14195
891.611	13970
891.734	14065
891.857	14081
891.98	14107
892.103	14126
892.226	14161
892.349	14130
892.471	13871
892.594	14103
892.717	14161
892.839	13944
892.962	14043
893.085	14001
893.207	14008
893.33	13913
893.452	13944
893.575	14062
893.697	14043
893.819	14157
893.941	14240
894.064	14263
894.186	13997
894.308	13997
894.43	14233
894.552	14187
894.674	14130
894.796	13947
894.918	14012
895.04	14016
895.161	14183
895.283	14149
895.405	14088
895.526	14084
895.648	14088
895.769	14111
895.891	14183
896.012	14225
896.134	14233
896.255	14233
896.376	14027
896.498	14142
896.619	14286
896.74	14271
896.861	14320
896.982	14492
897.103	14720
897.224	14552
897.345	14381
897.466	14434
897.587	14412
897.708	14583
897.828	14533
897.949	14415
898.07	14427
898.19	14457
898.311	14606
898.431	14476
898.552	14579
898.672	14590
898.792	14644
898.913	14625
899.033	14404
899.153	14454
899.273	14324
899.393	14450
899.513	14469
899.633	14473
899.753	14339
899.873	14336
899.993	14499
900.113	14434
900.232	14389
900.352	14400
900.472	14370
900.591	14271
900.711	14271
900.83	14199
900.95	14313
901.069	14450
901.189	14191
901.308	14035
901.427	13974
901.546	13898
901.665	13982
901.784	14077
901.904	13837
902.023	13685
902.141	13575
902.26	13540
902.379	13578
902.498	13636
902.617	13426
902.735	13518
902.854	13586
902.973	13552
903.091	13270
903.21	13202
903.328	13202
903.446	13190
903.565	13084
903.683	13107
903.801	12939
903.919	13141
904.038	13023
904.156	12901
904.274	13031
904.392	12920
904.51	12913
904.627	12875
904.745	12840
904.863	12977
904.981	12817
905.098	12639
905.216	12574
905.334	12616
905.451	12604
905.569	12570
905.686	12681
905.803	12623
905.921	12380
906.038	12448
906.155	12407
906.272	12380
906.389	12311
906.506	12167
906.623	12247
906.74	12163
906.857	12076
906.974	12159
907.091	12346
907.208	12270
907.324	12270
907.441	12194
907.557	11950
907.674	11931
907.79	11863
907.907	11847
908.023	11908
908.139	11897
908.256	11882
908.372	11863
908.488	11832
908.604	11649
908.72	11630
908.836	11798
908.952	11695
909.068	11684
909.184	11821
909.3	11737
909.415	11764
909.531	11707
909.647	11505
909.762	11463
909.878	11398
909.993	11551
910.108	11493
910.224	11436
910.339	11467
910.454	11398
910.57	11387
910.685	11292
910.8	11463
910.915	11532
911.03	11372
911.145	11147
911.259	11147
911.374	11189
911.489	11064
911.604	11155
911.718	10889
911.833	10984
911.947	10843
912.062	10759
912.176	10934
912.291	10919
912.405	10892
912.519	11124
912.633	11121
912.748	10995
912.862	10908
912.976	10839
913.09	10759
913.204	10744
913.318	10858
913.431	10873
913.545	10854
913.659	10866
913.772	10858
913.886	10694
914	10554
914.113	10778
914.226	10793
914.34	10786
914.453	10611
914.566	10782
914.68	10618
914.793	10607
914.906	10428
915.019	10337
915.132	10375
915.245	10436
915.358	10428
915.47	10474
915.583	10470
915.696	10474
915.809	10550
915.921	10592
916.034	10440
916.146	10375
916.259	10329
916.371	10455
916.483	10386
916.595	10325
916.708	10344
916.82	10367
916.932	10428
917.044	10352
917.156	10284
917.268	10287
917.38	10379
917.491	10261
917.603	10249
917.715	10375
917.826	10436
917.938	10306
918.049	10207
918.161	10268
918.272	10432
918.384	10432
918.495	10246
918.606	10112
918.717	10059
918.828	10166
918.939	10124
919.05	10131
919.161	10135
919.272	9895
919.383	9998
919.494	10204
919.604	10405
919.715	10211
919.826	10097
919.936	10192
920.047	10246
920.157	10143
920.267	10402
920.378	10177
920.488	10120
920.598	10280
920.708	10500
920.818	10325
920.928	10360
921.038	10527
921.148	10421
921.258	10204
921.368	10093
921.477	10017
921.587	9922
921.697	9876
921.806	10097
921.916	9915
922.025	9762
922.134	9759
922.244	9698
922.353	9835
922.462	9614
922.571	9561
922.68	9424
922.789	9393
922.898	9408
923.007	9367
923.116	9428
923.224	9439
923.333	9367
923.442	9363
923.55	9359
923.659	9344
923.767	9420
923.876	9256
923.984	9428
924.092	9260
924.201	9302
924.309	9291
924.417	9351
924.525	9264
924.633	9279
924.741	10162
924.849	8986
924.956	9188
925.064	9097
925.172	9039
925.279	9058
925.387	9020
925.494	9077
925.602	9218
925.709	9203
925.816	9036
925.924	9055
926.031	9104
926.138	9093
926.245	9135
926.352	9093
926.459	9116
926.566	9207
926.673	9020
926.779	8925
926.886	8975
926.993	8777
927.099	8746
927.206	8716
927.312	8800
927.419	8857
927.525	8815
927.631	8861
927.737	8697
927.843	8746
927.95	8610
928.056	8705
928.162	8583
928.267	8804
928.373	9355
928.479	8785
928.585	8598
928.69	8613
928.796	8689
928.901	8556
929.007	8454
929.112	8583
929.218	8545
929.323	8598
929.428	8503
929.533	8651
929.638	8442
929.743	8522
929.848	8473
929.953	8454
930.058	8404
930.163	8252
930.267	8275
930.372	8438
930.477	8256
930.581	8484
930.685	8347
930.79	8206
930.894	8240
930.998	8221
931.103	8438
931.207	7963
931.311	7963
931.415	7864
931.519	7780
931.623	7746
