Data from test_V78500241_3608.txt Node
Date: Fri Mar 25 14:58:50 CST 2022
User: usil
Spectrometer: V785-0024
Trigger mode: 0
Integration Time (sec): 4.000000E-1
Scans to average: 1
Nonlinearity correction enabled: false
Boxcar width: 0
Storing dark spectrum: false
XAxis mode: Wavelengths
Number of Pixels in Spectrum: 1024
>>>>>Begin Spectral Data<<<<<
801.071	21857
801.214	21930
801.356	21454
801.499	21526
801.641	21416
801.783	21306
801.926	21272
802.068	21321
802.211	21009
802.353	21024
802.496	20819
802.638	20693
802.78	20625
802.923	20594
803.065	20499
803.208	20636
803.35	20549
803.492	20682
803.635	20724
803.777	20541
803.919	20648
804.061	20876
804.204	20746
804.346	20552
804.488	20457
804.63	20564
804.773	20412
804.915	20533
805.057	20560
805.199	20374
805.341	20408
805.483	20552
805.626	20530
805.768	20564
805.91	20552
806.052	20484
806.194	20328
806.336	20609
806.478	20438
806.62	20381
806.762	20522
806.904	20659
807.046	20925
807.188	20921
807.33	20788
807.472	20883
807.614	20705
807.756	20724
807.898	20613
808.04	20511
808.182	20415
808.324	20602
808.465	20556
808.607	20693
808.749	20864
808.891	20921
809.033	21020
809.174	20883
809.316	20857
809.458	20670
809.6	20727
809.741	20910
809.883	20857
810.025	21013
810.166	20891
810.308	20998
810.45	21005
810.591	20800
810.733	20743
810.875	20537
811.016	20374
811.158	20606
811.299	20598
811.441	20762
811.582	20693
811.724	20575
811.865	20587
812.007	20651
812.148	20533
812.29	20575
812.431	20891
812.573	20876
812.714	20982
812.855	21127
812.997	21218
813.138	21329
813.279	21230
813.421	21070
813.562	20952
813.703	20914
813.845	20720
813.986	20465
814.127	20191
814.268	20180
814.41	20187
814.551	20122
814.692	20240
814.833	20088
814.974	20020
815.115	20168
815.256	20058
815.397	19936
815.539	19951
815.68	19951
815.821	19868
815.962	19978
816.103	19807
816.244	19803
816.385	19628
816.526	19491
816.666	19415
816.807	19266
816.948	19396
817.089	19445
817.23	19384
817.371	19217
817.512	19240
817.653	19255
817.793	19244
817.934	19266
818.075	19198
818.216	19198
818.356	19206
818.497	19107
818.638	18932
818.778	19038
818.919	19034
819.06	18897
819.2	19114
819.341	19183
819.481	19225
819.622	19343
819.762	19495
819.903	19449
820.043	19297
820.184	19251
820.324	19209
820.465	19324
820.605	19255
820.746	19365
820.886	19053
821.026	19183
821.167	19217
821.307	19285
821.447	19129
821.588	19004
821.728	19015
821.868	18711
822.008	18681
822.149	18608
822.289	18665
822.429	18433
822.569	18357
822.709	18452
822.849	18251
822.99	18133
823.13	18174
823.27	18117
823.41	17980
823.55	17904
823.69	18083
823.83	17893
823.97	17904
824.11	17646
824.25	17779
824.389	17748
824.529	17745
824.669	17760
824.809	17901
824.949	17931
825.089	17824
825.228	17771
825.368	17463
825.508	17497
825.648	17539
825.787	17585
825.927	17585
826.067	17398
826.206	17551
826.346	17463
826.485	17615
826.625	17391
826.765	17642
826.904	17562
827.044	17345
827.183	17242
827.323	17143
827.462	17242
827.601	17284
827.741	17162
827.88	17250
828.02	17056
828.159	17185
828.298	17303
828.437	17341
828.577	17303
828.716	17292
828.855	17155
828.994	16995
829.134	16987
829.273	16965
829.412	16831
829.551	16930
829.69	16976
829.829	16972
829.968	17006
830.107	17003
830.246	16946
830.385	16866
830.524	16862
830.663	16900
830.802	16782
830.941	16615
831.08	16626
831.219	16653
831.357	16630
831.496	16729
831.635	16599
831.774	16527
831.913	16519
832.051	16291
832.19	16436
832.329	16474
832.467	16409
832.606	16177
832.744	16234
832.883	16211
833.022	16303
833.16	16276
833.299	16367
833.437	16295
833.576	16394
833.714	16375
833.852	16356
833.991	16390
834.129	16493
834.267	16405
834.406	16382
834.544	16417
834.682	16314
834.821	16333
834.959	16653
835.097	16306
835.235	16440
835.373	16341
835.511	16360
835.65	16356
835.788	16246
835.926	16242
836.064	15998
836.202	16173
836.34	16390
836.478	16382
836.615	16272
836.753	16363
836.891	16451
837.029	16329
837.167	16295
837.305	16284
837.443	16238
837.58	16188
837.718	16223
837.856	16230
837.993	16067
838.131	16207
838.269	16143
838.406	16200
838.544	16242
838.681	15968
838.819	15819
838.956	15709
839.094	15835
839.231	15819
839.369	15930
839.506	16169
839.643	15994
839.781	15800
839.918	15747
840.055	15766
840.193	15785
840.33	15762
840.467	15732
840.604	15755
840.742	15964
840.879	15625
841.016	15709
841.153	15591
841.29	15812
841.427	15720
841.564	15800
841.701	15816
841.838	15648
841.975	15614
842.112	15667
842.249	15576
842.385	15469
842.522	15705
842.659	15618
842.796	15587
842.933	15515
843.069	15507
843.206	15496
843.343	15679
843.479	15660
843.616	15458
843.752	15199
843.889	15302
844.025	15462
844.162	15272
844.298	15450
844.435	15264
844.571	15287
844.708	15344
844.844	15401
844.98	15481
845.117	15458
845.253	15321
845.389	15077
845.525	15268
845.661	15272
845.798	15066
845.934	15173
846.07	15116
846.206	15058
846.342	15161
846.478	15093
846.614	14982
846.75	14823
846.886	14842
847.022	14883
847.158	14944
847.294	14906
847.429	14880
847.565	14845
847.701	15123
847.837	14663
847.972	14625
848.108	14746
848.244	14655
848.379	14492
848.515	14457
848.65	14385
848.786	14393
848.921	14564
849.057	14575
849.192	14590
849.328	14560
849.463	14476
849.598	14412
849.734	14454
849.869	14332
850.004	14347
850.14	14305
850.275	14377
850.41	14259
850.545	14206
850.68	14248
850.815	14328
850.95	14244
851.085	14495
851.22	14336
851.355	14317
851.49	14199
851.625	14199
851.76	14225
851.895	14161
852.03	14180
852.165	14271
852.299	14305
852.434	14282
852.569	14454
852.703	14278
852.838	14229
852.973	14393
853.107	14442
853.242	14252
853.376	14123
853.511	14043
853.645	14130
853.78	14286
853.914	14123
854.048	14031
854.183	14111
854.317	14138
854.451	14309
854.585	14077
854.72	14039
854.854	14168
854.988	14077
855.122	14157
855.256	13963
855.39	14183
855.524	14145
855.658	14221
855.792	14157
855.926	14180
856.06	14084
856.194	14244
856.327	14111
856.461	14054
856.595	14092
856.729	14138
856.862	14191
856.996	14142
857.13	14164
857.263	14248
857.397	14237
857.53	14130
857.664	14153
857.797	14191
857.931	14157
858.064	14161
858.197	14240
858.331	14172
858.464	14145
858.597	14069
858.731	14119
858.864	14126
858.997	14103
859.13	14153
859.263	14168
859.396	14168
859.529	14058
859.662	14088
859.795	14073
859.928	14077
860.061	14214
860.194	14218
860.327	14153
860.46	14210
860.592	14240
860.725	14298
860.858	14244
860.99	14081
861.123	14115
861.256	14111
861.388	14130
861.521	14887
861.653	14050
861.786	13978
861.918	13925
862.05	14016
862.183	14050
862.315	14088
862.447	14271
862.58	14081
862.712	13830
862.844	13883
862.976	13894
863.108	13879
863.24	14256
863.372	13780
863.504	13799
863.636	13947
863.768	13959
863.9	13959
864.032	13791
864.164	13807
864.296	13947
864.428	14073
864.559	13913
864.691	13989
864.823	13997
864.954	13947
865.086	13932
865.217	13967
865.349	13826
865.48	13860
865.612	13944
865.743	13986
865.875	13811
866.006	13909
866.137	13940
866.269	13909
866.4	13833
866.531	13799
866.662	13826
866.793	13837
866.924	13883
867.055	13944
867.186	13894
867.317	13849
867.448	13814
867.579	13856
867.71	13799
867.841	13772
867.972	13852
868.103	13894
868.233	13932
868.364	13944
868.495	14008
868.625	14119
868.756	14237
868.886	14016
869.017	14138
869.147	14358
869.278	14248
869.408	14225
869.539	14138
869.669	14252
869.799	14233
869.929	14362
870.06	14298
870.19	14446
870.32	14423
870.45	14438
870.58	14549
870.71	14632
870.84	14590
870.97	14530
871.1	14511
871.23	14731
871.36	14785
871.489	14632
871.619	14758
871.749	14632
871.879	14842
872.008	14891
872.138	14777
872.267	14663
872.397	14629
872.526	14583
872.656	14571
872.785	14606
872.915	14857
873.044	14880
873.173	14804
873.303	14838
873.432	14804
873.561	14876
873.69	14819
873.819	14823
873.948	14826
874.077	14830
874.206	14765
874.335	14807
874.464	14933
874.593	15097
874.722	15017
874.851	15127
874.979	15089
875.108	15222
875.237	15055
875.365	14895
875.494	15154
875.623	15203
875.751	15150
875.88	15222
876.008	15203
876.136	15279
876.265	15561
876.393	15759
876.521	15526
876.65	15614
876.778	15603
876.906	15507
877.034	15553
877.162	15447
877.29	15481
877.418	15477
877.546	15542
877.674	15534
877.802	15572
877.93	15549
878.058	15530
878.185	15412
878.313	15466
878.441	15549
878.568	15386
878.696	15469
878.824	15568
878.951	15576
879.079	15652
879.206	15842
879.333	15580
879.461	15629
879.588	15648
879.715	15736
879.842	15857
879.97	15641
880.097	15435
880.224	15462
880.351	15386
880.478	15382
880.605	15397
880.732	15348
880.859	15648
880.986	15397
881.112	15492
881.239	15291
881.366	15184
881.493	15093
881.619	15032
881.746	15051
881.872	15032
881.999	15089
882.125	15055
882.252	15028
882.378	14994
882.505	15291
882.631	15028
882.757	14815
882.883	14914
883.01	14899
883.136	14796
883.262	14735
883.388	14727
883.514	14899
883.64	14918
883.766	14868
883.892	14712
884.018	14686
884.143	14743
884.269	14963
884.395	14590
884.52	14488
884.646	14556
884.772	14415
884.897	14552
885.023	14537
885.148	14674
885.274	14720
885.399	14610
885.524	14602
885.65	14571
885.775	14541
885.9	14594
886.025	14746
886.15	14564
886.275	14556
886.4	14552
886.525	14640
886.65	14522
886.775	14408
886.9	14598
887.025	14819
887.149	14522
887.274	14419
887.399	14355
887.523	14431
887.648	14355
887.773	14301
887.897	14583
888.021	14476
888.146	14400
888.27	14518
888.395	14518
888.519	14587
888.643	14473
888.767	14473
888.891	14298
889.015	14286
889.139	14252
889.263	14324
889.387	14427
889.511	14606
889.635	14332
889.759	14240
889.883	14172
890.006	14229
890.13	14336
890.254	14195
890.377	14252
890.501	14088
890.624	14088
890.748	14119
890.871	13928
890.995	13921
891.118	13864
891.241	14031
891.364	13982
891.488	13997
891.611	14062
891.734	13936
891.857	14012
891.98	14024
892.103	14031
892.226	13997
892.349	13936
892.471	13883
892.594	13989
892.717	13909
892.839	13997
892.962	14012
893.085	14103
893.207	13993
893.33	13894
893.452	13856
893.575	14069
893.697	13936
893.819	14123
893.941	14221
894.064	14096
894.186	13913
894.308	13970
894.43	14130
894.552	14183
894.674	14134
894.796	13909
894.918	13978
895.04	13902
895.161	14043
895.283	14035
895.405	13967
895.526	14149
895.648	14065
895.769	14081
895.891	14065
896.012	14202
896.134	14145
896.255	14092
896.376	14145
896.498	14111
896.619	14149
896.74	14100
896.861	14221
896.982	14522
897.103	14659
897.224	14419
897.345	14469
897.466	14370
897.587	14434
897.708	14454
897.828	14408
897.949	14347
898.07	14218
898.19	14389
898.311	14560
898.431	14328
898.552	14473
898.672	14549
898.792	14640
898.913	14518
899.033	14362
899.153	14332
899.273	14183
899.393	14320
899.513	14374
899.633	14301
899.753	14370
899.873	14339
899.993	14370
900.113	14351
900.232	14374
900.352	14324
900.472	14248
900.591	14111
900.711	14176
900.83	14084
900.95	14256
901.069	14305
901.189	14081
901.308	13925
901.427	13845
901.546	13875
901.665	13932
901.784	13951
901.904	13708
902.023	13658
902.141	13445
902.26	13483
902.379	13472
902.498	13415
902.617	13362
902.735	13422
902.854	13460
902.973	13384
903.091	13266
903.21	13114
903.328	13152
903.446	13069
903.565	13118
903.683	13050
903.801	12863
903.919	13061
904.038	13080
904.156	12928
904.274	12875
904.392	12894
904.51	12890
904.627	12825
904.745	12920
904.863	12821
904.981	12646
905.098	12540
905.216	12525
905.334	12574
905.451	12574
905.569	12551
905.686	12635
905.803	12570
905.921	12357
906.038	12437
906.155	12372
906.272	12251
906.389	12319
906.506	12102
906.623	12117
906.74	12102
906.857	11961
906.974	12106
907.091	12182
907.208	12292
907.324	12152
907.441	12087
907.557	11923
907.674	11950
907.79	11824
907.907	11802
908.023	11927
908.139	11904
908.256	11828
908.372	11745
908.488	11767
908.604	11714
908.72	11668
908.836	11600
908.952	11630
909.068	11695
909.184	11741
909.3	11661
909.415	11741
909.531	11615
909.647	11417
909.762	11356
909.878	11364
909.993	11436
910.108	11433
910.224	11391
910.339	11429
910.454	11353
910.57	11269
910.685	11174
910.8	11524
910.915	11444
911.03	11273
911.145	11052
911.259	11094
911.374	11117
911.489	11014
911.604	11102
911.718	10900
911.833	10908
911.947	10687
912.062	10786
912.176	10866
912.291	10896
912.405	10805
912.519	11075
912.633	11083
912.748	10942
912.862	10915
912.976	10809
913.09	10660
913.204	10702
913.318	10797
913.431	10816
913.545	10782
913.659	10885
913.772	10797
913.886	10679
914	10546
914.113	10660
914.226	10767
914.34	10721
914.453	10519
914.566	10653
914.68	10626
914.793	10596
914.906	10451
915.019	10306
915.132	10318
915.245	10367
915.358	10360
915.47	10398
915.583	10493
915.696	10523
915.809	10443
915.921	10622
916.034	10390
916.146	10375
916.259	10337
916.371	10443
916.483	10413
916.595	10295
916.708	10367
916.82	10341
916.932	10405
917.044	10363
917.156	10367
917.268	10150
917.38	10207
917.491	10158
917.603	10215
917.715	10227
917.826	10386
917.938	10219
918.049	10131
918.161	10246
918.272	10382
918.384	10363
918.495	10223
918.606	10112
918.717	10048
918.828	10166
918.939	10082
919.05	10036
919.161	10116
919.272	9812
919.383	9918
919.494	10124
919.604	10295
919.715	10185
919.826	10051
919.936	10116
920.047	10257
920.157	10154
920.267	10386
920.378	10246
920.488	10120
920.598	10348
920.708	10474
920.818	10257
920.928	10272
921.038	10459
921.148	10443
921.258	10139
921.368	10017
921.477	9945
921.587	9937
921.697	9915
921.806	10017
921.916	9842
922.025	9762
922.134	9713
922.244	9713
922.353	9736
922.462	9511
922.571	9587
922.68	9302
922.789	9336
922.898	9408
923.007	9382
923.116	9431
923.224	9401
923.333	9363
923.442	9230
923.55	9233
923.659	9302
923.767	9275
923.876	9214
923.984	9344
924.092	9188
924.201	9184
924.309	9302
924.417	9275
924.525	9169
924.633	9233
924.741	9998
924.849	9062
924.956	9184
925.064	9055
925.172	8941
925.279	8998
925.387	9074
925.494	9028
925.602	9169
925.709	9142
925.816	8998
925.924	8937
926.031	9093
926.138	9005
926.245	9123
926.352	8952
926.459	9089
926.566	9123
926.673	8986
926.779	8880
926.886	8864
926.993	8842
927.099	8746
927.206	8697
927.312	8766
927.419	8788
927.525	8735
927.631	8781
927.737	8670
927.843	8693
927.95	8552
928.056	8594
928.162	8697
928.267	8648
928.373	9233
928.479	8754
928.585	8503
928.69	8655
928.796	8689
928.901	8598
929.007	8469
929.112	8571
929.218	8590
929.323	8541
929.428	8480
929.533	8644
929.638	8400
929.743	8488
929.848	8499
929.953	8438
930.058	8301
930.163	8191
930.267	8237
930.372	8370
930.477	8229
930.581	8381
930.685	8339
930.79	8176
930.894	8252
930.998	8214
931.103	8343
931.207	7989
931.311	7967
931.415	7841
931.519	7704
931.623	7677
