Data from test_V78500241_3272.txt Node
Date: Fri Mar 25 14:56:29 CST 2022
User: usil
Spectrometer: V785-0024
Trigger mode: 0
Integration Time (sec): 4.000000E-1
Scans to average: 1
Nonlinearity correction enabled: false
Boxcar width: 0
Storing dark spectrum: false
XAxis mode: Wavelengths
Number of Pixels in Spectrum: 1024
>>>>>Begin Spectral Data<<<<<
801.071	21983
801.214	21850
801.356	21675
801.499	21534
801.641	21386
801.783	21363
801.926	21405
802.068	21355
802.211	21283
802.353	21066
802.496	20872
802.638	20785
802.78	20925
802.923	20811
803.065	20629
803.208	20724
803.35	20705
803.492	20906
803.635	20880
803.777	20712
803.919	20857
804.061	21062
804.204	20785
804.346	20568
804.488	20514
804.63	20564
804.773	20541
804.915	20674
805.057	20644
805.199	20594
805.341	20644
805.483	20727
805.626	20670
805.768	20503
805.91	20564
806.052	20473
806.194	20514
806.336	20609
806.478	20469
806.62	20579
806.762	20571
806.904	20670
807.046	20883
807.188	20826
807.33	20887
807.472	20883
807.614	20823
807.756	20868
807.898	20689
808.04	20640
808.182	20613
808.324	20640
808.465	20556
808.607	20815
808.749	21001
808.891	21032
809.033	21081
809.174	21062
809.316	20948
809.458	20899
809.6	21032
809.741	20986
809.883	21009
810.025	21093
810.166	21089
810.308	21108
810.45	21142
810.591	20967
810.733	20792
810.875	20792
811.016	20636
811.158	20575
811.299	20815
811.441	20876
811.582	20735
811.724	20708
811.865	20655
812.007	20807
812.148	20689
812.29	20762
812.431	20883
812.573	20910
812.714	21123
812.855	21214
812.997	21241
813.138	21363
813.279	21298
813.421	21302
813.562	21169
813.703	20982
813.845	20868
813.986	20549
814.127	20419
814.268	20294
814.41	20248
814.551	20263
814.692	20301
814.833	20142
814.974	20187
815.115	20358
815.256	20176
815.397	20096
815.539	20119
815.68	19944
815.821	19879
815.962	20065
816.103	19909
816.244	19791
816.385	19715
816.526	19571
816.666	19605
816.807	19293
816.948	19514
817.089	19537
817.23	19327
817.371	19289
817.512	19308
817.653	19301
817.793	19141
817.934	19400
818.075	19278
818.216	19483
818.356	19350
818.497	19164
818.638	19080
818.778	19069
818.919	19008
819.06	19042
819.2	19221
819.341	19274
819.481	19274
819.622	19430
819.762	19582
819.903	19464
820.043	19316
820.184	19400
820.324	19312
820.465	19468
820.605	19411
820.746	19320
820.886	19297
821.026	19289
821.167	19232
821.307	19384
821.447	19304
821.588	19160
821.728	19103
821.868	18962
822.008	18856
822.149	18768
822.289	18821
822.429	18441
822.569	18475
822.709	18433
822.849	18304
822.99	18266
823.13	18178
823.27	18270
823.41	17980
823.55	17942
823.69	18106
823.83	18079
823.97	17996
824.11	17859
824.25	17684
824.389	17859
824.529	17961
824.669	17798
824.809	17980
824.949	17984
825.089	17828
825.228	17904
825.368	17718
825.508	17577
825.648	17748
825.787	17672
825.927	17684
826.067	17562
826.206	17581
826.346	17657
826.485	17608
826.625	17623
826.765	17718
826.904	17623
827.044	17433
827.183	17349
827.323	17395
827.462	17379
827.601	17368
827.741	17318
827.88	17280
828.02	17094
828.159	17334
828.298	17398
828.437	17330
828.577	17379
828.716	17452
828.855	17326
828.994	17204
829.134	17204
829.273	17117
829.412	17029
829.551	16957
829.69	17075
829.829	17174
829.968	17193
830.107	17181
830.246	17147
830.385	17022
830.524	16908
830.663	16957
830.802	16889
830.941	16687
831.08	16729
831.219	16790
831.357	16740
831.496	16911
831.635	16679
831.774	16660
831.913	16618
832.051	16478
832.19	16447
832.329	16519
832.467	16440
832.606	16310
832.744	16443
832.883	16432
833.022	16409
833.16	16421
833.299	16375
833.437	16470
833.576	16489
833.714	16497
833.852	16561
833.991	16432
834.129	16630
834.267	16462
834.406	16436
834.544	16523
834.682	16577
834.821	16428
834.959	16668
835.097	16489
835.235	16531
835.373	16402
835.511	16470
835.65	16390
835.788	16356
835.926	16287
836.064	16109
836.202	16219
836.34	16455
836.478	16500
836.615	16314
836.753	16356
836.891	16459
837.029	16417
837.167	16291
837.305	16268
837.443	16318
837.58	16204
837.718	16306
837.856	16169
837.993	16188
838.131	16143
838.269	16272
838.406	16067
838.544	16090
838.681	15876
838.819	15907
838.956	15812
839.094	15739
839.231	15720
839.369	15899
839.506	16139
839.643	16078
839.781	15812
839.918	15842
840.055	15869
840.193	15804
840.33	15720
840.467	15785
840.604	15778
840.742	16055
840.879	15675
841.016	15637
841.153	15682
841.29	15854
841.427	15701
841.564	15869
841.701	15838
841.838	15747
841.975	15705
842.112	15587
842.249	15629
842.385	15496
842.522	15797
842.659	15732
842.796	15614
842.933	15557
843.069	15580
843.206	15481
843.343	15641
843.479	15545
843.616	15614
843.752	15359
843.889	15382
844.025	15530
844.162	15306
844.298	15431
844.435	15355
844.571	15340
844.708	15401
844.844	15496
844.98	15511
845.117	15389
845.253	15260
845.389	15237
845.525	15272
845.661	15260
845.798	15074
845.934	15199
846.07	15165
846.206	15176
846.342	15279
846.478	15161
846.614	15028
846.75	14921
846.886	14887
847.022	14918
847.158	14990
847.294	15017
847.429	14963
847.565	14826
847.701	15176
847.837	14705
847.972	14621
848.108	14845
848.244	14819
848.379	14610
848.515	14533
848.65	14568
848.786	14507
848.921	14511
849.057	14655
849.192	14663
849.328	14659
849.463	14526
849.598	14434
849.734	14488
849.869	14324
850.004	14332
850.14	14347
850.275	14317
850.41	14225
850.545	14294
850.68	14336
850.815	14385
850.95	14267
851.085	14484
851.22	14457
851.355	14351
851.49	14240
851.625	14278
851.76	14275
851.895	14183
852.03	14176
852.165	14259
852.299	14305
852.434	14427
852.569	14244
852.703	14298
852.838	14396
852.973	14495
853.107	14530
853.242	14199
853.376	14210
853.511	14039
853.645	14172
853.78	14195
853.914	14218
854.048	14221
854.183	14161
854.317	14168
854.451	14317
854.585	14069
854.72	14123
854.854	14191
854.988	14092
855.122	14202
855.256	14073
855.39	14176
855.524	14324
855.658	14214
855.792	14259
855.926	14172
856.06	14199
856.194	14225
856.327	14134
856.461	14077
856.595	14168
856.729	14115
856.862	14298
856.996	14195
857.13	14202
857.263	14336
857.397	14191
857.53	14191
857.664	14294
857.797	14164
857.931	14278
858.064	14214
858.197	14214
858.331	14183
858.464	14180
858.597	14039
858.731	14145
858.864	14115
858.997	14100
859.13	14278
859.263	14134
859.396	14275
859.529	14084
859.662	14157
859.795	14172
859.928	14168
860.061	14278
860.194	14347
860.327	14206
860.46	14164
860.592	14263
860.725	14301
860.858	14259
860.99	14187
861.123	14145
861.256	14142
861.388	14123
861.521	14967
861.653	14031
861.786	13944
861.918	14039
862.05	14058
862.183	14134
862.315	14161
862.447	14221
862.58	14096
862.712	13986
862.844	13917
862.976	14020
863.108	14024
863.24	14317
863.372	13765
863.504	13986
863.636	14001
863.768	14058
863.9	14039
864.032	13913
864.164	14008
864.296	14088
864.428	14031
864.559	14103
864.691	14054
864.823	13894
864.954	13982
865.086	13940
865.217	13898
865.349	13845
865.48	13925
865.612	13978
865.743	14084
865.875	13871
866.006	13898
866.137	13887
866.269	13925
866.4	13989
866.531	13849
866.662	13925
866.793	13864
866.924	13974
867.055	14016
867.186	13974
867.317	13765
867.448	13879
867.579	13849
867.71	13959
867.841	13837
867.972	14050
868.103	13913
868.233	13928
868.364	13997
868.495	14062
868.625	14145
868.756	14206
868.886	14145
869.017	14123
869.147	14256
869.278	14267
869.408	14214
869.539	14259
869.669	14313
869.799	14248
869.929	14286
870.06	14309
870.19	14518
870.32	14434
870.45	14526
870.58	14659
870.71	14792
870.84	14655
870.97	14556
871.1	14495
871.23	14781
871.36	14773
871.489	14689
871.619	14777
871.749	14739
871.879	14838
872.008	14963
872.138	14769
872.267	14777
872.397	14712
872.526	14682
872.656	14590
872.785	14625
872.915	14845
873.044	14811
873.173	14857
873.303	14838
873.432	15005
873.561	14918
873.69	14826
873.819	14902
873.948	14925
874.077	14899
874.206	14800
874.335	14914
874.464	14986
874.593	15077
874.722	15100
874.851	15131
874.979	15112
875.108	15207
875.237	15051
875.365	14982
875.494	15116
875.623	15264
875.751	15108
875.88	15222
876.008	15260
876.136	15393
876.265	15610
876.393	15682
876.521	15618
876.65	15584
876.778	15622
876.906	15378
877.034	15606
877.162	15511
877.29	15610
877.418	15587
877.546	15587
877.674	15591
877.802	15553
877.93	15568
878.058	15542
878.185	15492
878.313	15519
878.441	15545
878.568	15351
878.696	15549
878.824	15500
878.951	15728
879.079	15701
879.206	15880
879.333	15766
879.461	15595
879.588	15622
879.715	15675
879.842	15888
879.97	15595
880.097	15504
880.224	15397
880.351	15462
880.478	15519
880.605	15450
880.732	15420
880.859	15717
880.986	15382
881.112	15526
881.239	15340
881.366	15161
881.493	15100
881.619	15062
881.746	15097
881.872	15093
881.999	14982
882.125	15062
882.252	15150
882.378	15135
882.505	15230
882.631	15017
882.757	14845
882.883	14979
883.01	14910
883.136	14777
883.262	14842
883.388	14765
883.514	14868
883.64	14975
883.766	14830
883.892	14705
884.018	14720
884.143	14891
884.269	15093
884.395	14663
884.52	14629
884.646	14667
884.772	14587
884.897	14545
885.023	14610
885.148	14663
885.274	14701
885.399	14613
885.524	14625
885.65	14579
885.775	14640
885.9	14651
886.025	14777
886.15	14632
886.275	14556
886.4	14556
886.525	14484
886.65	14488
886.775	14438
886.9	14712
887.025	14804
887.149	14583
887.274	14389
887.399	14396
887.523	14362
887.648	14343
887.773	14347
887.897	14446
888.021	14473
888.146	14423
888.27	14469
888.395	14560
888.519	14469
888.643	14457
888.767	14476
888.891	14347
889.015	14275
889.139	14336
889.263	14164
889.387	14492
889.511	14412
889.635	14419
889.759	14317
889.883	14393
890.006	14233
890.13	14393
890.254	14248
890.377	14351
890.501	14024
890.624	14016
890.748	14187
890.871	14058
890.995	13989
891.118	13993
891.241	14123
891.364	13978
891.488	14130
891.611	14005
891.734	13993
891.857	14088
891.98	14081
892.103	14065
892.226	14001
892.349	13978
892.471	13856
892.594	13909
892.717	13978
892.839	14035
892.962	13902
893.085	14062
893.207	13944
893.33	13932
893.452	13982
893.575	14050
893.697	14016
893.819	14161
893.941	14301
894.064	14142
894.186	14054
894.308	13909
894.43	14180
894.552	14199
894.674	14157
894.796	14054
894.918	14077
895.04	14058
895.161	14172
895.283	14161
895.405	14035
895.526	14107
895.648	14153
895.769	14145
895.891	14142
896.012	14214
896.134	14202
896.255	14225
896.376	14065
896.498	14142
896.619	14199
896.74	14180
896.861	14282
896.982	14511
897.103	14636
897.224	14419
897.345	14469
897.466	14301
897.587	14454
897.708	14556
897.828	14450
897.949	14370
898.07	14320
898.19	14355
898.311	14560
898.431	14469
898.552	14514
898.672	14564
898.792	14625
898.913	14571
899.033	14412
899.153	14488
899.273	14313
899.393	14351
899.513	14393
899.633	14336
899.753	14366
899.873	14298
899.993	14469
900.113	14374
900.232	14377
900.352	14393
900.472	14225
900.591	14278
900.711	14256
900.83	14218
900.95	14252
901.069	14336
901.189	14134
901.308	13978
901.427	13936
901.546	13947
901.665	13932
901.784	13917
901.904	13723
902.023	13651
902.141	13586
902.26	13529
902.379	13590
902.498	13487
902.617	13468
902.735	13594
902.854	13464
902.973	13384
903.091	13232
903.21	13160
903.328	13278
903.446	13179
903.565	13072
903.683	13110
903.801	12947
903.919	13080
904.038	13046
904.156	12871
904.274	12916
904.392	12890
904.51	12871
904.627	12859
904.745	12932
904.863	12905
904.981	12681
905.098	12536
905.216	12601
905.334	12589
905.451	12612
905.569	12597
905.686	12574
905.803	12566
905.921	12353
906.038	12471
906.155	12372
906.272	12365
906.389	12315
906.506	12190
906.623	12178
906.74	12194
906.857	12079
906.974	12019
907.091	12205
907.208	12296
907.324	12277
907.441	12049
907.557	11805
907.674	11893
907.79	11874
907.907	11916
908.023	11920
908.139	11863
908.256	11855
908.372	11863
908.488	11809
908.604	11665
908.72	11722
908.836	11634
908.952	11638
909.068	11684
909.184	11752
909.3	11611
909.415	11714
909.531	11760
909.647	11455
909.762	11436
909.878	11509
909.993	11414
910.108	11395
910.224	11376
910.339	11433
910.454	11353
910.57	11330
910.685	11258
910.8	11474
910.915	11524
911.03	11368
911.145	11159
911.259	11280
911.374	11052
911.489	10984
911.604	11086
911.718	10915
911.833	10881
911.947	10778
912.062	10744
912.176	10854
912.291	10984
912.405	10869
912.519	11045
912.633	11083
912.748	11003
912.862	10904
912.976	10755
913.09	10714
913.204	10645
913.318	10771
913.431	10892
913.545	10927
913.659	10911
913.772	10717
913.886	10630
914	10706
914.113	10767
914.226	10816
914.34	10740
914.453	10542
914.566	10733
914.68	10554
914.793	10569
914.906	10371
915.019	10386
915.132	10337
915.245	10455
915.358	10455
915.47	10402
915.583	10440
915.696	10447
915.809	10584
915.921	10634
916.034	10436
916.146	10421
916.259	10405
916.371	10440
916.483	10352
916.595	10287
916.708	10344
916.82	10265
916.932	10299
917.044	10299
917.156	10291
917.268	10246
917.38	10280
917.491	10200
917.603	10295
917.715	10265
917.826	10382
917.938	10230
918.049	10143
918.161	10287
918.272	10291
918.384	10325
918.495	10280
918.606	10044
918.717	10192
918.828	10166
918.939	10211
919.05	10097
919.161	10112
919.272	9907
919.383	10021
919.494	10177
919.604	10382
919.715	10143
919.826	10086
919.936	10048
920.047	10265
920.157	10116
920.267	10405
920.378	10188
920.488	10135
920.598	10394
920.708	10497
920.818	10299
920.928	10337
921.038	10535
921.148	10451
921.258	10257
921.368	10109
921.477	10013
921.587	10013
921.697	9865
921.806	10006
921.916	9918
922.025	9751
922.134	9709
922.244	9690
922.353	9793
922.462	9606
922.571	9545
922.68	9477
922.789	9367
922.898	9317
923.007	9382
923.116	9401
923.224	9447
923.333	9416
923.442	9321
923.55	9298
923.659	9310
923.767	9351
923.876	9203
923.984	9363
924.092	9199
924.201	9291
924.309	9245
924.417	9249
924.525	9192
924.633	9249
924.741	10166
924.849	9036
924.956	9184
925.064	9058
925.172	9020
925.279	8990
925.387	9009
925.494	9074
925.602	9131
925.709	9104
925.816	8994
925.924	9028
926.031	9169
926.138	9062
926.245	9138
926.352	9036
926.459	9165
926.566	9157
926.673	9104
926.779	8944
926.886	8967
926.993	8811
927.099	8792
927.206	8708
927.312	8697
927.419	8792
927.525	8811
927.631	8823
927.737	8743
927.843	8667
927.95	8537
928.056	8629
928.162	8739
928.267	8788
928.373	9173
928.479	8792
928.585	8522
928.69	8659
928.796	8724
928.901	8549
929.007	8495
929.112	8587
929.218	8606
929.323	8469
929.428	8457
929.533	8625
929.638	8488
929.743	8461
929.848	8495
929.953	8442
930.058	8377
930.163	8252
930.267	8248
930.372	8434
930.477	8252
930.581	8469
930.685	8381
930.79	8233
930.894	8298
930.998	8229
931.103	8408
931.207	7993
931.311	7959
931.415	7841
931.519	7738
931.623	7670
