Data from test_V78500241_2311.txt Node
Date: Fri Mar 25 14:49:48 CST 2022
User: usil
Spectrometer: V785-0024
Trigger mode: 0
Integration Time (sec): 4.000000E-1
Scans to average: 1
Nonlinearity correction enabled: false
Boxcar width: 0
Storing dark spectrum: false
XAxis mode: Wavelengths
Number of Pixels in Spectrum: 1024
>>>>>Begin Spectral Data<<<<<
801.071	22147
801.214	21937
801.356	21846
801.499	21808
801.641	21568
801.783	21450
801.926	21488
802.068	21523
802.211	21386
802.353	21321
802.496	21062
802.638	21096
802.78	21020
802.923	20941
803.065	20815
803.208	20876
803.35	20838
803.492	20910
803.635	20990
803.777	20864
803.919	20895
804.061	21256
804.204	20921
804.346	20807
804.488	20758
804.63	20788
804.773	20617
804.915	20830
805.057	20933
805.199	20868
805.341	20800
805.483	20921
805.626	20876
805.768	20739
805.91	20952
806.052	20868
806.194	20693
806.336	20956
806.478	20765
806.62	20667
806.762	20864
806.904	20982
807.046	21207
807.188	21119
807.33	21138
807.472	21077
807.614	20956
807.756	21062
807.898	20899
808.04	20887
808.182	20830
808.324	20845
808.465	20982
808.607	21119
808.749	21180
808.891	21336
809.033	21226
809.174	21192
809.316	21055
809.458	21157
809.6	21116
809.741	21001
809.883	21298
810.025	21321
810.166	21332
810.308	21344
810.45	21180
810.591	21192
810.733	21138
810.875	20998
811.016	20804
811.158	20788
811.299	20967
811.441	21074
811.582	21043
811.724	21001
811.865	21020
812.007	20933
812.148	20979
812.29	20975
812.431	21173
812.573	21203
812.714	21359
812.855	21492
812.997	21629
813.138	21622
813.279	21622
813.421	21450
813.562	21450
813.703	21165
813.845	21184
813.986	20838
814.127	20712
814.268	20636
814.41	20480
814.551	20450
814.692	20575
814.833	20450
814.974	20507
815.115	20602
815.256	20290
815.397	20370
815.539	20332
815.68	20229
815.821	20176
815.962	20259
816.103	20138
816.244	20119
816.385	20043
816.526	20088
816.666	19818
816.807	19712
816.948	19769
817.089	19841
817.23	19708
817.371	19670
817.512	19586
817.653	19708
817.793	19552
817.934	19605
818.075	19681
818.216	19662
818.356	19620
818.497	19377
818.638	19354
818.778	19327
818.919	19358
819.06	19346
819.2	19422
819.341	19597
819.481	19525
819.622	19681
819.762	19841
819.903	19791
820.043	19719
820.184	19635
820.324	19727
820.465	19662
820.605	19742
820.746	19575
820.886	19552
821.026	19552
821.167	19552
821.307	19689
821.447	19605
821.588	19388
821.728	19426
821.868	19228
822.008	19126
822.149	19076
822.289	18985
822.429	18783
822.569	18707
822.709	18738
822.849	18452
822.99	18540
823.13	18559
823.27	18369
823.41	18342
823.55	18239
823.69	18391
823.83	18311
823.97	18327
824.11	18197
824.25	18076
824.389	18087
824.529	18239
824.669	18091
824.809	18277
824.949	18235
825.089	18224
825.228	18106
825.368	17897
825.508	17843
825.648	17851
825.787	17923
825.927	17923
826.067	17901
826.206	17874
826.346	17893
826.485	17836
826.625	17904
826.765	18019
826.904	17882
827.044	17699
827.183	17596
827.323	17558
827.462	17729
827.601	17623
827.741	17619
827.88	17554
828.02	17383
828.159	17497
828.298	17471
828.437	17608
828.577	17509
828.716	17741
828.855	17429
828.994	17288
829.134	17360
829.273	17368
829.412	17208
829.551	17242
829.69	17220
829.829	17239
829.968	17322
830.107	17387
830.246	17311
830.385	17246
830.524	17162
830.663	17212
830.802	16995
830.941	16801
831.08	16885
831.219	17014
831.357	16995
831.496	17090
831.635	16892
831.774	16797
831.913	16831
832.051	16679
832.19	16713
832.329	16736
832.467	16713
832.606	16615
832.744	16603
832.883	16599
833.022	16603
833.16	16622
833.299	16641
833.437	16668
833.576	16675
833.714	16596
833.852	16649
833.991	16508
834.129	16755
834.267	16683
834.406	16626
834.544	16706
834.682	16603
834.821	16592
834.959	16889
835.097	16626
835.235	16748
835.373	16664
835.511	16607
835.65	16531
835.788	16485
835.926	16417
836.064	16382
836.202	16424
836.34	16554
836.478	16603
836.615	16569
836.753	16481
836.891	16569
837.029	16584
837.167	16573
837.305	16478
837.443	16390
837.58	16413
837.718	16478
837.856	16447
837.993	16322
838.131	16478
838.269	16329
838.406	16405
838.544	16238
838.681	16188
838.819	16116
838.956	15903
839.094	15941
839.231	15945
839.369	15987
839.506	16303
839.643	16181
839.781	15987
839.918	15964
840.055	15972
840.193	15994
840.33	15922
840.467	15865
840.604	16006
840.742	16192
840.879	15816
841.016	15747
841.153	15903
841.29	16044
841.427	15930
841.564	16002
841.701	15945
841.838	15880
841.975	15812
842.112	15892
842.249	15770
842.385	15713
842.522	15930
842.659	15701
842.796	15660
842.933	15816
843.069	15701
843.206	15629
843.343	15770
843.479	15713
843.616	15755
843.752	15447
843.889	15488
844.025	15618
844.162	15515
844.298	15610
844.435	15538
844.571	15534
844.708	15515
844.844	15656
844.98	15675
845.117	15545
845.253	15424
845.389	15416
845.525	15443
845.661	15439
845.798	15294
845.934	15351
846.07	15157
846.206	15321
846.342	15420
846.478	15317
846.614	15165
846.75	15020
846.886	15123
847.022	15161
847.158	15131
847.294	15100
847.429	15097
847.565	15032
847.701	15382
847.837	14762
847.972	14739
848.108	14933
848.244	14925
848.379	14648
848.515	14739
848.65	14632
848.786	14659
848.921	14731
849.057	14773
849.192	14796
849.328	14712
849.463	14632
849.598	14610
849.734	14621
849.869	14587
850.004	14461
850.14	14549
850.275	14419
850.41	14328
850.545	14389
850.68	14396
850.815	14476
850.95	14408
851.085	14670
851.22	14511
851.355	14465
851.49	14393
851.625	14400
851.76	14473
851.895	14347
852.03	14370
852.165	14423
852.299	14423
852.434	14533
852.569	14408
852.703	14366
852.838	14568
852.973	14670
853.107	14636
853.242	14442
853.376	14305
853.511	14305
853.645	14286
853.78	14404
853.914	14328
854.048	14374
854.183	14320
854.317	14320
854.451	14389
854.585	14389
854.72	14298
854.854	14404
854.988	14248
855.122	14240
855.256	14157
855.39	14298
855.524	14290
855.658	14309
855.792	14301
855.926	14362
856.06	14396
856.194	14343
856.327	14324
856.461	14336
856.595	14199
856.729	14298
856.862	14423
856.996	14313
857.13	14400
857.263	14404
857.397	14412
857.53	14202
857.664	14374
857.797	14415
857.931	14412
858.064	14317
858.197	14389
858.331	14305
858.464	14187
858.597	14240
858.731	14282
858.864	14191
858.997	14271
859.13	14187
859.263	14301
859.396	14408
859.529	14187
859.662	14328
859.795	14183
859.928	14275
860.061	14415
860.194	14484
860.327	14377
860.46	14271
860.592	14434
860.725	14499
860.858	14465
860.99	14240
861.123	14191
861.256	14202
861.388	14355
861.521	14902
861.653	14168
861.786	14142
861.918	14145
862.05	14218
862.183	14244
862.315	14290
862.447	14298
862.58	14191
862.712	14016
862.844	14084
862.976	14123
863.108	14088
863.24	14473
863.372	14020
863.504	13989
863.636	14046
863.768	14157
863.9	14081
864.032	14031
864.164	14027
864.296	14058
864.428	14126
864.559	14221
864.691	14199
864.823	14157
864.954	14103
865.086	14096
865.217	14077
865.349	13947
865.48	14035
865.612	14073
865.743	14202
865.875	14050
866.006	13986
866.137	14092
866.269	14001
866.4	14054
866.531	14031
866.662	13997
866.793	13898
866.924	13974
867.055	14043
867.186	14046
867.317	13986
867.448	13986
867.579	13967
867.71	14058
867.841	13970
867.972	14073
868.103	13993
868.233	14016
868.364	14069
868.495	14187
868.625	14332
868.756	14423
868.886	14271
869.017	14309
869.147	14400
869.278	14469
869.408	14355
869.539	14229
869.669	14343
869.799	14358
869.929	14431
870.06	14355
870.19	14560
870.32	14552
870.45	14716
870.58	14648
870.71	14826
870.84	14826
870.97	14773
871.1	14758
871.23	14830
871.36	14902
871.489	14724
871.619	14857
871.749	14857
871.879	14937
872.008	14937
872.138	14906
872.267	14941
872.397	14792
872.526	14750
872.656	14693
872.785	14682
872.915	14914
873.044	14925
873.173	15070
873.303	14895
873.432	14891
873.561	15043
873.69	14990
873.819	14895
873.948	15013
874.077	15017
874.206	14887
874.335	14986
874.464	15123
874.593	15268
874.722	15146
874.851	15325
874.979	15313
875.108	15344
875.237	15192
875.365	15169
875.494	15207
875.623	15306
875.751	15298
875.88	15214
876.008	15367
876.136	15488
876.265	15705
876.393	15766
876.521	15728
876.65	15778
876.778	15698
876.906	15679
877.034	15663
877.162	15747
877.29	15576
877.418	15667
877.546	15663
877.674	15686
877.802	15648
877.93	15667
878.058	15701
878.185	15724
878.313	15595
878.441	15690
878.568	15591
878.696	15576
878.824	15701
878.951	15808
879.079	15827
879.206	15926
879.333	15800
879.461	15694
879.588	15644
879.715	15838
879.842	15998
879.97	15800
880.097	15542
880.224	15526
880.351	15454
880.478	15431
880.605	15511
880.732	15633
880.859	15667
880.986	15481
881.112	15564
881.239	15355
881.366	15367
881.493	15218
881.619	15161
881.746	15188
881.872	15093
881.999	15211
882.125	15150
882.252	15169
882.378	15176
882.505	15336
882.631	15123
882.757	15017
882.883	14994
883.01	15017
883.136	14807
883.262	14914
883.388	14781
883.514	15081
883.64	15032
883.766	14971
883.892	14796
884.018	14826
884.143	15051
884.269	15104
884.395	14785
884.52	14716
884.646	14640
884.772	14731
884.897	14492
885.023	14579
885.148	14842
885.274	14960
885.399	14811
885.524	14762
885.65	14697
885.775	14773
885.9	14750
886.025	14868
886.15	14777
886.275	14674
886.4	14579
886.525	14648
886.65	14648
886.775	14724
886.9	14891
887.025	14925
887.149	14663
887.274	14511
887.399	14442
887.523	14454
887.648	14461
887.773	14442
887.897	14530
888.021	14541
888.146	14457
888.27	14629
888.395	14648
888.519	14625
888.643	14564
888.767	14613
888.891	14412
889.015	14343
889.139	14396
889.263	14381
889.387	14522
889.511	14610
889.635	14488
889.759	14347
889.883	14404
890.006	14419
890.13	14545
890.254	14442
890.377	14298
890.501	14180
890.624	14123
890.748	14305
890.871	14084
890.995	14077
891.118	14062
891.241	14039
891.364	14092
891.488	14206
891.611	14069
891.734	14138
891.857	14043
891.98	14103
892.103	14275
892.226	14149
892.349	14016
892.471	13951
892.594	14077
892.717	14043
892.839	14081
892.962	14134
893.085	14142
893.207	14069
893.33	13936
893.452	13974
893.575	14161
893.697	14069
893.819	14282
893.941	14248
894.064	14229
894.186	14096
894.308	14035
894.43	14221
894.552	14332
894.674	14377
894.796	14134
894.918	14134
895.04	14073
895.161	14294
895.283	14202
895.405	14252
895.526	14111
895.648	14244
895.769	14278
895.891	14332
896.012	14237
896.134	14351
896.255	14282
896.376	14248
896.498	14286
896.619	14328
896.74	14278
896.861	14351
896.982	14625
897.103	14769
897.224	14575
897.345	14507
897.466	14526
897.587	14552
897.708	14689
897.828	14552
897.949	14480
898.07	14545
898.19	14575
898.311	14693
898.431	14533
898.552	14640
898.672	14686
898.792	14731
898.913	14610
899.033	14423
899.153	14514
899.273	14336
899.393	14366
899.513	14454
899.633	14552
899.753	14400
899.873	14476
899.993	14503
900.113	14457
900.232	14522
900.352	14389
900.472	14271
900.591	14263
900.711	14336
900.83	14347
900.95	14473
901.069	14446
901.189	14282
901.308	14172
901.427	13978
901.546	13970
901.665	14092
901.784	14031
901.904	13936
902.023	13731
902.141	13647
902.26	13571
902.379	13788
902.498	13575
902.617	13518
902.735	13609
902.854	13613
902.973	13518
903.091	13259
903.21	13274
903.328	13255
903.446	13206
903.565	13156
903.683	13183
903.801	13046
903.919	13141
904.038	13198
904.156	12916
904.274	13038
904.392	12962
904.51	12947
904.627	12916
904.745	13088
904.863	12973
904.981	12711
905.098	12669
905.216	12688
905.334	12722
905.451	12677
905.569	12627
905.686	12681
905.803	12669
905.921	12471
906.038	12475
906.155	12612
906.272	12422
906.389	12437
906.506	12228
906.623	12220
906.74	12197
906.857	12114
906.974	12167
907.091	12338
907.208	12399
907.324	12220
907.441	12205
907.557	11961
907.674	11977
907.79	11942
907.907	11946
908.023	12019
908.139	12015
908.256	11916
908.372	11882
908.488	11882
908.604	11783
908.72	11748
908.836	11783
908.952	11786
909.068	11737
909.184	11870
909.3	11832
909.415	11805
909.531	11707
909.647	11497
909.762	11558
909.878	11543
909.993	11562
910.108	11516
910.224	11482
910.339	11554
910.454	11356
910.57	11395
910.685	11246
910.8	11592
910.915	11532
911.03	11406
911.145	11269
911.259	11181
911.374	11216
911.489	11181
911.604	11124
911.718	10987
911.833	10999
911.947	10908
912.062	10809
912.176	10904
912.291	10987
912.405	11010
912.519	11174
912.633	11178
912.748	11010
912.862	11006
912.976	10847
913.09	10805
913.204	10824
913.318	10831
913.431	10968
913.545	10976
913.659	11010
913.772	10801
913.886	10816
914	10725
914.113	10793
914.226	10877
914.34	10869
914.453	10630
914.566	10755
914.68	10702
914.793	10698
914.906	10554
915.019	10459
915.132	10398
915.245	10596
915.358	10569
915.47	10466
915.583	10622
915.696	10535
915.809	10645
915.921	10672
916.034	10428
916.146	10436
916.259	10485
916.371	10546
916.483	10474
916.595	10390
916.708	10413
916.82	10421
916.932	10394
917.044	10428
917.156	10417
917.268	10318
917.38	10284
917.491	10219
917.603	10318
917.715	10455
917.826	10485
917.938	10325
918.049	10234
918.161	10375
918.272	10481
918.384	10451
918.495	10405
918.606	10284
918.717	10131
918.828	10131
918.939	10249
919.05	10063
919.161	10166
919.272	9945
919.383	10010
919.494	10196
919.604	10470
919.715	10185
919.826	10090
919.936	10154
920.047	10242
920.157	10257
920.267	10402
920.378	10318
920.488	10162
920.598	10402
920.708	10554
920.818	10462
920.928	10440
921.038	10561
921.148	10618
921.258	10257
921.368	10112
921.477	10051
921.587	10044
921.697	10010
921.806	10063
921.916	9930
922.025	9835
922.134	9701
922.244	9679
922.353	9800
922.462	9679
922.571	9591
922.68	9553
922.789	9435
922.898	9538
923.007	9439
923.116	9542
923.224	9500
923.333	9458
923.442	9340
923.55	9287
923.659	9359
923.767	9420
923.876	9382
923.984	9408
924.092	9226
924.201	9313
924.309	9332
924.417	9329
924.525	9321
924.633	9306
924.741	10200
924.849	9127
924.956	9245
925.064	9077
925.172	9058
925.279	9116
925.387	9093
925.494	9154
925.602	9241
925.709	9233
925.816	9100
925.924	9135
926.031	9230
926.138	9097
926.245	9161
926.352	9047
926.459	9169
926.566	9214
926.673	9123
926.779	8960
926.886	8975
926.993	8857
927.099	8842
927.206	8826
927.312	8727
927.419	8956
927.525	8845
927.631	8880
927.737	8769
927.843	8720
927.95	8575
928.056	8754
928.162	8804
928.267	8781
928.373	9382
928.479	8826
928.585	8636
928.69	8781
928.796	8743
928.901	8708
929.007	8530
929.112	8720
929.218	8549
929.323	8575
929.428	8518
929.533	8708
929.638	8533
929.743	8549
929.848	8537
929.953	8625
930.058	8480
930.163	8336
930.267	8279
930.372	8450
930.477	8290
930.581	8530
930.685	8400
930.79	8237
930.894	8320
930.998	8282
931.103	8419
931.207	8084
931.311	7982
931.415	7997
931.519	7731
931.623	7811
