Data from test_V78500241_2461.txt Node
Date: Fri Mar 25 14:50:50 CST 2022
User: usil
Spectrometer: V785-0024
Trigger mode: 0
Integration Time (sec): 4.000000E-1
Scans to average: 1
Nonlinearity correction enabled: false
Boxcar width: 0
Storing dark spectrum: false
XAxis mode: Wavelengths
Number of Pixels in Spectrum: 1024
>>>>>Begin Spectral Data<<<<<
801.071	22139
801.214	21911
801.356	21709
801.499	21587
801.641	21477
801.783	21477
801.926	21450
802.068	21401
802.211	21306
802.353	21184
802.496	20982
802.638	20925
802.78	20921
802.923	20788
803.065	20735
803.208	20773
803.35	20689
803.492	20880
803.635	20823
803.777	20670
803.919	20883
804.061	21176
804.204	20861
804.346	20826
804.488	20659
804.63	20735
804.773	20659
804.915	20606
805.057	20804
805.199	20625
805.341	20849
805.483	20838
805.626	20868
805.768	20556
805.91	20765
806.052	20826
806.194	20640
806.336	20735
806.478	20708
806.62	20727
806.762	20910
806.904	20899
807.046	21176
807.188	21070
807.33	21051
807.472	21146
807.614	20967
807.756	20998
807.898	20773
808.04	20727
808.182	20746
808.324	20800
808.465	20823
808.607	21028
808.749	21131
808.891	21157
809.033	21329
809.174	21150
809.316	21108
809.458	21036
809.6	21062
809.741	21157
809.883	21195
810.025	21283
810.166	21245
810.308	21207
810.45	21180
810.591	21093
810.733	20956
810.875	20864
811.016	20792
811.158	20811
811.299	20929
811.441	20918
811.582	20891
811.724	20918
811.865	20762
812.007	20777
812.148	20834
812.29	20765
812.431	21116
812.573	21119
812.714	21161
812.855	21329
812.997	21515
813.138	21519
813.279	21386
813.421	21355
813.562	21233
813.703	21207
813.845	21009
813.986	20667
814.127	20522
814.268	20457
814.41	20427
814.551	20343
814.692	20492
814.833	20248
814.974	20427
815.115	20404
815.256	20168
815.397	20206
815.539	20153
815.68	20073
815.821	19978
815.962	20157
816.103	20138
816.244	19906
816.385	19852
816.526	19765
816.666	19651
816.807	19578
816.948	19643
817.089	19620
817.23	19510
817.371	19525
817.512	19480
817.653	19518
817.793	19460
817.934	19514
818.075	19571
818.216	19392
818.356	19445
818.497	19411
818.638	19164
818.778	19213
818.919	19194
819.06	19274
819.2	19403
819.341	19457
819.481	19354
819.622	19575
819.762	19681
819.903	19666
820.043	19529
820.184	19620
820.324	19510
820.465	19658
820.605	19567
820.746	19476
820.886	19346
821.026	19514
821.167	19422
821.307	19518
821.447	19426
821.588	19388
821.728	19266
821.868	19061
822.008	18939
822.149	18905
822.289	18791
822.429	18639
822.569	18620
822.709	18570
822.849	18346
822.99	18471
823.13	18330
823.27	18456
823.41	18140
823.55	18106
823.69	18296
823.83	18140
823.97	18197
824.11	18045
824.25	17988
824.389	17988
824.529	18091
824.669	17923
824.809	18003
824.949	18007
825.089	18003
825.228	18011
825.368	17847
825.508	17863
825.648	17726
825.787	17779
825.927	17859
826.067	17668
826.206	17760
826.346	17703
826.485	17847
826.625	17809
826.765	17832
826.904	17836
827.044	17486
827.183	17444
827.323	17490
827.462	17539
827.601	17455
827.741	17490
827.88	17406
828.02	17391
828.159	17379
828.298	17486
828.437	17501
828.577	17421
828.716	17558
828.855	17372
828.994	17189
829.134	17200
829.273	17162
829.412	17216
829.551	17048
829.69	17235
829.829	17174
829.968	17284
830.107	17235
830.246	17216
830.385	17060
830.524	17071
830.663	17094
830.802	16828
830.941	16752
831.08	16736
831.219	16873
831.357	16797
831.496	16999
831.635	16809
831.774	16729
831.913	16698
832.051	16645
832.19	16573
832.329	16561
832.467	16641
832.606	16432
832.744	16508
832.883	16504
833.022	16485
833.16	16531
833.299	16508
833.437	16554
833.576	16550
833.714	16470
833.852	16527
833.991	16489
834.129	16603
834.267	16527
834.406	16519
834.544	16531
834.682	16535
834.821	16497
834.959	16729
835.097	16470
835.235	16611
835.373	16538
835.511	16588
835.65	16424
835.788	16493
835.926	16318
836.064	16246
836.202	16310
836.34	16470
836.478	16546
836.615	16295
836.753	16470
836.891	16573
837.029	16497
837.167	16424
837.305	16356
837.443	16268
837.58	16287
837.718	16459
837.856	16352
837.993	16253
838.131	16341
838.269	16325
838.406	16200
838.544	16204
838.681	16013
838.819	16036
838.956	15869
839.094	15854
839.231	15934
839.369	16048
839.506	16329
839.643	16006
839.781	15865
839.918	15888
840.055	15850
840.193	15922
840.33	15838
840.467	15907
840.604	15812
840.742	16074
840.879	15713
841.016	15747
841.153	15785
841.29	16048
841.427	15956
841.564	15918
841.701	15953
841.838	15743
841.975	15698
842.112	15694
842.249	15732
842.385	15652
842.522	15842
842.659	15682
842.796	15698
842.933	15656
843.069	15606
843.206	15637
843.343	15610
843.479	15743
843.616	15717
843.752	15431
843.889	15405
844.025	15572
844.162	15389
844.298	15584
844.435	15496
844.571	15485
844.708	15572
844.844	15576
844.98	15549
845.117	15534
845.253	15275
845.389	15298
845.525	15401
845.661	15393
845.798	15230
845.934	15260
846.07	15192
846.206	15226
846.342	15325
846.478	15188
846.614	15062
846.75	14963
846.886	14960
847.022	15062
847.158	15032
847.294	15017
847.429	15085
847.565	14937
847.701	15188
847.837	14823
847.972	14739
848.108	14781
848.244	14834
848.379	14762
848.515	14667
848.65	14590
848.786	14560
848.921	14545
849.057	14670
849.192	14792
849.328	14663
849.463	14598
849.598	14598
849.734	14492
849.869	14457
850.004	14355
850.14	14442
850.275	14396
850.41	14202
850.545	14355
850.68	14351
850.815	14385
850.95	14358
851.085	14518
851.22	14583
851.355	14374
851.49	14366
851.625	14271
851.76	14298
851.895	14298
852.03	14252
852.165	14278
852.299	14267
852.434	14366
852.569	14332
852.703	14389
852.838	14454
852.973	14537
853.107	14533
853.242	14290
853.376	14271
853.511	14161
853.645	14313
853.78	14244
853.914	14339
854.048	14172
854.183	14267
854.317	14218
854.451	14393
854.585	14214
854.72	14214
854.854	14252
854.988	14138
855.122	14142
855.256	14126
855.39	14183
855.524	14355
855.658	14320
855.792	14305
855.926	14381
856.06	14328
856.194	14408
856.327	14347
856.461	14168
856.595	14115
856.729	14202
856.862	14400
856.996	14282
857.13	14347
857.263	14358
857.397	14385
857.53	14214
857.664	14324
857.797	14370
857.931	14400
858.064	14263
858.197	14301
858.331	14225
858.464	14191
858.597	14256
858.731	14229
858.864	14191
858.997	14183
859.13	14191
859.263	14229
859.396	14313
859.529	14259
859.662	14237
859.795	14180
859.928	14267
860.061	14336
860.194	14332
860.327	14320
860.46	14187
860.592	14358
860.725	14339
860.858	14336
860.99	14298
861.123	14206
861.256	14161
861.388	14275
861.521	14754
861.653	14134
861.786	14092
861.918	14077
862.05	14252
862.183	14229
862.315	14244
862.447	14278
862.58	14142
862.712	14088
862.844	13868
862.976	14050
863.108	14084
863.24	14446
863.372	13936
863.504	14005
863.636	14073
863.768	14073
863.9	14077
864.032	14031
864.164	13989
864.296	13997
864.428	14142
864.559	14073
864.691	14145
864.823	14096
864.954	14103
865.086	14145
865.217	14065
865.349	13959
865.48	13997
865.612	13963
865.743	14092
865.875	14096
866.006	14016
866.137	13959
866.269	13970
866.4	13989
866.531	14054
866.662	14031
866.793	14027
866.924	13978
867.055	13959
867.186	14035
867.317	13970
867.448	13951
867.579	13944
867.71	13932
867.841	13849
867.972	13940
868.103	13989
868.233	14027
868.364	13978
868.495	14024
868.625	14214
868.756	14298
868.886	14229
869.017	14290
869.147	14396
869.278	14313
869.408	14218
869.539	14263
869.669	14385
869.799	14305
869.929	14374
870.06	14412
870.19	14610
870.32	14507
870.45	14587
870.58	14708
870.71	14819
870.84	14762
870.97	14686
871.1	14583
871.23	14823
871.36	14941
871.489	14819
871.619	14845
871.749	14883
871.879	14880
872.008	15028
872.138	14914
872.267	14857
872.397	14746
872.526	14651
872.656	14731
872.785	14689
872.915	14994
873.044	15020
873.173	14830
873.303	14899
873.432	14861
873.561	14979
873.69	14948
873.819	14800
873.948	14921
874.077	14986
874.206	14902
874.335	15047
874.464	15135
874.593	15138
874.722	15135
874.851	15310
874.979	15268
875.108	15241
875.237	15043
875.365	15150
875.494	15131
875.623	15252
875.751	15344
875.88	15332
876.008	15340
876.136	15435
876.265	15618
876.393	15808
876.521	15736
876.65	15770
876.778	15682
876.906	15587
877.034	15641
877.162	15606
877.29	15545
877.418	15682
877.546	15610
877.674	15698
877.802	15675
877.93	15629
878.058	15644
878.185	15610
878.313	15610
878.441	15663
878.568	15507
878.696	15595
878.824	15660
878.951	15739
879.079	15789
879.206	15888
879.333	15850
879.461	15698
879.588	15637
879.715	15808
879.842	15945
879.97	15698
880.097	15500
880.224	15477
880.351	15511
880.478	15545
880.605	15504
880.732	15545
880.859	15709
880.986	15462
881.112	15462
881.239	15340
881.366	15226
881.493	15310
881.619	15184
881.746	15135
881.872	15131
881.999	15123
882.125	15043
882.252	15127
882.378	15188
882.505	15218
882.631	15169
882.757	14948
882.883	14971
883.01	14914
883.136	14788
883.262	14826
883.388	14800
883.514	14906
883.64	14994
883.766	14842
883.892	14804
884.018	14765
884.143	15009
884.269	15009
884.395	14712
884.52	14659
884.646	14731
884.772	14686
884.897	14644
885.023	14590
885.148	14758
885.274	14872
885.399	14815
885.524	14705
885.65	14644
885.775	14743
885.9	14648
886.025	14815
886.15	14701
886.275	14598
886.4	14560
886.525	14602
886.65	14552
886.775	14552
886.9	14788
887.025	14975
887.149	14617
887.274	14602
887.399	14442
887.523	14454
887.648	14412
887.773	14355
887.897	14590
888.021	14556
888.146	14370
888.27	14568
888.395	14617
888.519	14541
888.643	14560
888.767	14537
888.891	14438
889.015	14415
889.139	14423
889.263	14400
889.387	14473
889.511	14545
889.635	14522
889.759	14263
889.883	14415
890.006	14514
890.13	14469
890.254	14377
890.377	14389
890.501	14111
890.624	14111
890.748	14221
890.871	14088
890.995	13959
891.118	14043
891.241	14134
891.364	14145
891.488	14199
891.611	13986
891.734	14111
891.857	14145
891.98	14081
892.103	14138
892.226	14096
892.349	13978
892.471	14012
892.594	14020
892.717	14005
892.839	14088
892.962	14054
893.085	14199
893.207	14062
893.33	13986
893.452	14008
893.575	14183
893.697	14092
893.819	14187
893.941	14339
894.064	14305
894.186	14103
894.308	14016
894.43	14123
894.552	14393
894.674	14195
894.796	14218
894.918	14088
895.04	14062
895.161	14210
895.283	14157
895.405	14107
895.526	14199
895.648	14164
895.769	14294
895.891	14138
896.012	14305
896.134	14206
896.255	14195
896.376	14142
896.498	14183
896.619	14332
896.74	14168
896.861	14275
896.982	14590
897.103	14731
897.224	14541
897.345	14492
897.466	14545
897.587	14564
897.708	14575
897.828	14552
897.949	14419
898.07	14351
898.19	14522
898.311	14644
898.431	14446
898.552	14644
898.672	14720
898.792	14708
898.913	14613
899.033	14568
899.153	14393
899.273	14343
899.393	14370
899.513	14492
899.633	14488
899.753	14408
899.873	14427
899.993	14537
900.113	14419
900.232	14522
900.352	14431
900.472	14381
900.591	14256
900.711	14252
900.83	14176
900.95	14419
901.069	14385
901.189	14309
901.308	14065
901.427	13894
901.546	13936
901.665	14035
901.784	14096
901.904	13841
902.023	13757
902.141	13662
902.26	13647
902.379	13605
902.498	13628
902.617	13552
902.735	13636
902.854	13556
902.973	13491
903.091	13270
903.21	13263
903.328	13320
903.446	13137
903.565	13156
903.683	13149
903.801	13133
903.919	13129
904.038	13156
904.156	12924
904.274	12939
904.392	12867
904.51	12951
904.627	12882
904.745	12970
904.863	13053
904.981	12715
905.098	12604
905.216	12711
905.334	12642
905.451	12658
905.569	12623
905.686	12662
905.803	12738
905.921	12414
906.038	12589
906.155	12525
906.272	12407
906.389	12353
906.506	12178
906.623	12220
906.74	12190
906.857	12159
906.974	12213
907.091	12319
907.208	12304
907.324	12304
907.441	12076
907.557	11992
907.674	11923
907.79	12019
907.907	12030
908.023	12022
908.139	11904
908.256	11916
908.372	11885
908.488	11855
908.604	11794
908.72	11668
908.836	11771
908.952	11722
909.068	11863
909.184	11817
909.3	11802
909.415	11802
909.531	11699
909.647	11524
909.762	11509
909.878	11497
909.993	11558
910.108	11497
910.224	11501
910.339	11535
910.454	11387
910.57	11311
910.685	11269
910.8	11623
910.915	11493
911.03	11379
911.145	11201
911.259	11265
911.374	11231
911.489	11102
911.604	11064
911.718	10923
911.833	11025
911.947	10847
912.062	10812
912.176	10801
912.291	10953
912.405	10984
912.519	11105
912.633	11094
912.748	10995
912.862	10968
912.976	10873
913.09	10736
913.204	10862
913.318	10847
913.431	10911
913.545	10946
913.659	10938
913.772	10831
913.886	10710
914	10691
914.113	10839
914.226	10862
914.34	10763
914.453	10599
914.566	10786
914.68	10733
914.793	10645
914.906	10573
915.019	10531
915.132	10436
915.245	10489
915.358	10424
915.47	10470
915.583	10436
915.696	10436
915.809	10637
915.921	10603
916.034	10382
916.146	10470
916.259	10398
916.371	10508
916.483	10516
916.595	10436
916.708	10363
916.82	10455
916.932	10344
917.044	10344
917.156	10379
917.268	10188
917.38	10207
917.491	10306
917.603	10276
917.715	10348
917.826	10394
917.938	10299
918.049	10219
918.161	10325
918.272	10424
918.384	10451
918.495	10268
918.606	10238
918.717	10166
918.828	10219
918.939	10291
919.05	10029
919.161	10124
919.272	9915
919.383	10071
919.494	10204
919.604	10462
919.715	10207
919.826	10147
919.936	10192
920.047	10276
920.157	10257
920.267	10337
920.378	10211
920.488	10211
920.598	10363
920.708	10561
920.818	10436
920.928	10428
921.038	10512
921.148	10466
921.258	10215
921.368	10162
921.477	10029
921.587	10071
921.697	9941
921.806	10032
921.916	9945
922.025	9793
922.134	9728
922.244	9682
922.353	9781
922.462	9656
922.571	9667
922.68	9519
922.789	9466
922.898	9481
923.007	9348
923.116	9523
923.224	9515
923.333	9473
923.442	9317
923.55	9382
923.659	9370
923.767	9367
923.876	9287
923.984	9332
924.092	9264
924.201	9382
924.309	9397
924.417	9340
924.525	9237
924.633	9283
924.741	10055
924.849	9051
924.956	9272
925.064	9039
925.172	9028
925.279	9062
925.387	9157
925.494	9176
925.602	9165
925.709	9161
925.816	9017
925.924	9085
926.031	9150
926.138	9100
926.245	9116
926.352	9024
926.459	9184
926.566	9207
926.673	9089
926.779	8979
926.886	8967
926.993	8853
927.099	8815
927.206	8773
927.312	8811
927.419	8826
927.525	8811
927.631	8895
927.737	8644
927.843	8674
927.95	8602
928.056	8667
928.162	8743
928.267	8819
928.373	9401
928.479	8811
928.585	8594
928.69	8705
928.796	8762
928.901	8613
929.007	8507
929.112	8549
929.218	8587
929.323	8579
929.428	8476
929.533	8686
929.638	8442
929.743	8522
929.848	8590
929.953	8560
930.058	8480
930.163	8267
930.267	8320
930.372	8374
930.477	8259
930.581	8476
930.685	8366
930.79	8279
930.894	8332
930.998	8279
931.103	8355
931.207	8027
931.311	8008
931.415	7959
931.519	7746
931.623	7693
