Data from test_V78500241_1533.txt Node
Date: Fri Mar 25 14:44:23 CST 2022
User: usil
Spectrometer: V785-0024
Trigger mode: 0
Integration Time (sec): 4.000000E-1
Scans to average: 1
Nonlinearity correction enabled: false
Boxcar width: 0
Storing dark spectrum: false
XAxis mode: Wavelengths
Number of Pixels in Spectrum: 1024
>>>>>Begin Spectral Data<<<<<
801.071	22424
801.214	22382
801.356	22078
801.499	22006
801.641	21812
801.783	21724
801.926	21774
802.068	21705
802.211	21747
802.353	21622
802.496	21454
802.638	21272
802.78	21195
802.923	21112
803.065	21104
803.208	21028
803.35	21150
803.492	21173
803.635	21279
803.777	21142
803.919	21211
804.061	21469
804.204	21252
804.346	21104
804.488	21039
804.63	21058
804.773	21005
804.915	21100
805.057	21203
805.199	21036
805.341	21195
805.483	21256
805.626	21058
805.768	20960
805.91	21017
806.052	21077
806.194	20967
806.336	21184
806.478	20986
806.62	21017
806.762	21195
806.904	21173
807.046	21538
807.188	21401
807.33	21367
807.472	21458
807.614	21321
807.756	21401
807.898	21203
808.04	21252
808.182	21226
808.324	21176
808.465	21340
808.607	21363
808.749	21523
808.891	21736
809.033	21770
809.174	21644
809.316	21637
809.458	21599
809.6	21374
809.741	21515
809.883	21614
810.025	21747
810.166	21603
810.308	21545
810.45	21644
810.591	21431
810.733	21397
810.875	21321
811.016	21195
811.158	21226
811.299	21287
811.441	21321
811.582	21355
811.724	21165
811.865	21291
812.007	21188
812.148	21233
812.29	21298
812.431	21447
812.573	21496
812.714	21656
812.855	21736
812.997	21865
813.138	21861
813.279	21850
813.421	21724
813.562	21576
813.703	21534
813.845	21382
813.986	21135
814.127	20982
814.268	20853
814.41	20823
814.551	20777
814.692	20861
814.833	20686
814.974	20781
815.115	20686
815.256	20670
815.397	20636
815.539	20598
815.68	20518
815.821	20488
815.962	20560
816.103	20358
816.244	20423
816.385	20328
816.526	20191
816.666	20081
816.807	19978
816.948	19959
817.089	20016
817.23	20031
817.371	19890
817.512	19887
817.653	19997
817.793	19906
817.934	19845
818.075	19833
818.216	19982
818.356	19803
818.497	19807
818.638	19620
818.778	19571
818.919	19670
819.06	19616
819.2	19731
819.341	19772
819.481	19837
819.622	19963
819.762	20138
819.903	20077
820.043	19993
820.184	19868
820.324	19864
820.465	19970
820.605	19947
820.746	19837
820.886	19723
821.026	19849
821.167	19833
821.307	20001
821.447	19875
821.588	19780
821.728	19537
821.868	19480
822.008	19270
822.149	19301
822.289	19221
822.429	19194
822.569	19004
822.709	19015
822.849	18848
822.99	18844
823.13	18726
823.27	18890
823.41	18566
823.55	18486
823.69	18646
823.83	18471
823.97	18532
824.11	18422
824.25	18353
824.389	18376
824.529	18422
824.669	18384
824.809	18334
824.949	18517
825.089	18486
825.228	18384
825.368	18235
825.508	18057
825.648	18159
825.787	18190
825.927	18197
826.067	18220
826.206	18083
826.346	18243
826.485	18216
826.625	17992
826.765	18239
826.904	18163
827.044	17916
827.183	17927
827.323	17794
827.462	17897
827.601	17840
827.741	17809
827.88	17752
828.02	17661
828.159	17798
828.298	17874
828.437	17802
828.577	17741
828.716	17897
828.855	17771
828.994	17600
829.134	17532
829.273	17566
829.412	17551
829.551	17421
829.69	17547
829.829	17646
829.968	17718
830.107	17680
830.246	17566
830.385	17471
830.524	17379
830.663	17387
830.802	17307
830.941	17147
831.08	17166
831.219	17220
831.357	17185
831.496	17482
831.635	17170
831.774	17117
831.913	17037
832.051	16930
832.19	16885
832.329	17022
832.467	16824
832.606	16854
832.744	16976
832.883	16919
833.022	16850
833.16	16957
833.299	16946
833.437	16949
833.576	16984
833.714	17006
833.852	16919
833.991	16934
834.129	16953
834.267	16953
834.406	16889
834.544	16976
834.682	16930
834.821	17014
834.959	17105
835.097	16816
835.235	17041
835.373	16923
835.511	16934
835.65	16839
835.788	16820
835.926	16748
836.064	16607
836.202	16733
836.34	16835
836.478	16778
836.615	16862
836.753	16786
836.891	16839
837.029	16839
837.167	16828
837.305	16816
837.443	16588
837.58	16558
837.718	16763
837.856	16812
837.993	16626
838.131	16786
838.269	16626
838.406	16611
838.544	16500
838.681	16436
838.819	16428
838.956	16280
839.094	16124
839.231	16215
839.369	16443
839.506	16512
839.643	16508
839.781	16200
839.918	16185
840.055	16143
840.193	16188
840.33	16303
840.467	16177
840.604	16314
840.742	16497
840.879	16086
841.016	16082
841.153	16025
841.29	16348
841.427	16173
841.564	16246
841.701	16242
841.838	16090
841.975	16109
842.112	16211
842.249	15994
842.385	16021
842.522	16272
842.659	16032
842.796	15979
842.933	15994
843.069	15895
843.206	15819
843.343	16078
843.479	15987
843.616	16044
843.752	15747
843.889	15812
844.025	15899
844.162	15736
844.298	15907
844.435	15816
844.571	15679
844.708	15831
844.844	15941
844.98	15956
845.117	15953
845.253	15823
845.389	15652
845.525	15827
845.661	15804
845.798	15705
845.934	15895
846.07	15698
846.206	15778
846.342	15797
846.478	15671
846.614	15416
846.75	15405
846.886	15329
847.022	15408
847.158	15416
847.294	15450
847.429	15431
847.565	15317
847.701	15553
847.837	15154
847.972	15047
848.108	15207
848.244	15108
848.379	14990
848.515	14921
848.65	14861
848.786	14941
848.921	14929
849.057	15093
849.192	14990
849.328	14986
849.463	15058
849.598	14925
849.734	14918
849.869	14724
850.004	14705
850.14	14868
850.275	14727
850.41	14670
850.545	14644
850.68	14686
850.815	14750
850.95	14663
851.085	14925
851.22	14834
851.355	14811
851.49	14781
851.625	14697
851.76	14667
851.895	14621
852.03	14590
852.165	14705
852.299	14682
852.434	14853
852.569	14727
852.703	14758
852.838	14811
852.973	14906
853.107	14868
853.242	14720
853.376	14598
853.511	14560
853.645	14533
853.78	14678
853.914	14579
854.048	14610
854.183	14655
854.317	14590
854.451	14644
854.585	14602
854.72	14617
854.854	14571
854.988	14454
855.122	14583
855.256	14393
855.39	14621
855.524	14773
855.658	14697
855.792	14651
855.926	14727
856.06	14644
856.194	14560
856.327	14674
856.461	14518
856.595	14621
856.729	14629
856.862	14712
856.996	14651
857.13	14705
857.263	14670
857.397	14724
857.53	14640
857.664	14602
857.797	14705
857.931	14743
858.064	14587
858.197	14651
858.331	14644
858.464	14568
858.597	14469
858.731	14602
858.864	14476
858.997	14590
859.13	14682
859.263	14686
859.396	14636
859.529	14610
859.662	14667
859.795	14602
859.928	14670
860.061	14769
860.194	14716
860.327	14640
860.46	14602
860.592	14765
860.725	14651
860.858	14629
860.99	14507
861.123	14583
861.256	14644
861.388	14720
861.521	15294
861.653	14549
861.786	14465
861.918	14533
862.05	14351
862.183	14545
862.315	14590
862.447	14522
862.58	14552
862.712	14412
862.844	14313
862.976	14408
863.108	14389
863.24	14762
863.372	14328
863.504	14343
863.636	14385
863.768	14434
863.9	14343
864.032	14229
864.164	14355
864.296	14400
864.428	14511
864.559	14488
864.691	14488
864.823	14484
864.954	14492
865.086	14385
865.217	14324
865.349	14317
865.48	14317
865.612	14366
865.743	14469
865.875	14423
866.006	14275
866.137	14438
866.269	14370
866.4	14355
866.531	14313
866.662	14256
866.793	14248
866.924	14252
867.055	14385
867.186	14358
867.317	14298
867.448	14298
867.579	14298
867.71	14256
867.841	14240
867.972	14336
868.103	14366
868.233	14389
868.364	14389
868.495	14408
868.625	14522
868.756	14636
868.886	14484
869.017	14648
869.147	14632
869.278	14682
869.408	14613
869.539	14598
869.669	14587
869.799	14606
869.929	14727
870.06	14731
870.19	14948
870.32	14823
870.45	14899
870.58	14914
870.71	15085
870.84	15116
870.97	14986
871.1	14998
871.23	15203
871.36	15161
871.489	15024
871.619	15214
871.749	15192
871.879	15184
872.008	15256
872.138	15226
872.267	15127
872.397	15062
872.526	14952
872.656	15024
872.785	15039
872.915	15249
873.044	15317
873.173	15192
873.303	15241
873.432	15291
873.561	15313
873.69	15176
873.819	15275
873.948	15279
874.077	15287
874.206	15245
874.335	15294
874.464	15348
874.593	15542
874.722	15450
874.851	15599
874.979	15584
875.108	15610
875.237	15530
875.365	15435
875.494	15492
875.623	15641
875.751	15496
875.88	15618
876.008	15759
876.136	15701
876.265	15888
876.393	16074
876.521	16071
876.65	16051
876.778	15911
876.906	15922
877.034	15907
877.162	15960
877.29	15880
877.418	15991
877.546	16032
877.674	15911
877.802	15941
877.93	15892
878.058	15797
878.185	15827
878.313	15998
878.441	15899
878.568	15774
878.696	15972
878.824	15918
878.951	16090
879.079	16010
879.206	16325
879.333	16181
879.461	16036
879.588	16177
879.715	16333
879.842	16211
879.97	16067
880.097	15861
880.224	15876
880.351	15926
880.478	15823
880.605	15789
880.732	15747
880.859	16071
880.986	15918
881.112	15941
881.239	15785
881.366	15576
881.493	15496
881.619	15523
881.746	15523
881.872	15496
881.999	15382
882.125	15405
882.252	15526
882.378	15447
882.505	15511
882.631	15374
882.757	15298
882.883	15256
883.01	15313
883.136	15344
883.262	15108
883.388	15203
883.514	15283
883.64	15329
883.766	15283
883.892	15066
884.018	15138
884.143	15359
884.269	15450
884.395	15017
884.52	14960
884.646	15028
884.772	14925
884.897	14944
885.023	14956
885.148	15138
885.274	15104
885.399	15138
885.524	15017
885.65	15039
885.775	14963
885.9	14963
886.025	15116
886.15	15062
886.275	14960
886.4	14929
886.525	14948
886.65	14921
886.775	14811
886.9	15100
887.025	15275
887.149	15020
887.274	14788
887.399	14834
887.523	14754
887.648	14682
887.773	14743
887.897	14948
888.021	14773
888.146	14838
888.27	14838
888.395	14891
888.519	14910
888.643	14868
888.767	14845
888.891	14785
889.015	14674
889.139	14781
889.263	14712
889.387	14781
889.511	14902
889.635	14849
889.759	14670
889.883	14617
890.006	14697
890.13	14857
890.254	14617
890.377	14621
890.501	14507
890.624	14332
890.748	14533
890.871	14389
890.995	14240
891.118	14275
891.241	14366
891.364	14343
891.488	14518
891.611	14374
891.734	14343
891.857	14412
891.98	14385
892.103	14511
892.226	14317
892.349	14347
892.471	14199
892.594	14454
892.717	14427
892.839	14355
892.962	14267
893.085	14446
893.207	14263
893.33	14252
893.452	14252
893.575	14374
893.697	14343
893.819	14495
893.941	14530
894.064	14465
894.186	14336
894.308	14358
894.43	14499
894.552	14511
894.674	14499
894.796	14309
894.918	14351
895.04	14358
895.161	14457
895.283	14332
895.405	14385
895.526	14396
895.648	14385
895.769	14507
895.891	14476
896.012	14598
896.134	14587
896.255	14533
896.376	14469
896.498	14457
896.619	14484
896.74	14495
896.861	14606
896.982	14830
897.103	14994
897.224	14811
897.345	14727
897.466	14727
897.587	14731
897.708	14887
897.828	14853
897.949	14754
898.07	14632
898.19	14743
898.311	15001
898.431	14765
898.552	14830
898.672	14902
898.792	14868
898.913	14842
899.033	14823
899.153	14697
899.273	14667
899.393	14708
899.513	14693
899.633	14629
899.753	14762
899.873	14655
899.993	14773
900.113	14655
900.232	14792
900.352	14705
900.472	14663
900.591	14556
900.711	14518
900.83	14587
900.95	14731
901.069	14773
901.189	14488
901.308	14256
901.427	14202
901.546	14263
901.665	14278
901.784	14332
901.904	14237
902.023	13997
902.141	13860
902.26	13830
902.379	13947
902.498	13826
902.617	13864
902.735	13879
902.854	13807
902.973	13761
903.091	13502
903.21	13582
903.328	13594
903.446	13438
903.565	13460
903.683	13453
903.801	13289
903.919	13430
904.038	13343
904.156	13217
904.274	13202
904.392	13149
904.51	13213
904.627	13095
904.745	13217
904.863	13236
904.981	12977
905.098	12932
905.216	12897
905.334	12863
905.451	12973
905.569	12817
905.686	12863
905.803	12837
905.921	12673
906.038	12863
906.155	12745
906.272	12616
906.389	12604
906.506	12494
906.623	12475
906.74	12486
906.857	12407
906.974	12346
907.091	12498
907.208	12566
907.324	12456
907.441	12410
907.557	12190
907.674	12121
907.79	12175
907.907	12197
908.023	12213
908.139	12194
908.256	12072
908.372	12186
908.488	12182
908.604	11935
908.72	11988
908.836	12049
908.952	12007
909.068	11996
909.184	12079
909.3	11904
909.415	12049
909.531	11935
909.647	11767
909.762	11764
909.878	11745
909.993	11726
910.108	11718
910.224	11646
910.339	11752
910.454	11585
910.57	11573
910.685	11535
910.8	11714
910.915	11824
911.03	11585
911.145	11463
911.259	11398
911.374	11360
911.489	11277
911.604	11280
911.718	11140
911.833	11204
911.947	11056
912.062	10911
912.176	11155
912.291	11227
912.405	11216
912.519	11391
912.633	11410
912.748	11265
912.862	11124
912.976	11090
913.09	10946
913.204	11018
913.318	11098
913.431	11147
913.545	11151
913.659	11136
913.772	11029
913.886	10896
914	10923
914.113	11105
914.226	11098
914.34	10900
914.453	10881
914.566	11098
914.68	10896
914.793	10835
914.906	10660
915.019	10694
915.132	10626
915.245	10660
915.358	10752
915.47	10649
915.583	10645
915.696	10687
915.809	10790
915.921	10911
916.034	10618
916.146	10645
916.259	10588
916.371	10740
916.483	10736
916.595	10630
916.708	10668
916.82	10717
916.932	10630
917.044	10508
917.156	10615
917.268	10478
917.38	10497
917.491	10462
917.603	10554
917.715	10558
917.826	10558
917.938	10546
918.049	10337
918.161	10531
918.272	10664
918.384	10577
918.495	10512
918.606	10367
918.717	10329
918.828	10398
918.939	10402
919.05	10265
919.161	10352
919.272	10207
919.383	10234
919.494	10428
919.604	10592
919.715	10413
919.826	10291
919.936	10322
920.047	10447
920.157	10360
920.267	10531
920.378	10402
920.488	10398
920.598	10554
920.708	10717
920.818	10622
920.928	10710
921.038	10752
921.148	10812
921.258	10363
921.368	10318
921.477	10287
921.587	10169
921.697	10139
921.806	10211
921.916	10177
922.025	10036
922.134	9926
922.244	9953
922.353	9975
922.462	9930
922.571	9781
922.68	9591
922.789	9652
922.898	9690
923.007	9603
923.116	9614
923.224	9648
923.333	9663
923.442	9587
923.55	9496
923.659	9504
923.767	9618
923.876	9511
923.984	9549
924.092	9481
924.201	9488
924.309	9572
924.417	9447
924.525	9488
924.633	9435
924.741	10413
924.849	9268
924.956	9344
925.064	9249
925.172	9176
925.279	9268
925.387	9363
925.494	9249
925.602	9405
925.709	9412
925.816	9116
925.924	9302
926.031	9355
926.138	9260
926.245	9412
926.352	9192
926.459	9351
926.566	9355
926.673	9199
926.779	9123
926.886	9077
926.993	8960
927.099	8986
927.206	8982
927.312	8944
927.419	9062
927.525	9028
927.631	9081
927.737	8979
927.843	8868
927.95	8743
928.056	8902
928.162	8857
928.267	8891
928.373	9443
928.479	8963
928.585	8743
928.69	8956
928.796	8883
928.901	8826
929.007	8632
929.112	8735
929.218	8735
929.323	8674
929.428	8712
929.533	8804
929.638	8644
929.743	8746
929.848	8648
929.953	8674
930.058	8564
930.163	8488
930.267	8450
930.372	8556
930.477	8438
930.581	8663
930.685	8568
930.79	8400
930.894	8434
930.998	8374
931.103	8514
931.207	8176
931.311	8103
931.415	8119
931.519	7906
931.623	7890
