Data from test_V78500241_3549.txt Node
Date: Fri Mar 25 14:58:25 CST 2022
User: usil
Spectrometer: V785-0024
Trigger mode: 0
Integration Time (sec): 4.000000E-1
Scans to average: 1
Nonlinearity correction enabled: false
Boxcar width: 0
Storing dark spectrum: false
XAxis mode: Wavelengths
Number of Pixels in Spectrum: 1024
>>>>>Begin Spectral Data<<<<<
801.071	21960
801.214	21816
801.356	21599
801.499	21496
801.641	21310
801.783	21397
801.926	21389
802.068	21336
802.211	21077
802.353	21081
802.496	20883
802.638	20811
802.78	20663
802.923	20598
803.065	20522
803.208	20606
803.35	20533
803.492	20720
803.635	20762
803.777	20648
803.919	20724
804.061	20925
804.204	20686
804.346	20556
804.488	20571
804.63	20583
804.773	20541
804.915	20473
805.057	20621
805.199	20469
805.341	20609
805.483	20640
805.626	20667
805.768	20393
805.91	20545
806.052	20560
806.194	20381
806.336	20663
806.478	20507
806.62	20355
806.762	20556
806.904	20716
807.046	20788
807.188	20792
807.33	20830
807.472	20815
807.614	20765
807.756	20667
807.898	20674
808.04	20511
808.182	20606
808.324	20613
808.465	20625
808.607	20765
808.749	20788
808.891	20864
809.033	20967
809.174	20887
809.316	20750
809.458	20834
809.6	20731
809.741	20895
809.883	20838
810.025	21043
810.166	21043
810.308	21096
810.45	20895
810.591	20891
810.733	20674
810.875	20571
811.016	20522
811.158	20492
811.299	20670
811.441	20834
811.582	20560
811.724	20621
811.865	20499
812.007	20541
812.148	20609
812.29	20629
812.431	20735
812.573	20937
812.714	20925
812.855	21077
812.997	21165
813.138	21252
813.279	21150
813.421	21146
813.562	21039
813.703	20823
813.845	20765
813.986	20400
814.127	20324
814.268	20180
814.41	20176
814.551	20115
814.692	20240
814.833	20096
814.974	20221
815.115	20088
815.256	20050
815.397	20039
815.539	20031
815.68	19852
815.821	19856
815.962	19967
816.103	19757
816.244	19700
816.385	19685
816.526	19499
816.666	19586
816.807	19240
816.948	19369
817.089	19388
817.23	19282
817.371	19346
817.512	19240
817.653	19312
817.793	19206
817.934	19247
818.075	19168
818.216	19312
818.356	19107
818.497	19091
818.638	19046
818.778	19012
818.919	18939
819.06	18993
819.2	19072
819.341	19168
819.481	19141
819.622	19411
819.762	19483
819.903	19400
820.043	19343
820.184	19270
820.324	19304
820.465	19297
820.605	19263
820.746	19209
820.886	19141
821.026	19171
821.167	19179
821.307	19285
821.447	19209
821.588	18996
821.728	18947
821.868	18764
822.008	18612
822.149	18700
822.289	18700
822.429	18547
822.569	18319
822.709	18380
822.849	18174
822.99	18182
823.13	18182
823.27	18019
823.41	18034
823.55	17969
823.69	17920
823.83	17988
823.97	17885
824.11	17756
824.25	17748
824.389	17722
824.529	17748
824.669	17805
824.809	17779
824.949	17885
825.089	17927
825.228	17756
825.368	17634
825.508	17687
825.648	17649
825.787	17562
825.927	17570
826.067	17505
826.206	17509
826.346	17452
826.485	17558
826.625	17478
826.765	17642
826.904	17627
827.044	17356
827.183	17231
827.323	17178
827.462	17315
827.601	17269
827.741	17235
827.88	17322
828.02	17151
828.159	17368
828.298	17250
828.437	17254
828.577	17159
828.716	17417
828.855	17197
828.994	17033
829.134	17033
829.273	16984
829.412	17041
829.551	16953
829.69	17124
829.829	17003
829.968	17083
830.107	17083
830.246	17102
830.385	16984
830.524	16862
830.663	16881
830.802	16748
830.941	16668
831.08	16679
831.219	16733
831.357	16752
831.496	16946
831.635	16577
831.774	16535
831.913	16527
832.051	16421
832.19	16466
832.329	16489
832.467	16375
832.606	16299
832.744	16238
832.883	16390
833.022	16337
833.16	16432
833.299	16436
833.437	16382
833.576	16523
833.714	16447
833.852	16443
833.991	16424
834.129	16535
834.267	16447
834.406	16424
834.544	16424
834.682	16409
834.821	16428
834.959	16626
835.097	16356
835.235	16504
835.373	16390
835.511	16402
835.65	16352
835.788	16211
835.926	16143
836.064	16169
836.202	16101
836.34	16173
836.478	16367
836.615	16249
836.753	16291
836.891	16421
837.029	16363
837.167	16276
837.305	16261
837.443	16246
837.58	16230
837.718	16257
837.856	16185
837.993	16166
838.131	16185
838.269	16082
838.406	16067
838.544	16082
838.681	15884
838.819	15926
838.956	15686
839.094	15720
839.231	15713
839.369	15846
839.506	16131
839.643	15911
839.781	15854
839.918	15644
840.055	15705
840.193	15728
840.33	15622
840.467	15774
840.604	15804
840.742	16063
840.879	15507
841.016	15660
841.153	15690
841.29	15945
841.427	15743
841.564	15789
841.701	15842
841.838	15656
841.975	15660
842.112	15679
842.249	15553
842.385	15454
842.522	15808
842.659	15477
842.796	15584
842.933	15625
843.069	15473
843.206	15591
843.343	15652
843.479	15511
843.616	15492
843.752	15370
843.889	15389
844.025	15447
844.162	15382
844.298	15466
844.435	15329
844.571	15233
844.708	15298
844.844	15439
844.98	15488
845.117	15450
845.253	15370
845.389	15184
845.525	15279
845.661	15252
845.798	15180
845.934	15203
846.07	15142
846.206	15188
846.342	15233
846.478	15123
846.614	14944
846.75	14887
846.886	14910
847.022	15028
847.158	14925
847.294	15024
847.429	14975
847.565	14956
847.701	15131
847.837	14670
847.972	14594
848.108	14792
848.244	14689
848.379	14484
848.515	14454
848.65	14499
848.786	14450
848.921	14617
849.057	14610
849.192	14587
849.328	14480
849.463	14571
849.598	14476
849.734	14480
849.869	14313
850.004	14339
850.14	14355
850.275	14305
850.41	14168
850.545	14252
850.68	14275
850.815	14263
850.95	14328
851.085	14556
851.22	14412
851.355	14320
851.49	14252
851.625	14263
851.76	14191
851.895	14187
852.03	14096
852.165	14290
852.299	14282
852.434	14180
852.569	14298
852.703	14290
852.838	14324
852.973	14454
853.107	14465
853.242	14259
853.376	14183
853.511	14046
853.645	14035
853.78	14202
853.914	14176
854.048	14157
854.183	14172
854.317	14187
854.451	14221
854.585	14187
854.72	14088
854.854	14183
854.988	14054
855.122	14123
855.256	13951
855.39	14065
855.524	14286
855.658	14111
855.792	14149
855.926	14145
856.06	14221
856.194	14248
856.327	14123
856.461	14031
856.595	14084
856.729	14145
856.862	14180
856.996	14248
857.13	14164
857.263	14202
857.397	14202
857.53	14149
857.664	14229
857.797	14263
857.931	14248
858.064	14210
858.197	14218
858.331	14103
858.464	14069
858.597	14107
858.731	14183
858.864	14119
858.997	14039
859.13	14142
859.263	14168
859.396	14229
859.529	14149
859.662	14130
859.795	14065
859.928	14157
860.061	14286
860.194	14317
860.327	14107
860.46	14100
860.592	14214
860.725	14301
860.858	14199
860.99	14096
861.123	14008
861.256	14092
861.388	14191
861.521	14975
861.653	14005
861.786	13917
861.918	13963
862.05	14016
862.183	14043
862.315	14077
862.447	14138
862.58	14115
862.712	13890
862.844	13879
862.976	13997
863.108	13970
863.24	14343
863.372	13803
863.504	13936
863.636	13940
863.768	13986
863.9	13940
864.032	13856
864.164	13894
864.296	14005
864.428	14016
864.559	13928
864.691	13944
864.823	13993
864.954	14005
865.086	13955
865.217	13947
865.349	13776
865.48	13849
865.612	13887
865.743	14035
865.875	13936
866.006	13814
866.137	13822
866.269	13913
866.4	13906
866.531	13917
866.662	13833
866.793	13856
866.924	13940
867.055	13917
867.186	13883
867.317	13967
867.448	13932
867.579	13902
867.71	13837
867.841	13799
867.972	13864
868.103	13811
868.233	13944
868.364	13967
868.495	13944
868.625	14103
868.756	14214
868.886	14065
869.017	14183
869.147	14282
869.278	14263
869.408	14164
869.539	14119
869.669	14164
869.799	14187
869.929	14362
870.06	14164
870.19	14480
870.32	14507
870.45	14514
870.58	14590
870.71	14651
870.84	14731
870.97	14530
871.1	14530
871.23	14792
871.36	14769
871.489	14636
871.619	14686
871.749	14743
871.879	14895
872.008	14762
872.138	14716
872.267	14819
872.397	14648
872.526	14514
872.656	14556
872.785	14621
872.915	14819
873.044	14792
873.173	14804
873.303	14899
873.432	14914
873.561	14933
873.69	14811
873.819	14876
873.948	14845
874.077	14819
874.206	14785
874.335	14811
874.464	14921
874.593	15150
874.722	14967
874.851	15169
874.979	15119
875.108	15165
875.237	15009
875.365	15070
875.494	15150
875.623	15188
875.751	15127
875.88	15146
876.008	15306
876.136	15370
876.265	15618
876.393	15591
876.521	15561
876.65	15679
876.778	15637
876.906	15485
877.034	15450
877.162	15481
877.29	15477
877.418	15507
877.546	15622
877.674	15542
877.802	15530
877.93	15492
878.058	15462
878.185	15424
878.313	15523
878.441	15534
878.568	15405
878.696	15572
878.824	15500
878.951	15606
879.079	15679
879.206	15808
879.333	15648
879.461	15534
879.588	15671
879.715	15644
879.842	15800
879.97	15622
880.097	15458
880.224	15310
880.351	15378
880.478	15473
880.605	15408
880.732	15321
880.859	15644
880.986	15393
881.112	15416
881.239	15291
881.366	15127
881.493	15081
881.619	15112
881.746	15077
881.872	15013
881.999	15005
882.125	15009
882.252	15112
882.378	15138
882.505	15123
882.631	15024
882.757	14842
882.883	14952
883.01	14823
883.136	14746
883.262	14678
883.388	14667
883.514	14842
883.64	14975
883.766	14883
883.892	14716
884.018	14796
884.143	14883
884.269	15001
884.395	14750
884.52	14575
884.646	14598
884.772	14587
884.897	14495
885.023	14678
885.148	14724
885.274	14735
885.399	14674
885.524	14526
885.65	14625
885.775	14655
885.9	14537
886.025	14727
886.15	14629
886.275	14507
886.4	14499
886.525	14552
886.65	14518
886.775	14412
886.9	14571
887.025	14792
887.149	14590
887.274	14362
887.399	14393
887.523	14328
887.648	14294
887.773	14362
887.897	14499
888.021	14507
888.146	14412
888.27	14476
888.395	14514
888.519	14431
888.643	14412
888.767	14484
888.891	14336
889.015	14233
889.139	14298
889.263	14294
889.387	14415
889.511	14518
889.635	14415
889.759	14240
889.883	14252
890.006	14206
890.13	14313
890.254	14180
890.377	14305
890.501	14115
890.624	14145
890.748	14111
890.871	13970
890.995	13932
891.118	13860
891.241	13955
891.364	14058
891.488	14092
891.611	14035
891.734	13993
891.857	14043
891.98	13974
892.103	13989
892.226	14024
892.349	13932
892.471	13803
892.594	14008
892.717	14123
892.839	13913
892.962	14005
893.085	14062
893.207	13906
893.33	13803
893.452	13852
893.575	14008
893.697	13936
893.819	14164
893.941	14183
894.064	14092
894.186	13902
894.308	13974
894.43	14084
894.552	14168
894.674	14054
894.796	13940
894.918	13955
895.04	14050
895.161	14103
895.283	14111
895.405	14024
895.526	14054
895.648	14054
895.769	14126
895.891	14191
896.012	14161
896.134	14252
896.255	14202
896.376	14149
896.498	14092
896.619	14199
896.74	14138
896.861	14237
896.982	14606
897.103	14712
897.224	14564
897.345	14351
897.466	14358
897.587	14427
897.708	14511
897.828	14457
897.949	14408
898.07	14298
898.19	14457
898.311	14587
898.431	14499
898.552	14473
898.672	14590
898.792	14602
898.913	14488
899.033	14362
899.153	14423
899.273	14259
899.393	14332
899.513	14377
899.633	14427
899.753	14347
899.873	14301
899.993	14317
900.113	14374
900.232	14332
900.352	14233
900.472	14294
900.591	14149
900.711	14229
900.83	14096
900.95	14336
901.069	14343
901.189	14187
901.308	14024
901.427	13883
901.546	13879
901.665	13837
901.784	13955
901.904	13799
902.023	13750
902.141	13601
902.26	13422
902.379	13533
902.498	13525
902.617	13369
902.735	13407
902.854	13537
902.973	13343
903.091	13194
903.21	13114
903.328	13209
903.446	13072
903.565	13012
903.683	13126
903.801	12916
903.919	13042
904.038	12909
904.156	12837
904.274	13012
904.392	12848
904.51	12821
904.627	12810
904.745	12878
904.863	12871
904.981	12654
905.098	12471
905.216	12506
905.334	12593
905.451	12559
905.569	12471
905.686	12589
905.803	12479
905.921	12441
906.038	12467
906.155	12361
906.272	12270
906.389	12251
906.506	12220
906.623	12163
906.74	12148
906.857	12072
906.974	12095
907.091	12254
907.208	12270
907.324	12209
907.441	12064
907.557	11935
907.674	11847
907.79	11882
907.907	11783
908.023	11863
908.139	11958
908.256	11878
908.372	11931
908.488	11828
908.604	11760
908.72	11596
908.836	11684
908.952	11611
909.068	11684
909.184	11764
909.3	11661
909.415	11611
909.531	11676
909.647	11493
909.762	11474
909.878	11402
909.993	11448
910.108	11391
910.224	11398
910.339	11425
910.454	11360
910.57	11299
910.685	11185
910.8	11512
910.915	11482
911.03	11242
911.145	11128
911.259	11143
911.374	11162
911.489	11025
911.604	10930
911.718	10866
911.833	10854
911.947	10793
912.062	10687
912.176	10752
912.291	10923
912.405	10938
912.519	11113
912.633	11128
912.748	10972
912.862	10892
912.976	10786
913.09	10687
913.204	10717
913.318	10835
913.431	10949
913.545	10809
913.659	10946
913.772	10736
913.886	10626
914	10733
914.113	10725
914.226	10778
914.34	10721
914.453	10527
914.566	10809
914.68	10603
914.793	10615
914.906	10382
915.019	10417
915.132	10303
915.245	10344
915.358	10379
915.47	10432
915.583	10493
915.696	10386
915.809	10470
915.921	10493
916.034	10360
916.146	10363
916.259	10287
916.371	10474
916.483	10390
916.595	10310
916.708	10341
916.82	10284
916.932	10280
917.044	10325
917.156	10333
917.268	10276
917.38	10310
917.491	10150
917.603	10204
917.715	10333
917.826	10371
917.938	10158
918.049	10124
918.161	10227
918.272	10390
918.384	10440
918.495	10261
918.606	10158
918.717	10063
918.828	10158
918.939	10204
919.05	9968
919.161	10067
919.272	9911
919.383	9991
919.494	10219
919.604	10398
919.715	10116
919.826	10040
919.936	10120
920.047	10162
920.157	10116
920.267	10306
920.378	10154
920.488	10128
920.598	10341
920.708	10462
920.818	10284
920.928	10375
921.038	10394
921.148	10405
921.258	10131
921.368	10131
921.477	10067
921.587	9987
921.697	9762
921.806	9998
921.916	9831
922.025	9622
922.134	9667
922.244	9675
922.353	9762
922.462	9603
922.571	9625
922.68	9348
922.789	9336
922.898	9401
923.007	9325
923.116	9405
923.224	9348
923.333	9519
923.442	9298
923.55	9306
923.659	9264
923.767	9306
923.876	9226
923.984	9325
924.092	9214
924.201	9283
924.309	9253
924.417	9268
924.525	9154
924.633	9222
924.741	9895
924.849	9009
924.956	9093
925.064	9039
925.172	9013
925.279	9043
925.387	9070
925.494	8979
925.602	9146
925.709	9138
925.816	9001
925.924	9142
926.031	9173
926.138	9036
926.245	9047
926.352	8986
926.459	9104
926.566	9157
926.673	9028
926.779	8948
926.886	8990
926.993	8746
927.099	8762
927.206	8640
927.312	8708
927.419	8830
927.525	8746
927.631	8842
927.737	8731
927.843	8667
927.95	8507
928.056	8617
928.162	8636
928.267	8739
928.373	9340
928.479	8819
928.585	8495
928.69	8617
928.796	8613
928.901	8556
929.007	8454
929.112	8602
929.218	8575
929.323	8450
929.428	8492
929.533	8598
929.638	8419
929.743	8423
929.848	8526
929.953	8476
930.058	8457
930.163	8180
930.267	8298
930.372	8358
930.477	8164
930.581	8461
930.685	8298
930.79	8180
930.894	8221
930.998	8206
931.103	8320
931.207	8027
931.311	7947
931.415	7932
931.519	7666
931.623	7761
