Data from test_V78500241_1198.txt Node
Date: Fri Mar 25 14:42:03 CST 2022
User: usil
Spectrometer: V785-0024
Trigger mode: 0
Integration Time (sec): 4.000000E-1
Scans to average: 1
Nonlinearity correction enabled: false
Boxcar width: 0
Storing dark spectrum: false
XAxis mode: Wavelengths
Number of Pixels in Spectrum: 1024
>>>>>Begin Spectral Data<<<<<
801.071	22554
801.214	22322
801.356	21937
801.499	21911
801.641	21854
801.783	21736
801.926	21823
802.068	21842
802.211	21660
802.353	21564
802.496	21332
802.638	21420
802.78	21203
802.923	21142
803.065	21230
803.208	21093
803.35	21192
803.492	21222
803.635	21321
803.777	21192
803.919	21264
804.061	21481
804.204	21154
804.346	21085
804.488	21051
804.63	21039
804.773	20929
804.915	21226
805.057	21192
805.199	21070
805.341	21077
805.483	21127
805.626	21165
805.768	21047
805.91	21096
806.052	21032
806.194	21017
806.336	21188
806.478	20929
806.62	21066
806.762	21100
806.904	21325
807.046	21595
807.188	21420
807.33	21507
807.472	21435
807.614	21245
807.756	21405
807.898	21298
808.04	21218
808.182	21165
808.324	21131
808.465	21260
808.607	21401
808.749	21583
808.891	21625
809.033	21797
809.174	21606
809.316	21507
809.458	21580
809.6	21481
809.741	21526
809.883	21629
810.025	21713
810.166	21561
810.308	21633
810.45	21576
810.591	21477
810.733	21477
810.875	21351
811.016	21203
811.158	21241
811.299	21275
811.441	21485
811.582	21325
811.724	21287
811.865	21252
812.007	21298
812.148	21119
812.29	21154
812.431	21572
812.573	21526
812.714	21625
812.855	21743
812.997	21846
813.138	21911
813.279	21934
813.421	21732
813.562	21648
813.703	21595
813.845	21424
813.986	21138
814.127	21039
814.268	20864
814.41	20868
814.551	20758
814.692	20819
814.833	20785
814.974	20632
815.115	20788
815.256	20682
815.397	20644
815.539	20587
815.68	20579
815.821	20499
815.962	20636
816.103	20415
816.244	20317
816.385	20450
816.526	20278
816.666	20115
816.807	19906
816.948	20138
817.089	20088
817.23	19982
817.371	19951
817.512	20027
817.653	19940
817.793	19833
817.934	20024
818.075	19986
818.216	20039
818.356	19868
818.497	19791
818.638	19662
818.778	19605
818.919	19586
819.06	19696
819.2	19643
819.341	19864
819.481	19970
819.622	19879
819.762	20027
819.903	20084
820.043	20020
820.184	19978
820.324	19902
820.465	20027
820.605	20005
820.746	19951
820.886	19830
821.026	19909
821.167	19963
821.307	19940
821.447	19772
821.588	19803
821.728	19571
821.868	19533
822.008	19282
822.149	19266
822.289	19282
822.429	19072
822.569	19038
822.709	19053
822.849	18837
822.99	18833
823.13	18760
823.27	18837
823.41	18696
823.55	18597
823.69	18498
823.83	18627
823.97	18563
824.11	18395
824.25	18414
824.389	18403
824.529	18559
824.669	18350
824.809	18547
824.949	18384
825.089	18399
825.228	18380
825.368	18277
825.508	18209
825.648	18319
825.787	18315
825.927	18254
826.067	18232
826.206	18167
826.346	18273
826.485	18140
826.625	18186
826.765	18285
826.904	18209
827.044	18045
827.183	17939
827.323	17927
827.462	18045
827.601	17942
827.741	17897
827.88	17904
828.02	17729
828.159	17912
828.298	17901
828.437	17965
828.577	17737
828.716	18102
828.855	17840
828.994	17592
829.134	17615
829.273	17726
829.412	17608
829.551	17646
829.69	17619
829.829	17665
829.968	17794
830.107	17783
830.246	17676
830.385	17615
830.524	17455
830.663	17448
830.802	17383
830.941	17284
831.08	17212
831.219	17227
831.357	17269
831.496	17330
831.635	17280
831.774	17117
831.913	17136
832.051	17014
832.19	17151
832.329	17140
832.467	17113
832.606	16904
832.744	16938
832.883	17029
833.022	16927
833.16	16953
833.299	17018
833.437	16987
833.576	17022
833.714	17025
833.852	17121
833.991	17159
834.129	17212
834.267	17052
834.406	17048
834.544	17109
834.682	16976
834.821	17083
834.959	17185
835.097	17090
835.235	17094
835.373	17109
835.511	17102
835.65	16980
835.788	16927
835.926	16755
836.064	16790
836.202	16687
836.34	16843
836.478	16999
836.615	16911
836.753	17060
836.891	17003
837.029	17079
837.167	16915
837.305	16721
837.443	16923
837.58	16812
837.718	16873
837.856	16782
837.993	16854
838.131	16847
838.269	16725
838.406	16774
838.544	16710
838.681	16599
838.819	16413
838.956	16246
839.094	16306
839.231	16402
839.369	16455
839.506	16725
839.643	16485
839.781	16352
839.918	16424
840.055	16470
840.193	16413
840.33	16242
840.467	16265
840.604	16352
840.742	16512
840.879	16242
841.016	16234
841.153	16246
841.29	16478
841.427	16363
841.564	16367
841.701	16409
841.838	16265
841.975	16280
842.112	16322
842.249	16071
842.385	16093
842.522	16303
842.659	16200
842.796	16131
842.933	16204
843.069	16063
843.206	16093
843.343	16253
843.479	16135
843.616	16154
843.752	15922
843.889	15926
844.025	16067
844.162	15930
844.298	16051
844.435	15956
844.571	15854
844.708	16051
844.844	16082
844.98	16147
845.117	16013
845.253	15945
845.389	15823
845.525	15869
845.661	15869
845.798	15842
845.934	15850
846.07	15743
846.206	15846
846.342	15937
846.478	15717
846.614	15660
846.75	15439
846.886	15443
847.022	15530
847.158	15466
847.294	15511
847.429	15496
847.565	15450
847.701	15717
847.837	15264
847.972	15199
848.108	15351
848.244	15218
848.379	15108
848.515	15020
848.65	15119
848.786	15013
848.921	15241
849.057	15135
849.192	15154
849.328	15119
849.463	15176
849.598	15150
849.734	15001
849.869	14963
850.004	14883
850.14	14899
850.275	14849
850.41	14800
850.545	14811
850.68	14857
850.815	14868
850.95	14925
851.085	15024
851.22	14975
851.355	14819
851.49	14785
851.625	14830
851.76	14807
851.895	14826
852.03	14750
852.165	14819
852.299	14853
852.434	14937
852.569	14857
852.703	14849
852.838	14910
852.973	14998
853.107	14902
853.242	14804
853.376	14697
853.511	14606
853.645	14659
853.78	14834
853.914	14731
854.048	14678
854.183	14720
854.317	14769
854.451	14876
854.585	14590
854.72	14686
854.854	14781
854.988	14667
855.122	14670
855.256	14583
855.39	14758
855.524	14807
855.658	14838
855.792	14712
855.926	14739
856.06	14765
856.194	14792
856.327	14750
856.461	14754
856.595	14689
856.729	14701
856.862	14823
856.996	14781
857.13	14746
857.263	14811
857.397	14834
857.53	14754
857.664	14853
857.797	14785
857.931	14842
858.064	14819
858.197	14853
858.331	14659
858.464	14682
858.597	14644
858.731	14655
858.864	14655
858.997	14701
859.13	14781
859.263	14689
859.396	14807
859.529	14834
859.662	14651
859.795	14689
859.928	14708
860.061	14842
860.194	14891
860.327	14731
860.46	14746
860.592	14754
860.725	14826
860.858	14796
860.99	14629
861.123	14564
861.256	14655
861.388	14617
861.521	15405
861.653	14659
861.786	14587
861.918	14613
862.05	14678
862.183	14632
862.315	14712
862.447	14705
862.58	14629
862.712	14511
862.844	14393
862.976	14526
863.108	14564
863.24	14918
863.372	14385
863.504	14503
863.636	14480
863.768	14465
863.9	14465
864.032	14412
864.164	14480
864.296	14469
864.428	14564
864.559	14476
864.691	14541
864.823	14549
864.954	14537
865.086	14598
865.217	14503
865.349	14324
865.48	14438
865.612	14476
865.743	14648
865.875	14423
866.006	14374
866.137	14480
866.269	14454
866.4	14446
866.531	14465
866.662	14419
866.793	14385
866.924	14381
867.055	14446
867.186	14484
867.317	14423
867.448	14404
867.579	14317
867.71	14351
867.841	14393
867.972	14511
868.103	14655
868.233	14465
868.364	14415
868.495	14598
868.625	14678
868.756	14796
868.886	14636
869.017	14617
869.147	14785
869.278	14861
869.408	14754
869.539	14663
869.669	14716
869.799	14845
869.929	14914
870.06	14785
870.19	15051
870.32	15005
870.45	14994
870.58	15161
870.71	15108
870.84	15104
870.97	15070
871.1	15150
871.23	15256
871.36	15317
871.489	15332
871.619	15291
871.749	15283
871.879	15317
872.008	15408
872.138	15317
872.267	15211
872.397	15283
872.526	15135
872.656	15154
872.785	15127
872.915	15306
873.044	15336
873.173	15382
873.303	15374
873.432	15412
873.561	15431
873.69	15294
873.819	15374
873.948	15412
874.077	15405
874.206	15382
874.335	15359
874.464	15564
874.593	15720
874.722	15622
874.851	15644
874.979	15648
875.108	15633
875.237	15595
875.365	15644
875.494	15648
875.623	15732
875.751	15622
875.88	15667
876.008	15899
876.136	15789
876.265	15991
876.393	16200
876.521	16215
876.65	16177
876.778	16143
876.906	16010
877.034	15953
877.162	15979
877.29	16048
877.418	16139
877.546	16112
877.674	16040
877.802	16097
877.93	16188
878.058	16067
878.185	16010
878.313	16093
878.441	16036
878.568	16036
878.696	16059
878.824	16253
878.951	16272
879.079	16261
879.206	16280
879.333	16322
879.461	16131
879.588	16303
879.715	16352
879.842	16424
879.97	16223
880.097	15899
880.224	16029
880.351	15945
880.478	15930
880.605	15930
880.732	15895
880.859	16158
880.986	15972
881.112	15956
881.239	15804
881.366	15751
881.493	15690
881.619	15545
881.746	15603
881.872	15500
881.999	15584
882.125	15534
882.252	15641
882.378	15564
882.505	15759
882.631	15477
882.757	15431
882.883	15431
883.01	15454
883.136	15325
883.262	15260
883.388	15214
883.514	15367
883.64	15542
883.766	15317
883.892	15138
884.018	15199
884.143	15439
884.269	15504
884.395	15116
884.52	15154
884.646	15154
884.772	15089
884.897	15055
885.023	15043
885.148	15161
885.274	15222
885.399	15241
885.524	15112
885.65	15192
885.775	15218
885.9	15154
886.025	15222
886.15	15176
886.275	15070
886.4	15005
886.525	15055
886.65	15058
886.775	15020
886.9	15252
887.025	15332
887.149	15097
887.274	14971
887.399	14975
887.523	14944
887.648	14899
887.773	14864
887.897	14979
888.021	14921
888.146	14815
888.27	14998
888.395	15097
888.519	14925
888.643	15108
888.767	14975
888.891	14967
889.015	14769
889.139	14853
889.263	14727
889.387	14872
889.511	14971
889.635	14967
889.759	14720
889.883	14697
890.006	14788
890.13	14785
890.254	14640
890.377	14743
890.501	14598
890.624	14552
890.748	14636
890.871	14583
890.995	14377
891.118	14415
891.241	14415
891.364	14461
891.488	14556
891.611	14442
891.734	14457
891.857	14514
891.98	14499
892.103	14541
892.226	14560
892.349	14499
892.471	14320
892.594	14423
892.717	14560
892.839	14393
892.962	14427
893.085	14526
893.207	14499
893.33	14355
893.452	14389
893.575	14526
893.697	14488
893.819	14636
893.941	14746
894.064	14701
894.186	14419
894.308	14408
894.43	14541
894.552	14727
894.674	14640
894.796	14396
894.918	14484
895.04	14457
895.161	14465
895.283	14587
895.405	14431
895.526	14556
895.648	14594
895.769	14610
895.891	14689
896.012	14727
896.134	14682
896.255	14697
896.376	14549
896.498	14670
896.619	14667
896.74	14552
896.861	14613
896.982	15039
897.103	15184
897.224	14944
897.345	14895
897.466	14800
897.587	14956
897.708	14941
897.828	14895
897.949	14788
898.07	14788
898.19	14952
898.311	15039
898.431	14925
898.552	14971
898.672	14952
898.792	15001
898.913	14880
899.033	14944
899.153	14800
899.273	14807
899.393	14762
899.513	14823
899.633	14830
899.753	14887
899.873	14842
899.993	14823
900.113	14792
900.232	14891
900.352	14811
900.472	14697
900.591	14552
900.711	14716
900.83	14610
900.95	14792
901.069	14758
901.189	14667
901.308	14355
901.427	14256
901.546	14252
901.665	14427
901.784	14214
901.904	14221
902.023	14119
902.141	13963
902.26	13776
902.379	13955
902.498	13963
902.617	13928
902.735	13936
902.854	13860
902.973	13757
903.091	13628
903.21	13613
903.328	13655
903.446	13586
903.565	13487
903.683	13514
903.801	13438
903.919	13540
904.038	13441
904.156	13274
904.274	13365
904.392	13282
904.51	13266
904.627	13392
904.745	13316
904.863	13304
904.981	13091
905.098	12951
905.216	12928
905.334	13034
905.451	13031
905.569	12935
905.686	13046
905.803	13000
905.921	12886
906.038	12943
906.155	12757
906.272	12760
906.389	12768
906.506	12536
906.623	12642
906.74	12642
906.857	12555
906.974	12513
907.091	12578
907.208	12681
907.324	12635
907.441	12570
907.557	12346
907.674	12327
907.79	12330
907.907	12262
908.023	12262
908.139	12311
908.256	12346
908.372	12251
908.488	12159
908.604	12102
908.72	11973
908.836	12144
908.952	12098
909.068	12117
909.184	12148
909.3	12076
909.415	12167
909.531	12049
909.647	11870
909.762	11863
909.878	11798
909.993	11866
910.108	11851
910.224	11813
910.339	11802
910.454	11688
910.57	11737
910.685	11699
910.8	11912
910.915	11828
911.03	11680
911.145	11573
911.259	11501
911.374	11520
911.489	11440
911.604	11455
911.718	11299
911.833	11220
911.947	11204
912.062	11086
912.176	11212
912.291	11337
912.405	11330
912.519	11505
912.633	11463
912.748	11337
912.862	11315
912.976	11189
913.09	10995
913.204	11067
913.318	11147
913.431	11178
913.545	11227
913.659	11330
913.772	11143
913.886	11029
914	11025
914.113	11132
914.226	11102
914.34	11102
914.453	11060
914.566	11075
914.68	10999
914.793	10965
914.906	10854
915.019	10740
915.132	10675
915.245	10774
915.358	10755
915.47	10748
915.583	10839
915.696	10835
915.809	10915
915.921	10980
916.034	10733
916.146	10786
916.259	10736
916.371	10790
916.483	10782
916.595	10626
916.708	10702
916.82	10656
916.932	10618
917.044	10630
917.156	10702
917.268	10550
917.38	10546
917.491	10630
917.603	10577
917.715	10736
917.826	10637
917.938	10577
918.049	10459
918.161	10599
918.272	10744
918.384	10706
918.495	10626
918.606	10497
918.717	10341
918.828	10462
918.939	10500
919.05	10333
919.161	10432
919.272	10268
919.383	10329
919.494	10637
919.604	10660
919.715	10413
919.826	10363
919.936	10402
920.047	10565
920.157	10489
920.267	10615
920.378	10474
920.488	10519
920.598	10637
920.708	10786
920.818	10683
920.928	10687
921.038	10767
921.148	10763
921.258	10504
921.368	10489
921.477	10329
921.587	10287
921.697	10261
921.806	10287
921.916	10185
922.025	10040
922.134	10032
922.244	9964
922.353	10032
922.462	9918
922.571	9907
922.68	9682
922.789	9633
922.898	9781
923.007	9671
923.116	9713
923.224	9660
923.333	9709
923.442	9618
923.55	9572
923.659	9564
923.767	9747
923.876	9644
923.984	9633
924.092	9485
924.201	9561
924.309	9466
924.417	9637
924.525	9538
924.633	9519
924.741	10230
924.849	9397
924.956	9492
925.064	9313
925.172	9245
925.279	9329
925.387	9370
925.494	9336
925.602	9458
925.709	9420
925.816	9294
925.924	9348
926.031	9454
926.138	9363
926.245	9332
926.352	9283
926.459	9401
926.566	9481
926.673	9294
926.779	9233
926.886	9131
926.993	9131
927.099	9070
927.206	8971
927.312	8990
927.419	9123
927.525	9077
927.631	9062
927.737	8971
927.843	8925
927.95	8815
928.056	8849
928.162	8994
928.267	8975
928.373	9576
928.479	9020
928.585	8796
928.69	8944
928.796	9005
928.901	8845
929.007	8731
929.112	8849
929.218	8845
929.323	8750
929.428	8762
929.533	8918
929.638	8640
929.743	8766
929.848	8777
929.953	8712
930.058	8663
930.163	8556
930.267	8590
930.372	8640
930.477	8480
930.581	8689
930.685	8583
930.79	8484
930.894	8518
930.998	8507
931.103	8590
931.207	8259
931.311	8142
931.415	8202
931.519	7993
931.623	7917
