Data from test_V78500241_3585.txt Node
Date: Fri Mar 25 14:58:40 CST 2022
User: usil
Spectrometer: V785-0024
Trigger mode: 0
Integration Time (sec): 4.000000E-1
Scans to average: 1
Nonlinearity correction enabled: false
Boxcar width: 0
Storing dark spectrum: false
XAxis mode: Wavelengths
Number of Pixels in Spectrum: 1024
>>>>>Begin Spectral Data<<<<<
801.071	21975
801.214	21717
801.356	21500
801.499	21401
801.641	21348
801.783	21332
801.926	21211
802.068	21252
802.211	21233
802.353	21112
802.496	20815
802.638	20845
802.78	20663
802.923	20609
803.065	20651
803.208	20461
803.35	20670
803.492	20674
803.635	20785
803.777	20560
803.919	20667
804.061	20918
804.204	20560
804.346	20560
804.488	20488
804.63	20511
804.773	20564
804.915	20590
805.057	20640
805.199	20522
805.341	20579
805.483	20556
805.626	20507
805.768	20492
805.91	20495
806.052	20492
806.194	20454
806.336	20678
806.478	20404
806.62	20530
806.762	20476
806.904	20674
807.046	20948
807.188	20724
807.33	20739
807.472	20838
807.614	20667
807.756	20800
807.898	20594
808.04	20545
808.182	20530
808.324	20564
808.465	20712
808.607	20777
808.749	20834
808.891	20929
809.033	21009
809.174	20883
809.316	20693
809.458	20823
809.6	20830
809.741	20826
809.883	20956
810.025	20883
810.166	20967
810.308	21051
810.45	20880
810.591	20868
810.733	20571
810.875	20697
811.016	20617
811.158	20507
811.299	20587
811.441	20800
811.582	20750
811.724	20556
811.865	20522
812.007	20484
812.148	20689
812.29	20648
812.431	20826
812.573	21039
812.714	21051
812.855	20975
812.997	21123
813.138	21264
813.279	21131
813.421	21165
813.562	20967
813.703	20971
813.845	20800
813.986	20442
814.127	20347
814.268	20237
814.41	20035
814.551	20180
814.692	20210
814.833	20107
814.974	20046
815.115	20161
815.256	20046
815.397	20024
815.539	19997
815.68	19902
815.821	19845
815.962	19986
816.103	19849
816.244	19750
816.385	19700
816.526	19552
816.666	19491
816.807	19327
816.948	19381
817.089	19499
817.23	19365
817.371	19187
817.512	19266
817.653	19278
817.793	19301
817.934	19251
818.075	19293
818.216	19187
818.356	19213
818.497	19095
818.638	18981
818.778	19023
818.919	18886
819.06	19114
819.2	18985
819.341	19076
819.481	19084
819.622	19343
819.762	19411
819.903	19483
820.043	19251
820.184	19377
820.324	19255
820.465	19339
820.605	19282
820.746	19251
820.886	19091
821.026	19240
821.167	19308
821.307	19251
821.447	19126
821.588	19103
821.728	18954
821.868	18802
822.008	18760
822.149	18722
822.289	18620
822.429	18353
822.569	18486
822.709	18315
822.849	18140
822.99	18186
823.13	18117
823.27	18251
823.41	17954
823.55	17965
823.69	17992
823.83	17954
823.97	17832
824.11	17764
824.25	17741
824.389	17817
824.529	17741
824.669	17764
824.809	17764
824.949	17859
825.089	17874
825.228	17783
825.368	17554
825.508	17570
825.648	17638
825.787	17516
825.927	17608
826.067	17505
826.206	17623
826.346	17436
826.485	17592
826.625	17562
826.765	17646
826.904	17547
827.044	17250
827.183	17296
827.323	17197
827.462	17277
827.601	17166
827.741	17166
827.88	17197
828.02	17090
828.159	17166
828.298	17242
828.437	17296
828.577	17162
828.716	17307
828.855	17162
828.994	16957
829.134	17003
829.273	17006
829.412	17067
829.551	16949
829.69	16965
829.829	17105
829.968	17136
830.107	17071
830.246	16915
830.385	16934
830.524	16900
830.663	16908
830.802	16778
830.941	16626
831.08	16588
831.219	16561
831.357	16717
831.496	16809
831.635	16577
831.774	16527
831.913	16535
832.051	16432
832.19	16322
832.329	16485
832.467	16295
832.606	16219
832.744	16234
832.883	16322
833.022	16200
833.16	16242
833.299	16348
833.437	16367
833.576	16363
833.714	16341
833.852	16329
833.991	16318
834.129	16413
834.267	16459
834.406	16337
834.544	16405
834.682	16352
834.821	16531
834.959	16500
835.097	16272
835.235	16523
835.373	16398
835.511	16417
835.65	16295
835.788	16219
835.926	16234
836.064	16067
836.202	16059
836.34	16413
836.478	16291
836.615	16295
836.753	16303
836.891	16394
837.029	16299
837.167	16223
837.305	16166
837.443	16226
837.58	16048
837.718	16158
837.856	16135
837.993	15968
838.131	16207
838.269	16059
838.406	16059
838.544	16131
838.681	15861
838.819	15797
838.956	15713
839.094	15663
839.231	15804
839.369	15892
839.506	16017
839.643	15968
839.781	15736
839.918	15671
840.055	15774
840.193	15724
840.33	15705
840.467	15701
840.604	15827
840.742	15964
840.879	15515
841.016	15591
841.153	15644
841.29	15857
841.427	15797
841.564	15759
841.701	15789
841.838	15724
841.975	15660
842.112	15622
842.249	15610
842.385	15511
842.522	15641
842.659	15519
842.796	15462
842.933	15523
843.069	15443
843.206	15416
843.343	15553
843.479	15530
843.616	15515
843.752	15340
843.889	15329
844.025	15447
844.162	15302
844.298	15382
844.435	15252
844.571	15298
844.708	15306
844.844	15408
844.98	15393
845.117	15386
845.253	15313
845.389	15241
845.525	15237
845.661	15214
845.798	15058
845.934	15165
846.07	14918
846.206	15051
846.342	15298
846.478	15123
846.614	14956
846.75	14853
846.886	14800
847.022	15039
847.158	14880
847.294	14929
847.429	14819
847.565	14891
847.701	15036
847.837	14632
847.972	14613
848.108	14648
848.244	14674
848.379	14495
848.515	14446
848.65	14461
848.786	14514
848.921	14537
849.057	14549
849.192	14583
849.328	14495
849.463	14457
849.598	14480
849.734	14298
849.869	14248
850.004	14328
850.14	14221
850.275	14275
850.41	14221
850.545	14187
850.68	14210
850.815	14145
850.95	14263
851.085	14427
851.22	14347
851.355	14267
851.49	14233
851.625	14202
851.76	14176
851.895	14187
852.03	14035
852.165	14214
852.299	14263
852.434	14278
852.569	14286
852.703	14240
852.838	14240
852.973	14358
853.107	14351
853.242	14286
853.376	14164
853.511	13947
853.645	14031
853.78	14248
853.914	14161
854.048	13997
854.183	14031
854.317	14069
854.451	14191
854.585	14069
854.72	14005
854.854	14138
854.988	13989
855.122	14103
855.256	13932
855.39	14088
855.524	14202
855.658	14069
855.792	14134
855.926	14157
856.06	14157
856.194	14183
856.327	14149
856.461	14050
856.595	14012
856.729	14134
856.862	14187
856.996	14191
857.13	14290
857.263	14180
857.397	14164
857.53	14176
857.664	14111
857.797	14206
857.931	14259
858.064	14161
858.197	14362
858.331	14142
858.464	14130
858.597	14031
858.731	14138
858.864	14123
858.997	14149
859.13	14126
859.263	14130
859.396	14111
859.529	14115
859.662	14027
859.795	14107
859.928	14088
860.061	14313
860.194	14237
860.327	14164
860.46	14077
860.592	14172
860.725	14275
860.858	14199
860.99	14130
861.123	14005
861.256	14024
861.388	14191
861.521	14804
861.653	13997
861.786	13928
861.918	13978
862.05	13940
862.183	14043
862.315	14103
862.447	14103
862.58	14054
862.712	13822
862.844	13841
862.976	13997
863.108	13902
863.24	14366
863.372	13772
863.504	13887
863.636	13814
863.768	13917
863.9	13898
864.032	13803
864.164	13879
864.296	13906
864.428	14027
864.559	13986
864.691	14001
864.823	13955
864.954	13967
865.086	13864
865.217	13803
865.349	13822
865.48	13822
865.612	13856
865.743	14058
865.875	13894
866.006	13799
866.137	13852
866.269	13856
866.4	13890
866.531	13826
866.662	13852
866.793	13902
866.924	13826
867.055	13803
867.186	13833
867.317	13738
867.448	13807
867.579	13833
867.71	13856
867.841	13795
867.972	13875
868.103	13951
868.233	13944
868.364	13925
868.495	13917
868.625	14142
868.756	14123
868.886	14001
869.017	14031
869.147	14286
869.278	14218
869.408	14183
869.539	14164
869.669	14206
869.799	14138
869.929	14214
870.06	14218
870.19	14419
870.32	14366
870.45	14511
870.58	14484
870.71	14549
870.84	14682
870.97	14568
871.1	14473
871.23	14613
871.36	14674
871.489	14613
871.619	14750
871.749	14655
871.879	14735
872.008	14883
872.138	14724
872.267	14773
872.397	14659
872.526	14530
872.656	14640
872.785	14617
872.915	14727
873.044	14902
873.173	14697
873.303	14800
873.432	14823
873.561	14853
873.69	14739
873.819	14743
873.948	14853
874.077	14765
874.206	14731
874.335	14849
874.464	14925
874.593	15024
874.722	15020
874.851	15169
874.979	15100
875.108	15142
875.237	15036
875.365	14918
875.494	15097
875.623	15199
875.751	15119
875.88	15112
876.008	15192
876.136	15306
876.265	15507
876.393	15728
876.521	15599
876.65	15576
876.778	15599
876.906	15507
877.034	15462
877.162	15424
877.29	15523
877.418	15534
877.546	15549
877.674	15553
877.802	15591
877.93	15534
878.058	15469
878.185	15428
878.313	15428
878.441	15564
878.568	15344
878.696	15511
878.824	15591
878.951	15519
879.079	15690
879.206	15846
879.333	15652
879.461	15591
879.588	15686
879.715	15724
879.842	15850
879.97	15679
880.097	15439
880.224	15428
880.351	15294
880.478	15420
880.605	15344
880.732	15355
880.859	15644
880.986	15355
881.112	15351
881.239	15310
881.366	15055
881.493	15093
881.619	15089
881.746	15055
881.872	15036
881.999	14925
882.125	15013
882.252	15066
882.378	15043
882.505	15097
882.631	14982
882.757	14864
882.883	14910
883.01	14872
883.136	14830
883.262	14644
883.388	14667
883.514	14914
883.64	14876
883.766	14830
883.892	14720
884.018	14720
884.143	14853
884.269	14986
884.395	14648
884.52	14541
884.646	14556
884.772	14434
884.897	14503
885.023	14575
885.148	14594
885.274	14743
885.399	14655
885.524	14507
885.65	14556
885.775	14560
885.9	14556
886.025	14644
886.15	14678
886.275	14533
886.4	14499
886.525	14461
886.65	14564
886.775	14522
886.9	14629
887.025	14819
887.149	14606
887.274	14339
887.399	14374
887.523	14408
887.648	14351
887.773	14225
887.897	14412
888.021	14454
888.146	14362
888.27	14457
888.395	14625
888.519	14454
888.643	14415
888.767	14404
888.891	14377
889.015	14305
889.139	14336
889.263	14229
889.387	14317
889.511	14488
889.635	14366
889.759	14210
889.883	14195
890.006	14290
890.13	14423
890.254	14161
890.377	14142
890.501	14111
890.624	13986
890.748	13993
890.871	14031
890.995	13841
891.118	13791
891.241	13947
891.364	13864
891.488	14077
891.611	13951
891.734	13902
891.857	13967
891.98	13993
892.103	14096
892.226	13982
892.349	13921
892.471	13795
892.594	13890
892.717	13898
892.839	13894
892.962	13932
893.085	14096
893.207	13955
893.33	13791
893.452	13856
893.575	13955
893.697	13845
893.819	14221
893.941	14092
894.064	14081
894.186	13978
894.308	13833
894.43	14039
894.552	14229
894.674	14115
894.796	13917
894.918	14020
895.04	14016
895.161	14084
895.283	14073
895.405	13955
895.526	14012
895.648	14050
895.769	14134
895.891	14111
896.012	14149
896.134	14065
896.255	14058
896.376	14088
896.498	14130
896.619	14092
896.74	14187
896.861	14278
896.982	14484
897.103	14571
897.224	14442
897.345	14324
897.466	14278
897.587	14434
897.708	14583
897.828	14419
897.949	14400
898.07	14221
898.19	14355
898.311	14537
898.431	14336
898.552	14556
898.672	14507
898.792	14587
898.913	14469
899.033	14473
899.153	14290
899.273	14317
899.393	14415
899.513	14294
899.633	14362
899.753	14377
899.873	14290
899.993	14347
900.113	14400
900.232	14412
900.352	14324
900.472	14142
900.591	14081
900.711	14267
900.83	14107
900.95	14256
901.069	14290
901.189	14126
901.308	13811
901.427	13753
901.546	13890
901.665	13902
901.784	13826
901.904	13746
902.023	13658
902.141	13578
902.26	13548
902.379	13578
902.498	13460
902.617	13327
902.735	13537
902.854	13396
902.973	13358
903.091	13244
903.21	13137
903.328	13160
903.446	13129
903.565	13084
903.683	13015
903.801	12943
903.919	12954
904.038	13042
904.156	12932
904.274	12848
904.392	12795
904.51	12821
904.627	12817
904.745	12909
904.863	12844
904.981	12612
905.098	12563
905.216	12589
905.334	12582
905.451	12475
905.569	12407
905.686	12525
905.803	12563
905.921	12441
906.038	12536
906.155	12395
906.272	12239
906.389	12300
906.506	12140
906.623	12129
906.74	12068
906.857	11946
906.974	12049
907.091	12159
907.208	12262
907.324	12163
907.441	12049
907.557	11923
907.674	11843
907.79	11882
907.907	11866
908.023	11847
908.139	11855
908.256	11802
908.372	11802
908.488	11821
908.604	11630
908.72	11684
908.836	11600
908.952	11623
909.068	11634
909.184	11729
909.3	11653
909.415	11741
909.531	11707
909.647	11372
909.762	11360
909.878	11459
909.993	11444
910.108	11376
910.224	11379
910.339	11490
910.454	11406
910.57	11246
910.685	11174
910.8	11535
910.915	11410
911.03	11356
911.145	11113
911.259	11086
911.374	11117
911.489	11033
911.604	10976
911.718	10965
911.833	10786
911.947	10793
912.062	10748
912.176	10885
912.291	10862
912.405	10847
912.519	11041
912.633	11155
912.748	10995
912.862	10763
912.976	10748
913.09	10717
913.204	10752
913.318	10782
913.431	10847
913.545	10881
913.659	10892
913.772	10850
913.886	10630
914	10618
914.113	10710
914.226	10782
914.34	10649
914.453	10531
914.566	10656
914.68	10580
914.793	10615
914.906	10386
915.019	10409
915.132	10295
915.245	10242
915.358	10386
915.47	10432
915.583	10299
915.696	10478
915.809	10527
915.921	10527
916.034	10299
916.146	10348
916.259	10337
916.371	10466
916.483	10375
916.595	10344
916.708	10299
916.82	10303
916.932	10360
917.044	10337
917.156	10246
917.268	10135
917.38	10215
917.491	10147
917.603	10257
917.715	10265
917.826	10318
917.938	10238
918.049	10101
918.161	10177
918.272	10363
918.384	10356
918.495	10284
918.606	10090
918.717	10017
918.828	10109
918.939	10169
919.05	10036
919.161	10109
919.272	9926
919.383	9915
919.494	10120
919.604	10318
919.715	10124
919.826	10059
919.936	10006
920.047	10150
920.157	10055
920.267	10344
920.378	10143
920.488	10185
920.598	10303
920.708	10440
920.818	10253
920.928	10356
921.038	10485
921.148	10481
921.258	10139
921.368	10093
921.477	10006
921.587	10032
921.697	9869
921.806	9972
921.916	9907
922.025	9713
922.134	9728
922.244	9622
922.353	9751
922.462	9564
922.571	9485
922.68	9370
922.789	9329
922.898	9412
923.007	9374
923.116	9416
923.224	9393
923.333	9325
923.442	9279
923.55	9260
923.659	9207
923.767	9325
923.876	9272
923.984	9317
924.092	9184
924.201	9245
924.309	9237
924.417	9233
924.525	9169
924.633	9089
924.741	9903
924.849	9036
924.956	9195
925.064	9066
925.172	8941
925.279	8944
925.387	9039
925.494	9024
925.602	9131
925.709	9161
925.816	8941
925.924	9036
926.031	9131
926.138	8994
926.245	9108
926.352	9013
926.459	9024
926.566	9161
926.673	8910
926.779	8906
926.886	8883
926.993	8781
927.099	8712
927.206	8735
927.312	8693
927.419	8788
927.525	8659
927.631	8769
927.737	8667
927.843	8674
927.95	8587
928.056	8663
928.162	8644
928.267	8735
928.373	9154
928.479	8735
928.585	8495
928.69	8571
928.796	8689
928.901	8598
929.007	8442
929.112	8602
929.218	8621
929.323	8488
929.428	8423
929.533	8651
929.638	8305
929.743	8415
929.848	8606
929.953	8442
930.058	8450
930.163	8187
930.267	8275
930.372	8381
930.477	8157
930.581	8454
930.685	8343
930.79	8202
930.894	8180
930.998	8199
931.103	8294
931.207	7928
931.311	7913
931.415	7894
931.519	7704
931.623	7662
