Data from test_V78500241_1773.txt Node
Date: Fri Mar 25 14:46:03 CST 2022
User: usil
Spectrometer: V785-0024
Trigger mode: 0
Integration Time (sec): 4.000000E-1
Scans to average: 1
Nonlinearity correction enabled: false
Boxcar width: 0
Storing dark spectrum: false
XAxis mode: Wavelengths
Number of Pixels in Spectrum: 1024
>>>>>Begin Spectral Data<<<<<
801.071	22192
801.214	22055
801.356	21915
801.499	21800
801.641	21564
801.783	21686
801.926	21622
802.068	21542
802.211	21420
802.353	21443
802.496	21237
802.638	21047
802.78	21142
802.923	20971
803.065	20933
803.208	20933
803.35	20963
803.492	21077
803.635	20941
803.777	20781
803.919	20967
804.061	21184
804.204	20914
804.346	20868
804.488	20807
804.63	20830
804.773	20727
804.915	20918
805.057	20849
805.199	20807
805.341	20929
805.483	20883
805.626	20899
805.768	20670
805.91	20796
806.052	20781
806.194	20773
806.336	20838
806.478	20773
806.62	20845
806.762	20933
806.904	21051
807.046	21241
807.188	21104
807.33	21180
807.472	21188
807.614	20986
807.756	21001
807.898	20891
808.04	20830
808.182	20948
808.324	20990
808.465	20956
808.607	21096
808.749	21268
808.891	21291
809.033	21477
809.174	21306
809.316	21176
809.458	21260
809.6	21096
809.741	21306
809.883	21184
810.025	21393
810.166	21386
810.308	21431
810.45	21363
810.591	21222
810.733	21123
810.875	20952
811.016	20876
811.158	20861
811.299	21032
811.441	21005
811.582	21127
811.724	20902
811.865	20883
812.007	20906
812.148	21028
812.29	20986
812.431	21180
812.573	21351
812.714	21298
812.855	21462
812.997	21515
813.138	21679
813.279	21496
813.421	21534
813.562	21439
813.703	21256
813.845	21157
813.986	20781
814.127	20682
814.268	20579
814.41	20609
814.551	20465
814.692	20598
814.833	20450
814.974	20454
815.115	20495
815.256	20313
815.397	20294
815.539	20343
815.68	20301
815.821	20157
815.962	20237
816.103	20256
816.244	20191
816.385	19986
816.526	19986
816.666	19879
816.807	19628
816.948	19852
817.089	19712
817.23	19769
817.371	19643
817.512	19552
817.653	19613
817.793	19624
817.934	19521
818.075	19742
818.216	19605
818.356	19525
818.497	19457
818.638	19316
818.778	19293
818.919	19247
819.06	19400
819.2	19514
819.341	19499
819.481	19533
819.622	19765
819.762	19928
819.903	19788
820.043	19719
820.184	19677
820.324	19563
820.465	19780
820.605	19685
820.746	19681
820.886	19510
821.026	19613
821.167	19578
821.307	19616
821.447	19514
821.588	19457
821.728	19274
821.868	19126
822.008	19080
822.149	19107
822.289	18890
822.429	18753
822.569	18635
822.709	18783
822.849	18585
822.99	18555
823.13	18464
823.27	18353
823.41	18323
823.55	18300
823.69	18369
823.83	18308
823.97	18171
824.11	18095
824.25	18076
824.389	18064
824.529	18174
824.669	18079
824.809	18216
824.949	18030
825.089	18209
825.228	18098
825.368	17897
825.508	17927
825.648	17916
825.787	17954
825.927	18019
826.067	17859
826.206	17988
826.346	17946
826.485	17840
826.625	17878
826.765	17889
826.904	17885
827.044	17752
827.183	17668
827.323	17501
827.462	17604
827.601	17585
827.741	17722
827.88	17417
828.02	17512
828.159	17520
828.298	17649
828.437	17630
828.577	17554
828.716	17699
828.855	17474
828.994	17376
829.134	17280
829.273	17398
829.412	17376
829.551	17303
829.69	17372
829.829	17372
829.968	17448
830.107	17372
830.246	17303
830.385	17242
830.524	17197
830.663	17200
830.802	17022
830.941	16942
831.08	16908
831.219	17018
831.357	17022
831.496	17200
831.635	16965
831.774	16839
831.913	16869
832.051	16831
832.19	16664
832.329	16767
832.467	16637
832.606	16565
832.744	16733
832.883	16687
833.022	16603
833.16	16622
833.299	16634
833.437	16702
833.576	16702
833.714	16592
833.852	16660
833.991	16736
834.129	16778
834.267	16729
834.406	16611
834.544	16790
834.682	16675
834.821	16710
834.959	16828
835.097	16584
835.235	16790
835.373	16687
835.511	16820
835.65	16672
835.788	16683
835.926	16470
836.064	16356
836.202	16489
836.34	16527
836.478	16569
836.615	16653
836.753	16615
836.891	16637
837.029	16531
837.167	16599
837.305	16459
837.443	16523
837.58	16478
837.718	16523
837.856	16546
837.993	16432
838.131	16565
838.269	16405
838.406	16363
838.544	16379
838.681	16147
838.819	16124
838.956	16055
839.094	15907
839.231	16013
839.369	16196
839.506	16447
839.643	16238
839.781	16040
839.918	16036
840.055	16082
840.193	16036
840.33	15945
840.467	15934
840.604	16048
840.742	16280
840.879	15831
841.016	15903
841.153	15949
841.29	16162
841.427	16040
841.564	16006
841.701	15945
841.838	16017
841.975	15842
842.112	15972
842.249	15876
842.385	15827
842.522	15991
842.659	15861
842.796	15793
842.933	15793
843.069	15698
843.206	15739
843.343	15857
843.479	15823
843.616	15884
843.752	15587
843.889	15637
844.025	15686
844.162	15561
844.298	15675
844.435	15614
844.571	15462
844.708	15644
844.844	15648
844.98	15781
845.117	15755
845.253	15553
845.389	15454
845.525	15466
845.661	15511
845.798	15359
845.934	15447
846.07	15329
846.206	15408
846.342	15492
846.478	15336
846.614	15169
846.75	15180
846.886	15062
847.022	15176
847.158	15154
847.294	15169
847.429	15203
847.565	15009
847.701	15405
847.837	14826
847.972	14788
848.108	15001
848.244	14952
848.379	14739
848.515	14754
848.65	14769
848.786	14769
848.921	14811
849.057	14872
849.192	14853
849.328	14815
849.463	14792
849.598	14724
849.734	14727
849.869	14579
850.004	14507
850.14	14625
850.275	14454
850.41	14454
850.545	14408
850.68	14522
850.815	14511
850.95	14438
851.085	14621
851.22	14533
851.355	14571
851.49	14571
851.625	14476
851.76	14461
851.895	14400
852.03	14419
852.165	14511
852.299	14518
852.434	14625
852.569	14514
852.703	14469
852.838	14621
852.973	14606
853.107	14674
853.242	14552
853.376	14358
853.511	14347
853.645	14339
853.78	14552
853.914	14347
854.048	14336
854.183	14275
854.317	14415
854.451	14590
854.585	14419
854.72	14309
854.854	14545
854.988	14332
855.122	14419
855.256	14362
855.39	14389
855.524	14499
855.658	14461
855.792	14427
855.926	14442
856.06	14442
856.194	14522
856.327	14351
856.461	14252
856.595	14278
856.729	14328
856.862	14621
856.996	14332
857.13	14499
857.263	14621
857.397	14621
857.53	14499
857.664	14480
857.797	14590
857.931	14564
858.064	14495
858.197	14507
858.331	14427
858.464	14450
858.597	14301
858.731	14438
858.864	14461
858.997	14457
859.13	14423
859.263	14457
859.396	14484
859.529	14503
859.662	14332
859.795	14313
859.928	14339
860.061	14606
860.194	14606
860.327	14522
860.46	14465
860.592	14457
860.725	14598
860.858	14613
860.99	14400
861.123	14275
861.256	14404
861.388	14358
861.521	15184
861.653	14263
861.786	14248
861.918	14305
862.05	14324
862.183	14415
862.315	14355
862.447	14362
862.58	14427
862.712	14199
862.844	14172
862.976	14278
863.108	14290
863.24	14621
863.372	14103
863.504	14199
863.636	14214
863.768	14202
863.9	14221
864.032	14073
864.164	14164
864.296	14301
864.428	14328
864.559	14199
864.691	14225
864.823	14191
864.954	14214
865.086	14267
865.217	14149
865.349	14088
865.48	14263
865.612	14176
865.743	14301
865.875	14199
866.006	14119
866.137	14191
866.269	14195
866.4	14142
866.531	14069
866.662	14134
866.793	14126
866.924	14119
867.055	14221
867.186	14191
867.317	14058
867.448	14107
867.579	14081
867.71	14103
867.841	14081
867.972	14126
868.103	14267
868.233	14210
868.364	14123
868.495	14225
868.625	14389
868.756	14549
868.886	14393
869.017	14324
869.147	14511
869.278	14526
869.408	14484
869.539	14442
869.669	14495
869.799	14476
869.929	14476
870.06	14533
870.19	14693
870.32	14663
870.45	14823
870.58	14853
870.71	14933
870.84	14895
870.97	14815
871.1	14887
871.23	14952
871.36	15039
871.489	14944
871.619	14914
871.749	14948
871.879	15028
872.008	15127
872.138	15013
872.267	14944
872.397	14906
872.526	14819
872.656	14914
872.785	14933
872.915	15036
873.044	15039
873.173	15138
873.303	15119
873.432	15165
873.561	15146
873.69	15104
873.819	15142
873.948	15169
874.077	15055
874.206	15089
874.335	15081
874.464	15233
874.593	15378
874.722	15325
874.851	15477
874.979	15454
875.108	15363
875.237	15321
875.365	15351
875.494	15298
875.623	15454
875.751	15435
875.88	15401
876.008	15568
876.136	15538
876.265	15717
876.393	15930
876.521	15918
876.65	15903
876.778	15846
876.906	15701
877.034	15804
877.162	15770
877.29	15778
877.418	15701
877.546	15709
877.674	15789
877.802	15694
877.93	15846
878.058	15724
878.185	15694
878.313	15793
878.441	15819
878.568	15648
878.696	15690
878.824	15846
878.951	15857
879.079	15994
879.206	16215
879.333	15964
879.461	15819
879.588	15838
879.715	15930
879.842	16109
879.97	15873
880.097	15690
880.224	15614
880.351	15728
880.478	15652
880.605	15557
880.732	15652
880.859	15949
880.986	15720
881.112	15732
881.239	15557
881.366	15469
881.493	15389
881.619	15336
881.746	15397
881.872	15272
881.999	15264
882.125	15336
882.252	15450
882.378	15329
882.505	15431
882.631	15287
882.757	15157
882.883	15169
883.01	15089
883.136	15028
883.262	15020
883.388	15024
883.514	15112
883.64	15249
883.766	15104
883.892	14982
884.018	15001
884.143	15104
884.269	15275
884.395	14906
884.52	14785
884.646	14796
884.772	14739
884.897	14663
885.023	14838
885.148	14891
885.274	15001
885.399	14842
885.524	14826
885.65	14762
885.775	14857
885.9	14746
886.025	15020
886.15	14823
886.275	14769
886.4	14674
886.525	14849
886.65	14762
886.775	14762
886.9	14975
887.025	15055
887.149	14914
887.274	14655
887.399	14655
887.523	14644
887.648	14545
887.773	14568
887.897	14693
888.021	14708
888.146	14579
888.27	14750
888.395	14773
888.519	14777
888.643	14750
888.767	14648
888.891	14610
889.015	14541
889.139	14610
889.263	14484
889.387	14659
889.511	14693
889.635	14644
889.759	14533
889.883	14495
890.006	14476
890.13	14651
890.254	14377
890.377	14457
890.501	14332
890.624	14210
890.748	14374
890.871	14263
890.995	14123
891.118	14126
891.241	14176
891.364	14237
891.488	14408
891.611	14191
891.734	14225
891.857	14244
891.98	14290
892.103	14313
892.226	14332
892.349	14206
892.471	14016
892.594	14149
892.717	14244
892.839	14138
892.962	14176
893.085	14282
893.207	14202
893.33	14161
893.452	14050
893.575	14206
893.697	14183
893.819	14377
893.941	14400
894.064	14313
894.186	14119
894.308	14168
894.43	14324
894.552	14438
894.674	14389
894.796	14145
894.918	14282
895.04	14191
895.161	14355
895.283	14320
895.405	14290
895.526	14332
895.648	14290
895.769	14412
895.891	14389
896.012	14396
896.134	14450
896.255	14415
896.376	14358
896.498	14324
896.619	14492
896.74	14495
896.861	14454
896.982	14758
897.103	14925
897.224	14663
897.345	14617
897.466	14514
897.587	14670
897.708	14849
897.828	14640
897.949	14568
898.07	14457
898.19	14549
898.311	14743
898.431	14720
898.552	14655
898.672	14769
898.792	14838
898.913	14746
899.033	14568
899.153	14575
899.273	14613
899.393	14587
899.513	14575
899.633	14602
899.753	14617
899.873	14545
899.993	14640
900.113	14575
900.232	14568
900.352	14530
900.472	14511
900.591	14404
900.711	14514
900.83	14412
900.95	14526
901.069	14465
901.189	14450
901.308	14153
901.427	14073
901.546	14115
901.665	14069
901.784	14111
901.904	14096
902.023	13833
902.141	13693
902.26	13719
902.379	13837
902.498	13712
902.617	13548
902.735	13700
902.854	13651
902.973	13639
903.091	13453
903.21	13392
903.328	13335
903.446	13426
903.565	13206
903.683	13293
903.801	13088
903.919	13244
904.038	13289
904.156	13076
904.274	13145
904.392	13038
904.51	13076
904.627	13019
904.745	13012
904.863	13164
904.981	12878
905.098	12825
905.216	12696
905.334	12810
905.451	12791
905.569	12570
905.686	12821
905.803	12787
905.921	12642
906.038	12662
906.155	12578
906.272	12506
906.389	12582
906.506	12327
906.623	12209
906.74	12346
906.857	12148
906.974	12175
907.091	12361
907.208	12471
907.324	12361
907.441	12334
907.557	11977
907.674	12068
907.79	12083
907.907	12049
908.023	12125
908.139	12171
908.256	12076
908.372	11988
908.488	11996
908.604	11939
908.72	11828
908.836	11764
908.952	11760
909.068	11836
909.184	11927
909.3	11790
909.415	11840
909.531	11824
909.647	11665
909.762	11608
909.878	11627
909.993	11627
910.108	11547
910.224	11463
910.339	11623
910.454	11573
910.57	11452
910.685	11376
910.8	11630
910.915	11695
911.03	11528
911.145	11383
911.259	11337
911.374	11337
911.489	11208
911.604	11216
911.718	11128
911.833	11105
911.947	10938
912.062	10881
912.176	11022
912.291	11041
912.405	10995
912.519	11166
912.633	11235
912.748	11132
912.862	11113
912.976	10938
913.09	10854
913.204	10915
913.318	10919
913.431	11052
913.545	11003
913.659	11071
913.772	10927
913.886	10839
914	10809
914.113	10877
914.226	10942
914.34	10949
914.453	10736
914.566	10908
914.68	10694
914.793	10774
914.906	10554
915.019	10588
915.132	10485
915.245	10535
915.358	10592
915.47	10478
915.583	10580
915.696	10558
915.809	10729
915.921	10748
916.034	10588
916.146	10474
916.259	10508
916.371	10637
916.483	10573
916.595	10481
916.708	10447
916.82	10573
916.932	10535
917.044	10352
917.156	10402
917.268	10405
917.38	10440
917.491	10375
917.603	10417
917.715	10440
917.826	10432
917.938	10413
918.049	10287
918.161	10432
918.272	10512
918.384	10485
918.495	10451
918.606	10314
918.717	10227
918.828	10299
918.939	10360
919.05	10185
919.161	10257
919.272	10044
919.383	10169
919.494	10280
919.604	10504
919.715	10348
919.826	10261
919.936	10265
920.047	10329
920.157	10265
920.267	10512
920.378	10337
920.488	10405
920.598	10500
920.708	10668
920.818	10440
920.928	10542
921.038	10702
921.148	10630
921.258	10306
921.368	10310
921.477	10185
921.587	10196
921.697	10040
921.806	10196
921.916	10055
922.025	9926
922.134	9899
922.244	9835
922.353	9831
922.462	9751
922.571	9698
922.68	9606
922.789	9507
922.898	9545
923.007	9591
923.116	9549
923.224	9564
923.333	9625
923.442	9485
923.55	9450
923.659	9496
923.767	9496
923.876	9416
923.984	9488
924.092	9386
924.201	9511
924.309	9416
924.417	9492
924.525	9370
924.633	9481
924.741	10344
924.849	9199
924.956	9329
925.064	9237
925.172	9207
925.279	9116
925.387	9237
925.494	9211
925.602	9370
925.709	9329
925.816	9192
925.924	9180
926.031	9351
926.138	9222
926.245	9294
926.352	9070
926.459	9329
926.566	9287
926.673	9150
926.779	9112
926.886	9100
926.993	9013
927.099	9013
927.206	8887
927.312	8952
927.419	8998
927.525	8906
927.631	8929
927.737	8868
927.843	8853
927.95	8701
928.056	8739
928.162	8792
928.267	8910
928.373	9454
928.479	8925
928.585	8625
928.69	8834
928.796	8796
928.901	8796
929.007	8556
929.112	8777
929.218	8697
929.323	8708
929.428	8629
929.533	8777
929.638	8610
929.743	8667
929.848	8743
929.953	8579
930.058	8530
930.163	8396
930.267	8404
930.372	8549
930.477	8377
930.581	8575
930.685	8533
930.79	8355
930.894	8450
930.998	8298
931.103	8495
931.207	8115
931.311	8092
931.415	8008
931.519	7856
931.623	7849
