Data from test_V78500241_1325.txt Node
Date: Fri Mar 25 14:42:56 CST 2022
User: usil
Spectrometer: V785-0024
Trigger mode: 0
Integration Time (sec): 4.000000E-1
Scans to average: 1
Nonlinearity correction enabled: false
Boxcar width: 0
Storing dark spectrum: false
XAxis mode: Wavelengths
Number of Pixels in Spectrum: 1024
>>>>>Begin Spectral Data<<<<<
801.071	22390
801.214	22360
801.356	22055
801.499	21953
801.641	21876
801.783	21781
801.926	21823
802.068	21637
802.211	21603
802.353	21545
802.496	21302
802.638	21298
802.78	21279
802.923	21096
803.065	21157
803.208	21070
803.35	21218
803.492	21241
803.635	21222
803.777	21066
803.919	21192
804.061	21587
804.204	21146
804.346	21119
804.488	21020
804.63	21119
804.773	21020
804.915	21169
805.057	21081
805.199	21135
805.341	21214
805.483	21214
805.626	21108
805.768	21028
805.91	20967
806.052	21074
806.194	20887
806.336	21214
806.478	21100
806.62	21096
806.762	21062
806.904	21275
807.046	21492
807.188	21218
807.33	21359
807.472	21348
807.614	21336
807.756	21416
807.898	21272
808.04	21249
808.182	21298
808.324	21230
808.465	21332
808.607	21507
808.749	21648
808.891	21766
809.033	21873
809.174	21656
809.316	21614
809.458	21538
809.6	21614
809.741	21469
809.883	21599
810.025	21816
810.166	21606
810.308	21606
810.45	21591
810.591	21504
810.733	21306
810.875	21218
811.016	21077
811.158	21100
811.299	21378
811.441	21344
811.582	21454
811.724	21203
811.865	21211
812.007	21180
812.148	21119
812.29	21279
812.431	21397
812.573	21641
812.714	21511
812.855	21759
812.997	21732
813.138	21964
813.279	21835
813.421	21778
813.562	21576
813.703	21466
813.845	21435
813.986	21154
814.127	20853
814.268	20842
814.41	20826
814.551	20773
814.692	20807
814.833	20697
814.974	20788
815.115	20735
815.256	20632
815.397	20568
815.539	20613
815.68	20454
815.821	20415
815.962	20579
816.103	20446
816.244	20305
816.385	20240
816.526	20100
816.666	20218
816.807	19986
816.948	20020
817.089	20050
817.23	19982
817.371	19917
817.512	19890
817.653	20035
817.793	19814
817.934	19944
818.075	19944
818.216	19887
818.356	19940
818.497	19677
818.638	19563
818.778	19696
818.919	19559
819.06	19700
819.2	19738
819.341	19738
819.481	19799
819.622	19890
819.762	20062
819.903	20046
820.043	19936
820.184	19890
820.324	19902
820.465	19944
820.605	19894
820.746	19947
820.886	19658
821.026	19894
821.167	19944
821.307	20046
821.447	19833
821.588	19791
821.728	19575
821.868	19506
822.008	19251
822.149	19217
822.289	19202
822.429	18993
822.569	19038
822.709	18981
822.849	18856
822.99	18802
823.13	18681
823.27	18749
823.41	18536
823.55	18460
823.69	18623
823.83	18620
823.97	18486
824.11	18388
824.25	18350
824.389	18369
824.529	18517
824.669	18281
824.809	18486
824.949	18471
825.089	18410
825.228	18342
825.368	18163
825.508	18285
825.648	18163
825.787	18117
825.927	18178
826.067	18060
826.206	18045
826.346	18155
826.485	18106
826.625	18106
826.765	18220
826.904	18209
827.044	17863
827.183	17901
827.323	17786
827.462	17996
827.601	17813
827.741	17878
827.88	17786
828.02	17699
828.159	17828
828.298	17859
828.437	17946
828.577	17882
828.716	17946
828.855	17828
828.994	17596
829.134	17676
829.273	17566
829.412	17524
829.551	17414
829.69	17623
829.829	17566
829.968	17600
830.107	17615
830.246	17623
830.385	17573
830.524	17414
830.663	17410
830.802	17356
830.941	17235
831.08	17151
831.219	17322
831.357	17261
831.496	17436
831.635	17132
831.774	17113
831.913	17132
832.051	17048
832.19	16915
832.329	17006
832.467	16904
832.606	16873
832.744	16953
832.883	16934
833.022	16877
833.16	16965
833.299	17010
833.437	17010
833.576	17052
833.714	16919
833.852	17098
833.991	16927
834.129	17067
834.267	17086
834.406	16877
834.544	17003
834.682	16961
834.821	17010
834.959	17189
835.097	16976
835.235	17037
835.373	17006
835.511	17006
835.65	16915
835.788	16991
835.926	16702
836.064	16592
836.202	16679
836.34	16953
836.478	16949
836.615	16801
836.753	16835
836.891	16812
837.029	16927
837.167	16767
837.305	16828
837.443	16736
837.58	16668
837.718	16820
837.856	16850
837.993	16645
838.131	16763
838.269	16675
838.406	16740
838.544	16611
838.681	16546
838.819	16462
838.956	16329
839.094	16295
839.231	16226
839.369	16440
839.506	16622
839.643	16618
839.781	16382
839.918	16310
840.055	16356
840.193	16310
840.33	16280
840.467	16276
840.604	16417
840.742	16592
840.879	16253
841.016	16196
841.153	16287
841.29	16424
841.427	16314
841.564	16287
841.701	16314
841.838	16185
841.975	16063
842.112	16181
842.249	16131
842.385	16059
842.522	16295
842.659	16188
842.796	16071
842.933	16013
843.069	15968
843.206	16036
843.343	16124
843.479	16036
843.616	16048
843.752	15888
843.889	15903
844.025	15994
844.162	15876
844.298	15994
844.435	15778
844.571	15808
844.708	15892
844.844	16086
844.98	16032
845.117	15994
845.253	15842
845.389	15751
845.525	15922
845.661	15899
845.798	15876
845.934	15945
846.07	15876
846.206	15888
846.342	15956
846.478	15778
846.614	15523
846.75	15447
846.886	15458
847.022	15606
847.158	15416
847.294	15420
847.429	15401
847.565	15469
847.701	15648
847.837	15222
847.972	15058
848.108	15302
848.244	15260
848.379	15017
848.515	15032
848.65	14971
848.786	15032
848.921	15028
849.057	15100
849.192	15001
849.328	15093
849.463	15013
849.598	14990
849.734	14895
849.869	14902
850.004	14815
850.14	14743
850.275	14815
850.41	14693
850.545	14750
850.68	14701
850.815	14712
850.95	14720
851.085	14815
851.22	14857
851.355	14785
851.49	14739
851.625	14705
851.76	14853
851.895	14693
852.03	14621
852.165	14792
852.299	14883
852.434	14834
852.569	14807
852.703	14727
852.838	14750
852.973	14895
853.107	14990
853.242	14762
853.376	14613
853.511	14499
853.645	14537
853.78	14762
853.914	14708
854.048	14667
854.183	14617
854.317	14693
854.451	14830
854.585	14746
854.72	14514
854.854	14689
854.988	14537
855.122	14693
855.256	14537
855.39	14587
855.524	14739
855.658	14720
855.792	14621
855.926	14686
856.06	14708
856.194	14678
856.327	14674
856.461	14530
856.595	14590
856.729	14530
856.862	14651
856.996	14678
857.13	14727
857.263	14800
857.397	14716
857.53	14625
857.664	14746
857.797	14758
857.931	14758
858.064	14610
858.197	14777
858.331	14640
858.464	14598
858.597	14499
858.731	14571
858.864	14598
858.997	14610
859.13	14663
859.263	14705
859.396	14689
859.529	14587
859.662	14659
859.795	14621
859.928	14621
860.061	14807
860.194	14872
860.327	14678
860.46	14636
860.592	14777
860.725	14849
860.858	14845
860.99	14613
861.123	14667
861.256	14537
861.388	14629
861.521	15386
861.653	14499
861.786	14522
861.918	14530
862.05	14583
862.183	14640
862.315	14579
862.447	14670
862.58	14533
862.712	14492
862.844	14278
862.976	14514
863.108	14408
863.24	14902
863.372	14385
863.504	14427
863.636	14446
863.768	14423
863.9	14446
864.032	14355
864.164	14400
864.296	14461
864.428	14476
864.559	14594
864.691	14499
864.823	14518
864.954	14434
865.086	14465
865.217	14389
865.349	14400
865.48	14385
865.612	14381
865.743	14511
865.875	14347
866.006	14415
866.137	14317
866.269	14419
866.4	14476
866.531	14286
866.662	14415
866.793	14206
866.924	14362
867.055	14377
867.186	14423
867.317	14366
867.448	14294
867.579	14362
867.71	14404
867.841	14347
867.972	14404
868.103	14446
868.233	14469
868.364	14374
868.495	14457
868.625	14594
868.756	14693
868.886	14541
869.017	14629
869.147	14743
869.278	14785
869.408	14674
869.539	14644
869.669	14746
869.799	14720
869.929	14746
870.06	14811
870.19	14933
870.32	14986
870.45	14956
870.58	14975
870.71	15116
870.84	15233
870.97	14906
871.1	15055
871.23	15207
871.36	15260
871.489	15036
871.619	15176
871.749	15173
871.879	15264
872.008	15351
872.138	15241
872.267	15214
872.397	15154
872.526	15074
872.656	15013
872.785	15104
872.915	15313
873.044	15291
873.173	15264
873.303	15401
873.432	15325
873.561	15431
873.69	15317
873.819	15291
873.948	15431
874.077	15306
874.206	15302
874.335	15317
874.464	15504
874.593	15587
874.722	15564
874.851	15755
874.979	15599
875.108	15694
875.237	15534
875.365	15511
875.494	15633
875.623	15641
875.751	15450
875.88	15682
876.008	15785
876.136	15854
876.265	16074
876.393	16143
876.521	16029
876.65	16158
876.778	16071
876.906	16010
877.034	15964
877.162	16032
877.29	15926
877.418	15983
877.546	15975
877.674	16040
877.802	15934
877.93	15994
878.058	16032
878.185	15816
878.313	15987
878.441	15991
878.568	15926
878.696	15922
878.824	16078
878.951	16086
879.079	16185
879.206	16398
879.333	16234
879.461	16124
879.588	16169
879.715	16405
879.842	16306
879.97	16238
880.097	15979
880.224	15991
880.351	16040
880.478	15930
880.605	15800
880.732	15975
880.859	16093
880.986	15968
881.112	15937
881.239	15800
881.366	15614
881.493	15622
881.619	15511
881.746	15526
881.872	15606
881.999	15519
882.125	15542
882.252	15641
882.378	15606
882.505	15622
882.631	15473
882.757	15294
882.883	15511
883.01	15321
883.136	15348
883.262	15264
883.388	15195
883.514	15428
883.64	15462
883.766	15325
883.892	15279
884.018	15275
884.143	15287
884.269	15386
884.395	15108
884.52	15047
884.646	15146
884.772	14948
884.897	14994
885.023	15100
885.148	15074
885.274	15188
885.399	15146
885.524	14971
885.65	15074
885.775	15195
885.9	14933
886.025	15188
886.15	15127
886.275	15028
886.4	14864
886.525	15051
886.65	15001
886.775	14979
886.9	15123
887.025	15298
887.149	15009
887.274	14914
887.399	14811
887.523	14826
887.648	14731
887.773	14758
887.897	14933
888.021	14948
888.146	14872
888.27	15062
888.395	15009
888.519	14914
888.643	14914
888.767	14819
888.891	14762
889.015	14697
889.139	14777
889.263	14670
889.387	14868
889.511	14910
889.635	14872
889.759	14705
889.883	14697
890.006	14781
890.13	14857
890.254	14686
890.377	14659
890.501	14545
890.624	14446
890.748	14583
890.871	14412
890.995	14404
891.118	14294
891.241	14427
891.364	14400
891.488	14503
891.611	14396
891.734	14446
891.857	14404
891.98	14438
892.103	14476
892.226	14473
892.349	14313
892.471	14336
892.594	14393
892.717	14465
892.839	14396
892.962	14355
893.085	14530
893.207	14431
893.33	14301
893.452	14358
893.575	14454
893.697	14370
893.819	14575
893.941	14621
894.064	14590
894.186	14408
894.308	14457
894.43	14495
894.552	14583
894.674	14575
894.796	14419
894.918	14358
895.04	14362
895.161	14564
895.283	14454
895.405	14488
895.526	14495
895.648	14461
895.769	14568
895.891	14610
896.012	14621
896.134	14655
896.255	14670
896.376	14571
896.498	14507
896.619	14644
896.74	14571
896.861	14651
896.982	14971
897.103	15013
897.224	14765
897.345	14826
897.466	14819
897.587	14785
897.708	15039
897.828	15005
897.949	14853
898.07	14640
898.19	14712
898.311	14944
898.431	14868
898.552	14868
898.672	15001
898.792	15058
898.913	14986
899.033	14853
899.153	14785
899.273	14651
899.393	14716
899.513	14819
899.633	14731
899.753	14750
899.873	14636
899.993	14823
900.113	14773
900.232	14823
900.352	14708
900.472	14663
900.591	14674
900.711	14587
900.83	14545
900.95	14708
901.069	14693
901.189	14568
901.308	14381
901.427	14271
901.546	14309
901.665	14237
901.784	14412
901.904	14180
902.023	14119
902.141	13906
902.26	13776
902.379	13932
902.498	13826
902.617	13799
902.735	13883
902.854	13784
902.973	13757
903.091	13578
903.21	13662
903.328	13533
903.446	13495
903.565	13400
903.683	13422
903.801	13392
903.919	13358
904.038	13407
904.156	13278
904.274	13373
904.392	13320
904.51	13308
904.627	13179
904.745	13339
904.863	13164
904.981	13069
905.098	12916
905.216	12829
905.334	13031
905.451	13053
905.569	12901
905.686	12894
905.803	12970
905.921	12817
906.038	12772
906.155	12802
906.272	12738
906.389	12707
906.506	12479
906.623	12540
906.74	12574
906.857	12467
906.974	12391
907.091	12433
907.208	12696
907.324	12574
907.441	12445
907.557	12243
907.674	12243
907.79	12289
907.907	12277
908.023	12262
908.139	12224
908.256	12194
908.372	12178
908.488	12087
908.604	12114
908.72	12019
908.836	12003
908.952	12102
909.068	11999
909.184	12091
909.3	12034
909.415	12095
909.531	11942
909.647	11821
909.762	11790
909.878	11688
909.993	11726
910.108	11783
910.224	11733
910.339	11748
910.454	11661
910.57	11634
910.685	11512
910.8	11802
910.915	11699
911.03	11627
911.145	11474
911.259	11463
911.374	11429
911.489	11315
911.604	11345
911.718	11216
911.833	11223
911.947	11155
912.062	11109
912.176	11201
912.291	11159
912.405	11193
912.519	11440
912.633	11429
912.748	11341
912.862	11201
912.976	11155
913.09	10984
913.204	11045
913.318	11128
913.431	11166
913.545	11151
913.659	11208
913.772	11067
913.886	11025
914	10900
914.113	11083
914.226	11159
914.34	11041
914.453	10908
914.566	11098
914.68	10949
914.793	10881
914.906	10733
915.019	10630
915.132	10611
915.245	10763
915.358	10790
915.47	10812
915.583	10717
915.696	10790
915.809	10816
915.921	10930
916.034	10714
916.146	10717
916.259	10694
916.371	10721
916.483	10717
916.595	10611
916.708	10679
916.82	10660
916.932	10656
917.044	10630
917.156	10584
917.268	10531
917.38	10565
917.491	10436
917.603	10584
917.715	10588
917.826	10565
917.938	10542
918.049	10481
918.161	10538
918.272	10618
918.384	10637
918.495	10656
918.606	10417
918.717	10424
918.828	10413
918.939	10428
919.05	10348
919.161	10424
919.272	10215
919.383	10306
919.494	10413
919.604	10626
919.715	10462
919.826	10360
919.936	10436
920.047	10554
920.157	10481
920.267	10622
920.378	10451
920.488	10417
920.598	10649
920.708	10782
920.818	10679
920.928	10618
921.038	10816
921.148	10736
921.258	10436
921.368	10367
921.477	10257
921.587	10268
921.697	10154
921.806	10265
921.916	10192
922.025	10109
922.134	10036
922.244	9922
922.353	10029
922.462	9876
922.571	9812
922.68	9797
922.789	9629
922.898	9728
923.007	9610
923.116	9766
923.224	9686
923.333	9671
923.442	9496
923.55	9553
923.659	9603
923.767	9644
923.876	9507
923.984	9534
924.092	9454
924.201	9488
924.309	9485
924.417	9534
924.525	9447
924.633	9488
924.741	10390
924.849	9302
924.956	9405
925.064	9382
925.172	9249
925.279	9260
925.387	9382
925.494	9313
925.602	9393
925.709	9435
925.816	9275
925.924	9283
926.031	9363
926.138	9310
926.245	9336
926.352	9207
926.459	9367
926.566	9412
926.673	9157
926.779	9207
926.886	9146
926.993	9028
927.099	9028
927.206	8895
927.312	8982
927.419	9036
927.525	9058
927.631	9085
927.737	8910
927.843	8967
927.95	8815
928.056	8941
928.162	8956
928.267	8952
928.373	9580
928.479	9028
928.585	8708
928.69	8891
928.796	8960
928.901	8880
929.007	8682
929.112	8819
929.218	8739
929.323	8758
929.428	8739
929.533	8864
929.638	8644
929.743	8735
929.848	8773
929.953	8693
930.058	8655
930.163	8446
930.267	8434
930.372	8689
930.477	8450
930.581	8708
930.685	8533
930.79	8408
930.894	8404
930.998	8404
931.103	8526
931.207	8259
931.311	8149
931.415	8081
931.519	7944
931.623	7913
