Data from test_V78500241_1633.txt Node
Date: Fri Mar 25 14:45:05 CST 2022
User: usil
Spectrometer: V785-0024
Trigger mode: 0
Integration Time (sec): 4.000000E-1
Scans to average: 1
Nonlinearity correction enabled: false
Boxcar width: 0
Storing dark spectrum: false
XAxis mode: Wavelengths
Number of Pixels in Spectrum: 1024
>>>>>Begin Spectral Data<<<<<
801.071	22287
801.214	22192
801.356	22013
801.499	21846
801.641	21720
801.783	21652
801.926	21663
802.068	21572
802.211	21561
802.353	21462
802.496	21245
802.638	21294
802.78	21161
802.923	21100
803.065	21028
803.208	21036
803.35	21070
803.492	21051
803.635	21096
803.777	21070
803.919	21074
804.061	21416
804.204	21104
804.346	20834
804.488	20960
804.63	21001
804.773	20921
804.915	20990
805.057	21020
805.199	21005
805.341	21058
805.483	21127
805.626	21036
805.768	20986
805.91	20975
806.052	20952
806.194	20941
806.336	21116
806.478	20971
806.62	20906
806.762	21017
806.904	21214
807.046	21355
807.188	21382
807.33	21283
807.472	21340
807.614	21165
807.756	21237
807.898	21119
808.04	21096
808.182	21020
808.324	21036
808.465	21207
808.607	21378
808.749	21439
808.891	21549
809.033	21648
809.174	21519
809.316	21450
809.458	21386
809.6	21214
809.741	21420
809.883	21469
810.025	21492
810.166	21481
810.308	21504
810.45	21511
810.591	21332
810.733	21245
810.875	21154
811.016	21100
811.158	21017
811.299	21195
811.441	21218
811.582	21294
811.724	21112
811.865	21039
812.007	21066
812.148	21249
812.29	21131
812.431	21222
812.573	21412
812.714	21553
812.855	21720
812.997	21736
813.138	21838
813.279	21682
813.421	21595
813.562	21553
813.703	21420
813.845	21272
813.986	21055
814.127	20876
814.268	20834
814.41	20697
814.551	20693
814.692	20727
814.833	20583
814.974	20533
815.115	20724
815.256	20469
815.397	20518
815.539	20552
815.68	20343
815.821	20320
815.962	20385
816.103	20366
816.244	20172
816.385	20187
816.526	20092
816.666	19986
816.807	19913
816.948	19883
817.089	20012
817.23	19871
817.371	19849
817.512	19856
817.653	19860
817.793	19757
817.934	19750
818.075	19856
818.216	19811
818.356	19788
818.497	19708
818.638	19434
818.778	19495
818.919	19457
819.06	19655
819.2	19712
819.341	19712
819.481	19723
819.622	19769
819.762	20027
819.903	19997
820.043	19894
820.184	19826
820.324	19776
820.465	19826
820.605	19879
820.746	19753
820.886	19693
821.026	19769
821.167	19734
821.307	19845
821.447	19685
821.588	19575
821.728	19510
821.868	19362
822.008	19217
822.149	19263
822.289	19259
822.429	18901
822.569	18886
822.709	18905
822.849	18692
822.99	18654
823.13	18661
823.27	18677
823.41	18467
823.55	18346
823.69	18494
823.83	18540
823.97	18426
824.11	18308
824.25	18186
824.389	18216
824.529	18338
824.669	18285
824.809	18281
824.949	18395
825.089	18232
825.228	18277
825.368	18251
825.508	18049
825.648	18053
825.787	18155
825.927	18102
826.067	17965
826.206	17980
826.346	18030
826.485	17996
826.625	18076
826.765	18224
826.904	17973
827.044	17866
827.183	17794
827.323	17676
827.462	17817
827.601	17687
827.741	17695
827.88	17703
828.02	17653
828.159	17615
828.298	17672
828.437	17779
828.577	17726
828.716	17859
828.855	17718
828.994	17509
829.134	17501
829.273	17516
829.412	17490
829.551	17383
829.69	17486
829.829	17433
829.968	17570
830.107	17642
830.246	17478
830.385	17345
830.524	17341
830.663	17383
830.802	17197
830.941	17185
831.08	17086
831.219	17109
831.357	17159
831.496	17368
831.635	17071
831.774	16908
831.913	16919
832.051	16869
832.19	16839
832.329	16782
832.467	16873
832.606	16664
832.744	16740
832.883	16862
833.022	16706
833.16	16900
833.299	16710
833.437	16774
833.576	16930
833.714	16862
833.852	16748
833.991	16938
834.129	16968
834.267	16889
834.406	16911
834.544	16809
834.682	16854
834.821	16831
834.959	16949
835.097	16740
835.235	16923
835.373	16790
835.511	16816
835.65	16744
835.788	16740
835.926	16577
836.064	16485
836.202	16596
836.34	16596
836.478	16862
836.615	16782
836.753	16752
836.891	16752
837.029	16748
837.167	16694
837.305	16656
837.443	16603
837.58	16474
837.718	16706
837.856	16713
837.993	16512
838.131	16584
838.269	16466
838.406	16535
838.544	16428
838.681	16322
838.819	16333
838.956	16097
839.094	16154
839.231	16105
839.369	16230
839.506	16535
839.643	16367
839.781	16128
839.918	16029
840.055	16230
840.193	16135
840.33	16147
840.467	16074
840.604	16166
840.742	16402
840.879	15945
841.016	16013
841.153	16002
841.29	16166
841.427	16154
841.564	16177
841.701	16188
841.838	16021
841.975	16071
842.112	16105
842.249	15991
842.385	15895
842.522	16051
842.659	15888
842.796	15930
842.933	15915
843.069	15838
843.206	15759
843.343	15880
843.479	15854
843.616	15876
843.752	15690
843.889	15660
844.025	15846
844.162	15667
844.298	15747
844.435	15755
844.571	15682
844.708	15800
844.844	15789
844.98	15827
845.117	15747
845.253	15701
845.389	15622
845.525	15625
845.661	15622
845.798	15595
845.934	15591
846.07	15435
846.206	15584
846.342	15724
846.478	15519
846.614	15283
846.75	15237
846.886	15203
847.022	15264
847.158	15340
847.294	15298
847.429	15218
847.565	15222
847.701	15530
847.837	14929
847.972	15005
848.108	15074
848.244	15085
848.379	14880
848.515	14952
848.65	14674
848.786	14861
848.921	14914
849.057	15039
849.192	15009
849.328	14872
849.463	14842
849.598	14746
849.734	14796
849.869	14682
850.004	14689
850.14	14651
850.275	14651
850.41	14613
850.545	14613
850.68	14564
850.815	14697
850.95	14701
851.085	14792
851.22	14693
851.355	14667
851.49	14511
851.625	14549
851.76	14613
851.895	14522
852.03	14549
852.165	14583
852.299	14583
852.434	14678
852.569	14659
852.703	14549
852.838	14689
852.973	14849
853.107	14754
853.242	14564
853.376	14606
853.511	14332
853.645	14454
853.78	14613
853.914	14610
854.048	14461
854.183	14377
854.317	14495
854.451	14644
854.585	14526
854.72	14446
854.854	14541
854.988	14351
855.122	14522
855.256	14377
855.39	14450
855.524	14537
855.658	14530
855.792	14575
855.926	14503
856.06	14552
856.194	14629
856.327	14473
856.461	14351
856.595	14423
856.729	14374
856.862	14499
856.996	14564
857.13	14564
857.263	14545
857.397	14651
857.53	14446
857.664	14682
857.797	14575
857.931	14571
858.064	14533
858.197	14587
858.331	14396
858.464	14457
858.597	14393
858.731	14541
858.864	14522
858.997	14476
859.13	14549
859.263	14396
859.396	14590
859.529	14427
859.662	14431
859.795	14492
859.928	14518
860.061	14727
860.194	14716
860.327	14571
860.46	14415
860.592	14621
860.725	14598
860.858	14636
860.99	14454
861.123	14400
861.256	14336
861.388	14438
861.521	15214
861.653	14290
861.786	14256
861.918	14381
862.05	14400
862.183	14423
862.315	14473
862.447	14507
862.58	14537
862.712	14221
862.844	14168
862.976	14298
863.108	14248
863.24	14765
863.372	14199
863.504	14244
863.636	14267
863.768	14259
863.9	14237
864.032	14157
864.164	14126
864.296	14244
864.428	14328
864.559	14408
864.691	14355
864.823	14290
864.954	14294
865.086	14271
865.217	14259
865.349	14103
865.48	14168
865.612	14282
865.743	14427
865.875	14320
866.006	14298
866.137	14286
866.269	14301
866.4	14199
866.531	14172
866.662	14191
866.793	14145
866.924	14183
867.055	14183
867.186	14309
867.317	14142
867.448	14138
867.579	14100
867.71	14172
867.841	14142
867.972	14187
868.103	14305
868.233	14202
868.364	14233
868.495	14434
868.625	14412
868.756	14549
868.886	14290
869.017	14450
869.147	14670
869.278	14632
869.408	14556
869.539	14469
869.669	14537
869.799	14587
869.929	14587
870.06	14640
870.19	14712
870.32	14838
870.45	14807
870.58	14880
870.71	15001
870.84	14952
870.97	14830
871.1	14868
871.23	15051
871.36	15020
871.489	15001
871.619	15074
871.749	15032
871.879	15043
872.008	15184
872.138	15176
872.267	15043
872.397	14975
872.526	14853
872.656	14944
872.785	14887
872.915	15001
873.044	15298
873.173	15157
873.303	15264
873.432	15131
873.561	15218
873.69	15116
873.819	15146
873.948	15058
874.077	15142
874.206	15108
874.335	15169
874.464	15272
874.593	15374
874.722	15348
874.851	15378
874.979	15439
875.108	15454
875.237	15424
875.365	15370
875.494	15439
875.623	15538
875.751	15424
875.88	15397
876.008	15584
876.136	15694
876.265	15808
876.393	16021
876.521	15911
876.65	15979
876.778	15816
876.906	15857
877.034	15739
877.162	15812
877.29	15751
877.418	15766
877.546	15956
877.674	15762
877.802	15880
877.93	15873
878.058	15819
878.185	15774
878.313	15876
878.441	15800
878.568	15709
878.696	15808
878.824	15892
878.951	15991
879.079	15975
879.206	16223
879.333	16017
879.461	15975
879.588	15956
879.715	16230
879.842	16219
879.97	15956
880.097	15648
880.224	15667
880.351	15686
880.478	15694
880.605	15739
880.732	15713
880.859	15983
880.986	15785
881.112	15682
881.239	15595
881.366	15557
881.493	15561
881.619	15279
881.746	15370
881.872	15291
881.999	15389
882.125	15294
882.252	15435
882.378	15431
882.505	15534
882.631	15249
882.757	15211
882.883	15142
883.01	15173
883.136	15123
883.262	15074
883.388	15001
883.514	15275
883.64	15226
883.766	15203
883.892	15013
884.018	14986
884.143	15085
884.269	15302
884.395	14956
884.52	14796
884.646	14960
884.772	14853
884.897	14826
885.023	14910
885.148	15017
885.274	15005
885.399	14998
885.524	14902
885.65	14849
885.775	14918
885.9	14861
886.025	15043
886.15	14937
886.275	14739
886.4	14743
886.525	14758
886.65	14823
886.775	14823
886.9	15051
887.025	14994
887.149	14906
887.274	14659
887.399	14617
887.523	14629
887.648	14549
887.773	14655
887.897	14762
888.021	14724
888.146	14686
888.27	14758
888.395	14705
888.519	14777
888.643	14735
888.767	14697
888.891	14682
889.015	14568
889.139	14651
889.263	14526
889.387	14785
889.511	14777
889.635	14735
889.759	14522
889.883	14484
890.006	14507
890.13	14686
890.254	14545
890.377	14552
890.501	14298
890.624	14377
890.748	14446
890.871	14355
890.995	14221
891.118	14092
891.241	14263
891.364	14233
891.488	14362
891.611	14172
891.734	14191
891.857	14370
891.98	14256
892.103	14355
892.226	14240
892.349	14282
892.471	14081
892.594	14149
892.717	14263
892.839	14237
892.962	14248
893.085	14339
893.207	14358
893.33	14115
893.452	14256
893.575	14336
893.697	14244
893.819	14389
893.941	14427
894.064	14404
894.186	14267
894.308	14191
894.43	14457
894.552	14469
894.674	14366
894.796	14187
894.918	14282
895.04	14324
895.161	14366
895.283	14370
895.405	14248
895.526	14347
895.648	14431
895.769	14389
895.891	14442
896.012	14476
896.134	14389
896.255	14419
896.376	14324
896.498	14457
896.619	14412
896.74	14400
896.861	14434
896.982	14853
897.103	14933
897.224	14701
897.345	14670
897.466	14727
897.587	14610
897.708	14788
897.828	14769
897.949	14674
898.07	14621
898.19	14682
898.311	14830
898.431	14750
898.552	14785
898.672	14830
898.792	14834
898.913	14705
899.033	14716
899.153	14610
899.273	14526
899.393	14640
899.513	14625
899.633	14640
899.753	14640
899.873	14511
899.993	14617
900.113	14594
900.232	14651
900.352	14598
900.472	14587
900.591	14454
900.711	14571
900.83	14522
900.95	14476
901.069	14727
901.189	14393
901.308	14206
901.427	14138
901.546	14153
901.665	14278
901.784	14244
901.904	14084
902.023	13974
902.141	13742
902.26	13753
902.379	13674
902.498	13734
902.617	13761
902.735	13807
902.854	13788
902.973	13693
903.091	13396
903.21	13422
903.328	13514
903.446	13365
903.565	13339
903.683	13221
903.801	13145
903.919	13244
904.038	13251
904.156	13164
904.274	13232
904.392	13069
904.51	13099
904.627	13118
904.745	13179
904.863	13095
904.981	12901
905.098	12787
905.216	12783
905.334	12837
905.451	12894
905.569	12806
905.686	12783
905.803	12840
905.921	12620
906.038	12760
906.155	12658
906.272	12528
906.389	12544
906.506	12391
906.623	12403
906.74	12471
906.857	12216
906.974	12258
907.091	12479
907.208	12521
907.324	12361
907.441	12292
907.557	12117
907.674	12114
907.79	12083
907.907	12072
908.023	12171
908.139	12114
908.256	12091
908.372	12087
908.488	11969
908.604	11908
908.72	11847
908.836	11904
908.952	11836
909.068	11939
909.184	12038
909.3	11942
909.415	11954
909.531	11977
909.647	11703
909.762	11627
909.878	11581
909.993	11680
910.108	11577
910.224	11608
910.339	11703
910.454	11592
910.57	11543
910.685	11376
910.8	11657
910.915	11767
911.03	11539
911.145	11349
911.259	11414
911.374	11341
911.489	11296
911.604	11178
911.718	11075
911.833	11151
911.947	11022
912.062	10938
912.176	11075
912.291	11132
912.405	11113
912.519	11307
912.633	11322
912.748	11181
912.862	11128
912.976	11014
913.09	10904
913.204	10942
913.318	10965
913.431	11102
913.545	11102
913.659	11067
913.772	10991
913.886	10885
914	10908
914.113	10957
914.226	11041
914.34	10900
914.453	10710
914.566	10919
914.68	10839
914.793	10843
914.906	10584
915.019	10577
915.132	10580
915.245	10558
915.358	10626
915.47	10679
915.583	10630
915.696	10664
915.809	10736
915.921	10748
916.034	10577
916.146	10622
916.259	10531
916.371	10630
916.483	10588
916.595	10519
916.708	10535
916.82	10500
916.932	10561
917.044	10538
917.156	10512
917.268	10325
917.38	10394
917.491	10398
917.603	10531
917.715	10493
917.826	10523
917.938	10447
918.049	10386
918.161	10455
918.272	10538
918.384	10516
918.495	10554
918.606	10272
918.717	10227
918.828	10303
918.939	10291
919.05	10207
919.161	10219
919.272	10105
919.383	10120
919.494	10363
919.604	10462
919.715	10375
919.826	10284
919.936	10265
920.047	10485
920.157	10363
920.267	10580
920.378	10352
920.488	10333
920.598	10558
920.708	10672
920.818	10493
920.928	10497
921.038	10687
921.148	10634
921.258	10341
921.368	10318
921.477	10219
921.587	10188
921.697	10048
921.806	10169
921.916	10059
922.025	9930
922.134	9899
922.244	9861
922.353	9892
922.462	9720
922.571	9644
922.68	9618
922.789	9545
922.898	9557
923.007	9644
923.116	9549
923.224	9576
923.333	9618
923.442	9485
923.55	9420
923.659	9538
923.767	9485
923.876	9367
923.984	9466
924.092	9401
924.201	9469
924.309	9492
924.417	9443
924.525	9355
924.633	9412
924.741	10090
924.849	9230
924.956	9355
925.064	9176
925.172	9176
925.279	9165
925.387	9256
925.494	9226
925.602	9389
925.709	9260
925.816	9192
925.924	9184
926.031	9306
926.138	9226
926.245	9264
926.352	9169
926.459	9203
926.566	9329
926.673	9192
926.779	9093
926.886	9009
926.993	8914
927.099	9032
927.206	8880
927.312	8864
927.419	8998
927.525	8982
927.631	8956
927.737	8876
927.843	8804
927.95	8720
928.056	8773
928.162	8796
928.267	8880
928.373	9386
928.479	8914
928.585	8697
928.69	8777
928.796	8868
928.901	8788
929.007	8640
929.112	8788
929.218	8678
929.323	8667
929.428	8579
929.533	8823
929.638	8610
929.743	8579
929.848	8629
929.953	8610
930.058	8564
930.163	8457
930.267	8431
930.372	8575
930.477	8400
930.581	8629
930.685	8492
930.79	8427
930.894	8385
930.998	8347
931.103	8476
931.207	8126
931.311	8084
931.415	8065
931.519	7822
931.623	7890
