Data from test_V78500241_1379.txt Node
Date: Fri Mar 25 14:43:19 CST 2022
User: usil
Spectrometer: V785-0024
Trigger mode: 0
Integration Time (sec): 4.000000E-1
Scans to average: 1
Nonlinearity correction enabled: false
Boxcar width: 0
Storing dark spectrum: false
XAxis mode: Wavelengths
Number of Pixels in Spectrum: 1024
>>>>>Begin Spectral Data<<<<<
801.071	22489
801.214	22299
801.356	22002
801.499	22010
801.641	21789
801.783	21774
801.926	21956
802.068	21747
802.211	21614
802.353	21732
802.496	21496
802.638	21397
802.78	21382
802.923	21294
803.065	21157
803.208	21119
803.35	21112
803.492	21214
803.635	21351
803.777	21214
803.919	21119
804.061	21462
804.204	21332
804.346	21146
804.488	20990
804.63	21039
804.773	21005
804.915	21100
805.057	21237
805.199	21043
805.341	21161
805.483	21157
805.626	21112
805.768	21077
805.91	20979
806.052	20967
806.194	20891
806.336	21199
806.478	21131
806.62	21051
806.762	21058
806.904	21207
807.046	21530
807.188	21447
807.33	21428
807.472	21492
807.614	21488
807.756	21378
807.898	21298
808.04	21169
808.182	21393
808.324	21378
808.465	21382
808.607	21599
808.749	21739
808.891	21827
809.033	21960
809.174	21717
809.316	21606
809.458	21732
809.6	21557
809.741	21561
809.883	21724
810.025	21728
810.166	21713
810.308	21576
810.45	21523
810.591	21534
810.733	21374
810.875	21363
811.016	21310
811.158	21230
811.299	21469
811.441	21424
811.582	21481
811.724	21291
811.865	21241
812.007	21412
812.148	21370
812.29	21260
812.431	21454
812.573	21671
812.714	21641
812.855	21618
812.997	21892
813.138	21979
813.279	21884
813.421	21770
813.562	21641
813.703	21408
813.845	21469
813.986	21093
814.127	21074
814.268	20796
814.41	20880
814.551	20762
814.692	20796
814.833	20750
814.974	20743
815.115	20781
815.256	20537
815.397	20617
815.539	20655
815.68	20621
815.821	20366
815.962	20533
816.103	20568
816.244	20301
816.385	20218
816.526	20339
816.666	20195
816.807	19932
816.948	20027
817.089	20081
817.23	19989
817.371	20016
817.512	20065
817.653	19883
817.793	19856
817.934	19875
818.075	19925
818.216	19970
818.356	19993
818.497	19708
818.638	19666
818.778	19681
818.919	19681
819.06	19605
819.2	19765
819.341	19803
819.481	19875
819.622	19921
819.762	20126
819.903	20172
820.043	19936
820.184	19967
820.324	19906
820.465	19986
820.605	19940
820.746	19993
820.886	19689
821.026	19970
821.167	19833
821.307	19963
821.447	19776
821.588	19734
821.728	19635
821.868	19411
822.008	19354
822.149	19331
822.289	19297
822.429	19065
822.569	18882
822.709	19099
822.849	18833
822.99	18779
823.13	18943
823.27	18886
823.41	18707
823.55	18536
823.69	18696
823.83	18627
823.97	18536
824.11	18426
824.25	18399
824.389	18380
824.529	18448
824.669	18376
824.809	18540
824.949	18483
825.089	18452
825.228	18426
825.368	18270
825.508	18251
825.648	18197
825.787	18262
825.927	18342
826.067	18140
826.206	18190
826.346	18171
826.485	18224
826.625	18270
826.765	18334
826.904	18209
827.044	17908
827.183	17942
827.323	17923
827.462	17923
827.601	17882
827.741	17882
827.88	17828
828.02	17737
828.159	17828
828.298	17855
828.437	17866
828.577	17901
828.716	17984
828.855	17802
828.994	17668
829.134	17668
829.273	17672
829.412	17630
829.551	17680
829.69	17581
829.829	17676
829.968	17710
830.107	17737
830.246	17718
830.385	17592
830.524	17520
830.663	17452
830.802	17353
830.941	17269
831.08	17284
831.219	17410
831.357	17349
831.496	17474
831.635	17254
831.774	17086
831.913	17052
832.051	16953
832.19	16984
832.329	17029
832.467	16968
832.606	16828
832.744	16889
832.883	16862
833.022	16987
833.16	16961
833.299	16942
833.437	17025
833.576	16995
833.714	17086
833.852	16980
833.991	17064
834.129	17010
834.267	17060
834.406	16896
834.544	17067
834.682	17109
834.821	16946
834.959	17174
835.097	16968
835.235	17109
835.373	16999
835.511	16968
835.65	16946
835.788	16934
835.926	16869
836.064	16748
836.202	16835
836.34	16957
836.478	16980
836.615	16881
836.753	16911
836.891	17060
837.029	16965
837.167	16854
837.305	16862
837.443	16771
837.58	16774
837.718	16793
837.856	16816
837.993	16634
838.131	16710
838.269	16668
838.406	16660
838.544	16713
838.681	16424
838.819	16405
838.956	16268
839.094	16280
839.231	16333
839.369	16413
839.506	16622
839.643	16603
839.781	16329
839.918	16287
840.055	16325
840.193	16242
840.33	16299
840.467	16131
840.604	16238
840.742	16584
840.879	16154
841.016	16219
841.153	16101
841.29	16443
841.427	16367
841.564	16310
841.701	16226
841.838	16314
841.975	16226
842.112	16177
842.249	16040
842.385	16032
842.522	16390
842.659	16051
842.796	15915
842.933	16074
843.069	15994
843.206	16078
843.343	16154
843.479	16093
843.616	16078
843.752	15892
843.889	15869
844.025	15937
844.162	15911
844.298	16036
844.435	15797
844.571	15869
844.708	15907
844.844	16021
844.98	15960
845.117	16029
845.253	15854
845.389	15808
845.525	15911
845.661	15972
845.798	15800
845.934	15987
846.07	15968
846.206	15964
846.342	16040
846.478	15831
846.614	15561
846.75	15454
846.886	15351
847.022	15492
847.158	15572
847.294	15515
847.429	15443
847.565	15435
847.701	15622
847.837	15192
847.972	15100
848.108	15218
848.244	15173
848.379	15013
848.515	15013
848.65	14963
848.786	14990
848.921	15055
849.057	15123
849.192	15188
849.328	15180
849.463	14960
849.598	15032
849.734	14925
849.869	14933
850.004	14712
850.14	14895
850.275	14811
850.41	14689
850.545	14670
850.68	14754
850.815	14792
850.95	14807
851.085	14921
851.22	14845
851.355	14785
851.49	14746
851.625	14716
851.76	14754
851.895	14735
852.03	14651
852.165	14788
852.299	14788
852.434	14891
852.569	14792
852.703	14830
852.838	14902
852.973	14979
853.107	14948
853.242	14724
853.376	14670
853.511	14610
853.645	14697
853.78	14705
853.914	14697
854.048	14568
854.183	14651
854.317	14629
854.451	14777
854.585	14583
854.72	14640
854.854	14773
854.988	14594
855.122	14621
855.256	14640
855.39	14575
855.524	14800
855.658	14727
855.792	14587
855.926	14708
856.06	14712
856.194	14735
856.327	14541
856.461	14503
856.595	14579
856.729	14644
856.862	14823
856.996	14705
857.13	14651
857.263	14693
857.397	14746
857.53	14701
857.664	14724
857.797	14727
857.931	14716
858.064	14659
858.197	14689
858.331	14682
858.464	14613
858.597	14571
858.731	14560
858.864	14697
858.997	14617
859.13	14670
859.263	14613
859.396	14830
859.529	14583
859.662	14667
859.795	14602
859.928	14651
860.061	14845
860.194	14792
860.327	14823
860.46	14697
860.592	14693
860.725	14788
860.858	14667
860.99	14727
861.123	14571
861.256	14632
861.388	14651
861.521	15329
861.653	14545
861.786	14465
861.918	14446
862.05	14564
862.183	14621
862.315	14537
862.447	14659
862.58	14480
862.712	14461
862.844	14419
862.976	14587
863.108	14514
863.24	14712
863.372	14343
863.504	14408
863.636	14362
863.768	14480
863.9	14488
864.032	14431
864.164	14366
864.296	14473
864.428	14530
864.559	14598
864.691	14526
864.823	14450
864.954	14377
865.086	14438
865.217	14469
865.349	14419
865.48	14389
865.612	14431
865.743	14488
865.875	14404
866.006	14415
866.137	14389
866.269	14476
866.4	14419
866.531	14332
866.662	14298
866.793	14309
866.924	14324
867.055	14412
867.186	14450
867.317	14370
867.448	14229
867.579	14347
867.71	14294
867.841	14343
867.972	14381
868.103	14339
868.233	14503
868.364	14480
868.495	14396
868.625	14674
868.756	14686
868.886	14590
869.017	14606
869.147	14663
869.278	14765
869.408	14613
869.539	14625
869.669	14754
869.799	14674
869.929	14819
870.06	14727
870.19	15039
870.32	14906
870.45	14895
870.58	15085
870.71	15157
870.84	15116
870.97	15017
871.1	14971
871.23	15135
871.36	15260
871.489	15138
871.619	15135
871.749	15211
871.879	15252
872.008	15382
872.138	15275
872.267	15249
872.397	15085
872.526	15051
872.656	15047
872.785	15047
872.915	15344
873.044	15359
873.173	15272
873.303	15252
873.432	15389
873.561	15340
873.69	15397
873.819	15287
873.948	15329
874.077	15344
874.206	15207
874.335	15268
874.464	15492
874.593	15561
874.722	15500
874.851	15557
874.979	15686
875.108	15618
875.237	15633
875.365	15466
875.494	15553
875.623	15660
875.751	15568
875.88	15633
876.008	15743
876.136	15759
876.265	16032
876.393	16166
876.521	16051
876.65	16135
876.778	16010
876.906	15983
877.034	16013
877.162	15998
877.29	15930
877.418	15972
877.546	16040
877.674	15941
877.802	16067
877.93	16036
878.058	15972
878.185	15934
878.313	16029
878.441	15911
878.568	15918
878.696	15983
878.824	16150
878.951	16090
879.079	16238
879.206	16466
879.333	16120
879.461	16150
879.588	16291
879.715	16322
879.842	16394
879.97	16238
880.097	15994
880.224	16006
880.351	15937
880.478	15953
880.605	15926
880.732	15949
880.859	16158
880.986	15819
881.112	15937
881.239	15778
881.366	15682
881.493	15675
881.619	15519
881.746	15511
881.872	15526
881.999	15538
882.125	15534
882.252	15507
882.378	15633
882.505	15648
882.631	15656
882.757	15283
882.883	15450
883.01	15275
883.136	15336
883.262	15294
883.388	15192
883.514	15363
883.64	15443
883.766	15237
883.892	15272
884.018	15203
884.143	15325
884.269	15397
884.395	15146
884.52	15089
884.646	15074
884.772	14986
884.897	14937
885.023	15039
885.148	15222
885.274	15142
885.399	15169
885.524	15017
885.65	15055
885.775	15093
885.9	14998
886.025	15169
886.15	15100
886.275	14998
886.4	14979
886.525	15119
886.65	14941
886.775	14963
886.9	15184
887.025	15199
887.149	15077
887.274	14864
887.399	14838
887.523	14826
887.648	14724
887.773	14804
887.897	15020
888.021	14876
888.146	14785
888.27	14918
888.395	14982
888.519	14925
888.643	14861
888.767	14975
888.891	14853
889.015	14610
889.139	14800
889.263	14739
889.387	14796
889.511	14849
889.635	14880
889.759	14727
889.883	14632
890.006	14773
890.13	14773
890.254	14629
890.377	14606
890.501	14526
890.624	14438
890.748	14583
890.871	14438
890.995	14385
891.118	14286
891.241	14396
891.364	14492
891.488	14484
891.611	14385
891.734	14396
891.857	14545
891.98	14431
892.103	14442
892.226	14450
892.349	14461
892.471	14313
892.594	14362
892.717	14385
892.839	14351
892.962	14393
893.085	14454
893.207	14446
893.33	14320
893.452	14366
893.575	14469
893.697	14461
893.819	14484
893.941	14617
894.064	14564
894.186	14366
894.308	14381
894.43	14549
894.552	14556
894.674	14465
894.796	14347
894.918	14381
895.04	14438
895.161	14583
895.283	14465
895.405	14313
895.526	14476
895.648	14499
895.769	14473
895.891	14499
896.012	14590
896.134	14575
896.255	14610
896.376	14507
896.498	14442
896.619	14594
896.74	14568
896.861	14648
896.982	14906
897.103	15089
897.224	14834
897.345	14864
897.466	14754
897.587	14762
897.708	15032
897.828	14785
897.949	14887
898.07	14686
898.19	14857
898.311	14998
898.431	14872
898.552	14823
898.672	14982
898.792	15089
898.913	14956
899.033	14853
899.153	14739
899.273	14651
899.393	14727
899.513	14811
899.633	14689
899.753	14731
899.873	14659
899.993	14708
900.113	14800
900.232	14811
900.352	14769
900.472	14606
900.591	14564
900.711	14746
900.83	14583
900.95	14731
901.069	14746
901.189	14552
901.308	14320
901.427	14290
901.546	14336
901.665	14317
901.784	14267
901.904	14214
902.023	14138
902.141	13849
902.26	13772
902.379	13871
902.498	13852
902.617	13753
902.735	13955
902.854	13879
902.973	13772
903.091	13552
903.21	13540
903.328	13575
903.446	13510
903.565	13369
903.683	13445
903.801	13266
903.919	13327
904.038	13396
904.156	13217
904.274	13324
904.392	13209
904.51	13145
904.627	13259
904.745	13270
904.863	13221
904.981	13065
905.098	12943
905.216	12871
905.334	12954
905.451	12890
905.569	12825
905.686	12947
905.803	12916
905.921	12593
906.038	12760
906.155	12757
906.272	12544
906.389	12623
906.506	12502
906.623	12525
906.74	12525
906.857	12384
906.974	12467
907.091	12570
907.208	12650
907.324	12582
907.441	12357
907.557	12281
907.674	12224
907.79	12266
907.907	12220
908.023	12266
908.139	12190
908.256	12197
908.372	12171
908.488	12194
908.604	12015
908.72	11969
908.836	11950
908.952	11996
909.068	12038
909.184	12190
909.3	11999
909.415	12102
909.531	12060
909.647	11821
909.762	11775
909.878	11684
909.993	11779
910.108	11813
910.224	11767
910.339	11726
910.454	11604
910.57	11581
910.685	11570
910.8	11813
910.915	11783
911.03	11600
911.145	11471
911.259	11452
911.374	11478
911.489	11425
911.604	11376
911.718	11143
911.833	11201
911.947	11083
912.062	11102
912.176	11250
912.291	11185
912.405	11197
912.519	11406
912.633	11402
912.748	11299
912.862	11235
912.976	11037
913.09	11006
913.204	11060
913.318	11003
913.431	11105
913.545	11155
913.659	11216
913.772	11136
913.886	11048
914	11025
914.113	11071
914.226	11086
914.34	11128
914.453	10949
914.566	11067
914.68	10904
914.793	10953
914.906	10691
915.019	10675
915.132	10584
915.245	10721
915.358	10645
915.47	10717
915.583	10740
915.696	10763
915.809	10790
915.921	10869
916.034	10679
916.146	10577
916.259	10729
916.371	10835
916.483	10812
916.595	10615
916.708	10656
916.82	10622
916.932	10550
917.044	10554
917.156	10645
917.268	10531
917.38	10588
917.491	10558
917.603	10523
917.715	10603
917.826	10599
917.938	10573
918.049	10375
918.161	10535
918.272	10656
918.384	10672
918.495	10455
918.606	10432
918.717	10398
918.828	10424
918.939	10440
919.05	10299
919.161	10371
919.272	10207
919.383	10238
919.494	10382
919.604	10641
919.715	10424
919.826	10348
919.936	10375
920.047	10508
920.157	10417
920.267	10611
920.378	10443
920.488	10363
920.598	10615
920.708	10755
920.818	10542
920.928	10592
921.038	10771
921.148	10740
921.258	10417
921.368	10417
921.477	10325
921.587	10265
921.697	10112
921.806	10291
921.916	10101
922.025	10032
922.134	9972
922.244	9892
922.353	9998
922.462	9831
922.571	9816
922.68	9736
922.789	9599
922.898	9686
923.007	9610
923.116	9656
923.224	9625
923.333	9633
923.442	9534
923.55	9561
923.659	9545
923.767	9622
923.876	9454
923.984	9625
924.092	9439
924.201	9572
924.309	9515
924.417	9618
924.525	9405
924.633	9447
924.741	10344
924.849	9249
924.956	9389
925.064	9294
925.172	9321
925.279	9298
925.387	9355
925.494	9306
925.602	9439
925.709	9382
925.816	9222
925.924	9211
926.031	9363
926.138	9317
926.245	9325
926.352	9222
926.459	9298
926.566	9424
926.673	9222
926.779	9188
926.886	9127
926.993	9093
927.099	9005
927.206	8971
927.312	9020
927.419	9001
927.525	8990
927.631	9043
927.737	8857
927.843	8876
927.95	8739
928.056	8937
928.162	8956
928.267	8956
928.373	9599
928.479	8921
928.585	8766
928.69	8918
928.796	8880
928.901	8807
929.007	8621
929.112	8830
929.218	8788
929.323	8735
929.428	8712
929.533	8868
929.638	8636
929.743	8724
929.848	8701
929.953	8689
930.058	8594
930.163	8480
930.267	8438
930.372	8579
930.477	8450
930.581	8708
930.685	8602
930.79	8393
930.894	8503
930.998	8396
931.103	8594
931.207	8259
931.311	8187
931.415	8092
931.519	7887
931.623	7902
