Data from test_V78500241_2161.txt Node
Date: Fri Mar 25 14:48:45 CST 2022
User: usil
Spectrometer: V785-0024
Trigger mode: 0
Integration Time (sec): 4.000000E-1
Scans to average: 1
Nonlinearity correction enabled: false
Boxcar width: 0
Storing dark spectrum: false
XAxis mode: Wavelengths
Number of Pixels in Spectrum: 1024
>>>>>Begin Spectral Data<<<<<
801.071	22070
801.214	22086
801.356	21846
801.499	21644
801.641	21625
801.783	21568
801.926	21473
802.068	21500
802.211	21382
802.353	21348
802.496	21043
802.638	20956
802.78	21028
802.923	20979
803.065	20960
803.208	20891
803.35	20823
803.492	21039
803.635	21096
803.777	20838
803.919	20990
804.061	21131
804.204	20956
804.346	20826
804.488	20773
804.63	20750
804.773	20754
804.915	20739
805.057	20830
805.199	20781
805.341	20804
805.483	20868
805.626	20819
805.768	20762
805.91	20826
806.052	20754
806.194	20708
806.336	20960
806.478	20765
806.62	20609
806.762	20853
806.904	21001
807.046	21211
807.188	21062
807.33	21024
807.472	21127
807.614	21123
807.756	21043
807.898	20986
808.04	20914
808.182	20868
808.324	20830
808.465	20872
808.607	21070
808.749	21070
808.891	21237
809.033	21237
809.174	21165
809.316	21146
809.458	21222
809.6	20990
809.741	21207
809.883	21233
810.025	21344
810.166	21336
810.308	21268
810.45	21203
810.591	21154
810.733	21119
810.875	20948
811.016	20811
811.158	20785
811.299	21013
811.441	21032
811.582	21089
811.724	20929
811.865	20937
812.007	21085
812.148	20902
812.29	20925
812.431	21123
812.573	21233
812.714	21359
812.855	21507
812.997	21618
813.138	21644
813.279	21530
813.421	21530
813.562	21294
813.703	21165
813.845	21085
813.986	20853
814.127	20629
814.268	20522
814.41	20469
814.551	20594
814.692	20480
814.833	20499
814.974	20366
815.115	20434
815.256	20290
815.397	20355
815.539	20427
815.68	20145
815.821	20138
815.962	20164
816.103	20100
816.244	20050
816.385	20027
816.526	20001
816.666	19734
816.807	19708
816.948	19731
817.089	19887
817.23	19685
817.371	19655
817.512	19628
817.653	19628
817.793	19613
817.934	19582
818.075	19658
818.216	19632
818.356	19457
818.497	19419
818.638	19350
818.778	19350
818.919	19228
819.06	19400
819.2	19411
819.341	19510
819.481	19514
819.622	19601
819.762	19719
819.903	19807
820.043	19677
820.184	19639
820.324	19464
820.465	19647
820.605	19609
820.746	19655
820.886	19396
821.026	19434
821.167	19525
821.307	19518
821.447	19544
821.588	19377
821.728	19346
821.868	19156
822.008	19042
822.149	18989
822.289	18943
822.429	18837
822.569	18661
822.709	18703
822.849	18475
822.99	18494
823.13	18525
823.27	18502
823.41	18334
823.55	18361
823.69	18395
823.83	18186
823.97	18182
824.11	18076
824.25	18087
824.389	18091
824.529	18186
824.669	18095
824.809	18133
824.949	18144
825.089	18148
825.228	18125
825.368	17893
825.508	17840
825.648	17935
825.787	17798
825.927	17840
826.067	17870
826.206	17836
826.346	17851
826.485	17859
826.625	17786
826.765	17783
826.904	17859
827.044	17657
827.183	17642
827.323	17558
827.462	17684
827.601	17619
827.741	17611
827.88	17630
828.02	17471
828.159	17509
828.298	17539
828.437	17528
828.577	17463
828.716	17687
828.855	17532
828.994	17303
829.134	17395
829.273	17216
829.412	17220
829.551	17223
829.69	17178
829.829	17398
829.968	17414
830.107	17334
830.246	17258
830.385	17181
830.524	17341
830.663	17121
830.802	16927
830.941	16831
831.08	16900
831.219	16968
831.357	17113
831.496	17083
831.635	16869
831.774	16831
831.913	16889
832.051	16656
832.19	16599
832.329	16717
832.467	16668
832.606	16641
832.744	16565
832.883	16542
833.022	16660
833.16	16588
833.299	16599
833.437	16694
833.576	16717
833.714	16664
833.852	16630
833.991	16706
834.129	16687
834.267	16664
834.406	16710
834.544	16641
834.682	16763
834.821	16599
834.959	16797
835.097	16607
835.235	16763
835.373	16607
835.511	16634
835.65	16531
835.788	16481
835.926	16474
836.064	16428
836.202	16352
836.34	16592
836.478	16736
836.615	16481
836.753	16592
836.891	16675
837.029	16618
837.167	16489
837.305	16497
837.443	16440
837.58	16413
837.718	16451
837.856	16356
837.993	16246
838.131	16329
838.269	16344
838.406	16310
838.544	16268
838.681	16063
838.819	16109
838.956	16029
839.094	16006
839.231	15956
839.369	16143
839.506	16272
839.643	16226
839.781	15998
839.918	15884
840.055	15975
840.193	15930
840.33	15934
840.467	15964
840.604	15968
840.742	16173
840.879	15869
841.016	15819
841.153	15854
841.29	16040
841.427	15941
841.564	15983
841.701	15987
841.838	15819
841.975	15854
842.112	15937
842.249	15732
842.385	15701
842.522	15960
842.659	15743
842.796	15675
842.933	15736
843.069	15690
843.206	15698
843.343	15804
843.479	15762
843.616	15743
843.752	15591
843.889	15504
844.025	15675
844.162	15488
844.298	15652
844.435	15530
844.571	15462
844.708	15625
844.844	15660
844.98	15682
845.117	15679
845.253	15439
845.389	15408
845.525	15511
845.661	15313
845.798	15203
845.934	15393
846.07	15298
846.206	15325
846.342	15469
846.478	15367
846.614	15055
846.75	15055
846.886	15100
847.022	15245
847.158	15207
847.294	15123
847.429	15154
847.565	15077
847.701	15298
847.837	14815
847.972	14697
848.108	14891
848.244	14891
848.379	14777
848.515	14644
848.65	14678
848.786	14712
848.921	14697
849.057	14697
849.192	14796
849.328	14800
849.463	14648
849.598	14644
849.734	14674
849.869	14537
850.004	14404
850.14	14549
850.275	14473
850.41	14419
850.545	14442
850.68	14457
850.815	14549
850.95	14473
851.085	14602
851.22	14583
851.355	14457
851.49	14366
851.625	14377
851.76	14404
851.895	14282
852.03	14278
852.165	14389
852.299	14503
852.434	14492
852.569	14461
852.703	14465
852.838	14545
852.973	14617
853.107	14571
853.242	14389
853.376	14317
853.511	14218
853.645	14229
853.78	14514
853.914	14278
854.048	14225
854.183	14393
854.317	14324
854.451	14423
854.585	14290
854.72	14294
854.854	14454
854.988	14195
855.122	14275
855.256	14176
855.39	14309
855.524	14404
855.658	14377
855.792	14351
855.926	14396
856.06	14446
856.194	14415
856.327	14278
856.461	14278
856.595	14225
856.729	14324
856.862	14446
856.996	14377
857.13	14438
857.263	14389
857.397	14484
857.53	14351
857.664	14343
857.797	14457
857.931	14450
858.064	14431
858.197	14393
858.331	14454
858.464	14362
858.597	14278
858.731	14294
858.864	14324
858.997	14347
859.13	14358
859.263	14442
859.396	14465
859.529	14370
859.662	14343
859.795	14298
859.928	14396
860.061	14530
860.194	14545
860.327	14415
860.46	14412
860.592	14434
860.725	14446
860.858	14431
860.99	14423
861.123	14313
861.256	14309
861.388	14351
861.521	15024
861.653	14248
861.786	14248
861.918	14252
862.05	14374
862.183	14320
862.315	14377
862.447	14324
862.58	14324
862.712	14218
862.844	14016
862.976	14202
863.108	14294
863.24	14545
863.372	14058
863.504	14027
863.636	14195
863.768	14149
863.9	14138
864.032	14065
864.164	14168
864.296	14142
864.428	14180
864.559	14252
864.691	14278
864.823	14210
864.954	14259
865.086	14195
865.217	14111
865.349	14024
865.48	14077
865.612	14221
865.743	14157
865.875	14123
866.006	14065
866.137	14161
866.269	14134
866.4	14229
866.531	14081
866.662	14054
866.793	14161
866.924	14062
867.055	14187
867.186	14134
867.317	14130
867.448	14050
867.579	14130
867.71	14031
867.841	13951
867.972	14191
868.103	14039
868.233	14115
868.364	14157
868.495	14195
868.625	14298
868.756	14412
868.886	14248
869.017	14339
869.147	14480
869.278	14434
869.408	14396
869.539	14317
869.669	14499
869.799	14419
869.929	14461
870.06	14408
870.19	14701
870.32	14579
870.45	14731
870.58	14746
870.71	14788
870.84	14887
870.97	14792
871.1	14792
871.23	14937
871.36	14948
871.489	14769
871.619	14918
871.749	14944
871.879	15089
872.008	15005
872.138	14994
872.267	14937
872.397	14952
872.526	14739
872.656	14838
872.785	14838
872.915	14948
873.044	14925
873.173	15020
873.303	15039
873.432	15089
873.561	15176
873.69	15055
873.819	15081
873.948	15135
874.077	15074
874.206	14895
874.335	15104
874.464	15252
874.593	15321
874.722	15237
874.851	15359
874.979	15256
875.108	15355
875.237	15317
875.365	15268
875.494	15279
875.623	15389
875.751	15279
875.88	15313
876.008	15473
876.136	15599
876.265	15793
876.393	15991
876.521	15850
876.65	15781
876.778	15755
876.906	15667
877.034	15686
877.162	15747
877.29	15709
877.418	15781
877.546	15743
877.674	15717
877.802	15698
877.93	15743
878.058	15694
878.185	15629
878.313	15603
878.441	15709
878.568	15637
878.696	15660
878.824	15842
878.951	15846
879.079	15827
879.206	16055
879.333	15888
879.461	15766
879.588	15876
879.715	15956
879.842	16067
879.97	15816
880.097	15599
880.224	15553
880.351	15625
880.478	15701
880.605	15496
880.732	15629
880.859	15903
880.986	15641
881.112	15641
881.239	15576
881.366	15359
881.493	15363
881.619	15226
881.746	15310
881.872	15154
881.999	15165
882.125	15214
882.252	15405
882.378	15321
882.505	15401
882.631	15222
882.757	15017
882.883	15157
883.01	15081
883.136	14990
883.262	14944
883.388	14963
883.514	15100
883.64	15184
883.766	15017
883.892	14914
884.018	14941
884.143	15089
884.269	15184
884.395	14861
884.52	14743
884.646	14762
884.772	14651
884.897	14659
885.023	14667
885.148	14902
885.274	14990
885.399	14963
885.524	14750
885.65	14758
885.775	14804
885.9	14712
886.025	14990
886.15	14830
886.275	14697
886.4	14727
886.525	14773
886.65	14636
886.775	14629
886.9	14838
887.025	14967
887.149	14804
887.274	14598
887.399	14522
887.523	14571
887.648	14514
887.773	14518
887.897	14610
888.021	14655
888.146	14469
888.27	14735
888.395	14785
888.519	14655
888.643	14648
888.767	14746
888.891	14530
889.015	14507
889.139	14412
889.263	14484
889.387	14564
889.511	14705
889.635	14606
889.759	14461
889.883	14530
890.006	14636
890.13	14625
890.254	14461
890.377	14480
890.501	14309
890.624	14172
890.748	14355
890.871	14225
890.995	14073
891.118	14134
891.241	14149
891.364	14172
891.488	14195
891.611	14180
891.734	14161
891.857	14301
891.98	14157
892.103	14240
892.226	14164
892.349	14168
892.471	14058
892.594	14130
892.717	14138
892.839	14164
892.962	14214
893.085	14244
893.207	14191
893.33	14107
893.452	14168
893.575	14252
893.697	14046
893.819	14351
893.941	14328
894.064	14298
894.186	14092
894.308	14092
894.43	14233
894.552	14377
894.674	14393
894.796	14103
894.918	14134
895.04	14138
895.161	14370
895.283	14176
895.405	14168
895.526	14278
895.648	14256
895.769	14313
895.891	14317
896.012	14358
896.134	14324
896.255	14374
896.376	14324
896.498	14400
896.619	14317
896.74	14278
896.861	14404
896.982	14724
897.103	14823
897.224	14678
897.345	14480
897.466	14552
897.587	14594
897.708	14773
897.828	14606
897.949	14549
898.07	14434
898.19	14632
898.311	14796
898.431	14636
898.552	14640
898.672	14762
898.792	14739
898.913	14636
899.033	14648
899.153	14594
899.273	14408
899.393	14415
899.513	14415
899.633	14533
899.753	14598
899.873	14434
899.993	14621
900.113	14526
900.232	14579
900.352	14579
900.472	14450
900.591	14404
900.711	14389
900.83	14317
900.95	14560
901.069	14568
901.189	14393
901.308	14172
901.427	14024
901.546	14054
901.665	14058
901.784	14164
901.904	13963
902.023	13906
902.141	13742
902.26	13597
902.379	13719
902.498	13696
902.617	13559
902.735	13677
902.854	13685
902.973	13571
903.091	13400
903.21	13358
903.328	13392
903.446	13339
903.565	13126
903.683	13304
903.801	13133
903.919	13183
904.038	13175
904.156	12985
904.274	13072
904.392	13091
904.51	13038
904.627	13053
904.745	13000
904.863	12989
904.981	12825
905.098	12719
905.216	12798
905.334	12753
905.451	12681
905.569	12741
905.686	12802
905.803	12631
905.921	12627
906.038	12623
906.155	12544
906.272	12578
906.389	12437
906.506	12369
906.623	12228
906.74	12319
906.857	12182
906.974	12228
907.091	12384
907.208	12467
907.324	12357
907.441	12262
907.557	12110
907.674	12060
907.79	11965
907.907	12034
908.023	12079
908.139	12064
908.256	11973
908.372	12011
908.488	12007
908.604	11874
908.72	11870
908.836	11836
908.952	11741
909.068	11851
909.184	11931
909.3	11889
909.415	11893
909.531	11828
909.647	11649
909.762	11570
909.878	11505
909.993	11646
910.108	11600
910.224	11512
910.339	11497
910.454	11471
910.57	11478
910.685	11356
910.8	11615
910.915	11615
911.03	11497
911.145	11284
911.259	11284
911.374	11220
911.489	11197
911.604	11151
911.718	11060
911.833	11136
911.947	10942
912.062	10908
912.176	11075
912.291	11037
912.405	11071
912.519	11227
912.633	11280
912.748	11140
912.862	11010
912.976	10858
913.09	10816
913.204	10942
913.318	10915
913.431	11003
913.545	10991
913.659	10987
913.772	10877
913.886	10831
914	10786
914.113	10869
914.226	10911
914.34	10824
914.453	10725
914.566	10892
914.68	10763
914.793	10672
914.906	10603
915.019	10504
915.132	10554
915.245	10531
915.358	10497
915.47	10561
915.583	10603
915.696	10584
915.809	10641
915.921	10679
916.034	10573
916.146	10538
916.259	10421
916.371	10561
916.483	10470
916.595	10493
916.708	10436
916.82	10432
916.932	10466
917.044	10440
917.156	10500
917.268	10371
917.38	10337
917.491	10386
917.603	10421
917.715	10523
917.826	10470
917.938	10325
918.049	10234
918.161	10409
918.272	10538
918.384	10417
918.495	10371
918.606	10325
918.717	10287
918.828	10261
918.939	10261
919.05	10131
919.161	10147
919.272	10063
919.383	10139
919.494	10325
919.604	10516
919.715	10280
919.826	10158
919.936	10238
920.047	10390
920.157	10295
920.267	10459
920.378	10310
920.488	10249
920.598	10402
920.708	10645
920.818	10497
920.928	10436
921.038	10561
921.148	10599
921.258	10344
921.368	10238
921.477	10124
921.587	10067
921.697	9987
921.806	10154
921.916	10002
922.025	9850
922.134	9808
922.244	9751
922.353	9899
922.462	9637
922.571	9603
922.68	9526
922.789	9492
922.898	9473
923.007	9382
923.116	9549
923.224	9542
923.333	9412
923.442	9454
923.55	9389
923.659	9412
923.767	9431
923.876	9336
923.984	9420
924.092	9313
924.201	9348
924.309	9351
924.417	9336
924.525	9336
924.633	9336
924.741	10082
924.849	9123
924.956	9313
925.064	9169
925.172	9089
925.279	9173
925.387	9207
925.494	9195
925.602	9249
925.709	9256
925.816	9150
925.924	9165
926.031	9226
926.138	9237
926.245	9283
926.352	9169
926.459	9218
926.566	9230
926.673	9195
926.779	9055
926.886	9032
926.993	8887
927.099	8853
927.206	8872
927.312	8845
927.419	8941
927.525	8944
927.631	8925
927.737	8826
927.843	8754
927.95	8670
928.056	8766
928.162	8762
928.267	8861
928.373	9408
928.479	8910
928.585	8629
928.69	8819
928.796	8868
928.901	8693
929.007	8571
929.112	8727
929.218	8670
929.323	8632
929.428	8571
929.533	8739
929.638	8621
929.743	8552
929.848	8632
929.953	8640
930.058	8606
930.163	8381
930.267	8423
930.372	8621
930.477	8473
930.581	8629
930.685	8526
930.79	8370
930.894	8336
930.998	8396
931.103	8492
931.207	8123
931.311	8058
931.415	7982
931.519	7830
931.623	7818
