Data from test_V78500241_2810.txt Node
Date: Fri Mar 25 14:53:16 CST 2022
User: usil
Spectrometer: V785-0024
Trigger mode: 0
Integration Time (sec): 4.000000E-1
Scans to average: 1
Nonlinearity correction enabled: false
Boxcar width: 0
Storing dark spectrum: false
XAxis mode: Wavelengths
Number of Pixels in Spectrum: 1024
>>>>>Begin Spectral Data<<<<<
801.071	22040
801.214	21918
801.356	21686
801.499	21564
801.641	21443
801.783	21420
801.926	21367
802.068	21386
802.211	21344
802.353	21226
802.496	20857
802.638	20872
802.78	20857
802.923	20921
803.065	20674
803.208	20750
803.35	20765
803.492	20769
803.635	20994
803.777	20762
803.919	20800
804.061	21131
804.204	20845
804.346	20579
804.488	20682
804.63	20785
804.773	20617
804.915	20644
805.057	20716
805.199	20636
805.341	20708
805.483	20807
805.626	20815
805.768	20651
805.91	20575
806.052	20731
806.194	20678
806.336	20731
806.478	20667
806.62	20499
806.762	20659
806.904	20800
807.046	21051
807.188	20902
807.33	21077
807.472	20986
807.614	20933
807.756	20925
807.898	20796
808.04	20724
808.182	20659
808.324	20689
808.465	20792
808.607	20834
808.749	21032
808.891	21142
809.033	21173
809.174	21100
809.316	20880
809.458	20994
809.6	21020
809.741	21032
809.883	21077
810.025	21131
810.166	21127
810.308	21173
810.45	21066
810.591	20975
810.733	20800
810.875	20792
811.016	20701
811.158	20651
811.299	20811
811.441	21047
811.582	20857
811.724	20788
811.865	20705
812.007	20739
812.148	20720
812.29	20823
812.431	20990
812.573	21169
812.714	21157
812.855	21344
812.997	21370
813.138	21469
813.279	21408
813.421	21420
813.562	21237
813.703	21036
813.845	21024
813.986	20594
814.127	20492
814.268	20282
814.41	20404
814.551	20240
814.692	20324
814.833	20256
814.974	20248
815.115	20298
815.256	20111
815.397	20122
815.539	20183
815.68	19947
815.821	20012
815.962	20096
816.103	20039
816.244	19875
816.385	19734
816.526	19807
816.666	19620
816.807	19426
816.948	19609
817.089	19616
817.23	19495
817.371	19373
817.512	19392
817.653	19502
817.793	19381
817.934	19518
818.075	19415
818.216	19480
818.356	19434
818.497	19259
818.638	19198
818.778	19160
818.919	19206
819.06	19148
819.2	19324
819.341	19232
819.481	19377
819.622	19441
819.762	19727
819.903	19666
820.043	19472
820.184	19480
820.324	19434
820.465	19514
820.605	19453
820.746	19365
820.886	19213
821.026	19377
821.167	19392
821.307	19457
821.447	19285
821.588	19244
821.728	19206
821.868	18966
822.008	18783
822.149	18882
822.289	18829
822.429	18570
822.569	18551
822.709	18483
822.849	18426
822.99	18315
823.13	18380
823.27	18315
823.41	18228
823.55	18121
823.69	18117
823.83	18182
823.97	18076
824.11	17942
824.25	17863
824.389	17916
824.529	17923
824.669	17946
824.809	18022
824.949	17977
825.089	17920
825.228	17878
825.368	17767
825.508	17668
825.648	17672
825.787	17722
825.927	17687
826.067	17604
826.206	17566
826.346	17687
826.485	17779
826.625	17680
826.765	17764
826.904	17752
827.044	17478
827.183	17482
827.323	17398
827.462	17463
827.601	17440
827.741	17368
827.88	17444
828.02	17246
828.159	17322
828.298	17467
828.437	17406
828.577	17288
828.716	17467
828.855	17398
828.994	17189
829.134	17162
829.273	17136
829.412	17117
829.551	17159
829.69	17147
829.829	17128
829.968	17212
830.107	17307
830.246	17155
830.385	17025
830.524	17086
830.663	17006
830.802	16881
830.941	16862
831.08	16744
831.219	16782
831.357	16862
831.496	16968
831.635	16835
831.774	16763
831.913	16611
832.051	16660
832.19	16466
832.329	16569
832.467	16462
832.606	16409
832.744	16409
832.883	16356
833.022	16474
833.16	16356
833.299	16455
833.437	16485
833.576	16497
833.714	16436
833.852	16519
833.991	16527
834.129	16645
834.267	16569
834.406	16561
834.544	16512
834.682	16546
834.821	16478
834.959	16691
835.097	16455
835.235	16630
835.373	16451
835.511	16375
835.65	16398
835.788	16329
835.926	16344
836.064	16291
836.202	16173
836.34	16481
836.478	16466
836.615	16238
836.753	16329
836.891	16542
837.029	16459
837.167	16402
837.305	16295
837.443	16268
837.58	16215
837.718	16356
837.856	16306
837.993	16196
838.131	16314
838.269	16268
838.406	16306
838.544	16253
838.681	15998
838.819	15975
838.956	15873
839.094	15911
839.231	15861
839.369	15964
839.506	16242
839.643	16006
839.781	15831
839.918	15797
840.055	15789
840.193	15762
840.33	15838
840.467	15804
840.604	15842
840.742	15991
840.879	15694
841.016	15644
841.153	15728
841.29	15922
841.427	15884
841.564	15846
841.701	15842
841.838	15842
841.975	15698
842.112	15755
842.249	15587
842.385	15641
842.522	15770
842.659	15663
842.796	15591
842.933	15568
843.069	15557
843.206	15511
843.343	15584
843.479	15682
843.616	15622
843.752	15462
843.889	15374
844.025	15580
844.162	15370
844.298	15462
844.435	15336
844.571	15272
844.708	15408
844.844	15538
844.98	15462
845.117	15488
845.253	15370
845.389	15283
845.525	15317
845.661	15161
845.798	15203
845.934	15256
846.07	15150
846.206	15306
846.342	15264
846.478	15249
846.614	15036
846.75	14921
846.886	14944
847.022	14986
847.158	14998
847.294	14933
847.429	15005
847.565	14979
847.701	15192
847.837	14788
847.972	14705
848.108	14800
848.244	14811
848.379	14541
848.515	14552
848.65	14457
848.786	14503
848.921	14507
849.057	14644
849.192	14617
849.328	14621
849.463	14598
849.598	14511
849.734	14480
849.869	14431
850.004	14339
850.14	14427
850.275	14244
850.41	14294
850.545	14347
850.68	14263
850.815	14366
850.95	14305
851.085	14396
851.22	14374
851.355	14347
851.49	14263
851.625	14286
851.76	14252
851.895	14389
852.03	14210
852.165	14286
852.299	14317
852.434	14400
852.569	14339
852.703	14404
852.838	14381
852.973	14514
853.107	14427
853.242	14282
853.376	14202
853.511	14084
853.645	14149
853.78	14343
853.914	14221
854.048	14153
854.183	14168
854.317	14180
854.451	14385
854.585	14202
854.72	14149
854.854	14343
854.988	14134
855.122	14233
855.256	14157
855.39	14138
855.524	14278
855.658	14206
855.792	14206
855.926	14252
856.06	14267
856.194	14332
856.327	14214
856.461	14115
856.595	14145
856.729	14286
856.862	14355
856.996	14233
857.13	14187
857.263	14298
857.397	14320
857.53	14142
857.664	14237
857.797	14347
857.931	14396
858.064	14240
858.197	14328
858.331	14248
858.464	14050
858.597	14096
858.731	14237
858.864	14214
858.997	14084
859.13	14126
859.263	14233
859.396	14248
859.529	14084
859.662	14267
859.795	14069
859.928	14233
860.061	14389
860.194	14339
860.327	14176
860.46	14153
860.592	14355
860.725	14271
860.858	14275
860.99	14244
861.123	14092
861.256	14119
861.388	14263
861.521	14857
861.653	14016
861.786	14115
861.918	14005
862.05	14008
862.183	14214
862.315	14084
862.447	14229
862.58	14107
862.712	13925
862.844	13947
862.976	14001
863.108	14062
863.24	14336
863.372	13944
863.504	14005
863.636	13970
863.768	13959
863.9	14039
864.032	13818
864.164	13913
864.296	14065
864.428	14119
864.559	14008
864.691	14096
864.823	14039
864.954	13986
865.086	14081
865.217	13951
865.349	14043
865.48	13944
865.612	13989
865.743	14111
865.875	13940
866.006	13849
866.137	13997
866.269	14016
866.4	13906
866.531	13928
866.662	13906
866.793	13868
866.924	13921
867.055	14008
867.186	13894
867.317	13898
867.448	13898
867.579	13989
867.71	13887
867.841	13917
867.972	14039
868.103	13951
868.233	14016
868.364	14039
868.495	14012
868.625	14161
868.756	14305
868.886	14073
869.017	14221
869.147	14225
869.278	14320
869.408	14172
869.539	14248
869.669	14366
869.799	14290
869.929	14317
870.06	14377
870.19	14583
870.32	14476
870.45	14564
870.58	14636
870.71	14811
870.84	14663
870.97	14575
871.1	14552
871.23	14762
871.36	14880
871.489	14708
871.619	14765
871.749	14868
871.879	14880
872.008	14815
872.138	14902
872.267	14743
872.397	14606
872.526	14587
872.656	14613
872.785	14716
872.915	14857
873.044	14937
873.173	14902
873.303	14823
873.432	14910
873.561	14982
873.69	14857
873.819	14872
873.948	14925
874.077	14876
874.206	14918
874.335	14914
874.464	15043
874.593	15222
874.722	15047
874.851	15230
874.979	15203
875.108	15203
875.237	15252
875.365	15188
875.494	15142
875.623	15291
875.751	15180
875.88	15184
876.008	15329
876.136	15367
876.265	15705
876.393	15762
876.521	15675
876.65	15743
876.778	15618
876.906	15603
877.034	15606
877.162	15652
877.29	15576
877.418	15568
877.546	15561
877.674	15682
877.802	15549
877.93	15599
878.058	15534
878.185	15538
878.313	15568
878.441	15606
878.568	15408
878.696	15545
878.824	15701
878.951	15667
879.079	15812
879.206	15903
879.333	15774
879.461	15610
879.588	15679
879.715	15728
879.842	15831
879.97	15648
880.097	15431
880.224	15424
880.351	15515
880.478	15462
880.605	15382
880.732	15454
880.859	15599
880.986	15439
881.112	15481
881.239	15389
881.366	15249
881.493	15214
881.619	15176
881.746	15070
881.872	15192
881.999	15055
882.125	15123
882.252	15116
882.378	15138
882.505	15226
882.631	15089
882.757	14994
882.883	14975
883.01	14933
883.136	14872
883.262	14906
883.388	14731
883.514	14864
883.64	14906
883.766	14914
883.892	14716
884.018	14819
884.143	14971
884.269	15009
884.395	14815
884.52	14541
884.646	14571
884.772	14511
884.897	14522
885.023	14564
885.148	14678
885.274	14705
885.399	14712
885.524	14655
885.65	14621
885.775	14712
885.9	14682
886.025	14720
886.15	14716
886.275	14522
886.4	14636
886.525	14594
886.65	14514
886.775	14545
886.9	14800
887.025	14899
887.149	14651
887.274	14514
887.399	14469
887.523	14492
887.648	14400
887.773	14370
887.897	14579
888.021	14511
888.146	14347
888.27	14488
888.395	14568
888.519	14488
888.643	14533
888.767	14594
888.891	14324
889.015	14336
889.139	14301
889.263	14256
889.387	14461
889.511	14530
889.635	14393
889.759	14355
889.883	14393
890.006	14385
890.13	14450
890.254	14218
890.377	14305
890.501	14145
890.624	14130
890.748	14229
890.871	14016
890.995	13986
891.118	13947
891.241	14035
891.364	14050
891.488	14142
891.611	13967
891.734	14035
891.857	14077
891.98	13955
892.103	14168
892.226	14119
892.349	13978
892.471	13898
892.594	14035
892.717	14035
892.839	13852
892.962	14024
893.085	14084
893.207	14145
893.33	13875
893.452	13944
893.575	14119
893.697	14043
893.819	14248
893.941	14142
894.064	14172
894.186	13921
894.308	13887
894.43	14187
894.552	14298
894.674	14199
894.796	13993
894.918	13970
895.04	13982
895.161	14218
895.283	14149
895.405	14069
895.526	14096
895.648	14149
895.769	14164
895.891	14199
896.012	14244
896.134	14214
896.255	14168
896.376	14153
896.498	14145
896.619	14214
896.74	14256
896.861	14244
896.982	14655
897.103	14651
897.224	14465
897.345	14492
897.466	14419
897.587	14461
897.708	14640
897.828	14526
897.949	14362
898.07	14404
898.19	14393
898.311	14545
898.431	14465
898.552	14602
898.672	14655
898.792	14648
898.913	14571
899.033	14522
899.153	14408
899.273	14415
899.393	14400
899.513	14431
899.633	14434
899.753	14355
899.873	14351
899.993	14434
900.113	14469
900.232	14469
900.352	14332
900.472	14332
900.591	14145
900.711	14259
900.83	14221
900.95	14499
901.069	14347
901.189	14240
901.308	13978
901.427	13925
901.546	13890
901.665	14012
901.784	13951
901.904	13795
902.023	13757
902.141	13643
902.26	13491
902.379	13571
902.498	13521
902.617	13422
902.735	13578
902.854	13533
902.973	13438
903.091	13282
903.21	13320
903.328	13327
903.446	13107
903.565	13171
903.683	13126
903.801	12989
903.919	13095
904.038	12966
904.156	12947
904.274	12954
904.392	12943
904.51	12863
904.627	12867
904.745	12973
904.863	12913
904.981	12791
905.098	12578
905.216	12662
905.334	12589
905.451	12582
905.569	12467
905.686	12608
905.803	12726
905.921	12365
906.038	12494
906.155	12464
906.272	12330
906.389	12304
906.506	12277
906.623	12148
906.74	12182
906.857	12129
906.974	12114
907.091	12285
907.208	12243
907.324	12133
907.441	12159
907.557	11923
907.674	11931
907.79	11950
907.907	12011
908.023	11961
908.139	11950
908.256	11889
908.372	11859
908.488	11821
908.604	11726
908.72	11695
908.836	11722
908.952	11726
909.068	11748
909.184	11851
909.3	11619
909.415	11657
909.531	11627
909.647	11482
909.762	11486
909.878	11433
909.993	11585
910.108	11433
910.224	11452
910.339	11429
910.454	11436
910.57	11383
910.685	11269
910.8	11532
910.915	11414
911.03	11368
911.145	11181
911.259	11212
911.374	11204
911.489	11181
911.604	10995
911.718	10847
911.833	10965
911.947	10862
912.062	10869
912.176	10965
912.291	10923
912.405	10904
912.519	11098
912.633	11071
912.748	10995
912.862	10892
912.976	10839
913.09	10694
913.204	10812
913.318	10881
913.431	10957
913.545	10881
913.659	10919
913.772	10782
913.886	10729
914	10656
914.113	10835
914.226	10759
914.34	10744
914.453	10649
914.566	10820
914.68	10702
914.793	10656
914.906	10432
915.019	10398
915.132	10394
915.245	10413
915.358	10440
915.47	10432
915.583	10478
915.696	10440
915.809	10508
915.921	10584
916.034	10360
916.146	10424
916.259	10421
916.371	10508
916.483	10485
916.595	10398
916.708	10352
916.82	10360
916.932	10318
917.044	10417
917.156	10299
917.268	10257
917.38	10272
917.491	10204
917.603	10322
917.715	10348
917.826	10428
917.938	10299
918.049	10124
918.161	10295
918.272	10417
918.384	10409
918.495	10379
918.606	10192
918.717	10021
918.828	10196
918.939	10234
919.05	10055
919.161	10207
919.272	9937
919.383	9968
919.494	10158
919.604	10356
919.715	10166
919.826	10093
919.936	10093
920.047	10215
920.157	10169
920.267	10318
920.378	10150
920.488	10162
920.598	10314
920.708	10527
920.818	10329
920.928	10295
921.038	10577
921.148	10516
921.258	10200
921.368	10162
921.477	10063
921.587	9972
921.697	9857
921.806	10116
921.916	9895
922.025	9751
922.134	9804
922.244	9747
922.353	9747
922.462	9587
922.571	9545
922.68	9481
922.789	9355
922.898	9428
923.007	9382
923.116	9481
923.224	9393
923.333	9428
923.442	9340
923.55	9264
923.659	9313
923.767	9363
923.876	9218
923.984	9348
924.092	9306
924.201	9260
924.309	9249
924.417	9332
924.525	9222
924.633	9294
924.741	10040
924.849	9032
924.956	9173
925.064	9047
925.172	9017
925.279	9055
925.387	9112
925.494	9062
925.602	9192
925.709	9093
925.816	9001
925.924	9123
926.031	9203
926.138	9036
926.245	9097
926.352	9032
926.459	9154
926.566	9180
926.673	9017
926.779	8933
926.886	8994
926.993	8845
927.099	8868
927.206	8788
927.312	8739
927.419	8834
927.525	8796
927.631	8887
927.737	8727
927.843	8682
927.95	8571
928.056	8697
928.162	8667
928.267	8781
928.373	9287
928.479	8800
928.585	8560
928.69	8708
928.796	8811
928.901	8598
929.007	8450
929.112	8530
929.218	8575
929.323	8552
929.428	8499
929.533	8560
929.638	8431
929.743	8434
929.848	8503
929.953	8533
930.058	8446
930.163	8248
930.267	8282
930.372	8530
930.477	8324
930.581	8488
930.685	8339
930.79	8210
930.894	8259
930.998	8244
931.103	8408
931.207	8043
931.311	8035
931.415	7906
931.519	7784
931.623	7769
