Data from test_V78500241_646.txt Node
Date: Fri Mar 25 14:38:13 CST 2022
User: usil
Spectrometer: V785-0024
Trigger mode: 0
Integration Time (sec): 4.000000E-1
Scans to average: 1
Nonlinearity correction enabled: false
Boxcar width: 0
Storing dark spectrum: false
XAxis mode: Wavelengths
Number of Pixels in Spectrum: 1024
>>>>>Begin Spectral Data<<<<<
801.071	27998
801.214	27762
801.356	27656
801.499	27477
801.641	27382
801.783	27348
801.926	27439
802.068	27218
802.211	27214
802.353	27173
802.496	26925
802.638	26819
802.78	26849
802.923	26811
803.065	26609
803.208	26727
803.35	26758
803.492	26849
803.635	26986
803.777	26933
803.919	27005
804.061	27214
804.204	27032
804.346	27081
804.488	27017
804.63	27051
804.773	26880
804.915	27180
805.057	27169
805.199	27222
805.341	27291
805.483	27424
805.626	27466
805.768	27405
805.91	27637
806.052	27644
806.194	27618
806.336	28109
806.478	28105
806.62	28329
806.762	28523
806.904	28778
807.046	29395
807.188	29539
807.33	30076
807.472	30608
807.614	31088
807.756	31947
807.898	32800
808.04	34090
808.182	35672
808.324	37947
808.465	40615
808.607	43567
808.749	45949
808.891	47277
809.033	47501
809.174	46101
809.316	43635
809.458	40763
809.6	37666
809.741	35250
809.883	33770
810.025	32450
810.166	31571
810.308	30776
810.45	30148
810.591	29608
810.733	29265
810.875	28869
811.016	28481
811.158	28470
811.299	28329
811.441	28394
811.582	28177
811.724	28044
811.865	27785
812.007	27774
812.148	27629
812.29	27663
812.431	27789
812.573	27819
812.714	27781
812.855	27899
812.997	28082
813.138	28090
813.279	28010
813.421	27759
813.562	27694
813.703	27496
813.845	27462
813.986	27157
814.127	26842
814.268	26701
814.41	26750
814.551	26720
814.692	26670
814.833	26590
814.974	26651
815.115	26507
815.256	26431
815.397	26298
815.539	26366
815.68	26149
815.821	26119
815.962	26100
816.103	26119
816.244	26005
816.385	25993
816.526	25696
816.666	25575
816.807	25556
816.948	25548
817.089	25674
817.23	25502
817.371	25324
817.512	25449
817.653	25377
817.793	25289
817.934	25362
818.075	25384
818.216	25365
818.356	25362
818.497	25316
818.638	25103
818.778	25141
818.919	25126
819.06	25179
819.2	25244
819.341	25411
819.481	25327
819.622	25407
819.762	25613
819.903	25506
820.043	25430
820.184	25472
820.324	25358
820.465	25403
820.605	25270
820.746	25206
820.886	25114
821.026	25236
821.167	25232
821.307	25247
821.447	25050
821.588	24977
821.728	24958
821.868	24608
822.008	24494
822.149	24464
822.289	24486
822.429	24277
822.569	24186
822.709	24114
822.849	24041
822.99	23946
823.13	23893
823.27	23824
823.41	23832
823.55	23707
823.69	23851
823.83	23790
823.97	23710
824.11	23474
824.25	23459
824.389	23452
824.529	23703
824.669	23478
824.809	23554
824.949	23566
825.089	23562
825.228	23421
825.368	23322
825.508	23448
825.648	23220
825.787	23520
825.927	23356
826.067	23208
826.206	23318
826.346	23269
826.485	23296
826.625	23303
826.765	23349
826.904	23200
827.044	22987
827.183	22965
827.323	22892
827.462	23056
827.601	22896
827.741	22946
827.88	22896
828.02	22869
828.159	22900
828.298	22816
828.437	23083
828.577	22850
828.716	22889
828.855	22717
828.994	22721
829.134	22816
829.273	22668
829.412	22637
829.551	22565
829.69	22577
829.829	22637
829.968	22691
830.107	22603
830.246	22611
830.385	22489
830.524	22516
830.663	22417
830.802	22360
830.941	22131
831.08	22242
831.219	22249
831.357	22257
831.496	22527
831.635	22249
831.774	22051
831.913	22143
832.051	22086
832.19	22006
832.329	22048
832.467	22109
832.606	22021
832.744	22010
832.883	22120
833.022	22101
833.16	22242
833.299	22291
833.437	22344
833.576	22588
833.714	22733
833.852	22702
833.991	22896
834.129	23018
834.267	22946
834.406	22972
834.544	22892
834.682	22782
834.821	22637
834.959	22653
835.097	22375
835.235	22371
835.373	22280
835.511	22303
835.65	22044
835.788	22044
835.926	21804
836.064	21682
836.202	21667
836.34	21892
836.478	21736
836.615	21778
836.753	21857
836.891	21633
837.029	21625
837.167	21656
837.305	21720
837.443	21580
837.58	21519
837.718	21545
837.856	21538
837.993	21485
838.131	21572
838.269	21397
838.406	21393
838.544	21336
838.681	21127
838.819	21135
838.956	20857
839.094	20895
839.231	20921
839.369	21070
839.506	21374
839.643	21161
839.781	20842
839.918	20868
840.055	21005
840.193	20883
840.33	20941
840.467	20880
840.604	21112
840.742	21222
840.879	20701
841.016	20758
841.153	20826
841.29	20967
841.427	20944
841.564	20925
841.701	20952
841.838	20910
841.975	20746
842.112	20948
842.249	20769
842.385	20743
842.522	20963
842.659	20811
842.796	20682
842.933	20823
843.069	20594
843.206	20762
843.343	20697
843.479	20724
843.616	20773
843.752	20705
843.889	20648
844.025	20849
844.162	20792
844.298	21013
844.435	20902
844.571	21161
844.708	21477
844.844	21899
844.98	22147
845.117	22793
845.253	23520
845.389	25004
845.525	28120
845.661	33001
845.798	38929
845.934	43320
846.07	45070
846.206	43883
846.342	39991
846.478	34101
846.614	29010
846.75	25639
846.886	23611
847.022	22470
847.158	21781
847.294	21283
847.429	20933
847.565	20678
847.701	20758
847.837	20275
847.972	20024
848.108	19993
848.244	20024
848.379	19917
848.515	19727
848.65	19655
848.786	19734
848.921	19658
849.057	19578
849.192	19769
849.328	19662
849.463	19518
849.598	19468
849.734	19586
849.869	19430
850.004	19312
850.14	19419
850.275	19247
850.41	19350
850.545	19266
850.68	19198
850.815	19225
850.95	19148
851.085	19460
851.22	19327
851.355	19213
851.49	19274
851.625	19168
851.76	19282
851.895	19209
852.03	19065
852.165	19263
852.299	19369
852.434	19441
852.569	19381
852.703	19407
852.838	19529
852.973	19358
853.107	19453
853.242	19301
853.376	19228
853.511	19148
853.645	19274
853.78	19400
853.914	19392
854.048	19559
854.183	19362
854.317	19415
854.451	19666
854.585	19343
854.72	19449
854.854	19453
854.988	19285
855.122	19384
855.256	19148
855.39	19145
855.524	19358
855.658	19236
855.792	19175
855.926	19141
856.06	19255
856.194	19198
856.327	19095
856.461	19057
856.595	18966
856.729	19118
856.862	19160
856.996	18954
857.13	19057
857.263	19076
857.397	19168
857.53	18985
857.664	19156
857.797	19004
857.931	19126
858.064	18989
858.197	19118
858.331	19118
858.464	18901
858.597	18985
858.731	19012
858.864	18840
858.997	18909
859.13	18886
859.263	18859
859.396	19107
859.529	18856
859.662	18924
859.795	19008
859.928	18973
860.061	19023
860.194	19091
860.327	18901
860.46	18878
860.592	18989
860.725	19084
860.858	18996
860.99	18916
861.123	18719
861.256	18886
861.388	18856
861.521	19567
861.653	18730
861.786	18741
861.918	18814
862.05	18791
862.183	18989
862.315	18977
862.447	18909
862.58	18882
862.712	18684
862.844	18559
862.976	18738
863.108	18646
863.24	18928
863.372	18559
863.504	18559
863.636	18677
863.768	18551
863.9	18574
864.032	18502
864.164	18498
864.296	18669
864.428	18570
864.559	18711
864.691	18627
864.823	18574
864.954	18570
865.086	18555
865.217	18490
865.349	18578
865.48	18498
865.612	18525
865.743	18650
865.875	18452
866.006	18403
866.137	18551
866.269	18467
866.4	18490
866.531	18475
866.662	18506
866.793	18627
866.924	18464
867.055	18399
867.186	18506
867.317	18422
867.448	18365
867.579	18376
867.71	18433
867.841	18346
867.972	18464
868.103	18498
868.233	18437
868.364	18376
868.495	18551
868.625	18631
868.756	18825
868.886	18719
869.017	18608
869.147	18829
869.278	18840
869.408	18703
869.539	18646
869.669	18833
869.799	18791
869.929	18817
870.06	18909
870.19	19148
870.32	18962
870.45	19099
870.58	19171
870.71	19244
870.84	19198
870.97	19198
871.1	19206
871.23	19308
871.36	19400
871.489	19335
871.619	19270
871.749	19285
871.879	19457
872.008	19563
872.138	19483
872.267	19457
872.397	19369
872.526	19320
872.656	19297
872.785	19266
872.915	19567
873.044	19689
873.173	19571
873.303	19624
873.432	19647
873.561	19666
873.69	19582
873.819	19594
873.948	19788
874.077	19769
874.206	19708
874.335	19689
874.464	19883
874.593	19993
874.722	20031
874.851	20180
874.979	20210
875.108	20130
875.237	20176
875.365	20176
875.494	20298
875.623	20328
875.751	20358
875.88	20282
876.008	20495
876.136	20602
876.265	20914
876.393	21058
876.521	21043
876.65	21009
876.778	21142
876.906	21119
877.034	21131
877.162	21184
877.29	21256
877.418	21306
877.546	21367
877.674	21504
877.802	21595
877.93	21743
878.058	21907
878.185	21949
878.313	22291
878.441	22512
878.568	22698
878.696	23258
878.824	24068
878.951	24958
879.079	26427
879.206	28215
879.333	29996
879.461	31457
879.588	32400
879.715	32442
879.842	31818
879.97	30045
880.097	28177
880.224	26590
880.351	25643
880.478	24992
880.605	24433
880.732	24144
880.859	24152
880.986	23634
881.112	23672
881.239	23455
881.366	23322
881.493	23155
881.619	23140
881.746	23261
881.872	23330
881.999	23239
882.125	23204
882.252	23326
882.378	23372
882.505	23539
882.631	23372
882.757	23162
882.883	23303
883.01	23140
883.136	23155
883.262	23067
883.388	22965
883.514	23185
883.64	23147
883.766	23075
883.892	22934
884.018	22896
884.143	23010
884.269	23284
884.395	23037
884.52	22801
884.646	22843
884.772	22881
884.897	22843
885.023	22812
885.148	23003
885.274	22987
885.399	22790
885.524	22660
885.65	22637
885.775	22565
885.9	22367
886.025	22322
886.15	22135
886.275	21899
886.4	21838
886.525	21739
886.65	21576
886.775	21412
886.9	21450
887.025	21523
887.149	21195
887.274	20986
887.399	20918
887.523	20868
887.648	20674
887.773	20530
887.897	20800
888.021	20587
888.146	20480
888.27	20587
888.395	20571
888.519	20484
888.643	20393
888.767	20423
888.891	20233
889.015	20218
889.139	20130
889.263	20069
889.387	20020
889.511	20202
889.635	20073
889.759	19845
889.883	19811
890.006	19689
890.13	19894
890.254	19769
890.377	19746
890.501	19510
890.624	19487
890.748	19533
890.871	19278
890.995	19202
891.118	19187
891.241	19221
891.364	19095
891.488	19206
891.611	19190
891.734	19080
891.857	19088
891.98	19019
892.103	19080
892.226	19004
892.349	18981
892.471	18833
892.594	18920
892.717	18856
892.839	18741
892.962	18757
893.085	18821
893.207	18829
893.33	18620
893.452	18589
893.575	18749
893.697	18620
893.819	18745
893.941	18863
894.064	18833
894.186	18448
894.308	18540
894.43	18635
894.552	18734
894.674	18612
894.796	18547
894.918	18429
895.04	18494
895.161	18509
895.283	18506
895.405	18262
895.526	18433
895.648	18521
895.769	18452
895.891	18399
896.012	18437
896.134	18399
896.255	18494
896.376	18452
896.498	18437
896.619	18346
896.74	18414
896.861	18467
896.982	18703
897.103	18821
897.224	18608
897.345	18540
897.466	18498
897.587	18490
897.708	18719
897.828	18574
897.949	18414
898.07	18361
898.19	18403
898.311	18719
898.431	18563
898.552	18544
898.672	18604
898.792	18555
898.913	18532
899.033	18403
899.153	18388
899.273	18300
899.393	18308
899.513	18277
899.633	18338
899.753	18327
899.873	18243
899.993	18376
900.113	18174
900.232	18338
900.352	18235
900.472	18171
900.591	18064
900.711	18148
900.83	18064
900.95	18178
901.069	18068
901.189	17969
901.308	17824
901.427	17691
901.546	17687
901.665	17733
901.784	17627
901.904	17414
902.023	17364
902.141	17254
902.26	17239
902.379	17284
902.498	17105
902.617	17117
902.735	17155
902.854	17147
902.973	17010
903.091	16862
903.21	16774
903.328	16721
903.446	16713
903.565	16592
903.683	16615
903.801	16470
903.919	16485
904.038	16550
904.156	16341
904.274	16329
904.392	16246
904.51	16223
904.627	16371
904.745	16341
904.863	16306
904.981	16120
905.098	15918
905.216	15934
905.334	16017
905.451	16025
905.569	15937
905.686	15930
905.803	15888
905.921	15709
906.038	15876
906.155	15739
906.272	15732
906.389	15682
906.506	15530
906.623	15500
906.74	15496
906.857	15367
906.974	15367
907.091	15382
907.208	15576
907.324	15523
907.441	15473
907.557	15184
907.674	15184
907.79	15119
907.907	15108
908.023	15100
908.139	15157
908.256	15028
908.372	15070
908.488	15108
908.604	14887
908.72	14914
908.836	14925
908.952	14899
909.068	14785
909.184	15043
909.3	14864
909.415	14838
909.531	14845
909.647	14617
909.762	14590
909.878	14568
909.993	14533
910.108	14587
910.224	14541
910.339	14598
910.454	14522
910.57	14412
910.685	14465
910.8	14659
910.915	14651
911.03	14412
911.145	14347
911.259	14259
911.374	14202
911.489	14191
911.604	14088
911.718	13921
911.833	13963
911.947	13849
912.062	13826
912.176	13963
912.291	13967
912.405	13852
912.519	14046
912.633	14107
912.748	14050
912.862	13807
912.976	13807
913.09	13772
913.204	13765
913.318	13765
913.431	13864
913.545	13856
913.659	13856
913.772	13814
913.886	13616
914	13658
914.113	13712
914.226	13757
914.34	13620
914.453	13594
914.566	13791
914.68	13643
914.793	13582
914.906	13445
915.019	13335
915.132	13346
915.245	13358
915.358	13419
915.47	13304
915.583	13384
915.696	13327
915.809	13434
915.921	13460
916.034	13289
916.146	13263
916.259	13263
916.371	13392
916.483	13354
916.595	13327
916.708	13274
916.82	13339
916.932	13221
917.044	13285
917.156	13156
917.268	13110
917.38	13187
917.491	13156
917.603	13152
917.715	13110
917.826	13099
917.938	12947
918.049	12993
918.161	12981
918.272	13122
918.384	13088
918.495	13012
918.606	12920
918.717	12749
918.828	12791
918.939	12871
919.05	12688
919.161	12688
919.272	12684
919.383	12635
919.494	12954
919.604	12951
919.715	12776
919.826	12650
919.936	12787
920.047	12837
920.157	12810
920.267	12962
920.378	12833
920.488	12749
920.598	12981
920.708	13107
920.818	12913
920.928	12943
921.038	13099
921.148	13099
921.258	12779
921.368	12608
921.477	12525
921.587	12517
921.697	12441
921.806	12585
921.916	12410
922.025	12285
922.134	12308
922.244	12148
922.353	12228
922.462	12095
922.571	12098
922.68	11824
922.789	11908
922.898	11809
923.007	11866
923.116	11843
923.224	11863
923.333	11901
923.442	11665
923.55	11695
923.659	11817
923.767	11794
923.876	11745
923.984	11767
924.092	11604
924.201	11718
924.309	11592
924.417	11665
924.525	11547
924.633	11604
924.741	12399
924.849	11448
924.956	11554
925.064	11322
925.172	11299
925.279	11398
925.387	11391
925.494	11417
925.602	11482
925.709	11421
925.816	11303
925.924	11391
926.031	11334
926.138	11376
926.245	11349
926.352	11254
926.459	11383
926.566	11452
926.673	11250
926.779	11208
926.886	11239
926.993	10999
927.099	10965
927.206	10919
927.312	10927
927.419	11045
927.525	11022
927.631	11045
927.737	10908
927.843	10812
927.95	10786
928.056	10736
928.162	10835
928.267	10908
928.373	11448
928.479	10949
928.585	10683
928.69	10889
928.796	10801
928.901	10744
929.007	10584
929.112	10786
929.218	10668
929.323	10660
929.428	10626
929.533	10710
929.638	10577
929.743	10523
929.848	10622
929.953	10588
930.058	10443
930.163	10306
930.267	10306
930.372	10519
930.477	10242
930.581	10535
930.685	10402
930.79	10238
930.894	10322
930.998	10181
931.103	10337
931.207	10021
931.311	9926
931.415	9857
931.519	9667
931.623	9603
