Data from test_V78500241_3256.txt Node
Date: Fri Mar 25 14:56:23 CST 2022
User: usil
Spectrometer: V785-0024
Trigger mode: 0
Integration Time (sec): 4.000000E-1
Scans to average: 1
Nonlinearity correction enabled: false
Boxcar width: 0
Storing dark spectrum: false
XAxis mode: Wavelengths
Number of Pixels in Spectrum: 1024
>>>>>Begin Spectral Data<<<<<
801.071	21941
801.214	21880
801.356	21694
801.499	21595
801.641	21359
801.783	21325
801.926	21325
802.068	21283
802.211	21283
802.353	21211
802.496	20887
802.638	20895
802.78	20727
802.923	20864
803.065	20640
803.208	20583
803.35	20640
803.492	20743
803.635	20811
803.777	20667
803.919	20823
804.061	20929
804.204	20735
804.346	20560
804.488	20575
804.63	20632
804.773	20511
804.915	20518
805.057	20746
805.199	20663
805.341	20587
805.483	20762
805.626	20686
805.768	20465
805.91	20541
806.052	20579
806.194	20511
806.336	20667
806.478	20583
806.62	20552
806.762	20640
806.904	20739
807.046	20948
807.188	20914
807.33	20895
807.472	20952
807.614	20887
807.756	20857
807.898	20708
808.04	20632
808.182	20674
808.324	20587
808.465	20697
808.607	20872
808.749	21005
808.891	21036
809.033	21028
809.174	20925
809.316	20746
809.458	20864
809.6	20880
809.741	20910
809.883	20982
810.025	21036
810.166	21123
810.308	20948
810.45	21093
810.591	20895
810.733	20788
810.875	20849
811.016	20716
811.158	20602
811.299	20823
811.441	20853
811.582	20887
811.724	20594
811.865	20594
812.007	20632
812.148	20636
812.29	20804
812.431	20845
812.573	21017
812.714	21058
812.855	21165
812.997	21249
813.138	21386
813.279	21256
813.421	21192
813.562	21058
813.703	21009
813.845	20880
813.986	20667
814.127	20446
814.268	20252
814.41	20286
814.551	20278
814.692	20336
814.833	20020
814.974	20206
815.115	20298
815.256	20134
815.397	20054
815.539	20130
815.68	20046
815.821	19928
815.962	19932
816.103	19986
816.244	19871
816.385	19738
816.526	19609
816.666	19616
816.807	19358
816.948	19449
817.089	19472
817.23	19419
817.371	19430
817.512	19403
817.653	19419
817.793	19381
817.934	19449
818.075	19384
818.216	19324
818.356	19346
818.497	19221
818.638	19091
818.778	19065
818.919	19008
819.06	19156
819.2	19247
819.341	19232
819.481	19255
819.622	19445
819.762	19597
819.903	19468
820.043	19472
820.184	19388
820.324	19422
820.465	19285
820.605	19346
820.746	19308
820.886	19240
821.026	19343
821.167	19297
821.307	19445
821.447	19270
821.588	19114
821.728	19076
821.868	18795
822.008	18768
822.149	18684
822.289	18738
822.429	18471
822.569	18433
822.709	18414
822.849	18239
822.99	18216
823.13	18232
823.27	18171
823.41	18038
823.55	18022
823.69	18015
823.83	18140
823.97	18003
824.11	17843
824.25	17779
824.389	17859
824.529	17973
824.669	17870
824.809	17935
824.949	17977
825.089	18015
825.228	17824
825.368	17649
825.508	17539
825.648	17691
825.787	17691
825.927	17714
826.067	17630
826.206	17558
826.346	17733
826.485	17562
826.625	17570
826.765	17745
826.904	17684
827.044	17311
827.183	17478
827.323	17204
827.462	17493
827.601	17208
827.741	17258
827.88	17326
828.02	17242
828.159	17299
828.298	17315
828.437	17353
828.577	17254
828.716	17372
828.855	17216
828.994	17090
829.134	17102
829.273	17071
829.412	17033
829.551	16999
829.69	17102
829.829	16980
829.968	17140
830.107	17159
830.246	17090
830.385	17014
830.524	16984
830.663	16953
830.802	16816
830.941	16672
831.08	16672
831.219	16679
831.357	16698
831.496	16961
831.635	16698
831.774	16672
831.913	16584
832.051	16493
832.19	16466
832.329	16493
832.467	16272
832.606	16344
832.744	16337
832.883	16325
833.022	16295
833.16	16371
833.299	16356
833.437	16360
833.576	16390
833.714	16447
833.852	16409
833.991	16337
834.129	16440
834.267	16596
834.406	16390
834.544	16478
834.682	16474
834.821	16440
834.959	16607
835.097	16436
835.235	16535
835.373	16382
835.511	16455
835.65	16386
835.788	16367
835.926	16265
836.064	16105
836.202	16158
836.34	16386
836.478	16344
836.615	16253
836.753	16428
836.891	16421
837.029	16436
837.167	16299
837.305	16382
837.443	16390
837.58	16276
837.718	16253
837.856	16299
837.993	16135
838.131	16128
838.269	16124
838.406	16162
838.544	16124
838.681	15880
838.819	15838
838.956	15789
839.094	15854
839.231	15762
839.369	15934
839.506	16211
839.643	15983
839.781	15983
839.918	15686
840.055	15793
840.193	15736
840.33	15736
840.467	15842
840.604	15720
840.742	16002
840.879	15622
841.016	15629
841.153	15679
841.29	15873
841.427	15816
841.564	15827
841.701	15739
841.838	15709
841.975	15682
842.112	15774
842.249	15671
842.385	15507
842.522	15690
842.659	15629
842.796	15561
842.933	15538
843.069	15511
843.206	15530
843.343	15591
843.479	15519
843.616	15580
843.752	15401
843.889	15332
844.025	15469
844.162	15340
844.298	15561
844.435	15306
844.571	15287
844.708	15435
844.844	15481
844.98	15492
845.117	15431
845.253	15386
845.389	15249
845.525	15332
845.661	15237
845.798	15142
845.934	15119
846.07	15119
846.206	15150
846.342	15268
846.478	15150
846.614	14948
846.75	14842
846.886	14796
847.022	15036
847.158	14880
847.294	14975
847.429	14948
847.565	14910
847.701	15112
847.837	14606
847.972	14568
848.108	14705
848.244	14800
848.379	14511
848.515	14560
848.65	14473
848.786	14530
848.921	14579
849.057	14625
849.192	14655
849.328	14651
849.463	14511
849.598	14476
849.734	14442
849.869	14336
850.004	14343
850.14	14294
850.275	14332
850.41	14256
850.545	14161
850.68	14301
850.815	14324
850.95	14275
851.085	14545
851.22	14431
851.355	14294
851.49	14355
851.625	14305
851.76	14256
851.895	14172
852.03	14126
852.165	14290
852.299	14244
852.434	14396
852.569	14336
852.703	14313
852.838	14446
852.973	14454
853.107	14469
853.242	14233
853.376	14153
853.511	14077
853.645	14103
853.78	14282
853.914	14256
854.048	14176
854.183	14130
854.317	14111
854.451	14385
854.585	14164
854.72	14183
854.854	14214
854.988	14062
855.122	14123
855.256	14001
855.39	14149
855.524	14324
855.658	14199
855.792	14134
855.926	14252
856.06	14256
856.194	14294
856.327	14248
856.461	14180
856.595	14153
856.729	14237
856.862	14313
856.996	14225
857.13	14202
857.263	14317
857.397	14229
857.53	14157
857.664	14278
857.797	14240
857.931	14389
858.064	14237
858.197	14305
858.331	14259
858.464	14092
858.597	14123
858.731	14119
858.864	14149
858.997	14157
859.13	14233
859.263	14176
859.396	14244
859.529	14180
859.662	14088
859.795	14206
859.928	14240
860.061	14336
860.194	14381
860.327	14225
860.46	14153
860.592	14286
860.725	14332
860.858	14393
860.99	14149
861.123	14096
861.256	14134
861.388	14153
861.521	14914
861.653	14138
861.786	14046
861.918	14039
862.05	14065
862.183	14161
862.315	14240
862.447	14263
862.58	14092
862.712	14027
862.844	13967
862.976	14039
863.108	14027
863.24	14339
863.372	13909
863.504	13970
863.636	13997
863.768	14020
863.9	13982
864.032	13868
864.164	13917
864.296	13932
864.428	14012
864.559	14073
864.691	14111
864.823	14065
864.954	13940
865.086	13970
865.217	13871
865.349	13788
865.48	13879
865.612	13936
865.743	14062
865.875	13925
866.006	13947
866.137	14005
866.269	13944
866.4	13932
866.531	13902
866.662	13814
866.793	13898
866.924	13898
867.055	13955
867.186	13936
867.317	13917
867.448	13807
867.579	13917
867.71	13788
867.841	13883
867.972	13925
868.103	13944
868.233	13967
868.364	14008
868.495	14008
868.625	14130
868.756	14339
868.886	14115
869.017	14237
869.147	14275
869.278	14290
869.408	14168
869.539	14229
869.669	14328
869.799	14240
869.929	14355
870.06	14164
870.19	14511
870.32	14507
870.45	14480
870.58	14625
870.71	14765
870.84	14727
870.97	14552
871.1	14461
871.23	14788
871.36	14811
871.489	14705
871.619	14739
871.749	14823
871.879	14864
872.008	14883
872.138	14788
872.267	14667
872.397	14613
872.526	14651
872.656	14724
872.785	14674
872.915	14883
873.044	14925
873.173	14735
873.303	14857
873.432	14876
873.561	14868
873.69	15009
873.819	14853
873.948	14895
874.077	14849
874.206	14861
874.335	14906
874.464	15020
874.593	15199
874.722	15032
874.851	15169
874.979	15173
875.108	15294
875.237	15135
875.365	15047
875.494	15097
875.623	15249
875.751	15074
875.88	15279
876.008	15336
876.136	15359
876.265	15644
876.393	15732
876.521	15751
876.65	15576
876.778	15610
876.906	15572
877.034	15538
877.162	15542
877.29	15568
877.418	15660
877.546	15641
877.674	15641
877.802	15568
877.93	15568
878.058	15587
878.185	15481
878.313	15610
878.441	15629
878.568	15447
878.696	15477
878.824	15599
878.951	15682
879.079	15724
879.206	16010
879.333	15804
879.461	15713
879.588	15766
879.715	15873
879.842	15842
879.97	15568
880.097	15382
880.224	15340
880.351	15469
880.478	15534
880.605	15428
880.732	15481
880.859	15709
880.986	15416
881.112	15561
881.239	15332
881.366	15233
881.493	15256
881.619	15077
881.746	15097
881.872	15135
881.999	15100
882.125	15028
882.252	15146
882.378	15097
882.505	15306
882.631	15043
882.757	14895
882.883	14990
883.01	14986
883.136	15028
883.262	14823
883.388	14804
883.514	14960
883.64	14963
883.766	14849
883.892	14727
884.018	14785
884.143	14895
884.269	15001
884.395	14693
884.52	14689
884.646	14598
884.772	14514
884.897	14484
885.023	14629
885.148	14659
885.274	14823
885.399	14823
885.524	14659
885.65	14587
885.775	14682
885.9	14667
886.025	14705
886.15	14724
886.275	14629
886.4	14530
886.525	14598
886.65	14564
886.775	14526
886.9	14762
887.025	14842
887.149	14613
887.274	14427
887.399	14419
887.523	14415
887.648	14454
887.773	14324
887.897	14511
888.021	14465
888.146	14434
888.27	14564
888.395	14610
888.519	14511
888.643	14484
888.767	14499
888.891	14415
889.015	14267
889.139	14415
889.263	14278
889.387	14450
889.511	14446
889.635	14355
889.759	14301
889.883	14286
890.006	14294
890.13	14503
890.254	14240
890.377	14317
890.501	14195
890.624	14142
890.748	14195
890.871	14062
890.995	13974
891.118	13974
891.241	13970
891.364	14039
891.488	14138
891.611	13959
891.734	13944
891.857	14161
891.98	14065
892.103	14103
892.226	13993
892.349	13906
892.471	13833
892.594	13936
892.717	14035
892.839	14050
892.962	14062
893.085	14054
893.207	14084
893.33	13849
893.452	14012
893.575	14096
893.697	13951
893.819	14164
893.941	14161
894.064	14206
894.186	13959
894.308	13989
894.43	14123
894.552	14134
894.674	14195
894.796	14031
894.918	14096
895.04	14050
895.161	14176
895.283	14157
895.405	13993
895.526	14100
895.648	14142
895.769	14149
895.891	14229
896.012	14256
896.134	14221
896.255	14248
896.376	14161
896.498	14210
896.619	14237
896.74	14271
896.861	14248
896.982	14537
897.103	14708
897.224	14469
897.345	14404
897.466	14320
897.587	14465
897.708	14663
897.828	14434
897.949	14408
898.07	14362
898.19	14533
898.311	14476
898.431	14533
898.552	14537
898.672	14686
898.792	14598
898.913	14579
899.033	14473
899.153	14434
899.273	14377
899.393	14263
899.513	14393
899.633	14484
899.753	14427
899.873	14362
899.993	14457
900.113	14415
900.232	14396
900.352	14355
900.472	14324
900.591	14218
900.711	14336
900.83	14248
900.95	14374
901.069	14362
901.189	14271
901.308	13955
901.427	13936
901.546	13967
901.665	14024
901.784	13940
901.904	13856
902.023	13776
902.141	13559
902.26	13571
902.379	13597
902.498	13510
902.617	13419
902.735	13605
902.854	13415
902.973	13415
903.091	13160
903.21	13232
903.328	13263
903.446	13179
903.565	13152
903.683	13122
903.801	12993
903.919	13107
904.038	12954
904.156	12947
904.274	12890
904.392	12878
904.51	12909
904.627	12837
904.745	12863
904.863	12973
904.981	12738
905.098	12627
905.216	12665
905.334	12646
905.451	12604
905.569	12563
905.686	12604
905.803	12597
905.921	12388
906.038	12517
906.155	12441
906.272	12338
906.389	12273
906.506	12144
906.623	12190
906.74	12155
906.857	12087
906.974	12102
907.091	12262
907.208	12330
907.324	12197
907.441	12060
907.557	11942
907.674	11942
907.79	11931
907.907	11935
908.023	11946
908.139	11920
908.256	11904
908.372	11901
908.488	11805
908.604	11688
908.72	11722
908.836	11733
908.952	11615
909.068	11733
909.184	11843
909.3	11703
909.415	11733
909.531	11638
909.647	11474
909.762	11535
909.878	11429
909.993	11551
910.108	11497
910.224	11440
910.339	11562
910.454	11269
910.57	11345
910.685	11181
910.8	11474
910.915	11516
911.03	11326
911.145	11227
911.259	11235
911.374	11128
911.489	11102
911.604	11006
911.718	10915
911.833	10923
911.947	10801
912.062	10782
912.176	11003
912.291	10881
912.405	10942
912.519	11143
912.633	11155
912.748	10987
912.862	10930
912.976	10866
913.09	10691
913.204	10706
913.318	10835
913.431	10839
913.545	10911
913.659	10942
913.772	10847
913.886	10698
914	10729
914.113	10733
914.226	10797
914.34	10790
914.453	10554
914.566	10805
914.68	10561
914.793	10664
914.906	10440
915.019	10333
915.132	10310
915.245	10382
915.358	10489
915.47	10424
915.583	10424
915.696	10497
915.809	10577
915.921	10588
916.034	10398
916.146	10424
916.259	10341
916.371	10474
916.483	10417
916.595	10344
916.708	10344
916.82	10360
916.932	10325
917.044	10303
917.156	10299
917.268	10207
917.38	10253
917.491	10230
917.603	10280
917.715	10318
917.826	10382
917.938	10322
918.049	10169
918.161	10348
918.272	10421
918.384	10287
918.495	10371
918.606	10188
918.717	10109
918.828	10128
918.939	10071
919.05	10059
919.161	10257
919.272	9949
919.383	10025
919.494	10238
919.604	10398
919.715	10192
919.826	10090
919.936	10116
920.047	10242
920.157	10234
920.267	10409
920.378	10192
920.488	10249
920.598	10390
920.708	10550
920.818	10390
920.928	10436
921.038	10588
921.148	10558
921.258	10227
921.368	10147
921.477	10040
921.587	10032
921.697	9880
921.806	10109
921.916	9934
922.025	9800
922.134	9755
922.244	9728
922.353	9842
922.462	9595
922.571	9561
922.68	9496
922.789	9443
922.898	9526
923.007	9431
923.116	9496
923.224	9538
923.333	9447
923.442	9359
923.55	9344
923.659	9397
923.767	9473
923.876	9264
923.984	9405
924.092	9272
924.201	9298
924.309	9313
924.417	9336
924.525	9306
924.633	9253
924.741	10223
924.849	9150
924.956	9264
925.064	9112
925.172	8986
925.279	9066
925.387	9154
925.494	9112
925.602	9222
925.709	9173
925.816	9036
925.924	9108
926.031	9116
926.138	9100
926.245	9176
926.352	9051
926.459	9161
926.566	9230
926.673	9097
926.779	8986
926.886	8937
926.993	8864
927.099	8880
927.206	8743
927.312	8781
927.419	8842
927.525	8792
927.631	8929
927.737	8697
927.843	8651
927.95	8575
928.056	8625
928.162	8727
928.267	8743
928.373	9275
928.479	8868
928.585	8629
928.69	8705
928.796	8716
928.901	8632
929.007	8461
929.112	8625
929.218	8571
929.323	8583
929.428	8469
929.533	8648
929.638	8488
929.743	8511
929.848	8610
929.953	8518
930.058	8423
930.163	8298
930.267	8275
930.372	8446
930.477	8259
930.581	8564
930.685	8343
930.79	8240
930.894	8225
930.998	8259
931.103	8385
931.207	8088
931.311	7997
931.415	7967
931.519	7746
931.623	7750
