Data from test_V78500241_1649.txt Node
Date: Fri Mar 25 14:45:11 CST 2022
User: usil
Spectrometer: V785-0024
Trigger mode: 0
Integration Time (sec): 4.000000E-1
Scans to average: 1
Nonlinearity correction enabled: false
Boxcar width: 0
Storing dark spectrum: false
XAxis mode: Wavelengths
Number of Pixels in Spectrum: 1024
>>>>>Begin Spectral Data<<<<<
801.071	22287
801.214	22131
801.356	21960
801.499	21797
801.641	21751
801.783	21622
801.926	21603
802.068	21511
802.211	21557
802.353	21443
802.496	21237
802.638	21138
802.78	21252
802.923	21077
803.065	21039
803.208	20994
803.35	20971
803.492	21039
803.635	21131
803.777	21074
803.919	21036
804.061	21355
804.204	20986
804.346	20979
804.488	20883
804.63	21036
804.773	20975
804.915	20921
805.057	21013
805.199	20982
805.341	20967
805.483	21005
805.626	21058
805.768	20948
805.91	20944
806.052	20933
806.194	20880
806.336	20975
806.478	20887
806.62	21028
806.762	20952
806.904	21135
807.046	21317
807.188	21268
807.33	21233
807.472	21317
807.614	21226
807.756	21260
807.898	21135
808.04	20994
808.182	21028
808.324	21165
808.465	21150
808.607	21173
808.749	21519
808.891	21515
809.033	21477
809.174	21488
809.316	21386
809.458	21439
809.6	21348
809.741	21443
809.883	21370
810.025	21580
810.166	21481
810.308	21538
810.45	21450
810.591	21405
810.733	21279
810.875	21226
811.016	21039
811.158	21070
811.299	21127
811.441	21207
811.582	21218
811.724	21081
811.865	21142
812.007	20971
812.148	20998
812.29	21108
812.431	21302
812.573	21431
812.714	21545
812.855	21488
812.997	21720
813.138	21770
813.279	21644
813.421	21633
813.562	21500
813.703	21424
813.845	21203
813.986	21089
814.127	20788
814.268	20769
814.41	20613
814.551	20530
814.692	20705
814.833	20587
814.974	20621
815.115	20609
815.256	20465
815.397	20552
815.539	20404
815.68	20347
815.821	20381
815.962	20594
816.103	20282
816.244	20286
816.385	20111
816.526	20107
816.666	19887
816.807	19875
816.948	19868
817.089	19868
817.23	19928
817.371	19788
817.512	19833
817.653	19757
817.793	19681
817.934	19772
818.075	19871
818.216	19826
818.356	19658
818.497	19632
818.638	19403
818.778	19605
818.919	19457
819.06	19472
819.2	19624
819.341	19628
819.481	19662
819.622	19734
819.762	20016
819.903	19909
820.043	19879
820.184	19803
820.324	19742
820.465	19803
820.605	19731
820.746	19742
820.886	19655
821.026	19712
821.167	19700
821.307	19742
821.447	19738
821.588	19601
821.728	19487
821.868	19373
822.008	19156
822.149	19118
822.289	19126
822.429	18977
822.569	18760
822.709	18993
822.849	18741
822.99	18677
823.13	18631
823.27	18681
823.41	18471
823.55	18281
823.69	18471
823.83	18483
823.97	18357
824.11	18304
824.25	18239
824.389	18235
824.529	18281
824.669	18228
824.809	18346
824.949	18323
825.089	18167
825.228	18285
825.368	18026
825.508	18049
825.648	18007
825.787	18140
825.927	17996
826.067	17950
826.206	17927
826.346	18041
826.485	18045
826.625	18015
826.765	18034
826.904	18007
827.044	17729
827.183	17764
827.323	17726
827.462	17916
827.601	17653
827.741	17623
827.88	17653
828.02	17604
828.159	17710
828.298	17649
828.437	17756
828.577	17642
828.716	17764
828.855	17512
828.994	17444
829.134	17501
829.273	17463
829.412	17395
829.551	17284
829.69	17452
829.829	17429
829.968	17478
830.107	17493
830.246	17425
830.385	17372
830.524	17360
830.663	17258
830.802	17124
830.941	17124
831.08	16999
831.219	17140
831.357	17102
831.496	17280
831.635	17018
831.774	17022
831.913	16923
832.051	16831
832.19	16934
832.329	16949
832.467	16782
832.606	16755
832.744	16698
832.883	16710
833.022	16740
833.16	16744
833.299	16809
833.437	16877
833.576	16744
833.714	16710
833.852	16835
833.991	16801
834.129	16869
834.267	16797
834.406	16816
834.544	16949
834.682	16839
834.821	16873
834.959	16900
835.097	16755
835.235	16877
835.373	16828
835.511	16778
835.65	16694
835.788	16664
835.926	16462
836.064	16542
836.202	16542
836.34	16607
836.478	16831
836.615	16641
836.753	16592
836.891	16824
837.029	16755
837.167	16668
837.305	16535
837.443	16417
837.58	16546
837.718	16558
837.856	16607
837.993	16462
838.131	16607
838.269	16436
838.406	16417
838.544	16474
838.681	16268
838.819	16204
838.956	16032
839.094	16097
839.231	16120
839.369	16257
839.506	16516
839.643	16356
839.781	16063
839.918	16048
840.055	16097
840.193	16147
840.33	16013
840.467	16029
840.604	16185
840.742	16234
840.879	16063
841.016	16017
841.153	16097
841.29	16150
841.427	16051
841.564	16158
841.701	16040
841.838	16116
841.975	15937
842.112	15994
842.249	15865
842.385	15854
842.522	16040
842.659	15884
842.796	15804
842.933	15850
843.069	15899
843.206	15850
843.343	15979
843.479	15842
843.616	15854
843.752	15770
843.889	15720
844.025	15804
844.162	15701
844.298	15812
844.435	15652
844.571	15606
844.708	15732
844.844	15964
844.98	15709
845.117	15835
845.253	15610
845.389	15576
845.525	15610
845.661	15561
845.798	15526
845.934	15492
846.07	15481
846.206	15610
846.342	15572
846.478	15370
846.614	15298
846.75	15268
846.886	15176
847.022	15310
847.158	15127
847.294	15241
847.429	15222
847.565	15176
847.701	15622
847.837	14994
847.972	14971
848.108	15051
848.244	15112
848.379	14864
848.515	14842
848.65	14773
848.786	14815
848.921	14826
849.057	15001
849.192	14902
849.328	14880
849.463	14830
849.598	14807
849.734	14705
849.869	14617
850.004	14610
850.14	14659
850.275	14541
850.41	14590
850.545	14480
850.68	14632
850.815	14507
850.95	14488
851.085	14781
851.22	14686
851.355	14613
851.49	14594
851.625	14492
851.76	14545
851.895	14511
852.03	14396
852.165	14594
852.299	14541
852.434	14632
852.569	14670
852.703	14625
852.838	14621
852.973	14861
853.107	14842
853.242	14465
853.376	14583
853.511	14320
853.645	14336
853.78	14594
853.914	14461
854.048	14518
854.183	14427
854.317	14488
854.451	14621
854.585	14450
854.72	14419
854.854	14564
854.988	14461
855.122	14423
855.256	14431
855.39	14381
855.524	14492
855.658	14503
855.792	14564
855.926	14556
856.06	14549
856.194	14564
856.327	14412
856.461	14396
856.595	14442
856.729	14332
856.862	14476
856.996	14537
857.13	14613
857.263	14545
857.397	14579
857.53	14415
857.664	14423
857.797	14587
857.931	14476
858.064	14499
858.197	14533
858.331	14511
858.464	14499
858.597	14320
858.731	14431
858.864	14396
858.997	14393
859.13	14533
859.263	14511
859.396	14632
859.529	14476
859.662	14484
859.795	14385
859.928	14526
860.061	14636
860.194	14625
860.327	14514
860.46	14530
860.592	14450
860.725	14613
860.858	14461
860.99	14511
861.123	14343
861.256	14377
861.388	14457
861.521	15062
861.653	14423
861.786	14347
861.918	14271
862.05	14454
862.183	14457
862.315	14423
862.447	14488
862.58	14358
862.712	14206
862.844	14248
862.976	14343
863.108	14252
863.24	14598
863.372	14206
863.504	14172
863.636	14225
863.768	14362
863.9	14309
864.032	14149
864.164	14180
864.296	14199
864.428	14343
864.559	14237
864.691	14339
864.823	14328
864.954	14282
865.086	14267
865.217	14214
865.349	14145
865.48	14240
865.612	14275
865.743	14347
865.875	14176
866.006	14263
866.137	14187
866.269	14278
866.4	14183
866.531	14195
866.662	14100
866.793	14168
866.924	14191
867.055	14240
867.186	14214
867.317	14180
867.448	14172
867.579	14073
867.71	14107
867.841	14100
867.972	14199
868.103	14191
868.233	14157
868.364	14290
868.495	14347
868.625	14431
868.756	14533
868.886	14393
869.017	14461
869.147	14545
869.278	14518
869.408	14465
869.539	14431
869.669	14488
869.799	14564
869.929	14514
870.06	14488
870.19	14762
870.32	14807
870.45	14739
870.58	14918
870.71	14952
870.84	15017
870.97	14933
871.1	14735
871.23	15081
871.36	15097
871.489	14952
871.619	14990
871.749	14921
871.879	15009
872.008	15108
872.138	15047
872.267	15028
872.397	14872
872.526	14891
872.656	14895
872.785	15009
872.915	15135
873.044	15150
873.173	15097
873.303	15173
873.432	15013
873.561	15150
873.69	15135
873.819	15074
873.948	15192
874.077	15169
874.206	15062
874.335	15127
874.464	15218
874.593	15435
874.722	15344
874.851	15462
874.979	15389
875.108	15519
875.237	15363
875.365	15359
875.494	15367
875.623	15496
875.751	15370
875.88	15408
876.008	15542
876.136	15701
876.265	15759
876.393	15911
876.521	15823
876.65	15816
876.778	15873
876.906	15884
877.034	15739
877.162	15785
877.29	15724
877.418	15869
877.546	15747
877.674	15778
877.802	15869
877.93	15800
878.058	15785
878.185	15701
878.313	15717
878.441	15911
878.568	15732
878.696	15770
878.824	15968
878.951	15956
879.079	16013
879.206	16090
879.333	16116
879.461	15915
879.588	15968
879.715	16010
879.842	16139
879.97	15895
880.097	15587
880.224	15717
880.351	15759
880.478	15789
880.605	15690
880.732	15724
880.859	15926
880.986	15759
881.112	15694
881.239	15450
881.366	15435
881.493	15447
881.619	15325
881.746	15348
881.872	15310
881.999	15321
882.125	15325
882.252	15348
882.378	15424
882.505	15443
882.631	15287
882.757	15123
882.883	15268
883.01	15146
883.136	15207
883.262	14994
883.388	14979
883.514	15279
883.64	15188
883.766	15093
883.892	14918
884.018	14979
884.143	15211
884.269	15184
884.395	14925
884.52	14807
884.646	14883
884.772	14788
884.897	14689
885.023	14880
885.148	14883
885.274	15017
885.399	14967
885.524	14864
885.65	14876
885.775	14845
885.9	14811
886.025	15017
886.15	14914
886.275	14853
886.4	14735
886.525	14838
886.65	14807
886.775	14769
886.9	14937
887.025	15066
887.149	14883
887.274	14781
887.399	14659
887.523	14693
887.648	14556
887.773	14648
887.897	14773
888.021	14701
888.146	14644
888.27	14845
888.395	14739
888.519	14708
888.643	14735
888.767	14800
888.891	14560
889.015	14518
889.139	14571
889.263	14518
889.387	14648
889.511	14815
889.635	14606
889.759	14492
889.883	14507
890.006	14564
890.13	14613
890.254	14438
890.377	14617
890.501	14366
890.624	14396
890.748	14442
890.871	14324
890.995	14244
891.118	14172
891.241	14286
891.364	14176
891.488	14396
891.611	14324
891.734	14225
891.857	14317
891.98	14282
892.103	14336
892.226	14252
892.349	14320
892.471	14046
892.594	14210
892.717	14294
892.839	14240
892.962	14195
893.085	14317
893.207	14214
893.33	14054
893.452	14149
893.575	14244
893.697	14176
893.819	14450
893.941	14374
894.064	14381
894.186	14214
894.308	14286
894.43	14347
894.552	14495
894.674	14408
894.796	14305
894.918	14290
895.04	14294
895.161	14393
895.283	14389
895.405	14275
895.526	14343
895.648	14446
895.769	14404
895.891	14343
896.012	14446
896.134	14423
896.255	14317
896.376	14408
896.498	14355
896.619	14469
896.74	14419
896.861	14457
896.982	14743
897.103	14906
897.224	14739
897.345	14621
897.466	14495
897.587	14716
897.708	14826
897.828	14697
897.949	14727
898.07	14507
898.19	14613
898.311	14811
898.431	14621
898.552	14762
898.672	14857
898.792	14804
898.913	14792
899.033	14678
899.153	14560
899.273	14526
899.393	14598
899.513	14655
899.633	14552
899.753	14689
899.873	14564
899.993	14811
900.113	14568
900.232	14644
900.352	14590
900.472	14549
900.591	14404
900.711	14530
900.83	14408
900.95	14617
901.069	14583
901.189	14465
901.308	14214
901.427	14168
901.546	14145
901.665	14187
901.784	14138
901.904	14024
902.023	13917
902.141	13791
902.26	13742
902.379	13780
902.498	13734
902.617	13643
902.735	13731
902.854	13655
902.973	13685
903.091	13499
903.21	13441
903.328	13449
903.446	13430
903.565	13263
903.683	13270
903.801	13228
903.919	13289
904.038	13255
904.156	13072
904.274	13206
904.392	13213
904.51	13015
904.627	13072
904.745	13175
904.863	13168
904.981	12829
905.098	12787
905.216	12821
905.334	12871
905.451	12817
905.569	12707
905.686	12837
905.803	12749
905.921	12585
906.038	12654
906.155	12582
906.272	12544
906.389	12570
906.506	12388
906.623	12270
906.74	12403
906.857	12277
906.974	12319
907.091	12407
907.208	12418
907.324	12399
907.441	12285
907.557	12098
907.674	12239
907.79	12083
907.907	12144
908.023	12197
908.139	12079
908.256	12038
908.372	12057
908.488	12022
908.604	11882
908.72	11767
908.836	11988
908.952	11805
909.068	11878
909.184	12057
909.3	11939
909.415	11920
909.531	11855
909.647	11649
909.762	11680
909.878	11554
909.993	11653
910.108	11688
910.224	11630
910.339	11676
910.454	11585
910.57	11452
910.685	11417
910.8	11688
910.915	11627
911.03	11455
911.145	11349
911.259	11284
911.374	11349
911.489	11265
911.604	11258
911.718	11086
911.833	11185
911.947	10987
912.062	10915
912.176	11006
912.291	11105
912.405	11109
912.519	11269
912.633	11269
912.748	11212
912.862	11056
912.976	10968
913.09	10835
913.204	10889
913.318	10980
913.431	11045
913.545	11064
913.659	11121
913.772	10995
913.886	10889
914	10820
914.113	10889
914.226	10946
914.34	11006
914.453	10828
914.566	10923
914.68	10710
914.793	10801
914.906	10649
915.019	10592
915.132	10535
915.245	10596
915.358	10561
915.47	10596
915.583	10603
915.696	10733
915.809	10664
915.921	10729
916.034	10538
916.146	10542
916.259	10493
916.371	10546
916.483	10607
916.595	10561
916.708	10542
916.82	10470
916.932	10519
917.044	10538
917.156	10481
917.268	10382
917.38	10459
917.491	10405
917.603	10356
917.715	10592
917.826	10523
917.938	10394
918.049	10261
918.161	10341
918.272	10565
918.384	10432
918.495	10493
918.606	10303
918.717	10185
918.828	10314
918.939	10348
919.05	10196
919.161	10227
919.272	10135
919.383	10265
919.494	10325
919.604	10561
919.715	10314
919.826	10257
919.936	10265
920.047	10344
920.157	10322
920.267	10519
920.378	10325
920.488	10306
920.598	10565
920.708	10656
920.818	10424
920.928	10542
921.038	10721
921.148	10641
921.258	10322
921.368	10352
921.477	10219
921.587	10169
921.697	10112
921.806	10166
921.916	10029
922.025	9945
922.134	9854
922.244	9762
922.353	9930
922.462	9827
922.571	9663
922.68	9481
922.789	9473
922.898	9504
923.007	9538
923.116	9603
923.224	9568
923.333	9549
923.442	9504
923.55	9443
923.659	9424
923.767	9492
923.876	9378
923.984	9549
924.092	9355
924.201	9458
924.309	9401
924.417	9435
924.525	9344
924.633	9431
924.741	10090
924.849	9165
924.956	9424
925.064	9203
925.172	9100
925.279	9093
925.387	9195
925.494	9245
925.602	9363
925.709	9317
925.816	9157
925.924	9233
926.031	9260
926.138	9184
926.245	9310
926.352	9180
926.459	9218
926.566	9340
926.673	9226
926.779	9047
926.886	9081
926.993	8883
927.099	8937
927.206	8842
927.312	8960
927.419	8998
927.525	8952
927.631	8899
927.737	8861
927.843	8853
927.95	8712
928.056	8815
928.162	8773
928.267	8986
928.373	9386
928.479	8853
928.585	8610
928.69	8868
928.796	8853
928.901	8693
929.007	8610
929.112	8727
929.218	8697
929.323	8625
929.428	8606
929.533	8766
929.638	8636
929.743	8632
929.848	8689
929.953	8606
930.058	8552
930.163	8415
930.267	8396
930.372	8579
930.477	8438
930.581	8659
930.685	8492
930.79	8358
930.894	8351
930.998	8393
931.103	8419
931.207	8107
931.311	8107
931.415	7993
931.519	7887
931.623	7818
