Data from test_V78500241_2785.txt Node
Date: Fri Mar 25 14:53:06 CST 2022
User: usil
Spectrometer: V785-0024
Trigger mode: 0
Integration Time (sec): 4.000000E-1
Scans to average: 1
Nonlinearity correction enabled: false
Boxcar width: 0
Storing dark spectrum: false
XAxis mode: Wavelengths
Number of Pixels in Spectrum: 1024
>>>>>Begin Spectral Data<<<<<
801.071	22002
801.214	21987
801.356	21530
801.499	21629
801.641	21466
801.783	21359
801.926	21389
802.068	21393
802.211	21291
802.353	21195
802.496	21062
802.638	20929
802.78	20804
802.923	20830
803.065	20655
803.208	20701
803.35	20743
803.492	20731
803.635	20963
803.777	20773
803.919	20758
804.061	21127
804.204	20777
804.346	20598
804.488	20552
804.63	20724
804.773	20442
804.915	20617
805.057	20758
805.199	20484
805.341	20632
805.483	20636
805.626	20682
805.768	20545
805.91	20644
806.052	20594
806.194	20613
806.336	20826
806.478	20644
806.62	20492
806.762	20754
806.904	20853
807.046	21070
807.188	21028
807.33	20887
807.472	20990
807.614	20937
807.756	20819
807.898	20762
808.04	20724
808.182	20670
808.324	20716
808.465	20568
808.607	20918
808.749	21070
808.891	21108
809.033	21146
809.174	21089
809.316	20998
809.458	21036
809.6	21005
809.741	20990
809.883	21051
810.025	21108
810.166	21043
810.308	21138
810.45	21100
810.591	20929
810.733	20929
810.875	20788
811.016	20781
811.158	20712
811.299	20716
811.441	20796
811.582	20880
811.724	20830
811.865	20731
812.007	20594
812.148	20739
812.29	20800
812.431	20914
812.573	20990
812.714	21074
812.855	21298
812.997	21408
813.138	21443
813.279	21405
813.421	21298
813.562	21131
813.703	20948
813.845	20944
813.986	20598
814.127	20476
814.268	20317
814.41	20358
814.551	20362
814.692	20275
814.833	20301
814.974	20248
815.115	20347
815.256	20103
815.397	20161
815.539	20199
815.68	20138
815.821	19932
815.962	20161
816.103	20035
816.244	19871
816.385	19803
816.526	19746
816.666	19578
816.807	19441
816.948	19578
817.089	19651
817.23	19544
817.371	19491
817.512	19400
817.653	19491
817.793	19407
817.934	19510
818.075	19525
818.216	19480
818.356	19415
818.497	19350
818.638	19122
818.778	19065
818.919	19175
819.06	19046
819.2	19320
819.341	19263
819.481	19373
819.622	19415
819.762	19689
819.903	19578
820.043	19502
820.184	19434
820.324	19365
820.465	19472
820.605	19411
820.746	19499
820.886	19221
821.026	19400
821.167	19274
821.307	19460
821.447	19445
821.588	19266
821.728	19171
821.868	18981
822.008	18844
822.149	18764
822.289	18802
822.429	18559
822.569	18483
822.709	18536
822.849	18304
822.99	18342
823.13	18330
823.27	18220
823.41	18205
823.55	18045
823.69	18171
823.83	18072
823.97	18102
824.11	17931
824.25	17843
824.389	17851
824.529	17920
824.669	17794
824.809	17893
824.949	17992
825.089	17923
825.228	18003
825.368	17676
825.508	17714
825.648	17760
825.787	17699
825.927	17760
826.067	17718
826.206	17638
826.346	17680
826.485	17760
826.625	17649
826.765	17885
826.904	17649
827.044	17589
827.183	17493
827.323	17360
827.462	17421
827.601	17455
827.741	17372
827.88	17440
828.02	17197
828.159	17334
828.298	17288
828.437	17501
828.577	17379
828.716	17482
828.855	17258
828.994	17280
829.134	17246
829.273	17147
829.412	17113
829.551	17094
829.69	17140
829.829	17056
829.968	17155
830.107	17204
830.246	17147
830.385	17208
830.524	16957
830.663	16911
830.802	16831
830.941	16713
831.08	16694
831.219	16752
831.357	16797
831.496	16980
831.635	16729
831.774	16622
831.913	16668
832.051	16508
832.19	16531
832.329	16500
832.467	16363
832.606	16451
832.744	16363
832.883	16344
833.022	16424
833.16	16436
833.299	16500
833.437	16390
833.576	16569
833.714	16390
833.852	16470
833.991	16527
834.129	16531
834.267	16440
834.406	16569
834.544	16546
834.682	16485
834.821	16409
834.959	16691
835.097	16466
835.235	16577
835.373	16466
835.511	16481
835.65	16337
835.788	16352
835.926	16352
836.064	16204
836.202	16337
836.34	16402
836.478	16497
836.615	16405
836.753	16440
836.891	16485
837.029	16447
837.167	16398
837.305	16249
837.443	16299
837.58	16265
837.718	16390
837.856	16356
837.993	16211
838.131	16310
838.269	16131
838.406	16249
838.544	16188
838.681	16044
838.819	15876
838.956	15915
839.094	15880
839.231	15922
839.369	15873
839.506	16253
839.643	15998
839.781	15812
839.918	15789
840.055	15838
840.193	15717
840.33	15797
840.467	15774
840.604	15903
840.742	16082
840.879	15652
841.016	15789
841.153	15747
841.29	15888
841.427	15823
841.564	15857
841.701	15918
841.838	15690
841.975	15804
842.112	15720
842.249	15713
842.385	15473
842.522	15797
842.659	15671
842.796	15622
842.933	15667
843.069	15496
843.206	15466
843.343	15705
843.479	15568
843.616	15591
843.752	15336
843.889	15458
844.025	15462
844.162	15359
844.298	15485
844.435	15397
844.571	15325
844.708	15382
844.844	15576
844.98	15595
845.117	15443
845.253	15386
845.389	15370
845.525	15370
845.661	15321
845.798	15119
845.934	15199
846.07	15207
846.206	15298
846.342	15283
846.478	15241
846.614	14982
846.75	14868
846.886	14956
847.022	14982
847.158	14979
847.294	14979
847.429	14998
847.565	15142
847.701	15294
847.837	14701
847.972	14678
848.108	14819
848.244	14785
848.379	14545
848.515	14549
848.65	14541
848.786	14613
848.921	14583
849.057	14651
849.192	14651
849.328	14545
849.463	14560
849.598	14556
849.734	14514
849.869	14366
850.004	14332
850.14	14438
850.275	14267
850.41	14244
850.545	14252
850.68	14324
850.815	14332
850.95	14320
851.085	14499
851.22	14442
851.355	14309
851.49	14336
851.625	14358
851.76	14317
851.895	14206
852.03	14244
852.165	14290
852.299	14419
852.434	14454
852.569	14427
852.703	14339
852.838	14480
852.973	14560
853.107	14370
853.242	14336
853.376	14225
853.511	14031
853.645	14191
853.78	14305
853.914	14199
854.048	14111
854.183	14195
854.317	14161
854.451	14362
854.585	14164
854.72	14107
854.854	14229
854.988	14103
855.122	14206
855.256	14157
855.39	14168
855.524	14263
855.658	14248
855.792	14199
855.926	14256
856.06	14180
856.194	14336
856.327	14180
856.461	14119
856.595	14153
856.729	14210
856.862	14252
856.996	14233
857.13	14294
857.263	14263
857.397	14294
857.53	14164
857.664	14218
857.797	14332
857.931	14457
858.064	14191
858.197	14355
858.331	14176
858.464	14240
858.597	14054
858.731	14252
858.864	14210
858.997	14187
859.13	14191
859.263	14229
859.396	14317
859.529	14199
859.662	14176
859.795	14248
859.928	14221
860.061	14366
860.194	14339
860.327	14111
860.46	14202
860.592	14328
860.725	14320
860.858	14332
860.99	14183
861.123	14043
861.256	14107
861.388	14195
861.521	14883
861.653	14218
861.786	14039
861.918	14111
862.05	14134
862.183	14123
862.315	14221
862.447	14271
862.58	14180
862.712	13982
862.844	13856
862.976	14058
863.108	14035
863.24	14541
863.372	13864
863.504	13970
863.636	14012
863.768	14001
863.9	14043
864.032	13928
864.164	14005
864.296	14069
864.428	14195
864.559	14065
864.691	14168
864.823	14065
864.954	14062
865.086	14043
865.217	14050
865.349	14012
865.48	14001
865.612	13993
865.743	14107
865.875	14005
866.006	14012
866.137	13967
866.269	14043
866.4	14031
866.531	13871
866.662	13993
866.793	14050
866.924	14001
867.055	14069
867.186	14115
867.317	14054
867.448	13986
867.579	13906
867.71	13868
867.841	13849
867.972	14008
868.103	14062
868.233	14058
868.364	14043
868.495	14191
868.625	14248
868.756	14313
868.886	14282
869.017	14218
869.147	14419
869.278	14412
869.408	14263
869.539	14210
869.669	14332
869.799	14374
869.929	14374
870.06	14400
870.19	14682
870.32	14507
870.45	14667
870.58	14663
870.71	14743
870.84	14716
870.97	14708
871.1	14625
871.23	14823
871.36	14845
871.489	14727
871.619	14952
871.749	14868
871.879	14918
872.008	15005
872.138	14853
872.267	14864
872.397	14724
872.526	14792
872.656	14708
872.785	14785
872.915	14864
873.044	14948
873.173	14956
873.303	14956
873.432	14906
873.561	15077
873.69	14834
873.819	14830
873.948	14975
874.077	15013
874.206	14891
874.335	14868
874.464	15047
874.593	15112
874.722	15264
874.851	15199
874.979	15268
875.108	15313
875.237	15157
875.365	15195
875.494	15237
875.623	15249
875.751	15245
875.88	15233
876.008	15344
876.136	15466
876.265	15629
876.393	15698
876.521	15663
876.65	15671
876.778	15701
876.906	15603
877.034	15610
877.162	15690
877.29	15656
877.418	15698
877.546	15690
877.674	15660
877.802	15656
877.93	15622
878.058	15614
878.185	15507
878.313	15656
878.441	15549
878.568	15545
878.696	15553
878.824	15762
878.951	15682
879.079	15747
879.206	15945
879.333	15842
879.461	15663
879.588	15713
879.715	15823
879.842	15930
879.97	15713
880.097	15587
880.224	15397
880.351	15614
880.478	15515
880.605	15504
880.732	15500
880.859	15584
880.986	15523
881.112	15466
881.239	15302
881.366	15363
881.493	15154
881.619	15116
881.746	15135
881.872	15199
881.999	15176
882.125	15112
882.252	15119
882.378	15233
882.505	15249
882.631	15146
882.757	15043
882.883	15097
883.01	15017
883.136	14956
883.262	14880
883.388	14811
883.514	14963
883.64	14918
883.766	14952
883.892	14823
884.018	14857
884.143	14998
884.269	15032
884.395	14746
884.52	14743
884.646	14735
884.772	14610
884.897	14590
885.023	14773
885.148	14765
885.274	14853
885.399	14769
885.524	14651
885.65	14739
885.775	14727
885.9	14697
886.025	14804
886.15	14746
886.275	14636
886.4	14564
886.525	14686
886.65	14575
886.775	14590
886.9	14743
887.025	14982
887.149	14640
887.274	14488
887.399	14541
887.523	14560
887.648	14358
887.773	14355
887.897	14533
888.021	14621
888.146	14454
888.27	14552
888.395	14712
888.519	14541
888.643	14484
888.767	14541
888.891	14495
889.015	14450
889.139	14301
889.263	14396
889.387	14450
889.511	14587
889.635	14568
889.759	14377
889.883	14457
890.006	14412
890.13	14454
890.254	14374
890.377	14324
890.501	14145
890.624	14164
890.748	14298
890.871	14161
890.995	14062
891.118	13974
891.241	14111
891.364	14058
891.488	14252
891.611	14073
891.734	14123
891.857	14077
891.98	14138
892.103	14183
892.226	14134
892.349	14012
892.471	13974
892.594	13963
892.717	14069
892.839	14081
892.962	14035
893.085	14168
893.207	14081
893.33	13898
893.452	13974
893.575	14115
893.697	14073
893.819	14286
893.941	14328
894.064	14157
894.186	14008
894.308	14073
894.43	14221
894.552	14347
894.674	14229
894.796	14001
894.918	14126
895.04	14046
895.161	14187
895.283	14191
895.405	14062
895.526	14187
895.648	14176
895.769	14282
895.891	14248
896.012	14263
896.134	14202
896.255	14225
896.376	14237
896.498	14206
896.619	14244
896.74	14210
896.861	14415
896.982	14533
897.103	14610
897.224	14533
897.345	14476
897.466	14419
897.587	14522
897.708	14461
897.828	14549
897.949	14438
898.07	14454
898.19	14450
898.311	14682
898.431	14461
898.552	14549
898.672	14663
898.792	14716
898.913	14640
899.033	14594
899.153	14492
899.273	14358
899.393	14454
899.513	14423
899.633	14541
899.753	14415
899.873	14377
899.993	14507
900.113	14473
900.232	14526
900.352	14423
900.472	14370
900.591	14278
900.711	14259
900.83	14221
900.95	14374
901.069	14492
901.189	14176
901.308	13970
901.427	14031
901.546	13955
901.665	14077
901.784	14043
901.904	13921
902.023	13769
902.141	13620
902.26	13563
902.379	13651
902.498	13590
902.617	13438
902.735	13613
902.854	13586
902.973	13449
903.091	13304
903.21	13270
903.328	13266
903.446	13137
903.565	13107
903.683	13149
903.801	13122
903.919	13110
904.038	13019
904.156	12947
904.274	13038
904.392	12837
904.51	12848
904.627	12856
904.745	12943
904.863	13038
904.981	12764
905.098	12707
905.216	12646
905.334	12639
905.451	12551
905.569	12574
905.686	12722
905.803	12677
905.921	12395
906.038	12502
906.155	12448
906.272	12372
906.389	12376
906.506	12235
906.623	12224
906.74	12197
906.857	12091
906.974	12228
907.091	12258
907.208	12376
907.324	12315
907.441	12144
907.557	11988
907.674	11999
907.79	11874
907.907	11904
908.023	11988
908.139	11988
908.256	11935
908.372	11859
908.488	11828
908.604	11714
908.72	11688
908.836	11760
908.952	11748
909.068	11802
909.184	11824
909.3	11798
909.415	11779
909.531	11718
909.647	11619
909.762	11554
909.878	11478
909.993	11368
910.108	11497
910.224	11467
910.339	11608
910.454	11379
910.57	11326
910.685	11277
910.8	11566
910.915	11452
911.03	11410
911.145	11147
911.259	11227
911.374	11170
911.489	11189
911.604	11067
911.718	10896
911.833	11003
911.947	10847
912.062	10892
912.176	10892
912.291	10980
912.405	10957
912.519	11128
912.633	11201
912.748	11010
912.862	10904
912.976	10892
913.09	10752
913.204	10847
913.318	10900
913.431	11041
913.545	10942
913.659	10915
913.772	10805
913.886	10706
914	10683
914.113	10790
914.226	10866
914.34	10786
914.453	10675
914.566	10752
914.68	10577
914.793	10691
914.906	10440
915.019	10451
915.132	10367
915.245	10371
915.358	10523
915.47	10413
915.583	10527
915.696	10550
915.809	10516
915.921	10554
916.034	10409
916.146	10398
916.259	10459
916.371	10493
916.483	10478
916.595	10367
916.708	10337
916.82	10409
916.932	10325
917.044	10455
917.156	10329
917.268	10341
917.38	10310
917.491	10405
917.603	10276
917.715	10322
917.826	10363
917.938	10337
918.049	10154
918.161	10303
918.272	10470
918.384	10474
918.495	10344
918.606	10215
918.717	10093
918.828	10234
918.939	10227
919.05	10036
919.161	10143
919.272	9945
919.383	9987
919.494	10265
919.604	10443
919.715	10257
919.826	10131
919.936	10223
920.047	10242
920.157	10173
920.267	10405
920.378	10246
920.488	10295
920.598	10413
920.708	10497
920.818	10424
920.928	10379
921.038	10584
921.148	10478
921.258	10287
921.368	10124
921.477	10097
921.587	10051
921.697	9953
921.806	9991
921.916	9854
922.025	9816
922.134	9774
922.244	9785
922.353	9751
922.462	9679
922.571	9553
922.68	9428
922.789	9420
922.898	9401
923.007	9401
923.116	9507
923.224	9443
923.333	9450
923.442	9294
923.55	9393
923.659	9310
923.767	9313
923.876	9310
923.984	9374
924.092	9310
924.201	9233
924.309	9378
924.417	9321
924.525	9294
924.633	9310
924.741	10112
924.849	9131
924.956	9207
925.064	9070
925.172	9058
925.279	9036
925.387	9108
925.494	9119
925.602	9157
925.709	9176
925.816	9066
925.924	9100
926.031	9249
926.138	9028
926.245	9157
926.352	9070
926.459	9165
926.566	9230
926.673	9074
926.779	8925
926.886	8956
926.993	8906
927.099	8796
927.206	8796
927.312	8754
927.419	8872
927.525	8819
927.631	8876
927.737	8758
927.843	8708
927.95	8571
928.056	8746
928.162	8651
928.267	8796
928.373	9291
928.479	8743
928.585	8568
928.69	8735
928.796	8739
928.901	8682
929.007	8503
929.112	8697
929.218	8594
929.323	8533
929.428	8518
929.533	8682
929.638	8522
929.743	8583
929.848	8594
929.953	8571
930.058	8427
930.163	8336
930.267	8332
930.372	8473
930.477	8313
930.581	8579
930.685	8343
930.79	8252
930.894	8290
930.998	8244
931.103	8396
931.207	8039
931.311	8012
931.415	7921
931.519	7727
931.623	7776
