Data from test_V78500241_2227.txt Node
Date: Fri Mar 25 14:49:13 CST 2022
User: usil
Spectrometer: V785-0024
Trigger mode: 0
Integration Time (sec): 4.000000E-1
Scans to average: 1
Nonlinearity correction enabled: false
Boxcar width: 0
Storing dark spectrum: false
XAxis mode: Wavelengths
Number of Pixels in Spectrum: 1024
>>>>>Begin Spectral Data<<<<<
801.071	22242
801.214	22040
801.356	21785
801.499	21766
801.641	21599
801.783	21553
801.926	21580
802.068	21386
802.211	21435
802.353	21283
802.496	21123
802.638	21127
802.78	20963
802.923	20899
803.065	20819
803.208	20842
803.35	20819
803.492	20933
803.635	21013
803.777	20895
803.919	20963
804.061	21302
804.204	21032
804.346	20861
804.488	20754
804.63	20823
804.773	20769
804.915	20765
805.057	20994
805.199	20731
805.341	20910
805.483	20845
805.626	20956
805.768	20670
805.91	20834
806.052	20796
806.194	20667
806.336	20944
806.478	20705
806.62	20674
806.762	20777
806.904	20998
807.046	21195
807.188	21192
807.33	21150
807.472	21112
807.614	20994
807.756	21043
807.898	20952
808.04	20815
808.182	20887
808.324	20823
808.465	20918
808.607	21043
808.749	21188
808.891	21272
809.033	21344
809.174	21230
809.316	21112
809.458	21207
809.6	21039
809.741	21195
809.883	21317
810.025	21317
810.166	21355
810.308	21241
810.45	21211
810.591	21226
810.733	21066
810.875	20918
811.016	20944
811.158	20868
811.299	21085
811.441	21150
811.582	21096
811.724	20887
811.865	20914
812.007	20967
812.148	21005
812.29	20864
812.431	21104
812.573	21203
812.714	21230
812.855	21405
812.997	21416
813.138	21701
813.279	21660
813.421	21454
813.562	21382
813.703	21150
813.845	21146
813.986	20777
814.127	20644
814.268	20545
814.41	20537
814.551	20526
814.692	20537
814.833	20343
814.974	20560
815.115	20484
815.256	20275
815.397	20309
815.539	20381
815.68	20252
815.821	20210
815.962	20157
816.103	20183
816.244	20077
816.385	19921
816.526	19974
816.666	19856
816.807	19582
816.948	19841
817.089	19757
817.23	19700
817.371	19521
817.512	19590
817.653	19544
817.793	19499
817.934	19609
818.075	19635
818.216	19666
818.356	19571
818.497	19438
818.638	19301
818.778	19369
818.919	19266
819.06	19289
819.2	19377
819.341	19438
819.481	19457
819.622	19624
819.762	19750
819.903	19601
820.043	19635
820.184	19632
820.324	19613
820.465	19647
820.605	19491
820.746	19563
820.886	19426
821.026	19670
821.167	19521
821.307	19647
821.447	19468
821.588	19419
821.728	19301
821.868	19206
822.008	19133
822.149	19015
822.289	18966
822.429	18802
822.569	18757
822.709	18726
822.849	18601
822.99	18506
823.13	18486
823.27	18471
823.41	18357
823.55	18247
823.69	18376
823.83	18311
823.97	18182
824.11	17992
824.25	18003
824.389	18095
824.529	18266
824.669	18251
824.809	18247
824.949	18114
825.089	18148
825.228	18148
825.368	17942
825.508	17969
825.648	17859
825.787	18007
825.927	17897
826.067	17863
826.206	17950
826.346	17870
826.485	17965
826.625	17824
826.765	17882
826.904	17847
827.044	17596
827.183	17672
827.323	17619
827.462	17653
827.601	17528
827.741	17573
827.88	17604
828.02	17528
828.159	17509
828.298	17611
828.437	17547
828.577	17471
828.716	17634
828.855	17532
828.994	17269
829.134	17227
829.273	17379
829.412	17254
829.551	17143
829.69	17303
829.829	17280
829.968	17360
830.107	17395
830.246	17353
830.385	17269
830.524	17140
830.663	17147
830.802	17052
830.941	16968
831.08	16869
831.219	16984
831.357	17033
831.496	17109
831.635	16858
831.774	16847
831.913	16759
832.051	16744
832.19	16691
832.329	16721
832.467	16630
832.606	16561
832.744	16500
832.883	16569
833.022	16542
833.16	16565
833.299	16698
833.437	16607
833.576	16603
833.714	16672
833.852	16641
833.991	16668
834.129	16752
834.267	16744
834.406	16607
834.544	16755
834.682	16675
834.821	16603
834.959	16843
835.097	16717
835.235	16835
835.373	16713
835.511	16618
835.65	16569
835.788	16489
835.926	16390
836.064	16306
836.202	16314
836.34	16603
836.478	16573
836.615	16493
836.753	16558
836.891	16645
837.029	16630
837.167	16508
837.305	16512
837.443	16421
837.58	16417
837.718	16519
837.856	16333
837.993	16329
838.131	16402
838.269	16386
838.406	16386
838.544	16287
838.681	16162
838.819	16112
838.956	15854
839.094	15994
839.231	15953
839.369	16177
839.506	16318
839.643	16246
839.781	15991
839.918	15857
840.055	15937
840.193	15968
840.33	16006
840.467	15880
840.604	16029
840.742	16230
840.879	15854
841.016	15895
841.153	15850
841.29	16112
841.427	16006
841.564	15922
841.701	15953
841.838	15907
841.975	15930
842.112	15880
842.249	15846
842.385	15690
842.522	15991
842.659	15770
842.796	15679
842.933	15827
843.069	15690
843.206	15717
843.343	15766
843.479	15770
843.616	15797
843.752	15542
843.889	15515
844.025	15595
844.162	15504
844.298	15679
844.435	15595
844.571	15530
844.708	15561
844.844	15686
844.98	15671
845.117	15671
845.253	15523
845.389	15416
845.525	15431
845.661	15435
845.798	15287
845.934	15325
846.07	15291
846.206	15298
846.342	15370
846.478	15344
846.614	15176
846.75	15020
846.886	15108
847.022	15169
847.158	15089
847.294	15161
847.429	15199
847.565	15013
847.701	15329
847.837	14937
847.972	14857
848.108	14887
848.244	14857
848.379	14750
848.515	14644
848.65	14606
848.786	14762
848.921	14708
849.057	14773
849.192	14891
849.328	14636
849.463	14724
849.598	14670
849.734	14602
849.869	14541
850.004	14457
850.14	14488
850.275	14473
850.41	14434
850.545	14419
850.68	14454
850.815	14537
850.95	14431
851.085	14590
851.22	14549
851.355	14549
851.49	14377
851.625	14465
851.76	14339
851.895	14377
852.03	14332
852.165	14389
852.299	14465
852.434	14507
852.569	14488
852.703	14381
852.838	14602
852.973	14648
853.107	14549
853.242	14366
853.376	14381
853.511	14176
853.645	14195
853.78	14404
853.914	14438
854.048	14210
854.183	14320
854.317	14400
854.451	14488
854.585	14278
854.72	14366
854.854	14328
854.988	14221
855.122	14248
855.256	14161
855.39	14309
855.524	14408
855.658	14396
855.792	14351
855.926	14317
856.06	14381
856.194	14370
856.327	14244
856.461	14164
856.595	14195
856.729	14199
856.862	14457
856.996	14351
857.13	14473
857.263	14396
857.397	14343
857.53	14282
857.664	14370
857.797	14454
857.931	14511
858.064	14419
858.197	14495
858.331	14343
858.464	14385
858.597	14214
858.731	14290
858.864	14313
858.997	14282
859.13	14271
859.263	14267
859.396	14423
859.529	14305
859.662	14199
859.795	14309
859.928	14400
860.061	14549
860.194	14480
860.327	14309
860.46	14389
860.592	14507
860.725	14537
860.858	14431
860.99	14347
861.123	14195
861.256	14240
861.388	14313
861.521	14887
861.653	14096
861.786	14142
861.918	14119
862.05	14202
862.183	14275
862.315	14305
862.447	14423
862.58	14275
862.712	14119
862.844	14035
862.976	14149
863.108	14164
863.24	14495
863.372	13986
863.504	13978
863.636	14039
863.768	14084
863.9	14054
864.032	14058
864.164	14027
864.296	14161
864.428	14218
864.559	14290
864.691	14225
864.823	14126
864.954	14183
865.086	14214
865.217	14084
865.349	13963
865.48	13978
865.612	14111
865.743	14180
865.875	14157
866.006	14073
866.137	14043
866.269	14119
866.4	14001
866.531	14012
866.662	13959
866.793	13993
866.924	14012
867.055	14092
867.186	13974
867.317	14027
867.448	13982
867.579	13963
867.71	14088
867.841	14008
867.972	14084
868.103	14046
868.233	14096
868.364	13963
868.495	14153
868.625	14237
868.756	14454
868.886	14286
869.017	14370
869.147	14465
869.278	14434
869.408	14377
869.539	14286
869.669	14465
869.799	14377
869.929	14461
870.06	14324
870.19	14556
870.32	14644
870.45	14629
870.58	14724
870.71	14883
870.84	14838
870.97	14701
871.1	14693
871.23	14842
871.36	14899
871.489	14838
871.619	14838
871.749	14979
871.879	14975
872.008	15017
872.138	14963
872.267	14853
872.397	14804
872.526	14670
872.656	14708
872.785	14750
872.915	14975
873.044	15013
873.173	14956
873.303	15013
873.432	15043
873.561	14963
873.69	14971
873.819	14937
873.948	15070
874.077	14979
874.206	15009
874.335	15047
874.464	15119
874.593	15237
874.722	15203
874.851	15313
874.979	15279
875.108	15359
875.237	15252
875.365	15169
875.494	15241
875.623	15310
875.751	15214
875.88	15287
876.008	15515
876.136	15348
876.265	15675
876.393	15846
876.521	15785
876.65	15713
876.778	15698
876.906	15717
877.034	15648
877.162	15637
877.29	15523
877.418	15629
877.546	15671
877.674	15641
877.802	15732
877.93	15644
878.058	15644
878.185	15633
878.313	15568
878.441	15682
878.568	15530
878.696	15633
878.824	15736
878.951	15774
879.079	15892
879.206	15979
879.333	15899
879.461	15785
879.588	15804
879.715	15926
879.842	15983
879.97	15778
880.097	15496
880.224	15515
880.351	15576
880.478	15477
880.605	15526
880.732	15545
880.859	15770
880.986	15595
881.112	15587
881.239	15530
881.366	15268
881.493	15294
881.619	15233
881.746	15188
881.872	15100
881.999	15203
882.125	15230
882.252	15329
882.378	15211
882.505	15370
882.631	15150
882.757	14986
882.883	15089
883.01	14979
883.136	14960
883.262	14823
883.388	14823
883.514	15074
883.64	15013
883.766	14861
883.892	14788
884.018	14845
884.143	15062
884.269	15116
884.395	14804
884.52	14735
884.646	14807
884.772	14602
884.897	14606
885.023	14724
885.148	14781
885.274	14815
885.399	14796
885.524	14682
885.65	14663
885.775	14765
885.9	14731
886.025	14800
886.15	14811
886.275	14610
886.4	14617
886.525	14571
886.65	14697
886.775	14667
886.9	14849
887.025	14868
887.149	14644
887.274	14495
887.399	14480
887.523	14564
887.648	14461
887.773	14366
887.897	14636
888.021	14648
888.146	14568
888.27	14667
888.395	14617
888.519	14469
888.643	14632
888.767	14552
888.891	14465
889.015	14385
889.139	14393
889.263	14374
889.387	14530
889.511	14659
889.635	14556
889.759	14339
889.883	14301
890.006	14488
890.13	14606
890.254	14362
890.377	14431
890.501	14191
890.624	14149
890.748	14286
890.871	14164
890.995	14123
891.118	14035
891.241	14100
891.364	14084
891.488	14256
891.611	14084
891.734	14123
891.857	14103
891.98	14111
892.103	14119
892.226	14202
892.349	14077
892.471	13860
892.594	14012
892.717	14180
892.839	14069
892.962	14191
893.085	14294
893.207	14172
893.33	13986
893.452	14054
893.575	14176
893.697	14103
893.819	14225
893.941	14362
894.064	14309
894.186	14145
894.308	14069
894.43	14278
894.552	14275
894.674	14275
894.796	14046
894.918	14107
895.04	14126
895.161	14233
895.283	14168
895.405	14180
895.526	14176
895.648	14225
895.769	14210
895.891	14282
896.012	14324
896.134	14313
896.255	14336
896.376	14229
896.498	14259
896.619	14229
896.74	14271
896.861	14320
896.982	14507
897.103	14762
897.224	14549
897.345	14526
897.466	14522
897.587	14556
897.708	14720
897.828	14629
897.949	14465
898.07	14415
898.19	14518
898.311	14667
898.431	14571
898.552	14564
898.672	14735
898.792	14678
898.913	14712
899.033	14549
899.153	14469
899.273	14412
899.393	14511
899.513	14492
899.633	14457
899.753	14598
899.873	14507
899.993	14480
900.113	14480
900.232	14583
900.352	14423
900.472	14484
900.591	14343
900.711	14370
900.83	14343
900.95	14423
901.069	14480
901.189	14370
901.308	14088
901.427	14062
901.546	14062
901.665	14050
901.784	14107
901.904	14012
902.023	13849
902.141	13655
902.26	13594
902.379	13712
902.498	13643
902.617	13594
902.735	13643
902.854	13613
902.973	13582
903.091	13274
903.21	13381
903.328	13449
903.446	13244
903.565	13213
903.683	13266
903.801	13061
903.919	13194
904.038	13126
904.156	12973
904.274	13057
904.392	12916
904.51	13015
904.627	12981
904.745	13000
904.863	13053
904.981	12798
905.098	12612
905.216	12753
905.334	12654
905.451	12741
905.569	12749
905.686	12688
905.803	12726
905.921	12509
906.038	12620
906.155	12456
906.272	12353
906.389	12376
906.506	12330
906.623	12251
906.74	12292
906.857	12167
906.974	12159
907.091	12266
907.208	12369
907.324	12304
907.441	12159
907.557	12049
907.674	11988
907.79	11977
907.907	12030
908.023	12117
908.139	12038
908.256	11942
908.372	11950
908.488	11931
908.604	11817
908.72	11672
908.836	11748
908.952	11779
909.068	11817
909.184	11901
909.3	11870
909.415	11813
909.531	11790
909.647	11562
909.762	11615
909.878	11547
909.993	11566
910.108	11490
910.224	11512
910.339	11547
910.454	11387
910.57	11368
910.685	11330
910.8	11611
910.915	11547
911.03	11284
911.145	11277
911.259	11311
911.374	11273
911.489	11178
911.604	11105
911.718	11014
911.833	10961
911.947	10908
912.062	10759
912.176	11067
912.291	10949
912.405	10987
912.519	11204
912.633	11223
912.748	11086
912.862	11075
912.976	10885
913.09	10714
913.204	10877
913.318	10877
913.431	10965
913.545	10976
913.659	10984
913.772	10896
913.886	10721
914	10752
914.113	10850
914.226	10866
914.34	10835
914.453	10679
914.566	10873
914.68	10660
914.793	10710
914.906	10531
915.019	10474
915.132	10390
915.245	10436
915.358	10565
915.47	10535
915.583	10447
915.696	10554
915.809	10683
915.921	10645
916.034	10489
916.146	10481
916.259	10409
916.371	10500
916.483	10470
916.595	10360
916.708	10443
916.82	10466
916.932	10352
917.044	10459
917.156	10443
917.268	10295
917.38	10337
917.491	10322
917.603	10394
917.715	10398
917.826	10386
917.938	10329
918.049	10196
918.161	10386
918.272	10440
918.384	10398
918.495	10348
918.606	10211
918.717	10177
918.828	10192
918.939	10261
919.05	10139
919.161	10253
919.272	10002
919.383	10074
919.494	10234
919.604	10409
919.715	10246
919.826	10139
919.936	10185
920.047	10261
920.157	10246
920.267	10459
920.378	10173
920.488	10261
920.598	10379
920.708	10535
920.818	10398
920.928	10447
921.038	10584
921.148	10497
921.258	10318
921.368	10166
921.477	9991
921.587	10078
921.697	9953
921.806	10120
921.916	9972
922.025	9869
922.134	9812
922.244	9804
922.353	9785
922.462	9766
922.571	9660
922.68	9523
922.789	9420
922.898	9473
923.007	9439
923.116	9545
923.224	9496
923.333	9462
923.442	9405
923.55	9359
923.659	9397
923.767	9435
923.876	9329
923.984	9378
924.092	9222
924.201	9447
924.309	9340
924.417	9348
924.525	9256
924.633	9310
924.741	10204
924.849	9142
924.956	9306
925.064	9165
925.172	8998
925.279	9100
925.387	9127
925.494	9123
925.602	9306
925.709	9218
925.816	9039
925.924	9169
926.031	9176
926.138	9154
926.245	9161
926.352	9051
926.459	9195
926.566	9230
926.673	9005
926.779	8933
926.886	8998
926.993	8899
927.099	8853
927.206	8807
927.312	8727
927.419	8895
927.525	8876
927.631	8982
927.737	8800
927.843	8739
927.95	8724
928.056	8720
928.162	8792
928.267	8773
928.373	9416
928.479	8804
928.585	8571
928.69	8708
928.796	8792
928.901	8632
929.007	8545
929.112	8621
929.218	8564
929.323	8594
929.428	8556
929.533	8712
929.638	8469
929.743	8552
929.848	8640
929.953	8598
930.058	8492
930.163	8389
930.267	8286
930.372	8480
930.477	8332
930.581	8549
930.685	8434
930.79	8286
930.894	8313
930.998	8275
931.103	8404
931.207	8065
931.311	8058
931.415	7963
931.519	7788
931.623	7738
