Data from test_V78500241_904.txt Node
Date: Fri Mar 25 14:40:00 CST 2022
User: usil
Spectrometer: V785-0024
Trigger mode: 0
Integration Time (sec): 4.000000E-1
Scans to average: 1
Nonlinearity correction enabled: false
Boxcar width: 0
Storing dark spectrum: false
XAxis mode: Wavelengths
Number of Pixels in Spectrum: 1024
>>>>>Begin Spectral Data<<<<<
801.071	25091
801.214	24867
801.356	24696
801.499	24612
801.641	24479
801.783	24471
801.926	24521
802.068	24399
802.211	24186
802.353	24022
802.496	23999
802.638	23908
802.78	23855
802.923	23866
803.065	23767
803.208	23684
803.35	23828
803.492	23805
803.635	23908
803.777	23726
803.919	23897
804.061	24102
804.204	23859
804.346	23851
804.488	23729
804.63	23687
804.773	23577
804.915	23760
805.057	23874
805.199	23802
805.341	23809
805.483	23916
805.626	23954
805.768	23817
805.91	23897
806.052	23984
806.194	23870
806.336	24201
806.478	23999
806.62	24060
806.762	24140
806.904	24270
807.046	24585
807.188	24631
807.33	24779
807.472	24958
807.614	24958
807.756	25232
807.898	25335
808.04	25563
808.182	26031
808.324	26495
808.465	27173
808.607	27865
808.749	28470
808.891	29003
809.033	29079
809.174	28599
809.316	27979
809.458	27199
809.6	26636
809.741	26062
809.883	25613
810.025	25510
810.166	25202
810.308	25012
810.45	25027
810.591	24901
810.733	24467
810.875	24319
811.016	24224
811.158	24262
811.299	24334
811.441	24429
811.582	24327
811.724	24194
811.865	24030
812.007	24167
812.148	24155
812.29	24114
812.431	24330
812.573	24422
812.714	24323
812.855	24582
812.997	24684
813.138	24760
813.279	24654
813.421	24460
813.562	24365
813.703	24190
813.845	24030
813.986	23916
814.127	23680
814.268	23558
814.41	23547
814.551	23414
814.692	23619
814.833	23410
814.974	23364
815.115	23493
815.256	23345
815.397	23497
815.539	23318
815.68	23239
815.821	23170
815.962	23121
816.103	23098
816.244	23178
816.385	22980
816.526	22793
816.666	22752
816.807	22782
816.948	22618
817.089	22736
817.23	22660
817.371	22672
817.512	22645
817.653	22565
817.793	22569
817.934	22694
818.075	22451
818.216	22569
818.356	22508
818.497	22519
818.638	22257
818.778	22257
818.919	22329
819.06	22238
819.2	22478
819.341	22325
819.481	22371
819.622	22550
819.762	22759
819.903	22668
820.043	22478
820.184	22603
820.324	22405
820.465	22519
820.605	22481
820.746	22489
820.886	22432
821.026	22478
821.167	22443
821.307	22565
821.447	22348
821.588	22356
821.728	22055
821.868	21934
822.008	21960
822.149	21808
822.289	21835
822.429	21587
822.569	21511
822.709	21469
822.849	21283
822.99	21222
823.13	21298
823.27	21211
823.41	21272
823.55	21100
823.69	21093
823.83	21017
823.97	21020
824.11	20804
824.25	20823
824.389	20952
824.529	20834
824.669	20902
824.809	20979
824.949	20910
825.089	20891
825.228	20830
825.368	20731
825.508	20788
825.648	20750
825.787	20701
825.927	20731
826.067	20701
826.206	20579
826.346	20659
826.485	20689
826.625	20579
826.765	20636
826.904	20587
827.044	20431
827.183	20385
827.323	20263
827.462	20278
827.601	20343
827.741	20389
827.88	20328
828.02	20142
828.159	20298
828.298	20320
828.437	20377
828.577	20275
828.716	20412
828.855	20328
828.994	19963
829.134	20024
829.273	20096
829.412	20024
829.551	19871
829.69	20035
829.829	19997
829.968	20020
830.107	20020
830.246	20058
830.385	19803
830.524	19913
830.663	19807
830.802	19723
830.941	19605
831.08	19624
831.219	19643
831.357	19616
831.496	19727
831.635	19518
831.774	19495
831.913	19647
832.051	19388
832.19	19457
832.329	19438
832.467	19354
832.606	19240
832.744	19304
832.883	19236
833.022	19270
833.16	19339
833.299	19483
833.437	19358
833.576	19400
833.714	19445
833.852	19540
833.991	19544
834.129	19559
834.267	19590
834.406	19430
834.544	19521
834.682	19476
834.821	19358
834.959	19677
835.097	19282
835.235	19457
835.373	19403
835.511	19289
835.65	19259
835.788	19244
835.926	19019
836.064	19015
836.202	18897
836.34	19209
836.478	19160
836.615	19023
836.753	19095
836.891	19255
837.029	19141
837.167	19164
837.305	18947
837.443	19015
837.58	18973
837.718	19065
837.856	19069
837.993	18909
838.131	18966
838.269	18859
838.406	18928
838.544	18779
838.681	18734
838.819	18532
838.956	18403
839.094	18525
839.231	18582
839.369	18631
839.506	18821
839.643	18566
839.781	18498
839.918	18433
840.055	18494
840.193	18460
840.33	18376
840.467	18483
840.604	18334
840.742	18882
840.879	18346
841.016	18273
841.153	18281
841.29	18517
841.427	18365
841.564	18464
841.701	18407
841.838	18342
841.975	18350
842.112	18266
842.249	18266
842.385	18117
842.522	18254
842.659	18129
842.796	18083
842.933	18224
843.069	18076
843.206	18076
843.343	18190
843.479	18121
843.616	18239
843.752	18015
843.889	17996
844.025	18159
844.162	17942
844.298	18087
844.435	18034
844.571	17988
844.708	18178
844.844	18410
844.98	18380
845.117	18479
845.253	18506
845.389	18810
845.525	19632
845.661	20556
845.798	21831
845.934	23185
846.07	23551
846.206	23467
846.342	22611
846.478	21062
846.614	19780
846.75	18783
846.886	18292
847.022	18159
847.158	17946
847.294	17687
847.429	17627
847.565	17608
847.701	17745
847.837	17334
847.972	17109
848.108	17326
848.244	17239
848.379	17117
848.515	17098
848.65	17056
848.786	17029
848.921	17003
849.057	17090
849.192	17151
849.328	17117
849.463	17067
849.598	17045
849.734	16915
849.869	16816
850.004	16816
850.14	16858
850.275	16801
850.41	16755
850.545	16721
850.68	16782
850.815	16771
850.95	16755
851.085	16987
851.22	16858
851.355	16733
851.49	16744
851.625	16706
851.76	16790
851.895	16664
852.03	16675
852.165	16733
852.299	16843
852.434	16858
852.569	16866
852.703	16854
852.838	16771
852.973	16889
853.107	16999
853.242	16850
853.376	16664
853.511	16615
853.645	16603
853.78	16858
853.914	16706
854.048	16538
854.183	16622
854.317	16740
854.451	16805
854.585	16698
854.72	16596
854.854	16729
854.988	16554
855.122	16565
855.256	16462
855.39	16531
855.524	16626
855.658	16691
855.792	16622
855.926	16641
856.06	16626
856.194	16645
856.327	16588
856.461	16459
856.595	16550
856.729	16523
856.862	16694
856.996	16702
857.13	16797
857.263	16759
857.397	16691
857.53	16554
857.664	16596
857.797	16828
857.931	16615
858.064	16622
858.197	16607
858.331	16626
858.464	16607
858.597	16546
858.731	16653
858.864	16558
858.997	16428
859.13	16554
859.263	16660
859.396	16645
859.529	16497
859.662	16538
859.795	16470
859.928	16569
860.061	16736
860.194	16675
860.327	16569
860.46	16436
860.592	16588
860.725	16717
860.858	16565
860.99	16588
861.123	16500
861.256	16440
861.388	16561
861.521	17181
861.653	16390
861.786	16375
861.918	16413
862.05	16470
862.183	16531
862.315	16432
862.447	16580
862.58	16432
862.712	16257
862.844	16265
862.976	16299
863.108	16424
863.24	16713
863.372	16158
863.504	16394
863.636	16265
863.768	16402
863.9	16257
864.032	16116
864.164	16310
864.296	16379
864.428	16371
864.559	16306
864.691	16322
864.823	16329
864.954	16261
865.086	16314
865.217	16238
865.349	16226
865.48	16173
865.612	16299
865.743	16371
865.875	16299
866.006	16234
866.137	16192
866.269	16314
866.4	16265
866.531	16215
866.662	16181
866.793	16150
866.924	16093
867.055	16166
867.186	16223
867.317	16158
867.448	16063
867.579	16192
867.71	16124
867.841	16173
867.972	16238
868.103	16276
868.233	16310
868.364	16284
868.495	16200
868.625	16436
868.756	16554
868.886	16390
869.017	16459
869.147	16565
869.278	16554
869.408	16443
869.539	16428
869.669	16516
869.799	16500
869.929	16554
870.06	16653
870.19	16790
870.32	16801
870.45	16809
870.58	16759
870.71	16957
870.84	16919
870.97	16828
871.1	16782
871.23	16991
871.36	17056
871.489	16927
871.619	17022
871.749	17121
871.879	17090
872.008	17208
872.138	17098
872.267	16984
872.397	16968
872.526	16854
872.656	16858
872.785	16904
872.915	17025
873.044	17318
873.173	17136
873.303	17105
873.432	17159
873.561	17254
873.69	17261
873.819	17223
873.948	17159
874.077	17261
874.206	17109
874.335	17105
874.464	17277
874.593	17532
874.722	17497
874.851	17516
874.979	17558
875.108	17646
875.237	17512
875.365	17433
875.494	17490
875.623	17634
875.751	17486
875.88	17562
876.008	17672
876.136	17604
876.265	17874
876.393	18117
876.521	18038
876.65	18197
876.778	17946
876.906	17996
877.034	18026
877.162	18026
877.29	17980
877.418	18167
877.546	18038
877.674	18083
877.802	18102
877.93	18110
878.058	18121
878.185	18098
878.313	18247
878.441	18357
878.568	18365
878.696	18486
878.824	18719
878.951	19008
879.079	19422
879.206	19898
879.333	20240
879.461	20514
879.588	20762
879.715	20906
879.842	20678
879.97	20343
880.097	19571
880.224	19213
880.351	19019
880.478	18825
880.605	18673
880.732	18536
880.859	18730
880.986	18490
881.112	18509
881.239	18395
881.366	18277
881.493	18178
881.619	18026
881.746	18201
881.872	18087
881.999	18095
882.125	18076
882.252	18155
882.378	18209
882.505	18254
882.631	18060
882.757	17927
882.883	18053
883.01	17969
883.136	17942
883.262	17824
883.388	17870
883.514	17927
883.64	17916
883.766	17863
883.892	17771
884.018	17790
884.143	17851
884.269	18148
884.395	17691
884.52	17547
884.646	17676
884.772	17539
884.897	17459
885.023	17634
885.148	17729
885.274	17779
885.399	17653
885.524	17745
885.65	17566
885.775	17478
885.9	17452
886.025	17459
886.15	17497
886.275	17216
886.4	17235
886.525	17269
886.65	17155
886.775	17197
886.9	17455
887.025	17467
887.149	17170
887.274	17113
887.399	16999
887.523	16961
887.648	16889
887.773	16900
887.897	17105
888.021	16972
888.146	16934
888.27	17071
888.395	17067
888.519	16949
888.643	16911
888.767	16965
888.891	16946
889.015	16664
889.139	16771
889.263	16675
889.387	16820
889.511	16839
889.635	16831
889.759	16599
889.883	16630
890.006	16611
890.13	16752
890.254	16653
890.377	16637
890.501	16363
890.624	16306
890.748	16428
890.871	16341
890.995	16238
891.118	16143
891.241	16318
891.364	16322
891.488	16352
891.611	16268
891.734	16322
891.857	16325
891.98	16310
892.103	16337
892.226	16272
892.349	16215
892.471	16124
892.594	16249
892.717	16280
892.839	16166
892.962	16196
893.085	16287
893.207	16166
893.33	16078
893.452	16002
893.575	16139
893.697	16158
893.819	16257
893.941	16379
894.064	16268
894.186	16112
894.308	16036
894.43	16143
894.552	16303
894.674	16242
894.796	16162
894.918	16120
895.04	16257
895.161	16246
895.283	16188
895.405	16078
895.526	16112
895.648	16120
895.769	16143
895.891	16261
896.012	16352
896.134	16185
896.255	16211
896.376	16219
896.498	16219
896.619	16257
896.74	16158
896.861	16272
896.982	16573
897.103	16611
897.224	16478
897.345	16554
897.466	16352
897.587	16443
897.708	16580
897.828	16489
897.949	16360
898.07	16352
898.19	16489
898.311	16561
898.431	16497
898.552	16554
898.672	16611
898.792	16512
898.913	16611
899.033	16493
899.153	16379
899.273	16314
899.393	16306
899.513	16303
899.633	16337
899.753	16421
899.873	16265
899.993	16322
900.113	16379
900.232	16451
900.352	16333
900.472	16299
900.591	16223
900.711	16181
900.83	16173
900.95	16284
901.069	16314
901.189	16173
901.308	15994
901.427	15857
901.546	15850
901.665	15937
901.784	15812
901.904	15701
902.023	15690
902.141	15485
902.26	15348
902.379	15450
902.498	15431
902.617	15272
902.735	15348
902.854	15245
902.973	15249
903.091	14990
903.21	14971
903.328	15119
903.446	14948
903.565	14883
903.683	14834
903.801	14800
903.919	14811
904.038	14781
904.156	14632
904.274	14663
904.392	14663
904.51	14735
904.627	14655
904.745	14602
904.863	14689
904.981	14484
905.098	14320
905.216	14347
905.334	14400
905.451	14290
905.569	14271
905.686	14233
905.803	14301
905.921	14119
906.038	14183
906.155	14092
906.272	13955
906.389	13932
906.506	13715
906.623	13856
906.74	13807
906.857	13746
906.974	13719
907.091	13898
907.208	14008
907.324	13807
907.441	13712
907.557	13594
907.674	13548
907.79	13548
907.907	13556
908.023	13548
908.139	13445
908.256	13476
908.372	13457
908.488	13411
908.604	13354
908.72	13259
908.836	13354
908.952	13198
909.068	13324
909.184	13339
909.3	13221
909.415	13453
909.531	13206
909.647	13008
909.762	12993
909.878	13015
909.993	12943
910.108	13008
910.224	12958
910.339	12973
910.454	12890
910.57	12867
910.685	12757
910.8	13076
910.915	13050
911.03	12962
911.145	12722
911.259	12677
911.374	12658
911.489	12566
911.604	12593
911.718	12433
911.833	12418
911.947	12315
912.062	12346
912.176	12361
912.291	12433
912.405	12437
912.519	12589
912.633	12650
912.748	12483
912.862	12388
912.976	12209
913.09	12175
913.204	12140
913.318	12292
913.431	12372
913.545	12311
913.659	12395
913.772	12262
913.886	12220
914	12167
914.113	12190
914.226	12300
914.34	12330
914.453	12011
914.566	12213
914.68	12110
914.793	12110
914.906	11859
915.019	11836
915.132	11794
915.245	11802
915.358	11878
915.47	11897
915.583	11901
915.696	11832
915.809	11980
915.921	11961
916.034	11821
916.146	11817
916.259	11847
916.371	11885
916.483	11897
916.595	11756
916.708	11779
916.82	11878
916.932	11775
917.044	11726
917.156	11714
917.268	11657
917.38	11695
917.491	11566
917.603	11577
917.715	11699
917.826	11710
917.938	11608
918.049	11474
918.161	11592
918.272	11741
918.384	11764
918.495	11642
918.606	11490
918.717	11379
918.828	11444
918.939	11543
919.05	11444
919.161	11509
919.272	11223
919.383	11277
919.494	11471
919.604	11653
919.715	11535
919.826	11303
919.936	11353
920.047	11455
920.157	11406
920.267	11627
920.378	11520
920.488	11433
920.598	11619
920.708	11756
920.818	11581
920.928	11623
921.038	11802
921.148	11748
921.258	11520
921.368	11311
921.477	11349
921.587	11201
921.697	11090
921.806	11265
921.916	11143
922.025	11056
922.134	10946
922.244	10927
922.353	11060
922.462	10892
922.571	10778
922.68	10653
922.789	10611
922.898	10698
923.007	10550
923.116	10584
923.224	10599
923.333	10592
923.442	10440
923.55	10390
923.659	10447
923.767	10615
923.876	10481
923.984	10577
924.092	10432
924.201	10580
924.309	10459
924.417	10489
924.525	10382
924.633	10386
924.741	11155
924.849	10265
924.956	10474
925.064	10249
925.172	10166
925.279	10219
925.387	10333
925.494	10246
925.602	10306
925.709	10325
925.816	10200
925.924	10257
926.031	10367
926.138	10257
926.245	10303
926.352	10196
926.459	10238
926.566	10329
926.673	10185
926.779	10082
926.886	10090
926.993	9934
927.099	9934
927.206	9903
927.312	9850
927.419	9972
927.525	9953
927.631	9934
927.737	9804
927.843	9823
927.95	9648
928.056	9781
928.162	9766
928.267	9903
928.373	10432
928.479	9876
928.585	9701
928.69	9709
928.796	9827
928.901	9663
929.007	9549
929.112	9679
929.218	9667
929.323	9644
929.428	9595
929.533	9663
929.638	9500
929.743	9534
929.848	9644
929.953	9564
930.058	9576
930.163	9325
930.267	9370
930.372	9526
930.477	9237
930.581	9576
930.685	9389
930.79	9211
930.894	9302
930.998	9264
931.103	9393
931.207	8998
931.311	8975
931.415	8899
931.519	8750
931.623	8762
