Data from test_V78500241_3044.txt Node
Date: Fri Mar 25 14:54:54 CST 2022
User: usil
Spectrometer: V785-0024
Trigger mode: 0
Integration Time (sec): 4.000000E-1
Scans to average: 1
Nonlinearity correction enabled: false
Boxcar width: 0
Storing dark spectrum: false
XAxis mode: Wavelengths
Number of Pixels in Spectrum: 1024
>>>>>Begin Spectral Data<<<<<
801.071	22154
801.214	22029
801.356	21743
801.499	21747
801.641	21519
801.783	21397
801.926	21466
802.068	21374
802.211	21313
802.353	21264
802.496	20914
802.638	20967
802.78	20861
802.923	20853
803.065	20762
803.208	20731
803.35	20800
803.492	20880
803.635	20849
803.777	20648
803.919	20910
804.061	21074
804.204	20819
804.346	20689
804.488	20526
804.63	20849
804.773	20663
804.915	20678
805.057	20796
805.199	20739
805.341	20609
805.483	20868
805.626	20842
805.768	20568
805.91	20758
806.052	20739
806.194	20659
806.336	20849
806.478	20746
806.62	20621
806.762	20636
806.904	20891
807.046	21096
807.188	21165
807.33	20979
807.472	21150
807.614	20861
807.756	20960
807.898	20914
808.04	20796
808.182	20743
808.324	20918
808.465	20796
808.607	21051
808.749	21100
808.891	21150
809.033	21317
809.174	21154
809.316	21062
809.458	21161
809.6	20990
809.741	21188
809.883	21135
810.025	21245
810.166	21279
810.308	21214
810.45	21241
810.591	20990
810.733	21013
810.875	20929
811.016	20701
811.158	20629
811.299	20842
811.441	20933
811.582	20944
811.724	20826
811.865	20773
812.007	20845
812.148	20872
812.29	20872
812.431	20937
812.573	21074
812.714	21100
812.855	21306
812.997	21477
813.138	21435
813.279	21412
813.421	21401
813.562	21226
813.703	21192
813.845	21020
813.986	20682
814.127	20625
814.268	20423
814.41	20400
814.551	20427
814.692	20499
814.833	20358
814.974	20339
815.115	20446
815.256	20157
815.397	20126
815.539	20149
815.68	20157
815.821	20035
815.962	20195
816.103	20084
816.244	19921
816.385	19894
816.526	19818
816.666	19761
816.807	19521
816.948	19700
817.089	19594
817.23	19552
817.371	19445
817.512	19525
817.653	19578
817.793	19419
817.934	19544
818.075	19476
818.216	19483
818.356	19552
818.497	19365
818.638	19228
818.778	19187
818.919	19213
819.06	19152
819.2	19270
819.341	19460
819.481	19350
819.622	19449
819.762	19681
819.903	19578
820.043	19620
820.184	19556
820.324	19502
820.465	19586
820.605	19411
820.746	19449
820.886	19335
821.026	19343
821.167	19434
821.307	19521
821.447	19472
821.588	19422
821.728	19228
821.868	19012
822.008	19004
822.149	18913
822.289	18787
822.429	18753
822.569	18582
822.709	18563
822.849	18372
822.99	18300
823.13	18372
823.27	18369
823.41	18194
823.55	18079
823.69	18201
823.83	18197
823.97	18129
824.11	17889
824.25	17984
824.389	17942
824.529	18087
824.669	17889
824.809	18034
824.949	18053
825.089	18038
825.228	18041
825.368	17821
825.508	17676
825.648	17733
825.787	17722
825.927	17798
826.067	17649
826.206	17699
826.346	17805
826.485	17786
826.625	17843
826.765	17775
826.904	17722
827.044	17501
827.183	17551
827.323	17433
827.462	17505
827.601	17452
827.741	17250
827.88	17410
828.02	17269
828.159	17421
828.298	17497
828.437	17440
828.577	17364
828.716	17490
828.855	17307
828.994	17170
829.134	17212
829.273	17189
829.412	17151
829.551	17029
829.69	17105
829.829	17258
829.968	17162
830.107	17223
830.246	17212
830.385	17025
830.524	17022
830.663	17037
830.802	16866
830.941	16771
831.08	16713
831.219	16896
831.357	16767
831.496	17018
831.635	16759
831.774	16687
831.913	16634
832.051	16478
832.19	16599
832.329	16478
832.467	16550
832.606	16424
832.744	16455
832.883	16474
833.022	16508
833.16	16466
833.299	16481
833.437	16493
833.576	16519
833.714	16519
833.852	16584
833.991	16577
834.129	16641
834.267	16504
834.406	16546
834.544	16588
834.682	16561
834.821	16443
834.959	16626
835.097	16508
835.235	16580
835.373	16687
835.511	16493
835.65	16459
835.788	16382
835.926	16287
836.064	16128
836.202	16211
836.34	16443
836.478	16428
836.615	16481
836.753	16386
836.891	16596
837.029	16417
837.167	16379
837.305	16325
837.443	16318
837.58	16226
837.718	16318
837.856	16257
837.993	16143
838.131	16303
838.269	16177
838.406	16162
838.544	16169
838.681	15987
838.819	16051
838.956	15781
839.094	15770
839.231	15819
839.369	15998
839.506	16204
839.643	16032
839.781	15869
839.918	15797
840.055	15934
840.193	15797
840.33	15759
840.467	15861
840.604	15835
840.742	16131
840.879	15759
841.016	15747
841.153	15717
841.29	15880
841.427	15892
841.564	15903
841.701	15876
841.838	15793
841.975	15686
842.112	15724
842.249	15690
842.385	15523
842.522	15778
842.659	15564
842.796	15439
842.933	15568
843.069	15500
843.206	15553
843.343	15614
843.479	15591
843.616	15614
843.752	15443
843.889	15412
844.025	15496
844.162	15329
844.298	15462
844.435	15386
844.571	15363
844.708	15405
844.844	15504
844.98	15511
845.117	15523
845.253	15416
845.389	15222
845.525	15294
845.661	15272
845.798	15241
845.934	15233
846.07	15108
846.206	15233
846.342	15340
846.478	15150
846.614	15051
846.75	14906
846.886	14845
847.022	15001
847.158	14914
847.294	14960
847.429	15005
847.565	14845
847.701	15123
847.837	14610
847.972	14746
848.108	14781
848.244	14712
848.379	14610
848.515	14492
848.65	14507
848.786	14499
848.921	14514
849.057	14617
849.192	14629
849.328	14575
849.463	14465
849.598	14492
849.734	14526
849.869	14465
850.004	14362
850.14	14358
850.275	14347
850.41	14347
850.545	14313
850.68	14275
850.815	14275
850.95	14267
851.085	14434
851.22	14343
851.355	14396
851.49	14343
851.625	14294
851.76	14351
851.895	14218
852.03	14103
852.165	14298
852.299	14320
852.434	14396
852.569	14317
852.703	14339
852.838	14362
852.973	14533
853.107	14408
853.242	14237
853.376	14183
853.511	14069
853.645	14096
853.78	14282
853.914	14111
854.048	14126
854.183	14054
854.317	14157
854.451	14366
854.585	14157
854.72	14043
854.854	14290
854.988	14046
855.122	14176
855.256	14001
855.39	14176
855.524	14294
855.658	14210
855.792	14263
855.926	14176
856.06	14229
856.194	14199
856.327	14142
856.461	14103
856.595	14237
856.729	14107
856.862	14259
856.996	14202
857.13	14248
857.263	14267
857.397	14202
857.53	14134
857.664	14275
857.797	14248
857.931	14320
858.064	14252
858.197	14206
858.331	14168
858.464	14138
858.597	14062
858.731	14172
858.864	14210
858.997	14126
859.13	14126
859.263	14149
859.396	14298
859.529	14065
859.662	14195
859.795	14210
859.928	14233
860.061	14347
860.194	14366
860.327	14191
860.46	14149
860.592	14271
860.725	14259
860.858	14301
860.99	14256
861.123	14145
861.256	14142
861.388	14077
861.521	14819
861.653	14096
861.786	14088
861.918	14103
862.05	14119
862.183	14164
862.315	14130
862.447	14206
862.58	14111
862.712	13909
862.844	13898
862.976	13963
863.108	14043
863.24	14282
863.372	13917
863.504	13936
863.636	13860
863.768	13967
863.9	13989
864.032	13898
864.164	13936
864.296	13989
864.428	13978
864.559	14039
864.691	14069
864.823	13997
864.954	14077
865.086	13986
865.217	13906
865.349	13913
865.48	13830
865.612	13986
865.743	14103
865.875	13993
866.006	13928
866.137	13959
866.269	13925
866.4	13928
866.531	13951
866.662	13830
866.793	13788
866.924	14035
867.055	14001
867.186	13970
867.317	13898
867.448	13849
867.579	13845
867.71	13906
867.841	13928
867.972	13902
868.103	13955
868.233	13902
868.364	14001
868.495	14043
868.625	14130
868.756	14336
868.886	14103
869.017	14240
869.147	14244
869.278	14328
869.408	14282
869.539	14237
869.669	14298
869.799	14168
869.929	14290
870.06	14328
870.19	14552
870.32	14442
870.45	14465
870.58	14610
870.71	14659
870.84	14716
870.97	14602
871.1	14514
871.23	14796
871.36	14804
871.489	14716
871.619	14746
871.749	14815
871.879	14727
872.008	14880
872.138	14777
872.267	14807
872.397	14629
872.526	14507
872.656	14590
872.785	14720
872.915	14853
873.044	14842
873.173	14769
873.303	14895
873.432	14800
873.561	14941
873.69	14921
873.819	14872
873.948	15020
874.077	14769
874.206	14804
874.335	14845
874.464	14937
874.593	15112
874.722	15062
874.851	15207
874.979	15154
875.108	15207
875.237	15070
875.365	15093
875.494	15165
875.623	15207
875.751	15051
875.88	15283
876.008	15302
876.136	15397
876.265	15538
876.393	15709
876.521	15751
876.65	15724
876.778	15656
876.906	15644
877.034	15496
877.162	15610
877.29	15488
877.418	15644
877.546	15515
877.674	15591
877.802	15599
877.93	15545
878.058	15603
878.185	15481
878.313	15534
878.441	15622
878.568	15401
878.696	15500
878.824	15572
878.951	15622
879.079	15759
879.206	15846
879.333	15755
879.461	15542
879.588	15701
879.715	15732
879.842	15869
879.97	15633
880.097	15401
880.224	15386
880.351	15469
880.478	15412
880.605	15412
880.732	15511
880.859	15610
880.986	15511
881.112	15519
881.239	15306
881.366	15222
881.493	15097
881.619	15077
881.746	15138
881.872	15062
881.999	15138
882.125	15032
882.252	15169
882.378	15176
882.505	15245
882.631	15135
882.757	14891
882.883	14937
883.01	14883
883.136	14914
883.262	14701
883.388	14785
883.514	14910
883.64	14990
883.766	14853
883.892	14613
884.018	14682
884.143	14937
884.269	14979
884.395	14545
884.52	14560
884.646	14625
884.772	14526
884.897	14579
885.023	14571
885.148	14613
885.274	14720
885.399	14701
885.524	14602
885.65	14606
885.775	14598
885.9	14556
886.025	14769
886.15	14655
886.275	14594
886.4	14507
886.525	14606
886.65	14564
886.775	14629
886.9	14804
887.025	14826
887.149	14587
887.274	14423
887.399	14381
887.523	14389
887.648	14381
887.773	14358
887.897	14526
888.021	14476
888.146	14415
888.27	14602
888.395	14651
888.519	14499
888.643	14450
888.767	14480
888.891	14404
889.015	14282
889.139	14290
889.263	14275
889.387	14404
889.511	14473
889.635	14419
889.759	14278
889.883	14301
890.006	14328
890.13	14396
890.254	14221
890.377	14210
890.501	14077
890.624	14134
890.748	14145
890.871	14035
890.995	13997
891.118	13955
891.241	14077
891.364	13978
891.488	14161
891.611	13967
891.734	14024
891.857	14050
891.98	14123
892.103	14126
892.226	14039
892.349	13921
892.471	13780
892.594	13963
892.717	13974
892.839	13909
892.962	13993
893.085	14096
893.207	14008
893.33	13871
893.452	13982
893.575	14035
893.697	13940
893.819	14248
893.941	14096
894.064	14248
894.186	14039
894.308	13997
894.43	14092
894.552	14180
894.674	14142
894.796	14096
894.918	14096
895.04	14031
895.161	14100
895.283	14164
895.405	14012
895.526	14176
895.648	14103
895.769	14164
895.891	14290
896.012	14202
896.134	14256
896.255	14168
896.376	14157
896.498	14259
896.619	14221
896.74	14164
896.861	14290
896.982	14568
897.103	14598
897.224	14511
897.345	14385
897.466	14381
897.587	14438
897.708	14602
897.828	14461
897.949	14374
898.07	14412
898.19	14454
898.311	14632
898.431	14427
898.552	14518
898.672	14606
898.792	14648
898.913	14617
899.033	14552
899.153	14446
899.273	14336
899.393	14400
899.513	14377
899.633	14469
899.753	14419
899.873	14377
899.993	14396
900.113	14351
900.232	14427
900.352	14355
900.472	14256
900.591	14248
900.711	14351
900.83	14199
900.95	14431
901.069	14366
901.189	14172
901.308	13997
901.427	13936
901.546	13940
901.665	13978
901.784	13940
901.904	13784
902.023	13715
902.141	13578
902.26	13529
902.379	13567
902.498	13605
902.617	13499
902.735	13685
902.854	13540
902.973	13491
903.091	13263
903.21	13187
903.328	13225
903.446	13183
903.565	13099
903.683	13107
903.801	12958
903.919	13057
904.038	13084
904.156	12935
904.274	12962
904.392	12897
904.51	12867
904.627	12890
904.745	12993
904.863	12848
904.981	12707
905.098	12601
905.216	12635
905.334	12559
905.451	12589
905.569	12555
905.686	12608
905.803	12532
905.921	12395
906.038	12532
906.155	12372
906.272	12311
906.389	12414
906.506	12209
906.623	12190
906.74	12216
906.857	12045
906.974	12152
907.091	12239
907.208	12266
907.324	12243
907.441	12163
907.557	11965
907.674	11965
907.79	11840
907.907	11878
908.023	11958
908.139	11851
908.256	11889
908.372	11866
908.488	11935
908.604	11676
908.72	11665
908.836	11741
908.952	11684
909.068	11695
909.184	11798
909.3	11615
909.415	11718
909.531	11809
909.647	11444
909.762	11452
909.878	11417
909.993	11512
910.108	11467
910.224	11376
910.339	11322
910.454	11334
910.57	11265
910.685	11315
910.8	11516
910.915	11444
911.03	11220
911.145	11212
911.259	11143
911.374	11151
911.489	11166
911.604	10976
911.718	10885
911.833	10889
911.947	10744
912.062	10729
912.176	10911
912.291	10904
912.405	10850
912.519	11041
912.633	11170
912.748	10995
912.862	10976
912.976	10809
913.09	10672
913.204	10748
913.318	10771
913.431	10858
913.545	10881
913.659	10923
913.772	10812
913.886	10649
914	10584
914.113	10828
914.226	10778
914.34	10752
914.453	10615
914.566	10790
914.68	10603
914.793	10592
914.906	10466
915.019	10310
915.132	10295
915.245	10394
915.358	10466
915.47	10451
915.583	10523
915.696	10474
915.809	10542
915.921	10558
916.034	10371
916.146	10363
916.259	10382
916.371	10398
916.483	10459
916.595	10379
916.708	10329
916.82	10417
916.932	10299
917.044	10363
917.156	10268
917.268	10238
917.38	10249
917.491	10230
917.603	10280
917.715	10310
917.826	10363
917.938	10219
918.049	10147
918.161	10291
918.272	10367
918.384	10405
918.495	10306
918.606	10188
918.717	10109
918.828	10173
918.939	10185
919.05	10048
919.161	10135
919.272	9922
919.383	10048
919.494	10150
919.604	10379
919.715	10215
919.826	10090
919.936	10166
920.047	10227
920.157	10105
920.267	10360
920.378	10215
920.488	10147
920.598	10367
920.708	10554
920.818	10333
920.928	10352
921.038	10519
921.148	10481
921.258	10150
921.368	10158
921.477	10044
921.587	10006
921.697	9975
921.806	10040
921.916	9903
922.025	9751
922.134	9770
922.244	9614
922.353	9717
922.462	9545
922.571	9576
922.68	9405
922.789	9355
922.898	9488
923.007	9412
923.116	9416
923.224	9401
923.333	9336
923.442	9291
923.55	9287
923.659	9313
923.767	9325
923.876	9275
923.984	9363
924.092	9199
924.201	9264
924.309	9321
924.417	9253
924.525	9268
924.633	9233
924.741	10147
924.849	9047
924.956	9249
925.064	9070
925.172	8998
925.279	9123
925.387	9093
925.494	9028
925.602	9085
925.709	9264
925.816	9051
925.924	9051
926.031	9146
926.138	8982
926.245	9081
926.352	8963
926.459	9184
926.566	9135
926.673	9024
926.779	8929
926.886	8880
926.993	8811
927.099	8788
927.206	8804
927.312	8701
927.419	8777
927.525	8773
927.631	8895
927.737	8739
927.843	8663
927.95	8610
928.056	8651
928.162	8739
928.267	8750
928.373	9218
928.479	8807
928.585	8587
928.69	8731
928.796	8708
928.901	8598
929.007	8404
929.112	8648
929.218	8648
929.323	8613
929.428	8465
929.533	8689
929.638	8446
929.743	8533
929.848	8560
929.953	8484
930.058	8442
930.163	8229
930.267	8305
930.372	8381
930.477	8259
930.581	8469
930.685	8370
930.79	8294
930.894	8320
930.998	8229
931.103	8309
931.207	8020
931.311	8012
931.415	7936
931.519	7719
931.623	7772
