Data from test_V78500241_3452.txt Node
Date: Fri Mar 25 14:57:45 CST 2022
User: usil
Spectrometer: V785-0024
Trigger mode: 0
Integration Time (sec): 4.000000E-1
Scans to average: 1
Nonlinearity correction enabled: false
Boxcar width: 0
Storing dark spectrum: false
XAxis mode: Wavelengths
Number of Pixels in Spectrum: 1024
>>>>>Begin Spectral Data<<<<<
801.071	21956
801.214	21736
801.356	21622
801.499	21424
801.641	21287
801.783	21214
801.926	21401
802.068	21188
802.211	21108
802.353	21173
802.496	20864
802.638	20834
802.78	20758
802.923	20712
803.065	20678
803.208	20522
803.35	20621
803.492	20739
803.635	20826
803.777	20648
803.919	20583
804.061	20998
804.204	20617
804.346	20632
804.488	20473
804.63	20598
804.773	20408
804.915	20590
805.057	20663
805.199	20488
805.341	20682
805.483	20571
805.626	20564
805.768	20613
805.91	20545
806.052	20503
806.194	20336
806.336	20686
806.478	20537
806.62	20434
806.762	20579
806.904	20754
807.046	20830
807.188	20857
807.33	20739
807.472	20857
807.614	20769
807.756	20727
807.898	20670
808.04	20499
808.182	20556
808.324	20705
808.465	20739
808.607	20807
808.749	20842
808.891	20872
809.033	21036
809.174	20849
809.316	20735
809.458	20883
809.6	20952
809.741	20921
809.883	21036
810.025	20990
810.166	20918
810.308	20990
810.45	21028
810.591	20842
810.733	20781
810.875	20716
811.016	20568
811.158	20606
811.299	20686
811.441	20716
811.582	20746
811.724	20625
811.865	20522
812.007	20568
812.148	20568
812.29	20602
812.431	20811
812.573	20921
812.714	21100
812.855	21123
812.997	21291
813.138	21378
813.279	21298
813.421	21165
813.562	21017
813.703	20842
813.845	20758
813.986	20457
814.127	20214
814.268	20103
814.41	20252
814.551	20240
814.692	20320
814.833	20100
814.974	20103
815.115	20126
815.256	19993
815.397	20062
815.539	19978
815.68	20039
815.821	19868
815.962	19814
816.103	19989
816.244	19734
816.385	19708
816.526	19609
816.666	19525
816.807	19255
816.948	19480
817.089	19476
817.23	19343
817.371	19293
817.512	19339
817.653	19240
817.793	19213
817.934	19247
818.075	19343
818.216	19308
818.356	19190
818.497	19129
818.638	19004
818.778	19012
818.919	18970
819.06	19031
819.2	19114
819.341	19148
819.481	19190
819.622	19392
819.762	19480
819.903	19377
820.043	19335
820.184	19358
820.324	19255
820.465	19228
820.605	19259
820.746	19206
820.886	19122
821.026	19209
821.167	19175
821.307	19301
821.447	19225
821.588	19156
821.728	18989
821.868	18757
822.008	18734
822.149	18726
822.289	18616
822.429	18471
822.569	18342
822.709	18410
822.849	18304
822.99	18136
823.13	18133
823.27	18258
823.41	17992
823.55	17977
823.69	18015
823.83	18022
823.97	17920
824.11	17866
824.25	17737
824.389	17813
824.529	17893
824.669	17775
824.809	17931
824.949	17908
825.089	17722
825.228	17748
825.368	17543
825.508	17592
825.648	17649
825.787	17657
825.927	17657
826.067	17554
826.206	17581
826.346	17570
826.485	17573
826.625	17524
826.765	17672
826.904	17520
827.044	17398
827.183	17250
827.323	17258
827.462	17311
827.601	17288
827.741	17197
827.88	17174
828.02	17136
828.159	17197
828.298	17345
828.437	17185
828.577	17162
828.716	17376
828.855	17273
828.994	16999
829.134	17029
829.273	17029
829.412	16987
829.551	16930
829.69	16908
829.829	17060
829.968	17121
830.107	17056
830.246	17102
830.385	16934
830.524	16858
830.663	16908
830.802	16729
830.941	16645
831.08	16599
831.219	16679
831.357	16706
831.496	16797
831.635	16618
831.774	16592
831.913	16580
832.051	16367
832.19	16371
832.329	16554
832.467	16238
832.606	16303
832.744	16261
832.883	16443
833.022	16257
833.16	16356
833.299	16371
833.437	16299
833.576	16352
833.714	16379
833.852	16287
833.991	16421
834.129	16440
834.267	16440
834.406	16284
834.544	16417
834.682	16341
834.821	16474
834.959	16588
835.097	16409
835.235	16516
835.373	16546
835.511	16474
835.65	16306
835.788	16443
835.926	16082
836.064	16207
836.202	16078
836.34	16367
836.478	16390
836.615	16371
836.753	16344
836.891	16459
837.029	16390
837.167	16219
837.305	16261
837.443	16226
837.58	16200
837.718	16291
837.856	16242
837.993	16226
838.131	16196
838.269	16048
838.406	16082
838.544	16082
838.681	15937
838.819	15835
838.956	15679
839.094	15804
839.231	15819
839.369	15876
839.506	16147
839.643	16051
839.781	15728
839.918	15747
840.055	15648
840.193	15747
840.33	15701
840.467	15701
840.604	15724
840.742	16071
840.879	15644
841.016	15644
841.153	15736
841.29	15880
841.427	15652
841.564	15838
841.701	15755
841.838	15705
841.975	15561
842.112	15591
842.249	15511
842.385	15412
842.522	15686
842.659	15576
842.796	15450
842.933	15424
843.069	15469
843.206	15538
843.343	15549
843.479	15580
843.616	15488
843.752	15367
843.889	15195
844.025	15374
844.162	15237
844.298	15420
844.435	15389
844.571	15230
844.708	15355
844.844	15492
844.98	15492
845.117	15447
845.253	15313
845.389	15294
845.525	15203
845.661	15104
845.798	15089
845.934	15188
846.07	15097
846.206	15264
846.342	15184
846.478	15074
846.614	15024
846.75	14864
846.886	14933
847.022	14986
847.158	14834
847.294	14804
847.429	14960
847.565	14921
847.701	15085
847.837	14731
847.972	14621
848.108	14674
848.244	14746
848.379	14503
848.515	14465
848.65	14389
848.786	14431
848.921	14469
849.057	14575
849.192	14564
849.328	14492
849.463	14476
849.598	14454
849.734	14389
849.869	14377
850.004	14275
850.14	14271
850.275	14286
850.41	14164
850.545	14172
850.68	14218
850.815	14298
850.95	14187
851.085	14427
851.22	14381
851.355	14324
851.49	14271
851.625	14172
851.76	14202
851.895	14096
852.03	14138
852.165	14256
852.299	14229
852.434	14355
852.569	14301
852.703	14301
852.838	14324
852.973	14465
853.107	14381
853.242	14286
853.376	14157
853.511	14008
853.645	14100
853.78	14233
853.914	14153
854.048	14005
854.183	14088
854.317	14119
854.451	14305
854.585	14153
854.72	14096
854.854	14237
854.988	14050
855.122	14043
855.256	14046
855.39	14210
855.524	14305
855.658	14065
855.792	14142
855.926	14123
856.06	14206
856.194	14149
856.327	14111
856.461	14062
856.595	14035
856.729	14084
856.862	14195
856.996	14149
857.13	14240
857.263	14225
857.397	14229
857.53	14050
857.664	14145
857.797	14123
857.931	14256
858.064	14240
858.197	14199
858.331	14096
858.464	14043
858.597	13849
858.731	14191
858.864	14123
858.997	14046
859.13	14142
859.263	14153
859.396	14142
859.529	14119
859.662	14062
859.795	14092
859.928	14142
860.061	14301
860.194	14324
860.327	14195
860.46	14119
860.592	14298
860.725	14218
860.858	14199
860.99	14100
861.123	13978
861.256	14092
861.388	14134
861.521	14788
861.653	14103
861.786	13898
861.918	13974
862.05	14027
862.183	14123
862.315	14142
862.447	14058
862.58	14092
862.712	13909
862.844	13856
862.976	13955
863.108	14001
863.24	14419
863.372	13913
863.504	13871
863.636	13890
863.768	13959
863.9	13982
864.032	13940
864.164	13871
864.296	13921
864.428	13993
864.559	13989
864.691	14058
864.823	13978
864.954	13894
865.086	13951
865.217	13906
865.349	13906
865.48	13868
865.612	13970
865.743	14100
865.875	13852
866.006	13906
866.137	13932
866.269	13951
866.4	13928
866.531	13803
866.662	13936
866.793	13822
866.924	13940
867.055	13822
867.186	13928
867.317	13837
867.448	13799
867.579	13852
867.71	13864
867.841	13932
867.972	13856
868.103	13925
868.233	13875
868.364	13974
868.495	14001
868.625	14107
868.756	14313
868.886	14077
869.017	14142
869.147	14248
869.278	14366
869.408	14206
869.539	14191
869.669	14225
869.799	14256
869.929	14210
870.06	14252
870.19	14454
870.32	14427
870.45	14503
870.58	14697
870.71	14720
870.84	14697
870.97	14564
871.1	14556
871.23	14769
871.36	14689
871.489	14594
871.619	14727
871.749	14640
871.879	14765
872.008	14842
872.138	14788
872.267	14792
872.397	14632
872.526	14518
872.656	14537
872.785	14590
872.915	14674
873.044	14834
873.173	14796
873.303	14815
873.432	14861
873.561	14819
873.69	14872
873.819	14758
873.948	14864
874.077	14788
874.206	14746
874.335	14788
874.464	14963
874.593	15123
874.722	15074
874.851	15173
874.979	15150
875.108	15157
875.237	15074
875.365	15043
875.494	15146
875.623	15214
875.751	15127
875.88	15135
876.008	15237
876.136	15313
876.265	15549
876.393	15652
876.521	15713
876.65	15629
876.778	15511
876.906	15367
877.034	15496
877.162	15561
877.29	15492
877.418	15515
877.546	15564
877.674	15595
877.802	15587
877.93	15644
878.058	15549
878.185	15401
878.313	15519
878.441	15542
878.568	15332
878.696	15553
878.824	15603
878.951	15599
879.079	15717
879.206	15793
879.333	15717
879.461	15656
879.588	15629
879.715	15679
879.842	15766
879.97	15606
880.097	15386
880.224	15431
880.351	15420
880.478	15408
880.605	15321
880.732	15340
880.859	15637
880.986	15431
881.112	15447
881.239	15199
881.366	15222
881.493	15001
881.619	15032
881.746	15028
881.872	15013
881.999	15058
882.125	15028
882.252	15093
882.378	15074
882.505	15157
882.631	14902
882.757	14910
882.883	14990
883.01	14861
883.136	14864
883.262	14693
883.388	14743
883.514	14979
883.64	14815
883.766	14937
883.892	14659
884.018	14701
884.143	14807
884.269	15017
884.395	14739
884.52	14560
884.646	14636
884.772	14560
884.897	14484
885.023	14590
885.148	14765
885.274	14727
885.399	14667
885.524	14610
885.65	14575
885.775	14530
885.9	14632
886.025	14804
886.15	14708
886.275	14587
886.4	14480
886.525	14438
886.65	14484
886.775	14499
886.9	14674
887.025	14868
887.149	14587
887.274	14412
887.399	14358
887.523	14336
887.648	14343
887.773	14275
887.897	14457
888.021	14465
888.146	14377
888.27	14552
888.395	14549
888.519	14473
888.643	14473
888.767	14499
888.891	14393
889.015	14271
889.139	14305
889.263	14252
889.387	14454
889.511	14533
889.635	14343
889.759	14305
889.883	14202
890.006	14278
890.13	14339
890.254	14240
890.377	14256
890.501	14050
890.624	14077
890.748	14248
890.871	14081
890.995	13940
891.118	13871
891.241	13970
891.364	13936
891.488	14145
891.611	13917
891.734	14027
891.857	14077
891.98	14016
892.103	14084
892.226	14046
892.349	14043
892.471	13890
892.594	13936
892.717	13993
892.839	13902
892.962	13932
893.085	13989
893.207	13963
893.33	13909
893.452	14001
893.575	14103
893.697	13883
893.819	14187
893.941	14221
894.064	14123
894.186	13944
894.308	13917
894.43	14084
894.552	14168
894.674	14119
894.796	13947
894.918	14039
895.04	14031
895.161	14115
895.283	14081
895.405	14024
895.526	13982
895.648	14084
895.769	14157
895.891	14145
896.012	14206
896.134	14263
896.255	14149
896.376	14164
896.498	14142
896.619	14202
896.74	14100
896.861	14214
896.982	14484
897.103	14632
897.224	14473
897.345	14408
897.466	14393
897.587	14309
897.708	14457
897.828	14442
897.949	14400
898.07	14153
898.19	14377
898.311	14655
898.431	14442
898.552	14503
898.672	14488
898.792	14667
898.913	14511
899.033	14396
899.153	14351
899.273	14248
899.393	14278
899.513	14263
899.633	14355
899.753	14294
899.873	14176
899.993	14347
900.113	14343
900.232	14309
900.352	14317
900.472	14218
900.591	14218
900.711	14282
900.83	14088
900.95	14336
901.069	14267
901.189	14164
901.308	13944
901.427	13879
901.546	13852
901.665	14020
901.784	13947
901.904	13822
902.023	13639
902.141	13525
902.26	13491
902.379	13495
902.498	13396
902.617	13426
902.735	13544
902.854	13362
902.973	13289
903.091	13202
903.21	13209
903.328	13183
903.446	13069
903.565	13053
903.683	13110
903.801	12825
903.919	13110
904.038	13042
904.156	12913
904.274	12871
904.392	12875
904.51	12844
904.627	12928
904.745	12928
904.863	12837
904.981	12673
905.098	12506
905.216	12559
905.334	12620
905.451	12521
905.569	12585
905.686	12620
905.803	12544
905.921	12311
906.038	12509
906.155	12342
906.272	12353
906.389	12201
906.506	12175
906.623	12190
906.74	12155
906.857	12076
906.974	12064
907.091	12311
907.208	12247
907.324	12171
907.441	12003
907.557	11870
907.674	11916
907.79	11798
907.907	11855
908.023	11859
908.139	11935
908.256	11855
908.372	11836
908.488	11779
908.604	11672
908.72	11684
908.836	11604
908.952	11547
909.068	11737
909.184	11668
909.3	11611
909.415	11688
909.531	11684
909.647	11444
909.762	11417
909.878	11471
909.993	11353
910.108	11391
910.224	11425
910.339	11429
910.454	11330
910.57	11360
910.685	11223
910.8	11505
910.915	11387
911.03	11235
911.145	11117
911.259	11155
911.374	11128
911.489	11048
911.604	11056
911.718	10999
911.833	10915
911.947	10759
912.062	10656
912.176	10877
912.291	10896
912.405	10866
912.519	11147
912.633	11155
912.748	10938
912.862	10900
912.976	10801
913.09	10580
913.204	10706
913.318	10740
913.431	10858
913.545	10767
913.659	10953
913.772	10824
913.886	10702
914	10763
914.113	10820
914.226	10752
914.34	10839
914.453	10542
914.566	10714
914.68	10630
914.793	10584
914.906	10413
915.019	10310
915.132	10215
915.245	10352
915.358	10398
915.47	10470
915.583	10409
915.696	10405
915.809	10527
915.921	10577
916.034	10303
916.146	10356
916.259	10363
916.371	10481
916.483	10341
916.595	10333
916.708	10291
916.82	10341
916.932	10303
917.044	10375
917.156	10230
917.268	10124
917.38	10265
917.491	10169
917.603	10310
917.715	10329
917.826	10348
917.938	10166
918.049	10086
918.161	10188
918.272	10337
918.384	10394
918.495	10181
918.606	10158
918.717	10086
918.828	10101
918.939	10131
919.05	9998
919.161	10097
919.272	9930
919.383	9998
919.494	10192
919.604	10356
919.715	10124
919.826	10055
919.936	10120
920.047	10181
920.157	10158
920.267	10371
920.378	10105
920.488	10120
920.598	10318
920.708	10546
920.818	10402
920.928	10306
921.038	10497
921.148	10504
921.258	10154
921.368	10063
921.477	10006
921.587	10013
921.697	9861
921.806	9979
921.916	9854
922.025	9709
922.134	9682
922.244	9644
922.353	9732
922.462	9675
922.571	9443
922.68	9439
922.789	9279
922.898	9401
923.007	9340
923.116	9466
923.224	9370
923.333	9351
923.442	9332
923.55	9260
923.659	9294
923.767	9412
923.876	9230
923.984	9325
924.092	9188
924.201	9211
924.309	9332
924.417	9218
924.525	9161
924.633	9230
924.741	10105
924.849	8979
924.956	9192
925.064	8986
925.172	8948
925.279	8952
925.387	9001
925.494	9024
925.602	9112
925.709	9123
925.816	9066
925.924	9047
926.031	9104
926.138	9013
926.245	9131
926.352	8994
926.459	9131
926.566	9142
926.673	9036
926.779	8986
926.886	8857
926.993	8842
927.099	8739
927.206	8701
927.312	8735
927.419	8762
927.525	8739
927.631	8758
927.737	8727
927.843	8682
927.95	8530
928.056	8655
928.162	8648
928.267	8712
928.373	9256
928.479	8712
928.585	8579
928.69	8693
928.796	8667
928.901	8648
929.007	8450
929.112	8571
929.218	8552
929.323	8522
929.428	8473
929.533	8583
929.638	8412
929.743	8450
929.848	8533
929.953	8396
930.058	8332
930.163	8263
930.267	8282
930.372	8404
930.477	8248
930.581	8499
930.685	8275
930.79	8195
930.894	8202
930.998	8180
931.103	8419
931.207	7997
931.311	7967
931.415	7921
931.519	7689
931.623	7704
