Data from test_V78500241_1685.txt Node
Date: Fri Mar 25 14:45:26 CST 2022
User: usil
Spectrometer: V785-0024
Trigger mode: 0
Integration Time (sec): 4.000000E-1
Scans to average: 1
Nonlinearity correction enabled: false
Boxcar width: 0
Storing dark spectrum: false
XAxis mode: Wavelengths
Number of Pixels in Spectrum: 1024
>>>>>Begin Spectral Data<<<<<
801.071	22265
801.214	22207
801.356	21975
801.499	21797
801.641	21648
801.783	21648
801.926	21667
802.068	21458
802.211	21500
802.353	21359
802.496	21260
802.638	21089
802.78	21180
802.923	21066
803.065	21028
803.208	20979
803.35	20971
803.492	21195
803.635	21093
803.777	21032
803.919	21135
804.061	21382
804.204	21116
804.346	20929
804.488	20823
804.63	20963
804.773	20788
804.915	20918
805.057	20986
805.199	20899
805.341	20925
805.483	20994
805.626	21047
805.768	20857
805.91	20838
806.052	20895
806.194	20887
806.336	21043
806.478	20979
806.62	20765
806.762	20883
806.904	21093
807.046	21355
807.188	21146
807.33	21397
807.472	21306
807.614	21169
807.756	21207
807.898	20998
808.04	20986
808.182	21070
808.324	21039
808.465	20982
808.607	21146
808.749	21313
808.891	21488
809.033	21534
809.174	21348
809.316	21363
809.458	21454
809.6	21283
809.741	21420
809.883	21279
810.025	21625
810.166	21424
810.308	21424
810.45	21408
810.591	21435
810.733	21112
810.875	21211
811.016	21017
811.158	20952
811.299	21013
811.441	21150
811.582	21218
811.724	21074
811.865	21032
812.007	21093
812.148	20994
812.29	21066
812.431	21176
812.573	21447
812.714	21488
812.855	21549
812.997	21705
813.138	21793
813.279	21694
813.421	21618
813.562	21504
813.703	21340
813.845	21207
813.986	20986
814.127	20762
814.268	20727
814.41	20602
814.551	20583
814.692	20678
814.833	20499
814.974	20552
815.115	20537
815.256	20503
815.397	20419
815.539	20484
815.68	20263
815.821	20358
815.962	20427
816.103	20244
816.244	20252
816.385	20115
816.526	19978
816.666	19989
816.807	19856
816.948	19906
817.089	19947
817.23	19681
817.371	19681
817.512	19750
817.653	19685
817.793	19693
817.934	19753
818.075	19791
818.216	19811
818.356	19803
818.497	19518
818.638	19438
818.778	19407
818.919	19464
819.06	19544
819.2	19483
819.341	19647
819.481	19651
819.622	19780
819.762	19955
819.903	19871
820.043	19818
820.184	19681
820.324	19765
820.465	19666
820.605	19746
820.746	19712
820.886	19422
821.026	19719
821.167	19658
821.307	19753
821.447	19567
821.588	19620
821.728	19396
821.868	19259
822.008	19179
822.149	19221
822.289	19198
822.429	18878
822.569	18909
822.709	18859
822.849	18665
822.99	18627
823.13	18692
823.27	18544
823.41	18445
823.55	18407
823.69	18388
823.83	18502
823.97	18464
824.11	18277
824.25	18178
824.389	18201
824.529	18266
824.669	18228
824.809	18277
824.949	18251
825.089	18300
825.228	18296
825.368	17954
825.508	18129
825.648	18053
825.787	18019
825.927	18011
826.067	17939
826.206	17988
826.346	17954
826.485	18060
826.625	17920
826.765	18205
826.904	18007
827.044	17703
827.183	17703
827.323	17657
827.462	17665
827.601	17684
827.741	17680
827.88	17653
828.02	17520
828.159	17684
828.298	17668
828.437	17695
828.577	17570
828.716	17775
828.855	17653
828.994	17516
829.134	17444
829.273	17455
829.412	17353
829.551	17322
829.69	17383
829.829	17433
829.968	17570
830.107	17539
830.246	17463
830.385	17337
830.524	17349
830.663	17212
830.802	17113
830.941	16987
831.08	16995
831.219	17109
831.357	16999
831.496	17235
831.635	17079
831.774	16911
831.913	16915
832.051	16862
832.19	16729
832.329	16824
832.467	16733
832.606	16664
832.744	16713
832.883	16675
833.022	16790
833.16	16717
833.299	16797
833.437	16824
833.576	16755
833.714	16660
833.852	16858
833.991	16862
834.129	16790
834.267	16824
834.406	16858
834.544	16786
834.682	16790
834.821	16862
834.959	16938
835.097	16733
835.235	16839
835.373	16820
835.511	16637
835.65	16694
835.788	16634
835.926	16611
836.064	16474
836.202	16519
836.34	16759
836.478	16767
836.615	16596
836.753	16626
836.891	16767
837.029	16752
837.167	16592
837.305	16596
837.443	16573
837.58	16535
837.718	16508
837.856	16573
837.993	16440
838.131	16519
838.269	16421
838.406	16497
838.544	16421
838.681	16223
838.819	16280
838.956	16116
839.094	16063
839.231	16074
839.369	16192
839.506	16542
839.643	16352
839.781	16124
839.918	16086
840.055	16105
840.193	16078
840.33	15994
840.467	16105
840.604	16021
840.742	16390
840.879	15827
841.016	16086
841.153	15956
841.29	16207
841.427	16173
841.564	16090
841.701	16002
841.838	16048
841.975	15983
842.112	16013
842.249	15953
842.385	15770
842.522	15983
842.659	15960
842.796	15888
842.933	15926
843.069	15804
843.206	15812
843.343	15956
843.479	15907
843.616	15991
843.752	15614
843.889	15625
844.025	15888
844.162	15622
844.298	15762
844.435	15701
844.571	15610
844.708	15698
844.844	15808
844.98	15907
845.117	15797
845.253	15526
845.389	15492
845.525	15534
845.661	15572
845.798	15473
845.934	15477
846.07	15397
846.206	15488
846.342	15568
846.478	15450
846.614	15237
846.75	15188
846.886	15176
847.022	15214
847.158	15165
847.294	15195
847.429	15207
847.565	15321
847.701	15439
847.837	14986
847.972	14815
848.108	14960
848.244	15051
848.379	14960
848.515	14834
848.65	14792
848.786	14834
848.921	14872
849.057	14895
849.192	14868
849.328	14842
849.463	14880
849.598	14785
849.734	14765
849.869	14689
850.004	14602
850.14	14632
850.275	14549
850.41	14533
850.545	14507
850.68	14598
850.815	14537
850.95	14648
851.085	14686
851.22	14674
851.355	14594
851.49	14598
851.625	14556
851.76	14564
851.895	14480
852.03	14461
852.165	14689
852.299	14545
852.434	14594
852.569	14659
852.703	14610
852.838	14655
852.973	14796
853.107	14617
853.242	14507
853.376	14495
853.511	14415
853.645	14324
853.78	14579
853.914	14412
854.048	14419
854.183	14446
854.317	14446
854.451	14594
854.585	14454
854.72	14370
854.854	14484
854.988	14385
855.122	14370
855.256	14263
855.39	14393
855.524	14465
855.658	14465
855.792	14545
855.926	14408
856.06	14511
856.194	14606
856.327	14434
856.461	14355
856.595	14389
856.729	14320
856.862	14492
856.996	14423
857.13	14450
857.263	14526
857.397	14564
857.53	14450
857.664	14480
857.797	14552
857.931	14533
858.064	14507
858.197	14511
858.331	14480
858.464	14400
858.597	14355
858.731	14450
858.864	14476
858.997	14358
859.13	14469
859.263	14503
859.396	14514
859.529	14389
859.662	14385
859.795	14385
859.928	14480
860.061	14537
860.194	14644
860.327	14507
860.46	14480
860.592	14537
860.725	14644
860.858	14514
860.99	14434
861.123	14374
861.256	14248
861.388	14469
861.521	14963
861.653	14415
861.786	14206
861.918	14320
862.05	14374
862.183	14438
862.315	14495
862.447	14381
862.58	14400
862.712	14248
862.844	14126
862.976	14214
863.108	14229
863.24	14708
863.372	14191
863.504	14210
863.636	14248
863.768	14305
863.9	14161
864.032	14115
864.164	14256
864.296	14263
864.428	14305
864.559	14313
864.691	14290
864.823	14374
864.954	14324
865.086	14233
865.217	14221
865.349	14168
865.48	14195
865.612	14210
865.743	14355
865.875	14286
866.006	14225
866.137	14183
866.269	14267
866.4	14221
866.531	14199
866.662	14183
866.793	14123
866.924	14145
867.055	14191
867.186	14103
867.317	14081
867.448	14084
867.579	14195
867.71	14115
867.841	14206
867.972	14180
868.103	14256
868.233	14161
868.364	14225
868.495	14267
868.625	14419
868.756	14560
868.886	14351
869.017	14332
869.147	14545
869.278	14511
869.408	14476
869.539	14423
869.669	14598
869.799	14518
869.929	14575
870.06	14541
870.19	14796
870.32	14838
870.45	14838
870.58	14769
870.71	14952
870.84	14876
870.97	14804
871.1	14785
871.23	15074
871.36	15066
871.489	15043
871.619	14990
871.749	15074
871.879	14994
872.008	15131
872.138	15009
872.267	15077
872.397	14868
872.526	14941
872.656	14830
872.785	14807
872.915	15074
873.044	15116
873.173	15135
873.303	15173
873.432	15169
873.561	15222
873.69	15165
873.819	15161
873.948	15241
874.077	15112
874.206	15161
874.335	15169
874.464	15329
874.593	15469
874.722	15382
874.851	15431
874.979	15370
875.108	15549
875.237	15336
875.365	15351
875.494	15431
875.623	15515
875.751	15344
875.88	15325
876.008	15599
876.136	15557
876.265	15850
876.393	15975
876.521	15854
876.65	15884
876.778	15880
876.906	15808
877.034	15770
877.162	15812
877.29	15694
877.418	15739
877.546	15797
877.674	15876
877.802	15831
877.93	15785
878.058	15819
878.185	15724
878.313	15869
878.441	15861
878.568	15606
878.696	15713
878.824	15850
878.951	15884
879.079	15918
879.206	16173
879.333	16013
879.461	15983
879.588	15960
879.715	16051
879.842	16036
879.97	15930
880.097	15663
880.224	15663
880.351	15701
880.478	15812
880.605	15625
880.732	15656
880.859	15953
880.986	15739
881.112	15648
881.239	15530
881.366	15363
881.493	15370
881.619	15302
881.746	15424
881.872	15393
881.999	15252
882.125	15268
882.252	15310
882.378	15298
882.505	15481
882.631	15233
882.757	15173
882.883	15241
883.01	15146
883.136	15123
883.262	15001
883.388	14914
883.514	15241
883.64	15146
883.766	15093
883.892	14941
884.018	14994
884.143	15237
884.269	15279
884.395	14986
884.52	14800
884.646	14876
884.772	14716
884.897	14834
885.023	14849
885.148	14887
885.274	15009
885.399	14887
885.524	14971
885.65	14868
885.775	14891
885.9	14876
886.025	15036
886.15	14902
886.275	14880
886.4	14811
886.525	14781
886.65	14777
886.775	14963
886.9	14956
887.025	15055
887.149	14906
887.274	14762
887.399	14625
887.523	14708
887.648	14701
887.773	14549
887.897	14724
888.021	14785
888.146	14682
888.27	14769
888.395	14826
888.519	14785
888.643	14731
888.767	14705
888.891	14655
889.015	14526
889.139	14613
889.263	14492
889.387	14606
889.511	14708
889.635	14693
889.759	14473
889.883	14552
890.006	14454
890.13	14606
890.254	14396
890.377	14556
890.501	14305
890.624	14320
890.748	14434
890.871	14237
890.995	14267
891.118	14134
891.241	14267
891.364	14244
891.488	14320
891.611	14218
891.734	14210
891.857	14332
891.98	14301
892.103	14259
892.226	14320
892.349	14237
892.471	14134
892.594	14267
892.717	14248
892.839	14161
892.962	14328
893.085	14309
893.207	14195
893.33	14172
893.452	14145
893.575	14286
893.697	14214
893.819	14396
893.941	14446
894.064	14370
894.186	14172
894.308	14195
894.43	14412
894.552	14442
894.674	14324
894.796	14252
894.918	14259
895.04	14309
895.161	14358
895.283	14267
895.405	14286
895.526	14381
895.648	14396
895.769	14275
895.891	14298
896.012	14427
896.134	14419
896.255	14320
896.376	14320
896.498	14355
896.619	14446
896.74	14377
896.861	14412
896.982	14686
897.103	14891
897.224	14705
897.345	14606
897.466	14651
897.587	14689
897.708	14807
897.828	14731
897.949	14682
898.07	14530
898.19	14583
898.311	14777
898.431	14610
898.552	14765
898.672	14842
898.792	14937
898.913	14785
899.033	14739
899.153	14594
899.273	14564
899.393	14541
899.513	14644
899.633	14545
899.753	14617
899.873	14533
899.993	14640
900.113	14644
900.232	14712
900.352	14629
900.472	14511
900.591	14442
900.711	14446
900.83	14507
900.95	14594
901.069	14564
901.189	14377
901.308	14305
901.427	14164
901.546	14168
901.665	14191
901.784	14202
901.904	14092
902.023	13947
902.141	13738
902.26	13738
902.379	13791
902.498	13765
902.617	13685
902.735	13658
902.854	13719
902.973	13613
903.091	13464
903.21	13403
903.328	13438
903.446	13400
903.565	13278
903.683	13331
903.801	13129
903.919	13152
904.038	13145
904.156	13107
904.274	13145
904.392	13050
904.51	13168
904.627	13065
904.745	13080
904.863	13145
904.981	12901
905.098	12730
905.216	12787
905.334	12856
905.451	12791
905.569	12795
905.686	12844
905.803	12768
905.921	12627
906.038	12768
906.155	12551
906.272	12490
906.389	12506
906.506	12426
906.623	12372
906.74	12327
906.857	12258
906.974	12277
907.091	12437
907.208	12479
907.324	12380
907.441	12391
907.557	12155
907.674	12159
907.79	12068
907.907	12041
908.023	12125
908.139	12133
908.256	12030
908.372	12041
908.488	12083
908.604	11927
908.72	11866
908.836	11874
908.952	11840
909.068	11958
909.184	11999
909.3	11882
909.415	11843
909.531	11954
909.647	11665
909.762	11630
909.878	11646
909.993	11703
910.108	11600
910.224	11619
910.339	11596
910.454	11539
910.57	11448
910.685	11452
910.8	11710
910.915	11661
911.03	11551
911.145	11368
911.259	11318
911.374	11395
911.489	11315
911.604	11258
911.718	11143
911.833	11045
911.947	11041
912.062	10949
912.176	11071
912.291	11094
912.405	10999
912.519	11356
912.633	11318
912.748	11197
912.862	11128
912.976	10927
913.09	10839
913.204	11006
913.318	11010
913.431	11090
913.545	11090
913.659	11060
913.772	10934
913.886	10862
914	10820
914.113	10885
914.226	11010
914.34	10965
914.453	10763
914.566	10904
914.68	10782
914.793	10774
914.906	10603
915.019	10561
915.132	10478
915.245	10607
915.358	10599
915.47	10622
915.583	10558
915.696	10660
915.809	10672
915.921	10729
916.034	10542
916.146	10596
916.259	10516
916.371	10573
916.483	10554
916.595	10512
916.708	10561
916.82	10546
916.932	10459
917.044	10497
917.156	10508
917.268	10421
917.38	10432
917.491	10459
917.603	10447
917.715	10561
917.826	10561
917.938	10481
918.049	10348
918.161	10424
918.272	10573
918.384	10519
918.495	10390
918.606	10344
918.717	10246
918.828	10287
918.939	10337
919.05	10276
919.161	10295
919.272	10112
919.383	10143
919.494	10371
919.604	10599
919.715	10284
919.826	10188
919.936	10265
920.047	10382
920.157	10348
920.267	10497
920.378	10314
920.488	10310
920.598	10500
920.708	10672
920.818	10558
920.928	10519
921.038	10611
921.148	10637
921.258	10367
921.368	10299
921.477	10276
921.587	10166
921.697	10032
921.806	10169
921.916	10029
922.025	9953
922.134	9846
922.244	9846
922.353	9869
922.462	9747
922.571	9644
922.68	9599
922.789	9545
922.898	9580
923.007	9572
923.116	9641
923.224	9488
923.333	9500
923.442	9545
923.55	9389
923.659	9435
923.767	9496
923.876	9458
923.984	9473
924.092	9393
924.201	9386
924.309	9500
924.417	9488
924.525	9382
924.633	9351
924.741	10287
924.849	9222
924.956	9291
925.064	9207
925.172	9154
925.279	9176
925.387	9207
925.494	9233
925.602	9340
925.709	9363
925.816	9245
925.924	9218
926.031	9279
926.138	9226
926.245	9195
926.352	9142
926.459	9283
926.566	9275
926.673	9131
926.779	9081
926.886	9108
926.993	8921
927.099	8914
927.206	8826
927.312	8883
927.419	8956
927.525	8963
927.631	8994
927.737	8899
927.843	8781
927.95	8754
928.056	8769
928.162	8769
928.267	8899
928.373	9370
928.479	8853
928.585	8750
928.69	8811
928.796	8864
928.901	8708
929.007	8541
929.112	8708
929.218	8670
929.323	8629
929.428	8587
929.533	8804
929.638	8610
929.743	8575
929.848	8667
929.953	8636
930.058	8503
930.163	8389
930.267	8370
930.372	8518
930.477	8370
930.581	8613
930.685	8480
930.79	8309
930.894	8396
930.998	8347
931.103	8511
931.207	8115
931.311	8092
931.415	8008
931.519	7837
931.623	7799
