Data from test_V78500241_1839.txt Node
Date: Fri Mar 25 14:46:31 CST 2022
User: usil
Spectrometer: V785-0024
Trigger mode: 0
Integration Time (sec): 4.000000E-1
Scans to average: 1
Nonlinearity correction enabled: false
Boxcar width: 0
Storing dark spectrum: false
XAxis mode: Wavelengths
Number of Pixels in Spectrum: 1024
>>>>>Begin Spectral Data<<<<<
801.071	22147
801.214	22150
801.356	21743
801.499	21618
801.641	21492
801.783	21431
801.926	21443
802.068	21443
802.211	21462
802.353	21272
802.496	21089
802.638	21024
802.78	20956
802.923	20891
803.065	20830
803.208	20758
803.35	20914
803.492	20952
803.635	20967
803.777	20845
803.919	20788
804.061	21211
804.204	20906
804.346	20701
804.488	20716
804.63	20689
804.773	20689
804.915	20845
805.057	20872
805.199	20769
805.341	20819
805.483	20781
805.626	20842
805.768	20640
805.91	20785
806.052	20663
806.194	20564
806.336	20830
806.478	20743
806.62	20678
806.762	20849
806.904	20937
807.046	21081
807.188	21017
807.33	21070
807.472	21081
807.614	20899
807.756	20994
807.898	20819
808.04	20902
808.182	20815
808.324	20849
808.465	20849
808.607	21055
808.749	21192
808.891	21241
809.033	21310
809.174	21230
809.316	21211
809.458	21116
809.6	21112
809.741	21173
809.883	21131
810.025	21332
810.166	21287
810.308	21237
810.45	21302
810.591	21157
810.733	20998
810.875	20952
811.016	20880
811.158	20750
811.299	20944
811.441	21017
811.582	20952
811.724	20807
811.865	20963
812.007	20872
812.148	20811
812.29	20971
812.431	20990
812.573	21184
812.714	21332
812.855	21466
812.997	21473
813.138	21648
813.279	21485
813.421	21348
813.562	21370
813.703	21161
813.845	21051
813.986	20781
814.127	20663
814.268	20587
814.41	20503
814.551	20499
814.692	20560
814.833	20275
814.974	20374
815.115	20377
815.256	20214
815.397	20282
815.539	20256
815.68	20298
815.821	20073
815.962	20195
816.103	20107
816.244	20050
816.385	19993
816.526	19986
816.666	19761
816.807	19483
816.948	19651
817.089	19696
817.23	19620
817.371	19696
817.512	19632
817.653	19457
817.793	19533
817.934	19563
818.075	19685
818.216	19647
818.356	19502
818.497	19514
818.638	19278
818.778	19343
818.919	19209
819.06	19324
819.2	19419
819.341	19457
819.481	19495
819.622	19651
819.762	19757
819.903	19696
820.043	19647
820.184	19525
820.324	19639
820.465	19563
820.605	19639
820.746	19556
820.886	19403
821.026	19434
821.167	19472
821.307	19582
821.447	19491
821.588	19434
821.728	19274
821.868	19137
822.008	18981
822.149	19012
822.289	19027
822.429	18688
822.569	18715
822.709	18639
822.849	18353
822.99	18437
823.13	18464
823.27	18467
823.41	18395
823.55	18247
823.69	18247
823.83	18262
823.97	18247
824.11	18026
824.25	18060
824.389	17939
824.529	18148
824.669	18110
824.809	18136
824.949	18049
825.089	18098
825.228	18030
825.368	17912
825.508	17828
825.648	17866
825.787	17817
825.927	17859
826.067	17821
826.206	17798
826.346	17863
826.485	17847
826.625	17767
826.765	17923
826.904	17840
827.044	17638
827.183	17615
827.323	17554
827.462	17649
827.601	17547
827.741	17573
827.88	17512
828.02	17436
828.159	17520
828.298	17478
828.437	17619
828.577	17585
828.716	17783
828.855	17368
828.994	17307
829.134	17360
829.273	17391
829.412	17155
829.551	17147
829.69	17288
829.829	17273
829.968	17398
830.107	17334
830.246	17326
830.385	17189
830.524	17216
830.663	17105
830.802	16957
830.941	16938
831.08	16919
831.219	16999
831.357	16904
831.496	17094
831.635	17025
831.774	16763
831.913	16713
832.051	16615
832.19	16748
832.329	16649
832.467	16637
832.606	16573
832.744	16500
832.883	16565
833.022	16691
833.16	16637
833.299	16634
833.437	16679
833.576	16626
833.714	16649
833.852	16706
833.991	16752
834.129	16634
834.267	16649
834.406	16759
834.544	16702
834.682	16691
834.821	16668
834.959	16869
835.097	16725
835.235	16736
835.373	16596
835.511	16668
835.65	16580
835.788	16561
835.926	16409
836.064	16329
836.202	16379
836.34	16618
836.478	16592
836.615	16489
836.753	16584
836.891	16641
837.029	16573
837.167	16481
837.305	16481
837.443	16398
837.58	16481
837.718	16470
837.856	16382
837.993	16390
838.131	16344
838.269	16249
838.406	16306
838.544	16230
838.681	16101
838.819	16116
838.956	16010
839.094	15880
839.231	16025
839.369	16109
839.506	16363
839.643	16200
839.781	16051
839.918	15854
840.055	15918
840.193	15968
840.33	15876
840.467	15994
840.604	15979
840.742	16219
840.879	15876
841.016	15895
841.153	15831
841.29	16059
841.427	15960
841.564	16074
841.701	15964
841.838	16017
841.975	15800
842.112	15945
842.249	15762
842.385	15755
842.522	15945
842.659	15842
842.796	15751
842.933	15770
843.069	15755
843.206	15709
843.343	15873
843.479	15789
843.616	15781
843.752	15618
843.889	15606
844.025	15663
844.162	15462
844.298	15751
844.435	15637
844.571	15435
844.708	15515
844.844	15584
844.98	15720
845.117	15671
845.253	15477
845.389	15462
845.525	15363
845.661	15473
845.798	15340
845.934	15462
846.07	15283
846.206	15374
846.342	15534
846.478	15325
846.614	15230
846.75	15051
846.886	15127
847.022	15260
847.158	15112
847.294	15157
847.429	15207
847.565	15055
847.701	15351
847.837	14834
847.972	14876
848.108	14880
848.244	14925
848.379	14781
848.515	14785
848.65	14625
848.786	14746
848.921	14716
849.057	14876
849.192	14823
849.328	14670
849.463	14819
849.598	14697
849.734	14670
849.869	14571
850.004	14499
850.14	14541
850.275	14377
850.41	14476
850.545	14324
850.68	14473
850.815	14514
850.95	14377
851.085	14708
851.22	14533
851.355	14499
851.49	14503
851.625	14492
851.76	14488
851.895	14381
852.03	14408
852.165	14488
852.299	14594
852.434	14511
852.569	14434
852.703	14632
852.838	14640
852.973	14518
853.107	14560
853.242	14450
853.376	14393
853.511	14225
853.645	14317
853.78	14526
853.914	14393
854.048	14351
854.183	14278
854.317	14301
854.451	14507
854.585	14393
854.72	14351
854.854	14469
854.988	14240
855.122	14309
855.256	14225
855.39	14282
855.524	14400
855.658	14355
855.792	14320
855.926	14419
856.06	14374
856.194	14518
856.327	14358
856.461	14343
856.595	14370
856.729	14351
856.862	14503
856.996	14454
857.13	14434
857.263	14465
857.397	14473
857.53	14339
857.664	14404
857.797	14385
857.931	14492
858.064	14358
858.197	14507
858.331	14366
858.464	14290
858.597	14225
858.731	14305
858.864	14339
858.997	14313
859.13	14309
859.263	14476
859.396	14431
859.529	14404
859.662	14282
859.795	14370
859.928	14385
860.061	14469
860.194	14507
860.327	14396
860.46	14400
860.592	14427
860.725	14404
860.858	14431
860.99	14320
861.123	14275
861.256	14317
861.388	14305
861.521	14960
861.653	14225
861.786	14191
861.918	14187
862.05	14320
862.183	14225
862.315	14328
862.447	14351
862.58	14248
862.712	14138
862.844	14062
862.976	14145
863.108	14142
863.24	14438
863.372	14115
863.504	14123
863.636	14081
863.768	14214
863.9	14123
864.032	14134
864.164	14088
864.296	14134
864.428	14271
864.559	14161
864.691	14233
864.823	14210
864.954	14172
865.086	14183
865.217	14046
865.349	14103
865.48	14062
865.612	14161
865.743	14244
865.875	14142
866.006	13909
866.137	14039
866.269	14111
866.4	14145
866.531	14191
866.662	14001
866.793	14077
866.924	14069
867.055	14138
867.186	14084
867.317	14096
867.448	14100
867.579	14077
867.71	14088
867.841	14054
867.972	14119
868.103	14054
868.233	14115
868.364	14046
868.495	14161
868.625	14343
868.756	14389
868.886	14343
869.017	14427
869.147	14457
869.278	14530
869.408	14492
869.539	14290
869.669	14450
869.799	14480
869.929	14533
870.06	14404
870.19	14629
870.32	14678
870.45	14651
870.58	14826
870.71	14819
870.84	14925
870.97	14712
871.1	14731
871.23	14910
871.36	14941
871.489	14777
871.619	14914
871.749	14975
871.879	14994
872.008	15142
872.138	14975
872.267	14948
872.397	14880
872.526	14743
872.656	14819
872.785	14807
872.915	14914
873.044	15062
873.173	14948
873.303	14979
873.432	15043
873.561	15013
873.69	15013
873.819	15047
873.948	15093
874.077	15020
874.206	14998
874.335	15074
874.464	15150
874.593	15252
874.722	15214
874.851	15348
874.979	15351
875.108	15386
875.237	15272
875.365	15161
875.494	15329
875.623	15405
875.751	15344
875.88	15355
876.008	15561
876.136	15564
876.265	15720
876.393	15895
876.521	15743
876.65	15785
876.778	15747
876.906	15686
877.034	15694
877.162	15694
877.29	15641
877.418	15785
877.546	15774
877.674	15701
877.802	15739
877.93	15736
878.058	15682
878.185	15705
878.313	15686
878.441	15800
878.568	15637
878.696	15652
878.824	15766
878.951	15808
879.079	15903
879.206	16086
879.333	15949
879.461	15755
879.588	15736
879.715	15835
879.842	15949
879.97	15873
880.097	15667
880.224	15561
880.351	15591
880.478	15603
880.605	15523
880.732	15587
880.859	15759
880.986	15610
881.112	15599
881.239	15450
881.366	15454
881.493	15241
881.619	15363
881.746	15272
881.872	15233
881.999	15275
882.125	15150
882.252	15222
882.378	15207
882.505	15401
882.631	15230
882.757	15024
882.883	15081
883.01	15005
883.136	15024
883.262	14967
883.388	14929
883.514	15024
883.64	15093
883.766	14952
883.892	14918
884.018	14952
884.143	15123
884.269	15112
884.395	14788
884.52	14781
884.646	14849
884.772	14655
884.897	14697
885.023	14804
885.148	14864
885.274	14914
885.399	14868
885.524	14788
885.65	14819
885.775	14800
885.9	14735
886.025	14971
886.15	14754
886.275	14670
886.4	14651
886.525	14743
886.65	14765
886.775	14705
886.9	14914
887.025	15009
887.149	14720
887.274	14590
887.399	14549
887.523	14636
887.648	14503
887.773	14514
887.897	14606
888.021	14727
888.146	14629
888.27	14670
888.395	14758
888.519	14716
888.643	14720
888.767	14644
888.891	14552
889.015	14408
889.139	14488
889.263	14415
889.387	14617
889.511	14708
889.635	14583
889.759	14366
889.883	14427
890.006	14549
890.13	14503
890.254	14404
890.377	14389
890.501	14328
890.624	14229
890.748	14366
890.871	14244
890.995	14157
891.118	14111
891.241	14191
891.364	14157
891.488	14301
891.611	14259
891.734	14214
891.857	14145
891.98	14130
892.103	14195
892.226	14256
892.349	14081
892.471	14054
892.594	14119
892.717	14161
892.839	14107
892.962	14202
893.085	14248
893.207	14202
893.33	14050
893.452	13974
893.575	14145
893.697	14077
893.819	14339
893.941	14396
894.064	14237
894.186	14050
894.308	14103
894.43	14218
894.552	14324
894.674	14339
894.796	14081
894.918	14157
895.04	14214
895.161	14233
895.283	14317
895.405	14149
895.526	14210
895.648	14298
895.769	14278
895.891	14347
896.012	14454
896.134	14237
896.255	14328
896.376	14168
896.498	14282
896.619	14290
896.74	14320
896.861	14446
896.982	14765
897.103	14773
897.224	14629
897.345	14533
897.466	14457
897.587	14549
897.708	14727
897.828	14629
897.949	14503
898.07	14446
898.19	14499
898.311	14701
898.431	14556
898.552	14590
898.672	14804
898.792	14758
898.913	14651
899.033	14667
899.153	14590
899.273	14434
899.393	14438
899.513	14583
899.633	14457
899.753	14640
899.873	14438
899.993	14549
900.113	14495
900.232	14575
900.352	14427
900.472	14400
900.591	14385
900.711	14408
900.83	14256
900.95	14541
901.069	14396
901.189	14305
901.308	14081
901.427	14058
901.546	14096
901.665	14081
901.784	14001
901.904	13845
902.023	13875
902.141	13708
902.26	13601
902.379	13681
902.498	13594
902.617	13616
902.735	13753
902.854	13597
902.973	13563
903.091	13320
903.21	13304
903.328	13384
903.446	13339
903.565	13301
903.683	13244
903.801	13160
903.919	13240
904.038	13107
904.156	13015
904.274	13129
904.392	12951
904.51	12973
904.627	13004
904.745	13095
904.863	13042
904.981	12856
905.098	12650
905.216	12662
905.334	12703
905.451	12722
905.569	12631
905.686	12856
905.803	12662
905.921	12467
906.038	12582
906.155	12566
906.272	12490
906.389	12513
906.506	12319
906.623	12281
906.74	12330
906.857	12186
906.974	12175
907.091	12380
907.208	12399
907.324	12296
907.441	12232
907.557	12129
907.674	12057
907.79	11996
907.907	12091
908.023	12041
908.139	11996
908.256	11965
908.372	11950
908.488	11954
908.604	11855
908.72	11733
908.836	11786
908.952	11748
909.068	11828
909.184	11942
909.3	11813
909.415	11904
909.531	11870
909.647	11642
909.762	11627
909.878	11482
909.993	11619
910.108	11562
910.224	11520
910.339	11589
910.454	11433
910.57	11490
910.685	11337
910.8	11661
910.915	11554
911.03	11429
911.145	11250
911.259	11254
911.374	11349
911.489	11189
911.604	11231
911.718	11105
911.833	10972
911.947	10968
912.062	10908
912.176	10923
912.291	11037
912.405	11056
912.519	11189
912.633	11220
912.748	11098
912.862	11071
912.976	10984
913.09	10782
913.204	10900
913.318	10908
913.431	11006
913.545	10995
913.659	11045
913.772	10930
913.886	10835
914	10710
914.113	10934
914.226	10915
914.34	10858
914.453	10691
914.566	10869
914.68	10721
914.793	10664
914.906	10542
915.019	10603
915.132	10455
915.245	10512
915.358	10596
915.47	10561
915.583	10630
915.696	10485
915.809	10618
915.921	10714
916.034	10584
916.146	10478
916.259	10508
916.371	10538
916.483	10542
916.595	10512
916.708	10474
916.82	10462
916.932	10512
917.044	10470
917.156	10481
917.268	10310
917.38	10299
917.491	10337
917.603	10382
917.715	10417
917.826	10493
917.938	10310
918.049	10242
918.161	10451
918.272	10531
918.384	10516
918.495	10398
918.606	10253
918.717	10188
918.828	10219
918.939	10272
919.05	10143
919.161	10227
919.272	10048
919.383	10158
919.494	10268
919.604	10459
919.715	10276
919.826	10253
919.936	10261
920.047	10390
920.157	10295
920.267	10470
920.378	10303
920.488	10276
920.598	10455
920.708	10569
920.818	10481
920.928	10485
921.038	10607
921.148	10588
921.258	10409
921.368	10173
921.477	10067
921.587	10017
921.697	9983
921.806	10124
921.916	10032
922.025	9895
922.134	9827
922.244	9800
922.353	9793
922.462	9709
922.571	9610
922.68	9450
922.789	9511
922.898	9492
923.007	9412
923.116	9557
923.224	9519
923.333	9450
923.442	9393
923.55	9389
923.659	9348
923.767	9447
923.876	9302
923.984	9378
924.092	9294
924.201	9359
924.309	9348
924.417	9348
924.525	9256
924.633	9355
924.741	10234
924.849	9119
924.956	9253
925.064	9150
925.172	9028
925.279	9108
925.387	9138
925.494	9207
925.602	9310
925.709	9230
925.816	9119
925.924	9173
926.031	9279
926.138	9188
926.245	9241
926.352	9089
926.459	9211
926.566	9253
926.673	9093
926.779	9047
926.886	8998
926.993	8880
927.099	8883
927.206	8880
927.312	8819
927.419	8842
927.525	8853
927.631	8948
927.737	8777
927.843	8727
927.95	8667
928.056	8777
928.162	8788
928.267	8845
928.373	9332
928.479	8910
928.585	8579
928.69	8735
928.796	8834
928.901	8693
929.007	8511
929.112	8701
929.218	8625
929.323	8625
929.428	8575
929.533	8686
929.638	8602
929.743	8522
929.848	8568
929.953	8629
930.058	8514
930.163	8336
930.267	8362
930.372	8480
930.477	8290
930.581	8541
930.685	8393
930.79	8286
930.894	8305
930.998	8267
931.103	8385
931.207	8092
931.311	7986
931.415	7974
931.519	7849
931.623	7769
