Data from test_V78500241_3646.txt Node
Date: Fri Mar 25 14:59:06 CST 2022
User: usil
Spectrometer: V785-0024
Trigger mode: 0
Integration Time (sec): 4.000000E-1
Scans to average: 1
Nonlinearity correction enabled: false
Boxcar width: 0
Storing dark spectrum: false
XAxis mode: Wavelengths
Number of Pixels in Spectrum: 1024
>>>>>Begin Spectral Data<<<<<
801.071	21911
801.214	21808
801.356	21583
801.499	21507
801.641	21363
801.783	21169
801.926	21165
802.068	21233
802.211	21169
802.353	21039
802.496	20944
802.638	20819
802.78	20823
802.923	20663
803.065	20465
803.208	20537
803.35	20556
803.492	20788
803.635	20754
803.777	20640
803.919	20575
804.061	20902
804.204	20708
804.346	20632
804.488	20385
804.63	20537
804.773	20564
804.915	20636
805.057	20613
805.199	20522
805.341	20533
805.483	20621
805.626	20590
805.768	20431
805.91	20571
806.052	20590
806.194	20366
806.336	20560
806.478	20442
806.62	20404
806.762	20606
806.904	20773
807.046	20963
807.188	20967
807.33	20849
807.472	20845
807.614	20636
807.756	20716
807.898	20663
808.04	20579
808.182	20450
808.324	20533
808.465	20602
808.607	20781
808.749	20804
808.891	20941
809.033	21062
809.174	20796
809.316	20811
809.458	20864
809.6	20781
809.741	20971
809.883	20960
810.025	21039
810.166	21077
810.308	20990
810.45	20986
810.591	20811
810.733	20701
810.875	20693
811.016	20522
811.158	20541
811.299	20785
811.441	20895
811.582	20750
811.724	20590
811.865	20556
812.007	20564
812.148	20636
812.29	20651
812.431	20819
812.573	20864
812.714	21074
812.855	21081
812.997	21055
813.138	21321
813.279	21199
813.421	21100
813.562	21066
813.703	20868
813.845	20735
813.986	20442
814.127	20309
814.268	20301
814.41	20172
814.551	20187
814.692	20206
814.833	20073
814.974	20103
815.115	20065
815.256	20005
815.397	19921
815.539	19887
815.68	19913
815.821	19852
815.962	19944
816.103	19769
816.244	19693
816.385	19666
816.526	19571
816.666	19354
816.807	19320
816.948	19343
817.089	19388
817.23	19358
817.371	19171
817.512	19301
817.653	19289
817.793	19244
817.934	19263
818.075	19320
818.216	19236
818.356	19270
818.497	19015
818.638	18943
818.778	18943
818.919	19019
819.06	18913
819.2	19141
819.341	19232
819.481	19190
819.622	19293
819.762	19407
819.903	19426
820.043	19350
820.184	19285
820.324	19327
820.465	19365
820.605	19335
820.746	19274
820.886	19190
821.026	19221
821.167	19301
821.307	19320
821.447	19148
821.588	19004
821.728	18947
821.868	18924
822.008	18700
822.149	18604
822.289	18719
822.429	18513
822.569	18334
822.709	18338
822.849	18216
822.99	18110
823.13	18171
823.27	18228
823.41	17954
823.55	17996
823.69	17969
823.83	17969
823.97	17836
824.11	17707
824.25	17714
824.389	17817
824.529	17737
824.669	17828
824.809	17847
824.949	17714
825.089	17836
825.228	17794
825.368	17649
825.508	17463
825.648	17630
825.787	17543
825.927	17501
826.067	17512
826.206	17528
826.346	17577
826.485	17509
826.625	17512
826.765	17573
826.904	17611
827.044	17341
827.183	17337
827.323	17083
827.462	17223
827.601	17315
827.741	17155
827.88	17220
828.02	17094
828.159	17151
828.298	17212
828.437	17303
828.577	17239
828.716	17402
828.855	17147
828.994	17010
829.134	16938
829.273	17113
829.412	16919
829.551	16987
829.69	17014
829.829	16930
829.968	17090
830.107	17117
830.246	17029
830.385	16892
830.524	16908
830.663	16850
830.802	16801
830.941	16615
831.08	16656
831.219	16641
831.357	16618
831.496	16812
831.635	16577
831.774	16519
831.913	16527
832.051	16382
832.19	16436
832.329	16417
832.467	16390
832.606	16261
832.744	16276
832.883	16265
833.022	16344
833.16	16207
833.299	16303
833.437	16276
833.576	16310
833.714	16360
833.852	16344
833.991	16394
834.129	16447
834.267	16440
834.406	16341
834.544	16440
834.682	16466
834.821	16318
834.959	16588
835.097	16325
835.235	16481
835.373	16474
835.511	16379
835.65	16310
835.788	16215
835.926	16147
836.064	16109
836.202	16055
836.34	16246
836.478	16363
836.615	16352
836.753	16291
836.891	16371
837.029	16356
837.167	16276
837.305	16272
837.443	16272
837.58	16093
837.718	16246
837.856	16131
837.993	16128
838.131	16234
838.269	16074
838.406	16242
838.544	16006
838.681	15994
838.819	15873
838.956	15709
839.094	15667
839.231	15713
839.369	15861
839.506	16162
839.643	15930
839.781	15785
839.918	15698
840.055	15671
840.193	15698
840.33	15641
840.467	15671
840.604	15667
840.742	16029
840.879	15614
841.016	15614
841.153	15606
841.29	15831
841.427	15675
841.564	15743
841.701	15705
841.838	15652
841.975	15663
842.112	15641
842.249	15595
842.385	15553
842.522	15720
842.659	15557
842.796	15370
842.933	15568
843.069	15545
843.206	15466
843.343	15542
843.479	15580
843.616	15500
843.752	15359
843.889	15272
844.025	15507
844.162	15222
844.298	15382
844.435	15355
844.571	15218
844.708	15344
844.844	15428
844.98	15458
845.117	15313
845.253	15260
845.389	15199
845.525	15325
845.661	15116
845.798	14971
845.934	15199
846.07	15131
846.206	15138
846.342	15230
846.478	15100
846.614	14872
846.75	14830
846.886	14925
847.022	15039
847.158	14845
847.294	14830
847.429	15013
847.565	14864
847.701	15074
847.837	14697
847.972	14587
848.108	14724
848.244	14693
848.379	14522
848.515	14507
848.65	14404
848.786	14434
848.921	14552
849.057	14545
849.192	14568
849.328	14419
849.463	14423
849.598	14469
849.734	14408
849.869	14267
850.004	14347
850.14	14282
850.275	14153
850.41	14187
850.545	14294
850.68	14164
850.815	14252
850.95	14252
851.085	14415
851.22	14377
851.355	14263
851.49	14240
851.625	14301
851.76	14187
851.895	14142
852.03	14142
852.165	14199
852.299	14214
852.434	14362
852.569	14301
852.703	14233
852.838	14309
852.973	14347
853.107	14393
853.242	14157
853.376	14096
853.511	13944
853.645	14111
853.78	14282
853.914	14058
854.048	14092
854.183	14092
854.317	14130
854.451	14145
854.585	14115
854.72	14065
854.854	14145
854.988	14012
855.122	14069
855.256	13963
855.39	13997
855.524	14180
855.658	14168
855.792	14103
855.926	14180
856.06	14142
856.194	14183
856.327	14111
856.461	14073
856.595	14073
856.729	14096
856.862	14248
856.996	14084
857.13	14168
857.263	14183
857.397	14191
857.53	14111
857.664	14138
857.797	14123
857.931	14225
858.064	14077
858.197	14328
858.331	14134
858.464	14027
858.597	13944
858.731	14172
858.864	14024
858.997	14058
859.13	14248
859.263	14008
859.396	14183
859.529	14096
859.662	14111
859.795	14111
859.928	14161
860.061	14225
860.194	14324
860.327	14107
860.46	14115
860.592	14183
860.725	14199
860.858	14256
860.99	14005
861.123	14107
861.256	14161
861.388	14123
861.521	14880
861.653	14020
861.786	13906
861.918	14005
862.05	14001
862.183	14130
862.315	14115
862.447	14172
862.58	14062
862.712	13879
862.844	13807
862.976	13868
863.108	13989
863.24	14183
863.372	13826
863.504	13917
863.636	13723
863.768	13970
863.9	13959
864.032	13765
864.164	13860
864.296	13997
864.428	13986
864.559	13879
864.691	13986
864.823	13967
864.954	13921
865.086	13951
865.217	13879
865.349	13769
865.48	13864
865.612	13936
865.743	14050
865.875	13822
866.006	13856
866.137	13951
866.269	13841
866.4	13883
866.531	13818
866.662	13666
866.793	13731
866.924	13932
867.055	13830
867.186	13913
867.317	13921
867.448	13868
867.579	13814
867.71	13750
867.841	13811
867.972	13864
868.103	13875
868.233	13887
868.364	13928
868.495	13906
868.625	14031
868.756	14233
868.886	13967
869.017	14115
869.147	14229
869.278	14263
869.408	14157
869.539	14130
869.669	14248
869.799	14142
869.929	14187
870.06	14237
870.19	14495
870.32	14442
870.45	14499
870.58	14480
870.71	14670
870.84	14583
870.97	14594
871.1	14518
871.23	14769
871.36	14781
871.489	14636
871.619	14659
871.749	14804
871.879	14689
872.008	14754
872.138	14739
872.267	14670
872.397	14640
872.526	14530
872.656	14617
872.785	14552
872.915	14670
873.044	14788
873.173	14754
873.303	14872
873.432	14804
873.561	14891
873.69	14750
873.819	14765
873.948	14746
874.077	14762
874.206	14594
874.335	14788
874.464	14986
874.593	15127
874.722	15043
874.851	15131
874.979	15077
875.108	15100
875.237	15047
875.365	15104
875.494	15085
875.623	15195
875.751	15055
875.88	15157
876.008	15249
876.136	15298
876.265	15568
876.393	15629
876.521	15648
876.65	15591
876.778	15576
876.906	15435
877.034	15439
877.162	15473
877.29	15431
877.418	15564
877.546	15481
877.674	15526
877.802	15481
877.93	15553
878.058	15431
878.185	15469
878.313	15462
878.441	15587
878.568	15355
878.696	15428
878.824	15447
878.951	15614
879.079	15766
879.206	15747
879.333	15595
879.461	15568
879.588	15614
879.715	15637
879.842	15789
879.97	15641
880.097	15370
880.224	15317
880.351	15420
880.478	15351
880.605	15348
880.732	15386
880.859	15584
880.986	15485
881.112	15439
881.239	15310
881.366	15188
881.493	14998
881.619	15020
881.746	15024
881.872	15024
881.999	14971
882.125	15013
882.252	15070
882.378	15081
882.505	15241
882.631	14941
882.757	14853
882.883	14864
883.01	14743
883.136	14849
883.262	14678
883.388	14667
883.514	14876
883.64	14925
883.766	14785
883.892	14686
884.018	14590
884.143	14887
884.269	14902
884.395	14625
884.52	14514
884.646	14499
884.772	14575
884.897	14396
885.023	14594
885.148	14682
885.274	14743
885.399	14724
885.524	14590
885.65	14568
885.775	14602
885.9	14564
886.025	14712
886.15	14727
886.275	14530
886.4	14385
886.525	14492
886.65	14450
886.775	14442
886.9	14670
887.025	14743
887.149	14640
887.274	14446
887.399	14393
887.523	14320
887.648	14320
887.773	14343
887.897	14412
888.021	14492
888.146	14328
888.27	14590
888.395	14556
888.519	14427
888.643	14442
888.767	14480
888.891	14374
889.015	14142
889.139	14343
889.263	14259
889.387	14332
889.511	14575
889.635	14412
889.759	14267
889.883	14221
890.006	14377
890.13	14465
890.254	14286
890.377	14218
890.501	14096
890.624	14088
890.748	14130
890.871	13974
890.995	13928
891.118	13841
891.241	13833
891.364	14001
891.488	14077
891.611	13963
891.734	13928
891.857	13963
891.98	13921
892.103	14058
892.226	14016
892.349	13921
892.471	13715
892.594	14103
892.717	13959
892.839	14027
892.962	13932
893.085	14077
893.207	13868
893.33	13890
893.452	13909
893.575	14065
893.697	13906
893.819	14153
893.941	14157
894.064	14069
894.186	14043
894.308	13913
894.43	14115
894.552	14134
894.674	14107
894.796	13963
894.918	13989
895.04	14027
895.161	14092
895.283	14172
895.405	13986
895.526	14065
895.648	14012
895.769	14130
895.891	14062
896.012	14210
896.134	14149
896.255	14096
896.376	14153
896.498	14221
896.619	14180
896.74	14168
896.861	14206
896.982	14530
897.103	14598
897.224	14347
897.345	14298
897.466	14332
897.587	14366
897.708	14541
897.828	14503
897.949	14423
898.07	14317
898.19	14431
898.311	14549
898.431	14385
898.552	14598
898.672	14610
898.792	14495
898.913	14564
899.033	14476
899.153	14320
899.273	14244
899.393	14305
899.513	14366
899.633	14347
899.753	14362
899.873	14275
899.993	14385
900.113	14301
900.232	14393
900.352	14320
900.472	14252
900.591	14145
900.711	14252
900.83	14145
900.95	14317
901.069	14320
901.189	14115
901.308	13978
901.427	13788
901.546	13852
901.665	13913
901.784	13883
901.904	13689
902.023	13670
902.141	13491
902.26	13430
902.379	13578
902.498	13460
902.617	13396
902.735	13472
902.854	13495
902.973	13346
903.091	13164
903.21	13206
903.328	13175
903.446	13110
903.565	12932
903.683	13050
903.801	12966
903.919	13057
904.038	13027
904.156	12890
904.274	12859
904.392	12894
904.51	12840
904.627	12760
904.745	12859
904.863	12913
904.981	12639
905.098	12627
905.216	12544
905.334	12528
905.451	12601
905.569	12452
905.686	12585
905.803	12502
905.921	12372
906.038	12498
906.155	12361
906.272	12194
906.389	12220
906.506	12194
906.623	12216
906.74	12148
906.857	12045
906.974	11969
907.091	12175
907.208	12232
907.324	12159
907.441	12076
907.557	11874
907.674	11889
907.79	11760
907.907	11824
908.023	11889
908.139	11779
908.256	11783
908.372	11790
908.488	11805
908.604	11581
908.72	11573
908.836	11703
908.952	11600
909.068	11596
909.184	11699
909.3	11680
909.415	11676
909.531	11619
909.647	11528
909.762	11334
909.878	11307
909.993	11444
910.108	11376
910.224	11318
910.339	11387
910.454	11436
910.57	11254
910.685	11166
910.8	11448
910.915	11490
911.03	11269
911.145	11197
911.259	11113
911.374	11083
911.489	11079
911.604	11010
911.718	10866
911.833	10889
911.947	10809
912.062	10664
912.176	10854
912.291	10847
912.405	10828
912.519	11067
912.633	11041
912.748	11010
912.862	10839
912.976	10782
913.09	10664
913.204	10706
913.318	10717
913.431	10858
913.545	10869
913.659	10866
913.772	10835
913.886	10649
914	10584
914.113	10763
914.226	10763
914.34	10698
914.453	10558
914.566	10698
914.68	10542
914.793	10603
914.906	10428
915.019	10360
915.132	10337
915.245	10306
915.358	10413
915.47	10436
915.583	10352
915.696	10405
915.809	10523
915.921	10512
916.034	10295
916.146	10360
916.259	10253
916.371	10474
916.483	10402
916.595	10230
916.708	10318
916.82	10394
916.932	10268
917.044	10314
917.156	10314
917.268	10181
917.38	10150
917.491	10242
917.603	10280
917.715	10287
917.826	10303
917.938	10169
918.049	10177
918.161	10207
918.272	10379
918.384	10322
918.495	10192
918.606	10150
918.717	10090
918.828	10086
918.939	10101
919.05	9994
919.161	10006
919.272	9899
919.383	9987
919.494	10139
919.604	10284
919.715	10150
919.826	10055
919.936	10109
920.047	10158
920.157	10135
920.267	10310
920.378	10166
920.488	10071
920.598	10314
920.708	10459
920.818	10306
920.928	10265
921.038	10470
921.148	10432
921.258	10143
921.368	10071
921.477	10006
921.587	9979
921.697	9880
921.806	9968
921.916	9831
922.025	9652
922.134	9766
922.244	9652
922.353	9701
922.462	9580
922.571	9485
922.68	9374
922.789	9344
922.898	9370
923.007	9287
923.116	9405
923.224	9382
923.333	9321
923.442	9287
923.55	9294
923.659	9272
923.767	9359
923.876	9188
923.984	9275
924.092	9142
924.201	9310
924.309	9222
924.417	9325
924.525	9161
924.633	9245
924.741	9930
924.849	9058
924.956	9180
925.064	8990
925.172	8948
925.279	8956
925.387	9116
925.494	9074
925.602	9165
925.709	9154
925.816	8994
925.924	9081
926.031	9093
926.138	9009
926.245	9100
926.352	8982
926.459	9066
926.566	9028
926.673	9028
926.779	8921
926.886	8925
926.993	8750
927.099	8712
927.206	8735
927.312	8663
927.419	8724
927.525	8762
927.631	8792
927.737	8697
927.843	8651
927.95	8514
928.056	8629
928.162	8693
928.267	8686
928.373	9199
928.479	8743
928.585	8503
928.69	8583
928.796	8746
928.901	8541
929.007	8419
929.112	8590
929.218	8480
929.323	8492
929.428	8499
929.533	8602
929.638	8415
929.743	8377
929.848	8537
929.953	8457
930.058	8320
930.163	8180
930.267	8206
930.372	8389
930.477	8237
930.581	8476
930.685	8294
930.79	8149
930.894	8176
930.998	8157
931.103	8339
931.207	7978
931.311	8008
931.415	7921
931.519	7674
931.623	7670
