Data from test_V78500241_287.txt Node
Date: Fri Mar 25 14:35:43 CST 2022
User: usil
Spectrometer: V785-0024
Trigger mode: 0
Integration Time (sec): 4.000000E-1
Scans to average: 1
Nonlinearity correction enabled: false
Boxcar width: 0
Storing dark spectrum: false
XAxis mode: Wavelengths
Number of Pixels in Spectrum: 1024
>>>>>Begin Spectral Data<<<<<
801.071	27272
801.214	27192
801.356	26853
801.499	26819
801.641	26762
801.783	26693
801.926	26686
802.068	26469
802.211	26453
802.353	26594
802.496	26244
802.638	26366
802.78	26256
802.923	26119
803.065	26168
803.208	26149
803.35	26039
803.492	26309
803.635	26328
803.777	26240
803.919	26317
804.061	26609
804.204	26199
804.346	26320
804.488	26069
804.63	26195
804.773	26027
804.915	26229
805.057	26339
805.199	26221
805.341	26206
805.483	26370
805.626	26309
805.768	26134
805.91	26161
806.052	26240
806.194	26309
806.336	26442
806.478	26362
806.62	26336
806.762	26237
806.904	26446
807.046	26750
807.188	26473
807.33	26594
807.472	26670
807.614	26568
807.756	26518
807.898	26427
808.04	26393
808.182	26594
808.324	26552
808.465	26556
808.607	26697
808.749	26918
808.891	26906
809.033	26864
809.174	26921
809.316	26876
809.458	26944
809.6	26701
809.741	26823
809.883	26651
810.025	26967
810.166	26982
810.308	26990
810.45	26914
810.591	26914
810.733	26746
810.875	26632
811.016	26587
811.158	26518
811.299	26655
811.441	26613
811.582	26640
811.724	26655
811.865	26434
812.007	26640
812.148	26579
812.29	26598
812.431	26792
812.573	26910
812.714	27017
812.855	27047
812.997	27176
813.138	27294
813.279	27119
813.421	27051
813.562	27043
813.703	26902
813.845	26769
813.986	26431
814.127	26332
814.268	26164
814.41	26275
814.551	26081
814.692	26248
814.833	26149
814.974	26092
815.115	26043
815.256	25944
815.397	25898
815.539	26024
815.68	25860
815.821	25761
815.962	25879
816.103	25959
816.244	25658
816.385	25620
816.526	25719
816.666	25377
816.807	25232
816.948	25445
817.089	25335
817.23	25282
817.371	25312
817.512	25289
817.653	25263
817.793	25198
817.934	25301
818.075	25343
818.216	25301
818.356	25209
818.497	25080
818.638	25057
818.778	25034
818.919	24985
819.06	25046
819.2	25057
819.341	25213
819.481	25266
819.622	25350
819.762	25506
819.903	25434
820.043	25377
820.184	25263
820.324	25304
820.465	25384
820.605	25168
820.746	25266
820.886	25122
821.026	25232
821.167	25145
821.307	25266
821.447	25259
821.588	25129
821.728	24977
821.868	24837
822.008	24688
822.149	24566
822.289	24578
822.429	24429
822.569	24357
822.709	24281
822.849	24148
822.99	24038
823.13	24072
823.27	24091
823.41	23794
823.55	23889
823.69	24022
823.83	23885
823.97	23851
824.11	23501
824.25	23604
824.389	23714
824.529	23710
824.669	23642
824.809	23589
824.949	23653
825.089	23756
825.228	23581
825.368	23474
825.508	23417
825.648	23448
825.787	23379
825.927	23425
826.067	23296
826.206	23467
826.346	23440
826.485	23436
826.625	23486
826.765	23467
826.904	23505
827.044	23254
827.183	23117
827.323	23033
827.462	23147
827.601	22999
827.741	23037
827.88	23109
828.02	22927
828.159	23086
828.298	23151
828.437	23132
828.577	23041
828.716	23200
828.855	23121
828.994	22812
829.134	22877
829.273	22778
829.412	22679
829.551	22702
829.69	22828
829.829	22793
829.968	22896
830.107	22790
830.246	22774
830.385	22622
830.524	22626
830.663	22546
830.802	22432
830.941	22443
831.08	22280
831.219	22405
831.357	22322
831.496	22599
831.635	22329
831.774	22310
831.913	22200
832.051	22120
832.19	22207
832.329	22082
832.467	22090
832.606	21899
832.744	22017
832.883	21850
833.022	21918
833.16	21915
833.299	21979
833.437	22002
833.576	22040
833.714	22097
833.852	22086
833.991	22032
834.129	22090
834.267	22070
834.406	22002
834.544	22082
834.682	22013
834.821	21979
834.959	22211
835.097	21949
835.235	22154
835.373	21972
835.511	22017
835.65	21838
835.788	21827
835.926	21701
836.064	21599
836.202	21587
836.34	21762
836.478	21835
836.615	21739
836.753	21781
836.891	21846
837.029	21736
837.167	21892
837.305	21808
837.443	21641
837.58	21603
837.718	21732
837.856	21819
837.993	21622
838.131	21648
838.269	21538
838.406	21526
838.544	21538
838.681	21386
838.819	21283
838.956	21112
839.094	21074
839.231	21028
839.369	21237
839.506	21447
839.643	21306
839.781	21150
839.918	21062
840.055	21043
840.193	20971
840.33	20952
840.467	21146
840.604	21043
840.742	21321
840.879	20880
841.016	20967
841.153	20952
841.29	21157
841.427	21020
841.564	20982
841.701	20975
841.838	20975
841.975	20864
842.112	20899
842.249	20754
842.385	20762
842.522	20921
842.659	20739
842.796	20705
842.933	20765
843.069	20583
843.206	20587
843.343	20705
843.479	20590
843.616	20701
843.752	20419
843.889	20526
844.025	20609
844.162	20393
844.298	20545
844.435	20412
844.571	20434
844.708	20507
844.844	20663
844.98	20602
845.117	20613
845.253	20385
845.389	20362
845.525	20480
845.661	20499
845.798	20355
845.934	20256
846.07	20218
846.206	20351
846.342	20450
846.478	20259
846.614	20062
846.75	20005
846.886	20043
847.022	20016
847.158	19852
847.294	19936
847.429	19925
847.565	19871
847.701	20107
847.837	19601
847.972	19567
848.108	19750
848.244	19693
848.379	19643
848.515	19525
848.65	19483
848.786	19464
848.921	19422
849.057	19597
849.192	19582
849.328	19499
849.463	19480
849.598	19495
849.734	19434
849.869	19327
850.004	19266
850.14	19236
850.275	19266
850.41	19152
850.545	19217
850.68	19225
850.815	19304
850.95	19126
851.085	19343
851.22	19270
851.355	19278
851.49	19137
851.625	19206
851.76	19152
851.895	19202
852.03	19145
852.165	19152
852.299	19228
852.434	19274
852.569	19278
852.703	19270
852.838	19206
852.973	19324
853.107	19358
853.242	19065
853.376	18993
853.511	19012
853.645	19008
853.78	19061
853.914	19031
854.048	19103
854.183	18913
854.317	19065
854.451	19156
854.585	19042
854.72	19091
854.854	19110
854.988	18989
855.122	19008
855.256	18829
855.39	19019
855.524	19069
855.658	19053
855.792	18966
855.926	19065
856.06	19129
856.194	19187
856.327	19015
856.461	18989
856.595	19038
856.729	18958
856.862	19148
856.996	19084
857.13	19072
857.263	19133
857.397	19137
857.53	18909
857.664	18989
857.797	19000
857.931	19061
858.064	19095
858.197	19069
858.331	18935
858.464	18958
858.597	19008
858.731	18958
858.864	18996
858.997	18996
859.13	18947
859.263	19072
859.396	18985
859.529	18958
859.662	18863
859.795	18901
859.928	18894
860.061	19160
860.194	19110
860.327	18939
860.46	18973
860.592	19148
860.725	19152
860.858	19141
860.99	18920
861.123	18871
861.256	18795
861.388	18981
861.521	19518
861.653	18863
861.786	18745
861.918	18863
862.05	18966
862.183	18977
862.315	18981
862.447	19042
862.58	18863
862.712	18817
862.844	18658
862.976	18856
863.108	18715
863.24	19027
863.372	18578
863.504	18715
863.636	18730
863.768	18669
863.9	18757
864.032	18582
864.164	18650
864.296	18734
864.428	18711
864.559	18707
864.691	18730
864.823	18642
864.954	18722
865.086	18540
865.217	18521
865.349	18525
865.48	18616
865.612	18509
865.743	18741
865.875	18696
866.006	18578
866.137	18570
866.269	18601
866.4	18639
866.531	18502
866.662	18475
866.793	18547
866.924	18521
867.055	18612
867.186	18509
867.317	18570
867.448	18464
867.579	18513
867.71	18448
867.841	18445
867.972	18582
868.103	18570
868.233	18551
868.364	18540
868.495	18532
868.625	18768
868.756	18798
868.886	18585
869.017	18719
869.147	18772
869.278	18825
869.408	18715
869.539	18753
869.669	18848
869.799	18840
869.929	18779
870.06	18840
870.19	18973
870.32	19008
870.45	18993
870.58	19168
870.71	19251
870.84	19202
870.97	19228
871.1	19190
871.23	19392
871.36	19327
871.489	19202
871.619	19266
871.749	19297
871.879	19373
872.008	19415
872.138	19266
872.267	19396
872.397	19251
872.526	19160
872.656	19217
872.785	19160
872.915	19274
873.044	19544
873.173	19350
873.303	19388
873.432	19407
873.561	19502
873.69	19354
873.819	19304
873.948	19411
874.077	19415
874.206	19384
874.335	19521
874.464	19563
874.593	19575
874.722	19616
874.851	19693
874.979	19719
875.108	19529
875.237	19655
875.365	19540
875.494	19632
875.623	19761
875.751	19647
875.88	19685
876.008	19753
876.136	19963
876.265	20065
876.393	20187
876.521	20202
876.65	20092
876.778	20107
876.906	19845
877.034	20096
877.162	20058
877.29	20088
877.418	20027
877.546	19967
877.674	20126
877.802	20100
877.93	20084
878.058	20012
878.185	20035
878.313	19986
878.441	20069
878.568	19890
878.696	20024
878.824	20077
878.951	20195
879.079	20157
879.206	20328
879.333	20256
879.461	20233
879.588	20149
879.715	20282
879.842	20317
879.97	20199
880.097	20008
880.224	19822
880.351	20058
880.478	19860
880.605	19917
880.732	19894
880.859	20157
880.986	19913
881.112	19772
881.239	19791
881.366	19708
881.493	19563
881.619	19434
881.746	19499
881.872	19441
881.999	19460
882.125	19438
882.252	19518
882.378	19502
882.505	19525
882.631	19445
882.757	19247
882.883	19301
883.01	19285
883.136	19232
883.262	19042
883.388	19072
883.514	19251
883.64	19327
883.766	19141
883.892	18989
884.018	19080
884.143	19244
884.269	19289
884.395	18958
884.52	18973
884.646	18833
884.772	18833
884.897	18726
885.023	18966
885.148	19076
885.274	19099
885.399	19019
885.524	18939
885.65	18875
885.775	19008
885.9	18890
886.025	19061
886.15	18935
886.275	18882
886.4	18738
886.525	18810
886.65	18817
886.775	18825
886.9	19084
887.025	19114
887.149	18951
887.274	18749
887.399	18684
887.523	18707
887.648	18608
887.773	18604
887.897	18825
888.021	18817
888.146	18627
888.27	18719
888.395	18730
888.519	18715
888.643	18646
888.767	18658
888.891	18517
889.015	18475
889.139	18540
889.263	18437
889.387	18483
889.511	18700
889.635	18551
889.759	18536
889.883	18418
890.006	18574
890.13	18452
890.254	18441
890.377	18391
890.501	18285
890.624	18129
890.748	18323
890.871	18121
890.995	18015
891.118	18091
891.241	18019
891.364	18087
891.488	18205
891.611	18110
891.734	18110
891.857	18152
891.98	18102
892.103	18155
892.226	18072
892.349	18060
892.471	17866
892.594	17992
892.717	18015
892.839	18114
892.962	17996
893.085	18095
893.207	17992
893.33	17977
893.452	17958
893.575	18007
893.697	17999
893.819	18163
893.941	18232
894.064	18098
894.186	17965
894.308	17889
894.43	18152
894.552	18163
894.674	18114
894.796	17893
894.918	18038
895.04	18076
895.161	18038
895.283	17942
895.405	17999
895.526	18057
895.648	17999
895.769	17923
895.891	18076
896.012	18205
896.134	18060
896.255	18163
896.376	17988
896.498	18019
896.619	18091
896.74	18174
896.861	18121
896.982	18369
897.103	18578
897.224	18391
897.345	18353
897.466	18277
897.587	18315
897.708	18464
897.828	18334
897.949	18235
898.07	18030
898.19	18292
898.311	18429
898.431	18247
898.552	18289
898.672	18350
898.792	18547
898.913	18296
899.033	18292
899.153	18144
899.273	17980
899.393	18057
899.513	18155
899.633	18015
899.753	17999
899.873	18102
899.993	18117
900.113	17958
900.232	18019
900.352	17912
900.472	17893
900.591	17912
900.711	17874
900.83	17741
900.95	17977
901.069	17954
901.189	17840
901.308	17707
901.427	17532
901.546	17661
901.665	17562
901.784	17539
901.904	17425
902.023	17277
902.141	17185
902.26	17060
902.379	17143
902.498	17018
902.617	17006
902.735	17094
902.854	17018
902.973	16930
903.091	16778
903.21	16771
903.328	16793
903.446	16634
903.565	16733
903.683	16565
903.801	16443
903.919	16542
904.038	16443
904.156	16363
904.274	16424
904.392	16242
904.51	16322
904.627	16318
904.745	16318
904.863	16322
904.981	16036
905.098	15964
905.216	16021
905.334	15998
905.451	15945
905.569	15941
905.686	15964
905.803	15865
905.921	15778
906.038	15888
906.155	15766
906.272	15728
906.389	15701
906.506	15561
906.623	15504
906.74	15526
906.857	15306
906.974	15382
907.091	15534
907.208	15660
907.324	15576
907.441	15416
907.557	15138
907.674	15272
907.79	15157
907.907	15199
908.023	15264
908.139	15154
908.256	15146
908.372	15119
908.488	15100
908.604	14944
908.72	14979
908.836	14975
908.952	14868
909.068	14963
909.184	15005
909.3	14887
909.415	15005
909.531	14921
909.647	14644
909.762	14556
909.878	14724
909.993	14636
910.108	14610
910.224	14625
910.339	14602
910.454	14526
910.57	14473
910.685	14366
910.8	14632
910.915	14613
911.03	14473
911.145	14275
911.259	14240
911.374	14320
911.489	14237
911.604	14081
911.718	13982
911.833	14001
911.947	13913
912.062	13883
912.176	13959
912.291	13944
912.405	13959
912.519	14252
912.633	14153
912.748	13970
912.862	13993
912.976	13822
913.09	13826
913.204	13803
913.318	13841
913.431	13921
913.545	13894
913.659	13936
913.772	13761
913.886	13662
914	13693
914.113	13685
914.226	13795
914.34	13750
914.453	13590
914.566	13746
914.68	13613
914.793	13563
914.906	13388
915.019	13377
915.132	13232
915.245	13369
915.358	13331
915.47	13426
915.583	13304
915.696	13320
915.809	13415
915.921	13434
916.034	13327
916.146	13236
916.259	13263
916.371	13282
916.483	13240
916.595	13251
916.708	13198
916.82	13236
916.932	13072
917.044	13080
917.156	13137
917.268	12962
917.38	13076
917.491	13000
917.603	13057
917.715	13206
917.826	13129
917.938	12932
918.049	12897
918.161	12977
918.272	13183
918.384	13091
918.495	12996
918.606	12924
918.717	12779
918.828	12905
918.939	12924
919.05	12772
919.161	12886
919.272	12650
919.383	12703
919.494	12909
919.604	13027
919.715	12886
919.826	12726
919.936	12837
920.047	12886
920.157	12856
920.267	12981
920.378	12768
920.488	12772
920.598	12928
920.708	13061
920.818	12973
920.928	12928
921.038	13038
921.148	12996
921.258	12722
921.368	12703
921.477	12544
921.587	12547
921.697	12517
921.806	12544
921.916	12445
922.025	12175
922.134	12228
922.244	12152
922.353	12175
922.462	12079
922.571	12041
922.68	11870
922.789	11897
922.898	11904
923.007	11832
923.116	11828
923.224	11904
923.333	11893
923.442	11798
923.55	11809
923.659	11745
923.767	11840
923.876	11748
923.984	11737
924.092	11680
924.201	11741
924.309	11615
924.417	11653
924.525	11688
924.633	11642
924.741	12517
924.849	11505
924.956	11524
925.064	11368
925.172	11368
925.279	11376
925.387	11490
925.494	11379
925.602	11512
925.709	11509
925.816	11280
925.924	11406
926.031	11414
926.138	11372
926.245	11402
926.352	11280
926.459	11402
926.566	11512
926.673	11280
926.779	11223
926.886	11239
926.993	11052
927.099	10972
927.206	10953
927.312	10934
927.419	11037
927.525	11014
927.631	11056
927.737	10881
927.843	10881
927.95	10790
928.056	10862
928.162	10889
928.267	10942
928.373	11471
928.479	10972
928.585	10675
928.69	10835
928.796	10911
928.901	10801
929.007	10653
929.112	10736
929.218	10725
929.323	10626
929.428	10637
929.533	10729
929.638	10497
929.743	10649
929.848	10634
929.953	10550
930.058	10470
930.163	10363
930.267	10386
930.372	10478
930.477	10211
930.581	10535
930.685	10344
930.79	10177
930.894	10219
930.998	10242
931.103	10348
931.207	9994
931.311	9998
931.415	9816
931.519	9675
931.623	9660
