Data from test_V78500241_228.txt Node
Date: Fri Mar 25 14:35:18 CST 2022
User: usil
Spectrometer: V785-0024
Trigger mode: 0
Integration Time (sec): 4.000000E-1
Scans to average: 1
Nonlinearity correction enabled: false
Boxcar width: 0
Storing dark spectrum: false
XAxis mode: Wavelengths
Number of Pixels in Spectrum: 1024
>>>>>Begin Spectral Data<<<<<
801.071	27774
801.214	27667
801.356	27408
801.499	27279
801.641	27252
801.783	27055
801.926	27142
802.068	26982
802.211	26998
802.353	26963
802.496	26648
802.638	26663
802.78	26777
802.923	26731
803.065	26511
803.208	26712
803.35	26560
803.492	26644
803.635	26845
803.777	26663
803.919	26716
804.061	27024
804.204	26800
804.346	26621
804.488	26575
804.63	26450
804.773	26431
804.915	26579
805.057	26716
805.199	26533
805.341	26606
805.483	26754
805.626	26724
805.768	26644
805.91	26796
806.052	26796
806.194	26632
806.336	26902
806.478	26758
806.62	26716
806.762	26864
806.904	27001
807.046	27138
807.188	27157
807.33	27176
807.472	27104
807.614	27058
807.756	26952
807.898	26975
808.04	27055
808.182	27081
808.324	27009
808.465	27100
808.607	27397
808.749	27583
808.891	27625
809.033	27770
809.174	27515
809.316	27473
809.458	27488
809.6	27336
809.741	27435
809.883	27397
810.025	27367
810.166	27393
810.308	27492
810.45	27382
810.591	27321
810.733	27230
810.875	27211
811.016	26979
811.158	26986
811.299	27203
811.441	27275
811.582	27096
811.724	27207
811.865	27013
812.007	27100
812.148	27051
812.29	27051
812.431	27199
812.573	27332
812.714	27450
812.855	27679
812.997	27587
813.138	27713
813.279	27713
813.421	27458
813.562	27466
813.703	27317
813.845	27260
813.986	26804
814.127	26796
814.268	26670
814.41	26640
814.551	26583
814.692	26670
814.833	26602
814.974	26579
815.115	26560
815.256	26568
815.397	26396
815.539	26556
815.68	26377
815.821	26263
815.962	26480
816.103	26423
816.244	26237
816.385	26088
816.526	26153
816.666	25978
816.807	25826
816.948	25845
817.089	25902
817.23	25765
817.371	25632
817.512	25704
817.653	25681
817.793	25738
817.934	25719
818.075	25803
818.216	25788
818.356	25628
818.497	25514
818.638	25400
818.778	25453
818.919	25483
819.06	25407
819.2	25571
819.341	25727
819.481	25670
819.622	25757
819.762	25864
819.903	25909
820.043	25700
820.184	25841
820.324	25594
820.465	25772
820.605	25822
820.746	25647
820.886	25449
821.026	25609
821.167	25696
821.307	25795
821.447	25647
821.588	25647
821.728	25320
821.868	25270
822.008	25187
822.149	25008
822.289	24935
822.429	24795
822.569	24661
822.709	24757
822.849	24597
822.99	24570
823.13	24502
823.27	24494
823.41	24254
823.55	24247
823.69	24266
823.83	24273
823.97	24182
824.11	24144
824.25	24144
824.389	24102
824.529	24281
824.669	24110
824.809	24186
824.949	24106
825.089	24197
825.228	24030
825.368	23973
825.508	23950
825.648	23813
825.787	23908
825.927	23885
826.067	23805
826.206	23802
826.346	23946
826.485	23927
826.625	23912
826.765	23973
826.904	23977
827.044	23600
827.183	23722
827.323	23493
827.462	23589
827.601	23455
827.741	23528
827.88	23581
828.02	23379
828.159	23478
828.298	23474
828.437	23554
828.577	23463
828.716	23535
828.855	23463
828.994	23273
829.134	23337
829.273	23239
829.412	23307
829.551	23079
829.69	23254
829.829	23284
829.968	23189
830.107	23315
830.246	23124
830.385	23227
830.524	23140
830.663	23044
830.802	22900
830.941	22744
831.08	22790
831.219	22919
831.357	22885
831.496	23003
831.635	22763
831.774	22649
831.913	22668
832.051	22603
832.19	22592
832.329	22554
832.467	22554
832.606	22409
832.744	22344
832.883	22409
833.022	22276
833.16	22561
833.299	22565
833.437	22390
833.576	22367
833.714	22500
833.852	22531
833.991	22592
834.129	22580
834.267	22535
834.406	22436
834.544	22535
834.682	22485
834.821	22481
834.959	22580
835.097	22314
835.235	22485
835.373	22398
835.511	22398
835.65	22230
835.788	22337
835.926	22112
836.064	22078
836.202	22166
836.34	22299
836.478	22322
836.615	22219
836.753	22265
836.891	22360
837.029	22200
837.167	22082
837.305	22143
837.443	22234
837.58	22101
837.718	22048
837.856	22101
837.993	22048
838.131	22074
838.269	22044
838.406	22021
838.544	21876
838.681	21717
838.819	21720
838.956	21549
839.094	21504
839.231	21583
839.369	21736
839.506	21991
839.643	21660
839.781	21485
839.918	21538
840.055	21587
840.193	21439
840.33	21485
840.467	21355
840.604	21443
840.742	21724
840.879	21252
841.016	21340
841.153	21332
841.29	21542
841.427	21572
841.564	21469
841.701	21416
841.838	21336
841.975	21298
842.112	21279
842.249	21252
842.385	21051
842.522	21298
842.659	21237
842.796	21032
842.933	21169
843.069	21028
843.206	21066
843.343	21192
843.479	21264
843.616	21096
843.752	20982
843.889	20864
844.025	21036
844.162	20849
844.298	20982
844.435	20880
844.571	20963
844.708	20872
844.844	20967
844.98	21070
845.117	20956
845.253	20815
845.389	20826
845.525	20906
845.661	21001
845.798	20998
845.934	21169
846.07	21043
846.206	21116
846.342	21150
846.478	20899
846.614	20575
846.75	20434
846.886	20415
847.022	20533
847.158	20461
847.294	20389
847.429	20461
847.565	20358
847.701	20564
847.837	19978
847.972	19917
848.108	20153
848.244	20039
848.379	19955
848.515	19837
848.65	19849
848.786	19883
848.921	19951
849.057	20069
849.192	19898
849.328	19795
849.463	19826
849.598	19864
849.734	19731
849.869	19643
850.004	19647
850.14	19674
850.275	19460
850.41	19613
850.545	19548
850.68	19681
850.815	19681
850.95	19575
851.085	19772
851.22	19734
851.355	19556
851.49	19525
851.625	19468
851.76	19552
851.895	19533
852.03	19415
852.165	19567
852.299	19670
852.434	19563
852.569	19521
852.703	19632
852.838	19609
852.973	19723
853.107	19662
853.242	19613
853.376	19403
853.511	19301
853.645	19407
853.78	19556
853.914	19480
854.048	19388
854.183	19449
854.317	19415
854.451	19567
854.585	19365
854.72	19346
854.854	19487
854.988	19308
855.122	19381
855.256	19304
855.39	19415
855.524	19597
855.658	19457
855.792	19411
855.926	19487
856.06	19449
856.194	19464
856.327	19327
856.461	19266
856.595	19350
856.729	19384
856.862	19464
856.996	19483
857.13	19521
857.263	19575
857.397	19514
857.53	19327
857.664	19320
857.797	19548
857.931	19457
858.064	19445
858.197	19529
858.331	19533
858.464	19297
858.597	19232
858.731	19209
858.864	19327
858.997	19308
859.13	19369
859.263	19316
859.396	19407
859.529	19244
859.662	19266
859.795	19274
859.928	19285
860.061	19464
860.194	19491
860.327	19259
860.46	19381
860.592	19441
860.725	19407
860.858	19426
860.99	19312
861.123	19282
861.256	19194
861.388	19320
861.521	19963
861.653	19206
861.786	19122
861.918	19263
862.05	19377
862.183	19354
862.315	19419
862.447	19365
862.58	19289
862.712	19202
862.844	19088
862.976	19164
863.108	19065
863.24	19495
863.372	19053
863.504	19061
863.636	18981
863.768	18981
863.9	19057
864.032	18875
864.164	18973
864.296	18981
864.428	19110
864.559	19118
864.691	19118
864.823	18970
864.954	19080
865.086	18973
865.217	18924
865.349	18878
865.48	18848
865.612	19107
865.743	19061
865.875	18954
866.006	18840
866.137	18932
866.269	18859
866.4	18920
866.531	18894
866.662	18890
866.793	18913
866.924	18928
867.055	18996
867.186	18935
867.317	18852
867.448	18833
867.579	18878
867.71	18696
867.841	18798
867.972	18909
868.103	19004
868.233	18928
868.364	18985
868.495	18981
868.625	19065
868.756	19209
868.886	18970
869.017	19183
869.147	19285
869.278	19183
869.408	19137
869.539	19141
869.669	19263
869.799	19103
869.929	19282
870.06	19171
870.19	19369
870.32	19415
870.45	19392
870.58	19491
870.71	19590
870.84	19651
870.97	19540
871.1	19559
871.23	19666
871.36	19776
871.489	19693
871.619	19658
871.749	19670
871.879	19788
872.008	19769
872.138	19628
872.267	19605
872.397	19594
872.526	19540
872.656	19632
872.785	19449
872.915	19841
873.044	19856
873.173	19723
873.303	19693
873.432	19776
873.561	19784
873.69	19715
873.819	19712
873.948	19830
874.077	19871
874.206	19639
874.335	19731
874.464	19852
874.593	19887
874.722	19947
874.851	20115
874.979	20035
875.108	20073
875.237	19982
875.365	19944
875.494	20043
875.623	20107
875.751	20054
875.88	20092
876.008	20176
876.136	20164
876.265	20415
876.393	20606
876.521	20480
876.65	20499
876.778	20503
876.906	20457
877.034	20324
877.162	20389
877.29	20370
877.418	20408
877.546	20286
877.674	20381
877.802	20442
877.93	20423
878.058	20290
878.185	20351
878.313	20492
878.441	20389
878.568	20324
878.696	20358
878.824	20370
878.951	20594
879.079	20564
879.206	20880
879.333	20773
879.461	20613
879.588	20781
879.715	20739
879.842	20864
879.97	20655
880.097	20454
880.224	20415
880.351	20347
880.478	20248
880.605	20187
880.732	20278
880.859	20408
880.986	20267
881.112	20374
881.239	20115
881.366	20016
881.493	19822
881.619	19890
881.746	19936
881.872	19883
881.999	19913
882.125	19890
882.252	20027
882.378	19925
882.505	19997
882.631	19833
882.757	19723
882.883	19704
883.01	19681
883.136	19540
883.262	19449
883.388	19392
883.514	19594
883.64	19734
883.766	19616
883.892	19396
884.018	19540
884.143	19495
884.269	19544
884.395	19335
884.52	19411
884.646	19320
884.772	19228
884.897	19320
885.023	19335
885.148	19422
885.274	19518
885.399	19403
885.524	19400
885.65	19320
885.775	19270
885.9	19251
886.025	19392
886.15	19392
886.275	19110
886.4	19160
886.525	19164
886.65	19213
886.775	19164
886.9	19354
887.025	19358
887.149	19293
887.274	19061
887.399	18973
887.523	18973
887.648	19084
887.773	18928
887.897	19080
888.021	19031
888.146	18897
888.27	19069
888.395	19129
888.519	18932
888.643	19012
888.767	19065
888.891	19019
889.015	18776
889.139	18840
889.263	18829
889.387	18905
889.511	19015
889.635	18890
889.759	18840
889.883	18806
890.006	18779
890.13	18875
890.254	18745
890.377	18745
890.501	18532
890.624	18582
890.748	18715
890.871	18467
890.995	18456
891.118	18289
891.241	18422
891.364	18422
891.488	18486
891.611	18441
891.734	18441
891.857	18445
891.98	18414
892.103	18418
892.226	18429
892.349	18308
892.471	18308
892.594	18414
892.717	18429
892.839	18346
892.962	18304
893.085	18475
893.207	18380
893.33	18239
893.452	18262
893.575	18376
893.697	18327
893.819	18494
893.941	18467
894.064	18372
894.186	18346
894.308	18315
894.43	18467
894.552	18502
894.674	18365
894.796	18228
894.918	18247
895.04	18319
895.161	18498
895.283	18353
895.405	18338
895.526	18308
895.648	18429
895.769	18346
895.891	18308
896.012	18437
896.134	18509
896.255	18422
896.376	18380
896.498	18369
896.619	18418
896.74	18403
896.861	18437
896.982	18810
897.103	18993
897.224	18681
897.345	18700
897.466	18642
897.587	18658
897.708	18741
897.828	18711
897.949	18559
898.07	18479
898.19	18566
898.311	18650
898.431	18540
898.552	18734
898.672	18703
898.792	18696
898.913	18627
899.033	18578
899.153	18376
899.273	18311
899.393	18429
899.513	18559
899.633	18308
899.753	18506
899.873	18350
899.993	18369
900.113	18365
900.232	18357
900.352	18334
900.472	18228
900.591	18117
900.711	18289
900.83	18213
900.95	18281
901.069	18327
901.189	18174
901.308	17999
901.427	17904
901.546	17824
901.665	17832
901.784	17863
901.904	17703
902.023	17642
902.141	17349
902.26	17402
902.379	17414
902.498	17398
902.617	17326
902.735	17383
902.854	17406
902.973	17311
903.091	16984
903.21	16980
903.328	17014
903.446	16843
903.565	16911
903.683	16873
903.801	16744
903.919	16847
904.038	16801
904.156	16611
904.274	16599
904.392	16577
904.51	16584
904.627	16584
904.745	16656
904.863	16580
904.981	16432
905.098	16265
905.216	16253
905.334	16234
905.451	16230
905.569	16253
905.686	16265
905.803	16322
905.921	16006
906.038	16173
906.155	16071
906.272	15934
906.389	15930
906.506	15793
906.623	15743
906.74	15819
906.857	15625
906.974	15804
907.091	15907
907.208	15892
907.324	15808
907.441	15717
907.557	15656
907.674	15500
907.79	15485
907.907	15416
908.023	15428
908.139	15431
908.256	15454
908.372	15458
908.488	15367
908.604	15321
908.72	15165
908.836	15226
908.952	15169
909.068	15199
909.184	15325
909.3	15214
909.415	15241
909.531	15127
909.647	14937
909.762	14933
909.878	14864
909.993	14937
910.108	14815
910.224	14845
910.339	14864
910.454	14788
910.57	14621
910.685	14689
910.8	14864
910.915	14796
911.03	14724
911.145	14670
911.259	14419
911.374	14571
911.489	14492
911.604	14320
911.718	14271
911.833	14229
911.947	14248
912.062	14168
912.176	14294
912.291	14305
912.405	14187
912.519	14396
912.633	14336
912.748	14366
912.862	14263
912.976	14020
913.09	14069
913.204	14115
913.318	14119
913.431	14187
913.545	14210
913.659	14164
913.772	13997
913.886	13932
914	13902
914.113	13909
914.226	14054
914.34	13993
914.453	13742
914.566	13932
914.68	13788
914.793	13841
914.906	13586
915.019	13571
915.132	13502
915.245	13594
915.358	13544
915.47	13575
915.583	13643
915.696	13616
915.809	13700
915.921	13674
916.034	13525
916.146	13544
916.259	13521
916.371	13571
916.483	13559
916.595	13415
916.708	13430
916.82	13415
916.932	13312
917.044	13457
917.156	13335
917.268	13247
917.38	13373
917.491	13301
917.603	13316
917.715	13381
917.826	13346
917.938	13190
918.049	13103
918.161	13202
918.272	13377
918.384	13168
918.495	13240
918.606	13042
918.717	12954
918.828	12954
918.939	13091
919.05	12947
919.161	12977
919.272	12867
919.383	12882
919.494	13084
919.604	13122
919.715	13046
919.826	12981
919.936	12958
920.047	13031
920.157	12981
920.267	13133
920.378	13031
920.488	13015
920.598	13198
920.708	13369
920.818	13152
920.928	13183
921.038	13282
921.148	13194
921.258	12981
921.368	12909
921.477	12810
921.587	12684
921.697	12703
921.806	12757
921.916	12585
922.025	12494
922.134	12464
922.244	12350
922.353	12433
922.462	12171
922.571	12334
922.68	12041
922.789	12045
922.898	12053
923.007	11961
923.116	12091
923.224	11965
923.333	12041
923.442	11923
923.55	11950
923.659	11893
923.767	12007
923.876	11931
923.984	11939
924.092	11866
924.201	11904
924.309	11946
924.417	11908
924.525	11760
924.633	11813
924.741	12768
924.849	11726
924.956	11783
925.064	11592
925.172	11417
925.279	11573
925.387	11573
925.494	11566
925.602	11668
925.709	11608
925.816	11482
925.924	11482
926.031	11611
926.138	11558
926.245	11577
926.352	11459
926.459	11558
926.566	11642
926.673	11455
926.779	11402
926.886	11398
926.993	11250
927.099	11212
927.206	11193
927.312	11132
927.419	11269
927.525	11098
927.631	11223
927.737	11140
927.843	11056
927.95	10980
928.056	11022
928.162	11071
928.267	11048
928.373	11592
928.479	11166
928.585	10908
928.69	11029
928.796	10984
928.901	10908
929.007	10820
929.112	10889
929.218	10828
929.323	10904
929.428	10774
929.533	10862
929.638	10687
929.743	10828
929.848	10759
929.953	10721
930.058	10622
930.163	10489
930.267	10592
930.372	10599
930.477	10432
930.581	10656
930.685	10535
930.79	10356
930.894	10481
930.998	10409
931.103	10478
931.207	10139
931.311	10048
931.415	9922
931.519	9785
931.623	9816
