Data from test_V78500241_2925.txt Node
Date: Fri Mar 25 14:54:04 CST 2022
User: usil
Spectrometer: V785-0024
Trigger mode: 0
Integration Time (sec): 4.000000E-1
Scans to average: 1
Nonlinearity correction enabled: false
Boxcar width: 0
Storing dark spectrum: false
XAxis mode: Wavelengths
Number of Pixels in Spectrum: 1024
>>>>>Begin Spectral Data<<<<<
801.071	22090
801.214	21899
801.356	21739
801.499	21637
801.641	21553
801.783	21355
801.926	21511
802.068	21374
802.211	21275
802.353	21264
802.496	20963
802.638	20937
802.78	20937
802.923	20861
803.065	20762
803.208	20682
803.35	20750
803.492	20864
803.635	20804
803.777	20891
803.919	20785
804.061	21142
804.204	20746
804.346	20621
804.488	20693
804.63	20716
804.773	20636
804.915	20720
805.057	20811
805.199	20655
805.341	20537
805.483	20838
805.626	20765
805.768	20663
805.91	20815
806.052	20804
806.194	20651
806.336	20807
806.478	20712
806.62	20781
806.762	20765
806.904	20883
807.046	21108
807.188	21028
807.33	21081
807.472	20982
807.614	20986
807.756	20944
807.898	20804
808.04	20720
808.182	20819
808.324	20705
808.465	20838
808.607	21013
808.749	21058
808.891	21192
809.033	21207
809.174	21123
809.316	20948
809.458	21039
809.6	21036
809.741	21222
809.883	21081
810.025	21264
810.166	21256
810.308	21272
810.45	21100
810.591	21100
810.733	20891
810.875	20902
811.016	20682
811.158	20777
811.299	20864
811.441	21001
811.582	20937
811.724	20960
811.865	20701
812.007	20902
812.148	20743
812.29	20872
812.431	20971
812.573	21176
812.714	21218
812.855	21416
812.997	21363
813.138	21629
813.279	21447
813.421	21348
813.562	21272
813.703	21123
813.845	21005
813.986	20720
814.127	20579
814.268	20465
814.41	20396
814.551	20393
814.692	20404
814.833	20252
814.974	20347
815.115	20499
815.256	20206
815.397	20149
815.539	20195
815.68	20020
815.821	20138
815.962	20195
816.103	20138
816.244	19986
816.385	19738
816.526	19845
816.666	19738
816.807	19533
816.948	19620
817.089	19696
817.23	19601
817.371	19597
817.512	19502
817.653	19426
817.793	19457
817.934	19567
818.075	19556
818.216	19495
818.356	19495
818.497	19388
818.638	19148
818.778	19126
818.919	19236
819.06	19168
819.2	19339
819.341	19324
819.481	19415
819.622	19453
819.762	19719
819.903	19738
820.043	19567
820.184	19544
820.324	19491
820.465	19480
820.605	19518
820.746	19525
820.886	19354
821.026	19438
821.167	19411
821.307	19540
821.447	19453
821.588	19270
821.728	19118
821.868	19042
822.008	18920
822.149	18806
822.289	18833
822.429	18574
822.569	18631
822.709	18582
822.849	18479
822.99	18270
823.13	18319
823.27	18296
823.41	18182
823.55	18129
823.69	18182
823.83	18209
823.97	18144
824.11	17927
824.25	17969
824.389	17984
824.529	17920
824.669	17901
824.809	18034
824.949	18072
825.089	18011
825.228	17935
825.368	17722
825.508	17726
825.648	17726
825.787	17710
825.927	17718
826.067	17649
826.206	17642
826.346	17764
826.485	17832
826.625	17661
826.765	17863
826.904	17779
827.044	17512
827.183	17421
827.323	17482
827.462	17463
827.601	17474
827.741	17395
827.88	17372
828.02	17246
828.159	17410
828.298	17471
828.437	17474
828.577	17322
828.716	17497
828.855	17330
828.994	17181
829.134	17105
829.273	17227
829.412	17056
829.551	17071
829.69	17162
829.829	17136
829.968	17254
830.107	17212
830.246	17239
830.385	17105
830.524	16999
830.663	16831
830.802	16927
830.941	16759
831.08	16653
831.219	16843
831.357	16904
831.496	16938
831.635	16733
831.774	16645
831.913	16691
832.051	16675
832.19	16603
832.329	16554
832.467	16489
832.606	16478
832.744	16417
832.883	16466
833.022	16531
833.16	16542
833.299	16459
833.437	16466
833.576	16508
833.714	16478
833.852	16512
833.991	16508
834.129	16527
834.267	16447
834.406	16504
834.544	16462
834.682	16432
834.821	16516
834.959	16698
835.097	16440
835.235	16641
835.373	16459
835.511	16550
835.65	16421
835.788	16440
835.926	16314
836.064	16196
836.202	16246
836.34	16409
836.478	16485
836.615	16299
836.753	16550
836.891	16459
837.029	16466
837.167	16363
837.305	16352
837.443	16299
837.58	16173
837.718	16421
837.856	16341
837.993	16169
838.131	16219
838.269	16230
838.406	16162
838.544	16090
838.681	16013
838.819	16063
838.956	15865
839.094	15800
839.231	15930
839.369	16036
839.506	16265
839.643	16063
839.781	15747
839.918	15686
840.055	15838
840.193	15781
840.33	15789
840.467	15816
840.604	15819
840.742	15998
840.879	15641
841.016	15812
841.153	15728
841.29	15941
841.427	15831
841.564	15857
841.701	15770
841.838	15774
841.975	15743
842.112	15797
842.249	15625
842.385	15572
842.522	15732
842.659	15648
842.796	15614
842.933	15682
843.069	15580
843.206	15549
843.343	15618
843.479	15584
843.616	15542
843.752	15473
843.889	15374
844.025	15523
844.162	15317
844.298	15469
844.435	15500
844.571	15397
844.708	15454
844.844	15530
844.98	15469
845.117	15420
845.253	15344
845.389	15180
845.525	15351
845.661	15306
845.798	15279
845.934	15241
846.07	15043
846.206	15298
846.342	15294
846.478	15154
846.614	15051
846.75	14845
846.886	14944
847.022	15020
847.158	14876
847.294	14956
847.429	14963
847.565	14853
847.701	15188
847.837	14689
847.972	14571
848.108	14724
848.244	14670
848.379	14667
848.515	14575
848.65	14545
848.786	14541
848.921	14720
849.057	14663
849.192	14651
849.328	14575
849.463	14514
849.598	14484
849.734	14476
849.869	14389
850.004	14362
850.14	14431
850.275	14317
850.41	14225
850.545	14298
850.68	14313
850.815	14237
850.95	14317
851.085	14442
851.22	14385
851.355	14358
851.49	14343
851.625	14271
851.76	14275
851.895	14275
852.03	14210
852.165	14252
852.299	14313
852.434	14423
852.569	14423
852.703	14404
852.838	14461
852.973	14434
853.107	14374
853.242	14328
853.376	14195
853.511	14058
853.645	14153
853.78	14240
853.914	14278
854.048	14206
854.183	14115
854.317	14168
854.451	14343
854.585	14221
854.72	14256
854.854	14286
854.988	14134
855.122	14103
855.256	14046
855.39	14176
855.524	14187
855.658	14298
855.792	14176
855.926	14309
856.06	14233
856.194	14309
856.327	14214
856.461	14233
856.595	14130
856.729	14191
856.862	14275
856.996	14168
857.13	14225
857.263	14389
857.397	14374
857.53	14214
857.664	14339
857.797	14275
857.931	14351
858.064	14347
858.197	14328
858.331	14199
858.464	14191
858.597	14077
858.731	14237
858.864	14214
858.997	14115
859.13	14252
859.263	14298
859.396	14389
859.529	14256
859.662	14225
859.795	14221
859.928	14202
860.061	14374
860.194	14362
860.327	14317
860.46	14240
860.592	14328
860.725	14393
860.858	14358
860.99	14267
861.123	14126
861.256	14142
861.388	14244
861.521	14807
861.653	14081
861.786	14027
861.918	14100
862.05	14107
862.183	14267
862.315	14237
862.447	14202
862.58	14153
862.712	14031
862.844	14005
862.976	14081
863.108	14020
863.24	14446
863.372	13906
863.504	13986
863.636	13940
863.768	14153
863.9	14024
864.032	13822
864.164	14016
864.296	13921
864.428	14058
864.559	14100
864.691	14107
864.823	14069
864.954	14054
865.086	14100
865.217	13974
865.349	13944
865.48	14012
865.612	13909
865.743	14058
865.875	13993
866.006	14012
866.137	13940
866.269	13917
866.4	13932
866.531	13974
866.662	13970
866.793	13951
866.924	13963
867.055	14005
867.186	13982
867.317	13928
867.448	13898
867.579	13982
867.71	13879
867.841	13837
867.972	13982
868.103	13955
868.233	13982
868.364	13959
868.495	13986
868.625	14240
868.756	14339
868.886	14214
869.017	14138
869.147	14286
869.278	14427
869.408	14286
869.539	14221
869.669	14298
869.799	14362
869.929	14408
870.06	14339
870.19	14473
870.32	14617
870.45	14629
870.58	14606
870.71	14712
870.84	14781
870.97	14720
871.1	14674
871.23	14826
871.36	14857
871.489	14804
871.619	14811
871.749	14834
871.879	14845
872.008	14861
872.138	14800
872.267	14796
872.397	14693
872.526	14746
872.656	14697
872.785	14807
872.915	14826
873.044	14948
873.173	14792
873.303	14986
873.432	14960
873.561	14933
873.69	14864
873.819	14819
873.948	14986
874.077	14937
874.206	14830
874.335	14895
874.464	15089
874.593	15169
874.722	15112
874.851	15233
874.979	15226
875.108	15294
875.237	15154
875.365	15097
875.494	15214
875.623	15264
875.751	15039
875.88	15298
876.008	15256
876.136	15435
876.265	15614
876.393	15739
876.521	15789
876.65	15686
876.778	15751
876.906	15660
877.034	15538
877.162	15599
877.29	15553
877.418	15549
877.546	15564
877.674	15557
877.802	15633
877.93	15720
878.058	15549
878.185	15542
878.313	15667
878.441	15542
878.568	15469
878.696	15629
878.824	15641
878.951	15724
879.079	15720
879.206	15850
879.333	15884
879.461	15701
879.588	15743
879.715	15732
879.842	15888
879.97	15701
880.097	15416
880.224	15458
880.351	15606
880.478	15496
880.605	15469
880.732	15473
880.859	15667
880.986	15488
881.112	15492
881.239	15443
881.366	15237
881.493	15184
881.619	15123
881.746	15074
881.872	15070
881.999	15005
882.125	15077
882.252	15131
882.378	15104
882.505	15291
882.631	15024
882.757	14891
882.883	14937
883.01	14861
883.136	14819
883.262	14724
883.388	14785
883.514	14948
883.64	15017
883.766	14788
883.892	14811
884.018	14811
884.143	14948
884.269	15039
884.395	14781
884.52	14663
884.646	14644
884.772	14674
884.897	14583
885.023	14587
885.148	14724
885.274	14785
885.399	14731
885.524	14651
885.65	14648
885.775	14716
885.9	14644
886.025	14796
886.15	14750
886.275	14568
886.4	14613
886.525	14613
886.65	14492
886.775	14552
886.9	14746
887.025	14815
887.149	14579
887.274	14522
887.399	14442
887.523	14499
887.648	14404
887.773	14408
887.897	14571
888.021	14503
888.146	14400
888.27	14613
888.395	14629
888.519	14537
888.643	14473
888.767	14537
888.891	14328
889.015	14248
889.139	14351
889.263	14210
889.387	14427
889.511	14549
889.635	14396
889.759	14347
889.883	14347
890.006	14385
890.13	14434
890.254	14282
890.377	14313
890.501	14183
890.624	14183
890.748	14195
890.871	14096
890.995	14005
891.118	13963
891.241	14046
891.364	14050
891.488	14214
891.611	14027
891.734	13986
891.857	14123
891.98	14016
892.103	14149
892.226	14100
892.349	14081
892.471	13894
892.594	14100
892.717	14092
892.839	14058
892.962	14035
893.085	14008
893.207	14020
893.33	13909
893.452	14016
893.575	14084
893.697	14024
893.819	14138
893.941	14214
894.064	14290
894.186	14081
894.308	14031
894.43	14248
894.552	14275
894.674	14191
894.796	14008
894.918	14077
895.04	14065
895.161	14145
895.283	14149
895.405	14043
895.526	14183
895.648	14111
895.769	14210
895.891	14294
896.012	14206
896.134	14324
896.255	14199
896.376	14161
896.498	14225
896.619	14191
896.74	14240
896.861	14259
896.982	14571
897.103	14819
897.224	14495
897.345	14438
897.466	14412
897.587	14412
897.708	14590
897.828	14412
897.949	14476
898.07	14370
898.19	14522
898.311	14488
898.431	14571
898.552	14621
898.672	14617
898.792	14632
898.913	14583
899.033	14499
899.153	14480
899.273	14324
899.393	14370
899.513	14423
899.633	14446
899.753	14454
899.873	14419
899.993	14419
900.113	14454
900.232	14396
900.352	14446
900.472	14267
900.591	14221
900.711	14324
900.83	14358
900.95	14480
901.069	14343
901.189	14172
901.308	13982
901.427	13909
901.546	13970
901.665	14020
901.784	13982
901.904	13940
902.023	13788
902.141	13620
902.26	13636
902.379	13689
902.498	13422
902.617	13392
902.735	13575
902.854	13537
902.973	13582
903.091	13244
903.21	13251
903.328	13312
903.446	13168
903.565	13057
903.683	13114
903.801	13069
903.919	13141
904.038	13053
904.156	12935
904.274	12958
904.392	12863
904.51	12840
904.627	12996
904.745	13034
904.863	12951
904.981	12684
905.098	12639
905.216	12597
905.334	12741
905.451	12681
905.569	12570
905.686	12608
905.803	12650
905.921	12445
906.038	12563
906.155	12441
906.272	12319
906.389	12311
906.506	12247
906.623	12232
906.74	12144
906.857	12155
906.974	12045
907.091	12205
907.208	12414
907.324	12243
907.441	12159
907.557	12079
907.674	11939
907.79	11855
907.907	11916
908.023	11958
908.139	11958
908.256	11958
908.372	11904
908.488	11882
908.604	11714
908.72	11661
908.836	11733
908.952	11729
909.068	11737
909.184	11828
909.3	11634
909.415	11756
909.531	11714
909.647	11501
909.762	11558
909.878	11455
909.993	11490
910.108	11433
910.224	11402
910.339	11520
910.454	11448
910.57	11372
910.685	11269
910.8	11562
910.915	11474
911.03	11417
911.145	11231
911.259	11075
911.374	11124
911.489	11071
911.604	11090
911.718	10858
911.833	10927
911.947	10862
912.062	10824
912.176	10946
912.291	10972
912.405	10812
912.519	11090
912.633	11090
912.748	11041
912.862	10991
912.976	10850
913.09	10672
913.204	10752
913.318	10774
913.431	10949
913.545	10904
913.659	10877
913.772	10828
913.886	10691
914	10714
914.113	10778
914.226	10862
914.34	10752
914.453	10618
914.566	10729
914.68	10656
914.793	10550
914.906	10455
915.019	10478
915.132	10417
915.245	10455
915.358	10455
915.47	10489
915.583	10512
915.696	10535
915.809	10599
915.921	10554
916.034	10474
916.146	10375
916.259	10363
916.371	10481
916.483	10459
916.595	10394
916.708	10379
916.82	10356
916.932	10390
917.044	10375
917.156	10375
917.268	10204
917.38	10329
917.491	10272
917.603	10257
917.715	10306
917.826	10390
917.938	10303
918.049	10143
918.161	10318
918.272	10394
918.384	10436
918.495	10284
918.606	10246
918.717	10128
918.828	10204
918.939	10219
919.05	10025
919.161	10185
919.272	10010
919.383	10013
919.494	10246
919.604	10398
919.715	10200
919.826	10086
919.936	10150
920.047	10234
920.157	10150
920.267	10333
920.378	10230
920.488	10169
920.598	10337
920.708	10599
920.818	10375
920.928	10341
921.038	10554
921.148	10489
921.258	10173
921.368	10063
921.477	10055
921.587	9975
921.697	9846
921.806	10025
921.916	9930
922.025	9850
922.134	9682
922.244	9701
922.353	9793
922.462	9671
922.571	9542
922.68	9405
922.789	9416
922.898	9443
923.007	9363
923.116	9515
923.224	9420
923.333	9412
923.442	9294
923.55	9313
923.659	9325
923.767	9348
923.876	9302
923.984	9340
924.092	9283
924.201	9298
924.309	9321
924.417	9325
924.525	9218
924.633	9294
924.741	10185
924.849	9043
924.956	9260
925.064	9024
925.172	9005
925.279	9055
925.387	9131
925.494	9154
925.602	9256
925.709	9188
925.816	9070
925.924	9150
926.031	9233
926.138	9119
926.245	9165
926.352	9093
926.459	9249
926.566	9272
926.673	9020
926.779	8963
926.886	8956
926.993	8883
927.099	8746
927.206	8838
927.312	8777
927.419	8807
927.525	8899
927.631	8864
927.737	8758
927.843	8693
927.95	8629
928.056	8693
928.162	8750
928.267	8796
928.373	9401
928.479	8823
928.585	8621
928.69	8777
928.796	8792
928.901	8693
929.007	8480
929.112	8678
929.218	8613
929.323	8526
929.428	8480
929.533	8731
929.638	8446
929.743	8533
929.848	8564
929.953	8503
930.058	8556
930.163	8286
930.267	8374
930.372	8530
930.477	8328
930.581	8492
930.685	8393
930.79	8282
930.894	8317
930.998	8214
931.103	8389
931.207	8103
931.311	8016
931.415	7982
931.519	7780
931.623	7746
