Data from test_V78500241_3536.txt Node
Date: Fri Mar 25 14:58:20 CST 2022
User: usil
Spectrometer: V785-0024
Trigger mode: 0
Integration Time (sec): 4.000000E-1
Scans to average: 1
Nonlinearity correction enabled: false
Boxcar width: 0
Storing dark spectrum: false
XAxis mode: Wavelengths
Number of Pixels in Spectrum: 1024
>>>>>Begin Spectral Data<<<<<
801.071	21903
801.214	21766
801.356	21526
801.499	21428
801.641	21313
801.783	21325
801.926	21279
802.068	21089
802.211	21055
802.353	21081
802.496	20773
802.638	20746
802.78	20769
802.923	20613
803.065	20636
803.208	20518
803.35	20785
803.492	20682
803.635	20739
803.777	20560
803.919	20769
804.061	20921
804.204	20720
804.346	20526
804.488	20480
804.63	20541
804.773	20431
804.915	20484
805.057	20514
805.199	20495
805.341	20488
805.483	20640
805.626	20667
805.768	20518
805.91	20530
806.052	20518
806.194	20450
806.336	20617
806.478	20507
806.62	20396
806.762	20526
806.904	20640
807.046	20891
807.188	20857
807.33	20921
807.472	20937
807.614	20693
807.756	20727
807.898	20640
808.04	20549
808.182	20484
808.324	20568
808.465	20632
808.607	20876
808.749	20838
808.891	20944
809.033	21024
809.174	20872
809.316	20826
809.458	20823
809.6	20845
809.741	20899
809.883	20792
810.025	20986
810.166	20990
810.308	20872
810.45	20948
810.591	20811
810.733	20792
810.875	20571
811.016	20484
811.158	20621
811.299	20735
811.441	20705
811.582	20667
811.724	20659
811.865	20590
812.007	20606
812.148	20556
812.29	20727
812.431	20754
812.573	20887
812.714	20998
812.855	21192
812.997	21199
813.138	21287
813.279	21275
813.421	21112
813.562	21024
813.703	20849
813.845	20826
813.986	20351
814.127	20339
814.268	20256
814.41	20187
814.551	20149
814.692	20214
814.833	20115
814.974	20024
815.115	20183
815.256	19967
815.397	20031
815.539	19932
815.68	19833
815.821	19807
815.962	19856
816.103	19833
816.244	19765
816.385	19571
816.526	19586
816.666	19499
816.807	19324
816.948	19304
817.089	19396
817.23	19320
817.371	19327
817.512	19331
817.653	19225
817.793	19297
817.934	19206
818.075	19247
818.216	19285
818.356	19221
818.497	19141
818.638	18928
818.778	18844
818.919	18958
819.06	19023
819.2	19137
819.341	19122
819.481	19171
819.622	19369
819.762	19468
819.903	19419
820.043	19255
820.184	19320
820.324	19209
820.465	19282
820.605	19263
820.746	19327
820.886	19114
821.026	19320
821.167	19358
821.307	19350
821.447	19244
821.588	19069
821.728	18935
821.868	18882
822.008	18616
822.149	18776
822.289	18677
822.429	18403
822.569	18292
822.709	18330
822.849	18114
822.99	18213
823.13	18178
823.27	18182
823.41	17954
823.55	18015
823.69	18022
823.83	17942
823.97	17984
824.11	17752
824.25	17638
824.389	17722
824.529	17882
824.669	17794
824.809	17813
824.949	17760
825.089	17767
825.228	17676
825.368	17547
825.508	17600
825.648	17490
825.787	17547
825.927	17627
826.067	17444
826.206	17452
826.346	17459
826.485	17429
826.625	17463
826.765	17554
826.904	17535
827.044	17303
827.183	17227
827.323	17105
827.462	17223
827.601	17162
827.741	17162
827.88	17246
828.02	17003
828.159	17208
828.298	17200
828.437	17337
828.577	17231
828.716	17277
828.855	17128
828.994	17003
829.134	17006
829.273	17056
829.412	16953
829.551	16923
829.69	16965
829.829	16968
829.968	17052
830.107	17105
830.246	17094
830.385	16858
830.524	16908
830.663	16885
830.802	16702
830.941	16698
831.08	16523
831.219	16573
831.357	16710
831.496	16862
831.635	16485
831.774	16565
831.913	16519
832.051	16459
832.19	16394
832.329	16440
832.467	16303
832.606	16337
832.744	16348
832.883	16280
833.022	16360
833.16	16356
833.299	16344
833.437	16318
833.576	16398
833.714	16272
833.852	16337
833.991	16344
834.129	16409
834.267	16398
834.406	16390
834.544	16337
834.682	16489
834.821	16360
834.959	16508
835.097	16276
835.235	16424
835.373	16394
835.511	16356
835.65	16219
835.788	16249
835.926	16135
836.064	16131
836.202	16230
836.34	16344
836.478	16356
836.615	16344
836.753	16280
836.891	16394
837.029	16443
837.167	16280
837.305	16238
837.443	16196
837.58	16139
837.718	16276
837.856	16116
837.993	16139
838.131	16135
838.269	16204
838.406	16055
838.544	16078
838.681	15865
838.819	15778
838.956	15720
839.094	15625
839.231	15728
839.369	15827
839.506	16116
839.643	15983
839.781	15827
839.918	15690
840.055	15785
840.193	15663
840.33	15618
840.467	15736
840.604	15800
840.742	15903
840.879	15572
841.016	15667
841.153	15618
841.29	15831
841.427	15682
841.564	15766
841.701	15831
841.838	15694
841.975	15667
842.112	15625
842.249	15526
842.385	15386
842.522	15755
842.659	15568
842.796	15507
842.933	15431
843.069	15412
843.206	15545
843.343	15557
843.479	15545
843.616	15545
843.752	15355
843.889	15275
844.025	15359
844.162	15336
844.298	15401
844.435	15336
844.571	15252
844.708	15287
844.844	15439
844.98	15363
845.117	15412
845.253	15310
845.389	15176
845.525	15256
845.661	15184
845.798	15032
845.934	15142
846.07	15013
846.206	15192
846.342	15169
846.478	15207
846.614	14906
846.75	14849
846.886	14834
847.022	14971
847.158	14853
847.294	14891
847.429	14925
847.565	14838
847.701	14982
847.837	14610
847.972	14522
848.108	14705
848.244	14758
848.379	14571
848.515	14396
848.65	14438
848.786	14374
848.921	14438
849.057	14560
849.192	14575
849.328	14545
849.463	14522
849.598	14454
849.734	14336
849.869	14332
850.004	14259
850.14	14298
850.275	14233
850.41	14176
850.545	14210
850.68	14115
850.815	14153
850.95	14244
851.085	14469
851.22	14271
851.355	14259
851.49	14214
851.625	14164
851.76	14100
851.895	14191
852.03	14062
852.165	14282
852.299	14218
852.434	14305
852.569	14305
852.703	14187
852.838	14275
852.973	14343
853.107	14328
853.242	14233
853.376	14145
853.511	14024
853.645	14062
853.78	14195
853.914	14077
854.048	14145
854.183	14065
854.317	14081
854.451	14294
854.585	14088
854.72	14012
854.854	14176
854.988	13997
855.122	14058
855.256	13989
855.39	14107
855.524	14214
855.658	14214
855.792	14172
855.926	14130
856.06	14199
856.194	14301
856.327	14145
856.461	14142
856.595	14058
856.729	14096
856.862	14183
856.996	14233
857.13	14172
857.263	14259
857.397	14210
857.53	14183
857.664	14191
857.797	14199
857.931	14263
858.064	14096
858.197	14237
858.331	14111
858.464	14172
858.597	13951
858.731	14130
858.864	14111
858.997	14103
859.13	14183
859.263	14149
859.396	14229
859.529	14077
859.662	14157
859.795	14153
859.928	14172
860.061	14313
860.194	14233
860.327	14229
860.46	14149
860.592	14233
860.725	14237
860.858	14278
860.99	14130
861.123	14043
861.256	14058
861.388	14164
861.521	14941
861.653	13959
861.786	13944
861.918	13955
862.05	14035
862.183	14020
862.315	14100
862.447	14153
862.58	13989
862.712	13837
862.844	13883
862.976	13970
863.108	13849
863.24	14164
863.372	13738
863.504	13860
863.636	13936
863.768	13978
863.9	13932
864.032	13841
864.164	13932
864.296	13932
864.428	13986
864.559	13978
864.691	14008
864.823	13967
864.954	13875
865.086	13925
865.217	13940
865.349	13833
865.48	13936
865.612	13925
865.743	14088
865.875	13811
866.006	13868
866.137	13959
866.269	13986
866.4	13826
866.531	13811
866.662	13830
866.793	13936
866.924	13780
867.055	13890
867.186	13818
867.317	13845
867.448	13788
867.579	13799
867.71	13719
867.841	13807
867.972	13890
868.103	13898
868.233	13902
868.364	13982
868.495	13902
868.625	14096
868.756	14187
868.886	14043
869.017	14058
869.147	14267
869.278	14252
869.408	14168
869.539	14164
869.669	14252
869.799	14168
869.929	14244
870.06	14195
870.19	14507
870.32	14404
870.45	14473
870.58	14492
870.71	14663
870.84	14648
870.97	14571
871.1	14503
871.23	14777
871.36	14682
871.489	14610
871.619	14788
871.749	14743
871.879	14735
872.008	14952
872.138	14735
872.267	14583
872.397	14594
872.526	14560
872.656	14465
872.785	14602
872.915	14716
873.044	14781
873.173	14754
873.303	14800
873.432	14750
873.561	14929
873.69	14826
873.819	14724
873.948	14910
874.077	14781
874.206	14800
874.335	14887
874.464	14921
874.593	15074
874.722	15047
874.851	15127
874.979	15138
875.108	15165
875.237	15116
875.365	15043
875.494	15081
875.623	15218
875.751	15005
875.88	15165
876.008	15260
876.136	15389
876.265	15466
876.393	15587
876.521	15523
876.65	15614
876.778	15538
876.906	15481
877.034	15370
877.162	15580
877.29	15500
877.418	15561
877.546	15511
877.674	15519
877.802	15485
877.93	15477
878.058	15458
878.185	15496
878.313	15511
878.441	15466
878.568	15313
878.696	15344
878.824	15553
878.951	15504
879.079	15663
879.206	15770
879.333	15690
879.461	15523
879.588	15603
879.715	15644
879.842	15827
879.97	15625
880.097	15367
880.224	15389
880.351	15393
880.478	15336
880.605	15336
880.732	15515
880.859	15603
880.986	15374
881.112	15424
881.239	15291
881.366	15249
881.493	15043
881.619	15097
881.746	15058
881.872	15097
881.999	14952
882.125	14925
882.252	15116
882.378	15097
882.505	15211
882.631	14941
882.757	14876
882.883	14971
883.01	14933
883.136	14807
883.262	14712
883.388	14705
883.514	14853
883.64	14941
883.766	14800
883.892	14659
884.018	14667
884.143	14815
884.269	14929
884.395	14625
884.52	14454
884.646	14655
884.772	14514
884.897	14446
885.023	14606
885.148	14686
885.274	14705
885.399	14655
885.524	14537
885.65	14495
885.775	14583
885.9	14545
886.025	14724
886.15	14598
886.275	14446
886.4	14419
886.525	14522
886.65	14438
886.775	14488
886.9	14663
887.025	14731
887.149	14625
887.274	14396
887.399	14336
887.523	14358
887.648	14301
887.773	14240
887.897	14476
888.021	14423
888.146	14366
888.27	14393
888.395	14495
888.519	14408
888.643	14347
888.767	14530
888.891	14339
889.015	14309
889.139	14248
889.263	14252
889.387	14275
889.511	14434
889.635	14370
889.759	14267
889.883	14298
890.006	14381
890.13	14275
890.254	14096
890.377	14210
890.501	14206
890.624	14115
890.748	14077
890.871	13989
890.995	13940
891.118	13898
891.241	13993
891.364	14065
891.488	13993
891.611	14020
891.734	13959
891.857	13978
891.98	13936
892.103	14046
892.226	13986
892.349	13925
892.471	13906
892.594	13963
892.717	13978
892.839	13902
892.962	13982
893.085	13986
893.207	13887
893.33	13921
893.452	13860
893.575	14054
893.697	13959
893.819	14172
893.941	14073
894.064	14142
894.186	13921
894.308	13944
894.43	14096
894.552	14145
894.674	14145
894.796	14020
894.918	14008
895.04	13970
895.161	14081
895.283	14058
895.405	13963
895.526	14031
895.648	14046
895.769	14149
895.891	14191
896.012	14142
896.134	14183
896.255	14229
896.376	14043
896.498	14153
896.619	14145
896.74	14054
896.861	14286
896.982	14499
897.103	14746
897.224	14396
897.345	14427
897.466	14256
897.587	14431
897.708	14587
897.828	14473
897.949	14370
898.07	14374
898.19	14457
898.311	14533
898.431	14446
898.552	14503
898.672	14503
898.792	14564
898.913	14438
899.033	14286
899.153	14317
899.273	14290
899.393	14271
899.513	14332
899.633	14328
899.753	14419
899.873	14442
899.993	14374
900.113	14294
900.232	14366
900.352	14377
900.472	14317
900.591	14142
900.711	14180
900.83	14119
900.95	14290
901.069	14286
901.189	14020
901.308	13917
901.427	13849
901.546	13928
901.665	13906
901.784	13906
901.904	13750
902.023	13693
902.141	13510
902.26	13426
902.379	13556
902.498	13441
902.617	13384
902.735	13491
902.854	13499
902.973	13343
903.091	13164
903.21	13179
903.328	13156
903.446	13088
903.565	12943
903.683	13072
903.801	12954
903.919	12958
904.038	13072
904.156	12783
904.274	12886
904.392	12791
904.51	12787
904.627	12764
904.745	13027
904.863	12848
904.981	12639
905.098	12471
905.216	12589
905.334	12540
905.451	12559
905.569	12479
905.686	12658
905.803	12578
905.921	12399
906.038	12475
906.155	12395
906.272	12292
906.389	12243
906.506	12205
906.623	12068
906.74	12045
906.857	11984
906.974	12064
907.091	12201
907.208	12254
907.324	12186
907.441	12106
907.557	11931
907.674	11988
907.79	11878
907.907	11821
908.023	11840
908.139	11931
908.256	11809
908.372	11874
908.488	11726
908.604	11623
908.72	11566
908.836	11668
908.952	11554
909.068	11627
909.184	11802
909.3	11627
909.415	11710
909.531	11619
909.647	11444
909.762	11376
909.878	11410
909.993	11440
910.108	11383
910.224	11383
910.339	11421
910.454	11379
910.57	11254
910.685	11113
910.8	11516
910.915	11383
911.03	11303
911.145	11090
911.259	11033
911.374	11056
911.489	11025
911.604	11029
911.718	10850
911.833	10904
911.947	10771
912.062	10691
912.176	10877
912.291	10938
912.405	10881
912.519	11064
912.633	11079
912.748	10911
912.862	10949
912.976	10763
913.09	10634
913.204	10675
913.318	10774
913.431	10881
913.545	10858
913.659	10900
913.772	10733
913.886	10733
914	10622
914.113	10790
914.226	10759
914.34	10812
914.453	10512
914.566	10752
914.68	10558
914.793	10615
914.906	10371
915.019	10371
915.132	10299
915.245	10375
915.358	10306
915.47	10386
915.583	10405
915.696	10504
915.809	10577
915.921	10512
916.034	10363
916.146	10413
916.259	10337
916.371	10421
916.483	10405
916.595	10265
916.708	10310
916.82	10272
916.932	10310
917.044	10306
917.156	10223
917.268	10177
917.38	10150
917.491	10207
917.603	10185
917.715	10352
917.826	10299
917.938	10215
918.049	10112
918.161	10299
918.272	10341
918.384	10303
918.495	10276
918.606	10086
918.717	10032
918.828	10078
918.939	10150
919.05	10036
919.161	10120
919.272	9857
919.383	9972
919.494	10169
919.604	10329
919.715	10112
919.826	9998
919.936	10067
920.047	10188
920.157	10196
920.267	10322
920.378	10158
920.488	10036
920.598	10329
920.708	10443
920.818	10303
920.928	10329
921.038	10485
921.148	10424
921.258	10124
921.368	10105
921.477	10078
921.587	9918
921.697	9888
921.806	10067
921.916	9838
922.025	9740
922.134	9724
922.244	9580
922.353	9690
922.462	9576
922.571	9561
922.68	9389
922.789	9344
922.898	9420
923.007	9325
923.116	9458
923.224	9355
923.333	9370
923.442	9245
923.55	9291
923.659	9253
923.767	9279
923.876	9199
923.984	9325
924.092	9192
924.201	9275
924.309	9249
924.417	9294
924.525	9116
924.633	9253
924.741	10010
924.849	9028
924.956	9146
925.064	9024
925.172	8952
925.279	9036
925.387	9005
925.494	9085
925.602	9176
925.709	9062
925.816	9005
925.924	9081
926.031	9127
926.138	9055
926.245	9138
926.352	9024
926.459	9123
926.566	9138
926.673	8986
926.779	8956
926.886	8857
926.993	8777
927.099	8689
927.206	8644
927.312	8693
927.419	8864
927.525	8815
927.631	8864
927.737	8754
927.843	8606
927.95	8537
928.056	8568
928.162	8651
928.267	8659
928.373	9287
928.479	8705
928.585	8522
928.69	8625
928.796	8659
928.901	8617
929.007	8457
929.112	8564
929.218	8526
929.323	8465
929.428	8499
929.533	8575
929.638	8473
929.743	8400
929.848	8549
929.953	8514
930.058	8385
930.163	8305
930.267	8259
930.372	8355
930.477	8164
930.581	8454
930.685	8309
930.79	8134
930.894	8218
930.998	8183
931.103	8275
931.207	7951
931.311	7902
931.415	7871
931.519	7662
931.623	7685
