Data from test_V78500241_3156.txt Node
Date: Fri Mar 25 14:55:41 CST 2022
User: usil
Spectrometer: V785-0024
Trigger mode: 0
Integration Time (sec): 4.000000E-1
Scans to average: 1
Nonlinearity correction enabled: false
Boxcar width: 0
Storing dark spectrum: false
XAxis mode: Wavelengths
Number of Pixels in Spectrum: 1024
>>>>>Begin Spectral Data<<<<<
801.071	22040
801.214	22002
801.356	21580
801.499	21583
801.641	21412
801.783	21344
801.926	21344
802.068	21302
802.211	21256
802.353	21203
802.496	21047
802.638	20929
802.78	20887
802.923	20781
803.065	20541
803.208	20693
803.35	20811
803.492	20845
803.635	20902
803.777	20670
803.919	20845
804.061	21070
804.204	20914
804.346	20617
804.488	20583
804.63	20716
804.773	20549
804.915	20587
805.057	20811
805.199	20613
805.341	20655
805.483	20773
805.626	20533
805.768	20606
805.91	20644
806.052	20644
806.194	20583
806.336	20663
806.478	20743
806.62	20636
806.762	20754
806.904	20906
807.046	21116
807.188	20880
807.33	20979
807.472	20925
807.614	20937
807.756	20883
807.898	20693
808.04	20724
808.182	20853
808.324	20739
808.465	20842
808.607	20899
808.749	21013
808.891	21032
809.033	21154
809.174	21074
809.316	21043
809.458	20944
809.6	20933
809.741	20982
809.883	21077
810.025	21222
810.166	21024
810.308	21222
810.45	21165
810.591	20937
810.733	20952
810.875	20941
811.016	20674
811.158	20697
811.299	20819
811.441	20823
811.582	20849
811.724	20769
811.865	20659
812.007	20777
812.148	20758
812.29	20781
812.431	21058
812.573	21150
812.714	21199
812.855	21435
812.997	21389
813.138	21504
813.279	21477
813.421	21249
813.562	21199
813.703	21036
813.845	20960
813.986	20678
814.127	20511
814.268	20423
814.41	20446
814.551	20385
814.692	20396
814.833	20244
814.974	20210
815.115	20317
815.256	20199
815.397	20161
815.539	20176
815.68	19982
815.821	20035
815.962	20142
816.103	19993
816.244	19833
816.385	19761
816.526	19799
816.666	19613
816.807	19518
816.948	19514
817.089	19601
817.23	19609
817.371	19483
817.512	19419
817.653	19491
817.793	19449
817.934	19457
818.075	19491
818.216	19495
818.356	19464
818.497	19346
818.638	19156
818.778	19038
818.919	19145
819.06	19206
819.2	19304
819.341	19251
819.481	19354
819.622	19510
819.762	19674
819.903	19601
820.043	19457
820.184	19434
820.324	19441
820.465	19449
820.605	19373
820.746	19384
820.886	19282
821.026	19320
821.167	19453
821.307	19518
821.447	19343
821.588	19278
821.728	19122
821.868	18916
822.008	18981
822.149	18833
822.289	18772
822.429	18604
822.569	18528
822.709	18502
822.849	18372
822.99	18262
823.13	18330
823.27	18315
823.41	18174
823.55	18038
823.69	18220
823.83	18159
823.97	18098
824.11	17863
824.25	17767
824.389	17863
824.529	17988
824.669	17977
824.809	18079
824.949	18102
825.089	17980
825.228	17893
825.368	17611
825.508	17676
825.648	17649
825.787	17748
825.927	17726
826.067	17665
826.206	17592
826.346	17737
826.485	17680
826.625	17634
826.765	17737
826.904	17745
827.044	17387
827.183	17391
827.323	17326
827.462	17524
827.601	17345
827.741	17360
827.88	17387
828.02	17246
828.159	17322
828.298	17387
828.437	17566
828.577	17284
828.716	17493
828.855	17299
828.994	17079
829.134	17204
829.273	17117
829.412	17136
829.551	17083
829.69	17083
829.829	17174
829.968	17189
830.107	17048
830.246	17140
830.385	16900
830.524	16976
830.663	16953
830.802	16927
830.941	16771
831.08	16649
831.219	16763
831.357	16786
831.496	16881
831.635	16634
831.774	16664
831.913	16660
832.051	16478
832.19	16478
832.329	16668
832.467	16421
832.606	16325
832.744	16394
832.883	16459
833.022	16402
833.16	16443
833.299	16409
833.437	16440
833.576	16527
833.714	16421
833.852	16440
833.991	16405
834.129	16558
834.267	16531
834.406	16485
834.544	16508
834.682	16592
834.821	16436
834.959	16672
835.097	16489
835.235	16474
835.373	16584
835.511	16580
835.65	16356
835.788	16398
835.926	16261
836.064	16211
836.202	16188
836.34	16390
836.478	16455
836.615	16360
836.753	16417
836.891	16443
837.029	16375
837.167	16230
837.305	16265
837.443	16192
837.58	16188
837.718	16238
837.856	16261
837.993	16234
838.131	16356
838.269	16169
838.406	16196
838.544	16086
838.681	16017
838.819	15884
838.956	15755
839.094	15876
839.231	15895
839.369	15922
839.506	16150
839.643	16067
839.781	15793
839.918	15766
840.055	15835
840.193	15728
840.33	15728
840.467	15819
840.604	15903
840.742	16048
840.879	15663
841.016	15793
841.153	15759
841.29	15941
841.427	15774
841.564	15762
841.701	15717
841.838	15682
841.975	15644
842.112	15656
842.249	15644
842.385	15469
842.522	15732
842.659	15591
842.796	15515
842.933	15572
843.069	15530
843.206	15496
843.343	15599
843.479	15500
843.616	15538
843.752	15393
843.889	15439
844.025	15450
844.162	15359
844.298	15454
844.435	15363
844.571	15340
844.708	15374
844.844	15416
844.98	15439
845.117	15408
845.253	15283
845.389	15245
845.525	15317
845.661	15211
845.798	15150
845.934	15275
846.07	15097
846.206	15298
846.342	15313
846.478	15233
846.614	14982
846.75	14941
846.886	14937
847.022	15100
847.158	14937
847.294	15024
847.429	14868
847.565	14986
847.701	15062
847.837	14697
847.972	14606
848.108	14769
848.244	14663
848.379	14583
848.515	14492
848.65	14438
848.786	14507
848.921	14514
849.057	14651
849.192	14602
849.328	14552
849.463	14461
849.598	14537
849.734	14412
849.869	14461
850.004	14237
850.14	14237
850.275	14298
850.41	14278
850.545	14244
850.68	14309
850.815	14290
850.95	14355
851.085	14495
851.22	14374
851.355	14305
851.49	14317
851.625	14278
851.76	14225
851.895	14259
852.03	14134
852.165	14237
852.299	14282
852.434	14370
852.569	14282
852.703	14347
852.838	14427
852.973	14511
853.107	14480
853.242	14240
853.376	14237
853.511	14134
853.645	14050
853.78	14195
853.914	14187
854.048	14259
854.183	14202
854.317	14134
854.451	14290
854.585	14252
854.72	14142
854.854	14145
854.988	14073
855.122	14134
855.256	14008
855.39	14225
855.524	14248
855.658	14271
855.792	14180
855.926	14199
856.06	14271
856.194	14290
856.327	14187
856.461	14172
856.595	14195
856.729	14149
856.862	14244
856.996	14164
857.13	14256
857.263	14294
857.397	14221
857.53	14183
857.664	14240
857.797	14275
857.931	14252
858.064	14259
858.197	14298
858.331	14149
858.464	14088
858.597	14039
858.731	14157
858.864	14103
858.997	14153
859.13	14172
859.263	14176
859.396	14278
859.529	14229
859.662	14187
859.795	14088
859.928	14187
860.061	14423
860.194	14362
860.327	14191
860.46	14210
860.592	14324
860.725	14237
860.858	14309
860.99	14187
861.123	13947
861.256	14157
861.388	14145
861.521	14899
861.653	13967
861.786	14062
861.918	13989
862.05	14138
862.183	14115
862.315	14164
862.447	14191
862.58	14157
862.712	13909
862.844	13860
862.976	14069
863.108	13986
863.24	14301
863.372	13921
863.504	13982
863.636	13879
863.768	14035
863.9	13982
864.032	13936
864.164	13879
864.296	13970
864.428	14058
864.559	13997
864.691	14016
864.823	14111
864.954	14031
865.086	14005
865.217	13883
865.349	13955
865.48	13902
865.612	13978
865.743	13963
865.875	13944
866.006	13902
866.137	13959
866.269	14005
866.4	13947
866.531	13868
866.662	13902
866.793	13917
866.924	13944
867.055	14012
867.186	13955
867.317	13932
867.448	13772
867.579	13951
867.71	13890
867.841	13803
867.972	14012
868.103	13913
868.233	13947
868.364	13951
868.495	14016
868.625	14180
868.756	14210
868.886	14157
869.017	14126
869.147	14256
869.278	14339
869.408	14195
869.539	14191
869.669	14256
869.799	14206
869.929	14343
870.06	14377
870.19	14492
870.32	14514
870.45	14484
870.58	14579
870.71	14689
870.84	14716
870.97	14503
871.1	14587
871.23	14735
871.36	14815
871.489	14697
871.619	14739
871.749	14773
871.879	14686
872.008	14849
872.138	14785
872.267	14663
872.397	14701
872.526	14610
872.656	14617
872.785	14655
872.915	14769
873.044	14849
873.173	14815
873.303	14781
873.432	14876
873.561	14914
873.69	14762
873.819	14823
873.948	14910
874.077	14861
874.206	14773
874.335	14895
874.464	15017
874.593	15207
874.722	15142
874.851	15173
874.979	15176
875.108	15173
875.237	15085
875.365	14998
875.494	15100
875.623	15287
875.751	15093
875.88	15233
876.008	15344
876.136	15336
876.265	15561
876.393	15671
876.521	15610
876.65	15667
876.778	15667
876.906	15500
877.034	15454
877.162	15629
877.29	15557
877.418	15553
877.546	15637
877.674	15530
877.802	15603
877.93	15568
878.058	15504
878.185	15488
878.313	15526
878.441	15542
878.568	15450
878.696	15408
878.824	15557
878.951	15663
879.079	15732
879.206	15907
879.333	15660
879.461	15633
879.588	15644
879.715	15698
879.842	15949
879.97	15686
880.097	15325
880.224	15386
880.351	15378
880.478	15447
880.605	15268
880.732	15431
880.859	15523
880.986	15564
881.112	15485
881.239	15344
881.366	15176
881.493	15161
881.619	15055
881.746	15051
881.872	15024
881.999	15055
882.125	14986
882.252	15131
882.378	15104
882.505	15233
882.631	15051
882.757	14899
882.883	14937
883.01	14883
883.136	14739
883.262	14857
883.388	14777
883.514	15047
883.64	15005
883.766	14857
883.892	14663
884.018	14872
884.143	14868
884.269	14910
884.395	14648
884.52	14598
884.646	14587
884.772	14484
884.897	14434
885.023	14587
885.148	14640
885.274	14705
885.399	14621
885.524	14632
885.65	14568
885.775	14644
885.9	14495
886.025	14705
886.15	14667
886.275	14530
886.4	14450
886.525	14533
886.65	14530
886.775	14431
886.9	14674
887.025	14883
887.149	14571
887.274	14450
887.399	14415
887.523	14438
887.648	14419
887.773	14271
887.897	14568
888.021	14549
888.146	14396
888.27	14473
888.395	14617
888.519	14537
888.643	14454
888.767	14545
888.891	14328
889.015	14298
889.139	14282
889.263	14229
889.387	14389
889.511	14431
889.635	14480
889.759	14252
889.883	14229
890.006	14259
890.13	14461
890.254	14256
890.377	14278
890.501	14119
890.624	14062
890.748	14252
890.871	14073
890.995	14016
891.118	13970
891.241	14111
891.364	14073
891.488	14134
891.611	14024
891.734	14138
891.857	14084
891.98	14001
892.103	14107
892.226	14081
892.349	13967
892.471	13944
892.594	13963
892.717	14092
892.839	14024
892.962	13974
893.085	14138
893.207	14062
893.33	13978
893.452	13970
893.575	14058
893.697	14069
893.819	14214
893.941	14320
894.064	14172
894.186	14065
894.308	13967
894.43	14191
894.552	14153
894.674	14138
894.796	14031
894.918	14187
895.04	14107
895.161	14161
895.283	14100
895.405	14123
895.526	14214
895.648	14123
895.769	14130
895.891	14225
896.012	14214
896.134	14161
896.255	14218
896.376	14126
896.498	14199
896.619	14237
896.74	14202
896.861	14313
896.982	14495
897.103	14701
897.224	14484
897.345	14488
897.466	14431
897.587	14408
897.708	14632
897.828	14545
897.949	14446
898.07	14389
898.19	14446
898.311	14606
898.431	14442
898.552	14575
898.672	14552
898.792	14655
898.913	14712
899.033	14473
899.153	14530
899.273	14332
899.393	14423
899.513	14507
899.633	14442
899.753	14408
899.873	14450
899.993	14393
900.113	14442
900.232	14400
900.352	14381
900.472	14267
900.591	14282
900.711	14313
900.83	14195
900.95	14446
901.069	14328
901.189	14164
901.308	14058
901.427	13959
901.546	14016
901.665	13970
901.784	13898
901.904	13841
902.023	13708
902.141	13556
902.26	13571
902.379	13552
902.498	13575
902.617	13369
902.735	13609
902.854	13449
902.973	13518
903.091	13217
903.21	13236
903.328	13240
903.446	13175
903.565	13149
903.683	13133
903.801	13057
903.919	13076
904.038	13168
904.156	12894
904.274	13019
904.392	12905
904.51	12882
904.627	12829
904.745	12947
904.863	12897
904.981	12821
905.098	12612
905.216	12627
905.334	12707
905.451	12616
905.569	12475
905.686	12696
905.803	12620
905.921	12502
906.038	12570
906.155	12422
906.272	12319
906.389	12350
906.506	12205
906.623	12232
906.74	12121
906.857	12076
906.974	12197
907.091	12296
907.208	12403
907.324	12209
907.441	12262
907.557	11931
907.674	12083
907.79	11901
907.907	11882
908.023	12015
908.139	11961
908.256	11927
908.372	11897
908.488	11885
908.604	11653
908.72	11668
908.836	11642
908.952	11558
909.068	11718
909.184	11798
909.3	11729
909.415	11745
909.531	11779
909.647	11474
909.762	11474
909.878	11345
909.993	11471
910.108	11452
910.224	11509
910.339	11398
910.454	11414
910.57	11254
910.685	11311
910.8	11532
910.915	11402
911.03	11345
911.145	11239
911.259	11147
911.374	11227
911.489	11071
911.604	11064
911.718	10908
911.833	11025
911.947	10862
912.062	10774
912.176	10885
912.291	10923
912.405	10946
912.519	11147
912.633	11178
912.748	11025
912.862	10942
912.976	10869
913.09	10672
913.204	10801
913.318	10858
913.431	11010
913.545	10896
913.659	10919
913.772	10767
913.886	10736
914	10698
914.113	10733
914.226	10759
914.34	10824
914.453	10634
914.566	10782
914.68	10675
914.793	10626
914.906	10417
915.019	10375
915.132	10367
915.245	10363
915.358	10478
915.47	10356
915.583	10500
915.696	10519
915.809	10630
915.921	10508
916.034	10432
916.146	10390
916.259	10375
916.371	10455
916.483	10436
916.595	10363
916.708	10447
916.82	10436
916.932	10329
917.044	10421
917.156	10318
917.268	10211
917.38	10280
917.491	10268
917.603	10257
917.715	10371
917.826	10424
917.938	10272
918.049	10173
918.161	10280
918.272	10493
918.384	10363
918.495	10284
918.606	10093
918.717	10063
918.828	10230
918.939	10154
919.05	10143
919.161	10169
919.272	9994
919.383	10048
919.494	10242
919.604	10375
919.715	10249
919.826	10150
919.936	10166
920.047	10238
920.157	10185
920.267	10451
920.378	10166
920.488	10150
920.598	10398
920.708	10531
920.818	10371
920.928	10348
921.038	10573
921.148	10504
921.258	10185
921.368	10105
921.477	10078
921.587	10040
921.697	9949
921.806	10120
921.916	9964
922.025	9690
922.134	9770
922.244	9682
922.353	9770
922.462	9644
922.571	9618
922.68	9431
922.789	9447
922.898	9424
923.007	9412
923.116	9496
923.224	9405
923.333	9424
923.442	9336
923.55	9294
923.659	9416
923.767	9462
923.876	9256
923.984	9401
924.092	9222
924.201	9310
924.309	9294
924.417	9332
924.525	9264
924.633	9279
924.741	10173
924.849	9100
924.956	9214
925.064	9127
925.172	8979
925.279	9020
925.387	9188
925.494	9039
925.602	9154
925.709	9157
925.816	8979
925.924	9085
926.031	9233
926.138	9055
926.245	9192
926.352	9013
926.459	9081
926.566	9161
926.673	9058
926.779	8895
926.886	8929
926.993	8883
927.099	8762
927.206	8807
927.312	8826
927.419	8883
927.525	8735
927.631	8880
927.737	8712
927.843	8670
927.95	8560
928.056	8716
928.162	8686
928.267	8781
928.373	9256
928.479	8792
928.585	8594
928.69	8731
928.796	8735
928.901	8606
929.007	8514
929.112	8602
929.218	8602
929.323	8541
929.428	8514
929.533	8667
929.638	8499
929.743	8473
929.848	8522
929.953	8461
930.058	8434
930.163	8339
930.267	8347
930.372	8465
930.477	8259
930.581	8552
930.685	8362
930.79	8183
930.894	8202
930.998	8221
931.103	8351
931.207	8058
931.311	8008
931.415	7936
931.519	7738
931.623	7761
