Data from test_V78500241_1933.txt Node
Date: Fri Mar 25 14:47:10 CST 2022
User: usil
Spectrometer: V785-0024
Trigger mode: 0
Integration Time (sec): 4.000000E-1
Scans to average: 1
Nonlinearity correction enabled: false
Boxcar width: 0
Storing dark spectrum: false
XAxis mode: Wavelengths
Number of Pixels in Spectrum: 1024
>>>>>Begin Spectral Data<<<<<
801.071	22112
801.214	21918
801.356	21789
801.499	21622
801.641	21481
801.783	21500
801.926	21424
802.068	21435
802.211	21496
802.353	21317
802.496	21138
802.638	20982
802.78	20967
802.923	20800
803.065	20727
803.208	20785
803.35	20724
803.492	20830
803.635	20994
803.777	20678
803.919	20838
804.061	21252
804.204	20910
804.346	20697
804.488	20648
804.63	20804
804.773	20636
804.915	20731
805.057	20845
805.199	20636
805.341	20849
805.483	20842
805.626	20785
805.768	20769
805.91	20720
806.052	20651
806.194	20655
806.336	20853
806.478	20693
806.62	20636
806.762	20811
806.904	20857
807.046	21108
807.188	21085
807.33	21176
807.472	21047
807.614	21013
807.756	20960
807.898	20910
808.04	20777
808.182	20746
808.324	20838
808.465	20781
808.607	20979
808.749	21100
808.891	21127
809.033	21214
809.174	21222
809.316	21116
809.458	21028
809.6	21146
809.741	21161
809.883	21157
810.025	21344
810.166	21298
810.308	21344
810.45	21123
810.591	21081
810.733	20952
810.875	20925
811.016	20788
811.158	20792
811.299	20979
811.441	20975
811.582	20925
811.724	20918
811.865	20716
812.007	20762
812.148	20853
812.29	20853
812.431	20998
812.573	21165
812.714	21180
812.855	21435
812.997	21538
813.138	21568
813.279	21477
813.421	21412
813.562	21260
813.703	20998
813.845	21043
813.986	20678
814.127	20533
814.268	20514
814.41	20412
814.551	20347
814.692	20457
814.833	20336
814.974	20446
815.115	20415
815.256	20278
815.397	20229
815.539	20362
815.68	20077
815.821	20206
815.962	20142
816.103	20073
816.244	20058
816.385	19845
816.526	19894
816.666	19696
816.807	19514
816.948	19502
817.089	19700
817.23	19643
817.371	19647
817.512	19510
817.653	19514
817.793	19548
817.934	19514
818.075	19613
818.216	19540
818.356	19419
818.497	19483
818.638	19213
818.778	19228
818.919	19316
819.06	19289
819.2	19285
819.341	19350
819.481	19426
819.622	19578
819.762	19734
819.903	19689
820.043	19582
820.184	19556
820.324	19499
820.465	19590
820.605	19514
820.746	19453
820.886	19293
821.026	19537
821.167	19487
821.307	19651
821.447	19464
821.588	19346
821.728	19278
821.868	19091
822.008	18856
822.149	18913
822.289	18856
822.429	18776
822.569	18665
822.709	18631
822.849	18494
822.99	18517
823.13	18403
823.27	18471
823.41	18270
823.55	18148
823.69	18148
823.83	18300
823.97	18182
824.11	17984
824.25	17908
824.389	18068
824.529	17923
824.669	18026
824.809	18091
824.949	18049
825.089	18060
825.228	17939
825.368	17908
825.508	17824
825.648	17824
825.787	17847
825.927	17786
826.067	17802
826.206	17790
826.346	17802
826.485	17684
826.625	17752
826.765	17847
826.904	17824
827.044	17604
827.183	17592
827.323	17486
827.462	17516
827.601	17528
827.741	17391
827.88	17463
828.02	17296
828.159	17414
828.298	17566
828.437	17562
828.577	17315
828.716	17573
828.855	17486
828.994	17258
829.134	17242
829.273	17277
829.412	17208
829.551	17303
829.69	17147
829.829	17204
829.968	17330
830.107	17353
830.246	17265
830.385	17189
830.524	17121
830.663	17109
830.802	17029
830.941	16778
831.08	16866
831.219	16911
831.357	16866
831.496	17071
831.635	16934
831.774	16809
831.913	16710
832.051	16592
832.19	16611
832.329	16675
832.467	16531
832.606	16481
832.744	16535
832.883	16637
833.022	16398
833.16	16504
833.299	16660
833.437	16641
833.576	16561
833.714	16519
833.852	16626
833.991	16706
834.129	16649
834.267	16687
834.406	16649
834.544	16653
834.682	16588
834.821	16637
834.959	16660
835.097	16565
835.235	16744
835.373	16626
835.511	16596
835.65	16527
835.788	16565
835.926	16280
836.064	16371
836.202	16402
836.34	16500
836.478	16672
836.615	16523
836.753	16618
836.891	16550
837.029	16462
837.167	16459
837.305	16478
837.443	16386
837.58	16375
837.718	16508
837.856	16500
837.993	16371
838.131	16409
838.269	16226
838.406	16371
838.544	16215
838.681	16048
838.819	16097
838.956	15911
839.094	15975
839.231	15987
839.369	16101
839.506	16291
839.643	16135
839.781	15953
839.918	15998
840.055	15964
840.193	16029
840.33	15911
840.467	15945
840.604	15934
840.742	16261
840.879	15861
841.016	15819
841.153	15922
841.29	16112
841.427	15953
841.564	16071
841.701	15968
841.838	15850
841.975	15892
842.112	15899
842.249	15835
842.385	15759
842.522	15880
842.659	15778
842.796	15709
842.933	15793
843.069	15663
843.206	15622
843.343	15785
843.479	15778
843.616	15739
843.752	15466
843.889	15481
844.025	15694
844.162	15481
844.298	15553
844.435	15496
844.571	15526
844.708	15523
844.844	15549
844.98	15728
845.117	15614
845.253	15420
845.389	15412
845.525	15523
845.661	15488
845.798	15355
845.934	15420
846.07	15249
846.206	15386
846.342	15450
846.478	15386
846.614	15085
846.75	15131
846.886	15028
847.022	15195
847.158	15085
847.294	15157
847.429	15188
847.565	15024
847.701	15268
847.837	14777
847.972	14819
848.108	14937
848.244	14948
848.379	14746
848.515	14610
848.65	14724
848.786	14663
848.921	14644
849.057	14765
849.192	14823
849.328	14636
849.463	14663
849.598	14663
849.734	14640
849.869	14575
850.004	14469
850.14	14541
850.275	14480
850.41	14366
850.545	14434
850.68	14423
850.815	14442
850.95	14514
851.085	14602
851.22	14514
851.355	14499
851.49	14419
851.625	14423
851.76	14328
851.895	14434
852.03	14362
852.165	14442
852.299	14457
852.434	14533
852.569	14427
852.703	14423
852.838	14537
852.973	14602
853.107	14571
853.242	14317
853.376	14400
853.511	14286
853.645	14332
853.78	14457
853.914	14442
854.048	14355
854.183	14199
854.317	14370
854.451	14469
854.585	14339
854.72	14301
854.854	14400
854.988	14305
855.122	14229
855.256	14176
855.39	14240
855.524	14450
855.658	14324
855.792	14347
855.926	14278
856.06	14408
856.194	14347
856.327	14389
856.461	14317
856.595	14290
856.729	14332
856.862	14454
856.996	14370
857.13	14469
857.263	14484
857.397	14480
857.53	14328
857.664	14450
857.797	14370
857.931	14419
858.064	14343
858.197	14431
858.331	14298
858.464	14267
858.597	14275
858.731	14313
858.864	14358
858.997	14248
859.13	14324
859.263	14396
859.396	14495
859.529	14298
859.662	14244
859.795	14282
859.928	14305
860.061	14537
860.194	14568
860.327	14259
860.46	14320
860.592	14476
860.725	14450
860.858	14507
860.99	14339
861.123	14290
861.256	14199
861.388	14499
861.521	15108
861.653	14210
861.786	14164
861.918	14119
862.05	14267
862.183	14225
862.315	14225
862.447	14427
862.58	14240
862.712	14115
862.844	14005
862.976	14191
863.108	14123
863.24	14545
863.372	13986
863.504	14084
863.636	14065
863.768	14161
863.9	14088
864.032	14123
864.164	14096
864.296	14123
864.428	14157
864.559	14244
864.691	14107
864.823	14187
864.954	14161
865.086	14233
865.217	14161
865.349	14073
865.48	14115
865.612	13955
865.743	14191
865.875	14130
866.006	14088
866.137	14065
866.269	14176
866.4	14058
866.531	14058
866.662	14039
866.793	14115
866.924	14016
867.055	14001
867.186	14065
867.317	14027
867.448	14001
867.579	14005
867.71	14024
867.841	14062
867.972	14100
868.103	14092
868.233	14100
868.364	14172
868.495	14271
868.625	14385
868.756	14434
868.886	14343
869.017	14305
869.147	14488
869.278	14412
869.408	14324
869.539	14317
869.669	14408
869.799	14366
869.929	14511
870.06	14511
870.19	14659
870.32	14640
870.45	14800
870.58	14746
870.71	14891
870.84	14838
870.97	14712
871.1	14765
871.23	14975
871.36	14910
871.489	14845
871.619	14834
871.749	14853
871.879	14918
872.008	15032
872.138	14891
872.267	14941
872.397	14758
872.526	14640
872.656	14735
872.785	14758
872.915	14899
873.044	14963
873.173	15005
873.303	14929
873.432	15097
873.561	15055
873.69	15032
873.819	14963
873.948	15127
874.077	14979
874.206	15020
874.335	15032
874.464	15138
874.593	15245
874.722	15230
874.851	15329
874.979	15389
875.108	15310
875.237	15348
875.365	15188
875.494	15241
875.623	15378
875.751	15355
875.88	15336
876.008	15492
876.136	15473
876.265	15816
876.393	15850
876.521	15797
876.65	15903
876.778	15736
876.906	15610
877.034	15698
877.162	15804
877.29	15599
877.418	15751
877.546	15774
877.674	15701
877.802	15759
877.93	15743
878.058	15701
878.185	15633
878.313	15755
878.441	15690
878.568	15553
878.696	15682
878.824	15751
878.951	15743
879.079	15964
879.206	15991
879.333	15846
879.461	15808
879.588	15816
879.715	15888
879.842	15895
879.97	15755
880.097	15614
880.224	15561
880.351	15523
880.478	15637
880.605	15606
880.732	15591
880.859	15797
880.986	15599
881.112	15591
881.239	15428
881.366	15306
881.493	15325
881.619	15180
881.746	15264
881.872	15207
881.999	15214
882.125	15233
882.252	15294
882.378	15245
882.505	15367
882.631	15138
882.757	15188
882.883	15055
883.01	15070
883.136	15032
883.262	14872
883.388	14963
883.514	15150
883.64	15081
883.766	14986
883.892	14902
884.018	14906
884.143	15150
884.269	15138
884.395	14727
884.52	14739
884.646	14705
884.772	14670
884.897	14735
885.023	14754
885.148	14807
885.274	14944
885.399	14910
885.524	14720
885.65	14788
885.775	14746
885.9	14708
886.025	14910
886.15	14724
886.275	14746
886.4	14682
886.525	14834
886.65	14686
886.775	14610
886.9	14872
887.025	14941
887.149	14739
887.274	14617
887.399	14526
887.523	14606
887.648	14499
887.773	14434
887.897	14545
888.021	14632
888.146	14640
888.27	14640
888.395	14735
888.519	14663
888.643	14549
888.767	14541
888.891	14541
889.015	14438
889.139	14480
889.263	14408
889.387	14533
889.511	14617
889.635	14526
889.759	14427
889.883	14415
890.006	14541
890.13	14564
890.254	14320
890.377	14438
890.501	14278
890.624	14142
890.748	14374
890.871	14176
890.995	14088
891.118	14126
891.241	14107
891.364	14126
891.488	14206
891.611	14073
891.734	14202
891.857	14244
891.98	14233
892.103	14214
892.226	14107
892.349	14180
892.471	13932
892.594	14111
892.717	14149
892.839	14126
892.962	14100
893.085	14221
893.207	14107
893.33	14077
893.452	14050
893.575	14092
893.697	14138
893.819	14267
893.941	14317
894.064	14305
894.186	14088
894.308	14115
894.43	14229
894.552	14305
894.674	14218
894.796	14096
894.918	14278
895.04	14157
895.161	14286
895.283	14240
895.405	14180
895.526	14229
895.648	14210
895.769	14355
895.891	14358
896.012	14309
896.134	14347
896.255	14290
896.376	14225
896.498	14271
896.619	14305
896.74	14366
896.861	14301
896.982	14693
897.103	14834
897.224	14587
897.345	14511
897.466	14434
897.587	14552
897.708	14689
897.828	14670
897.949	14575
898.07	14389
898.19	14469
898.311	14716
898.431	14648
898.552	14667
898.672	14651
898.792	14788
898.913	14739
899.033	14655
899.153	14465
899.273	14457
899.393	14427
899.513	14617
899.633	14583
899.753	14427
899.873	14503
899.993	14568
900.113	14511
900.232	14450
900.352	14533
900.472	14389
900.591	14351
900.711	14404
900.83	14298
900.95	14427
901.069	14450
901.189	14267
901.308	14081
901.427	14069
901.546	14096
901.665	14073
901.784	14065
901.904	13879
902.023	13845
902.141	13674
902.26	13571
902.379	13689
902.498	13575
902.617	13559
902.735	13647
902.854	13563
902.973	13518
903.091	13350
903.21	13327
903.328	13411
903.446	13160
903.565	13126
903.683	13202
903.801	13072
903.919	13190
904.038	13103
904.156	13072
904.274	13023
904.392	12962
904.51	12947
904.627	12947
904.745	12996
904.863	13099
904.981	12848
905.098	12692
905.216	12753
905.334	12711
905.451	12745
905.569	12696
905.686	12707
905.803	12783
905.921	12582
906.038	12498
906.155	12559
906.272	12342
906.389	12441
906.506	12201
906.623	12243
906.74	12270
906.857	12114
906.974	12247
907.091	12342
907.208	12410
907.324	12357
907.441	12289
907.557	12102
907.674	12022
907.79	11996
907.907	12034
908.023	12076
908.139	11984
908.256	11984
908.372	11916
908.488	11832
908.604	11767
908.72	11779
908.836	11729
908.952	11756
909.068	11821
909.184	11946
909.3	11775
909.415	11828
909.531	11737
909.647	11608
909.762	11585
909.878	11649
909.993	11573
910.108	11551
910.224	11535
910.339	11532
910.454	11436
910.57	11315
910.685	11376
910.8	11596
910.915	11630
911.03	11341
911.145	11318
911.259	11288
911.374	11273
911.489	11189
911.604	11162
911.718	11056
911.833	11029
911.947	10949
912.062	10858
912.176	10949
912.291	11029
912.405	11060
912.519	11162
912.633	11208
912.748	10999
912.862	11052
912.976	10896
913.09	10774
913.204	10881
913.318	10873
913.431	11045
913.545	11018
913.659	11018
913.772	10866
913.886	10691
914	10755
914.113	10957
914.226	10900
914.34	10896
914.453	10675
914.566	10873
914.68	10687
914.793	10782
914.906	10558
915.019	10493
915.132	10428
915.245	10535
915.358	10546
915.47	10523
915.583	10409
915.696	10580
915.809	10615
915.921	10660
916.034	10542
916.146	10508
916.259	10512
916.371	10599
916.483	10588
916.595	10333
916.708	10417
916.82	10478
916.932	10550
917.044	10459
917.156	10428
917.268	10299
917.38	10363
917.491	10390
917.603	10333
917.715	10409
917.826	10413
917.938	10337
918.049	10234
918.161	10322
918.272	10489
918.384	10478
918.495	10348
918.606	10211
918.717	10124
918.828	10211
918.939	10291
919.05	10215
919.161	10162
919.272	10032
919.383	10154
919.494	10246
919.604	10394
919.715	10234
919.826	10097
919.936	10249
920.047	10299
920.157	10162
920.267	10413
920.378	10284
920.488	10268
920.598	10436
920.708	10493
920.818	10421
920.928	10421
921.038	10656
921.148	10607
921.258	10287
921.368	10196
921.477	10051
921.587	10090
921.697	9953
921.806	10131
921.916	9949
922.025	9854
922.134	9869
922.244	9720
922.353	9823
922.462	9804
922.571	9603
922.68	9504
922.789	9481
922.898	9504
923.007	9428
923.116	9580
923.224	9408
923.333	9545
923.442	9351
923.55	9291
923.659	9351
923.767	9488
923.876	9321
923.984	9431
924.092	9317
924.201	9458
924.309	9363
924.417	9386
924.525	9245
924.633	9344
924.741	10196
924.849	9085
924.956	9317
925.064	9173
925.172	9028
925.279	9062
925.387	9093
925.494	9161
925.602	9241
925.709	9218
925.816	9051
925.924	9108
926.031	9332
926.138	9173
926.245	9127
926.352	9089
926.459	9237
926.566	9302
926.673	9020
926.779	9028
926.886	9013
926.993	8868
927.099	8807
927.206	8796
927.312	8849
927.419	8937
927.525	8952
927.631	8948
927.737	8689
927.843	8826
927.95	8663
928.056	8724
928.162	8758
928.267	8769
928.373	9340
928.479	8891
928.585	8625
928.69	8712
928.796	8708
928.901	8674
929.007	8526
929.112	8724
929.218	8655
929.323	8560
929.428	8571
929.533	8716
929.638	8480
929.743	8575
929.848	8613
929.953	8556
930.058	8492
930.163	8374
930.267	8320
930.372	8480
930.477	8298
930.581	8480
930.685	8381
930.79	8229
930.894	8301
930.998	8240
931.103	8412
931.207	7978
931.311	8043
931.415	7947
931.519	7753
931.623	7742
