Data from test_V78500241_2370.txt Node
Date: Fri Mar 25 14:50:12 CST 2022
User: usil
Spectrometer: V785-0024
Trigger mode: 0
Integration Time (sec): 4.000000E-1
Scans to average: 1
Nonlinearity correction enabled: false
Boxcar width: 0
Storing dark spectrum: false
XAxis mode: Wavelengths
Number of Pixels in Spectrum: 1024
>>>>>Begin Spectral Data<<<<<
801.071	22090
801.214	22013
801.356	21846
801.499	21679
801.641	21504
801.783	21439
801.926	21401
802.068	21481
802.211	21344
802.353	21416
802.496	21104
802.638	21013
802.78	20982
802.923	20838
803.065	20880
803.208	20826
803.35	20857
803.492	20944
803.635	21009
803.777	20849
803.919	21043
804.061	21085
804.204	20914
804.346	20815
804.488	20746
804.63	20887
804.773	20769
804.915	20785
805.057	20868
805.199	20678
805.341	20765
805.483	20899
805.626	20887
805.768	20678
805.91	20727
806.052	20815
806.194	20651
806.336	20967
806.478	20712
806.62	20762
806.762	20876
806.904	20967
807.046	21218
807.188	21096
807.33	21028
807.472	21154
807.614	20929
807.756	21051
807.898	20842
808.04	20781
808.182	20830
808.324	20906
808.465	20887
808.607	20990
808.749	21058
808.891	21237
809.033	21287
809.174	21207
809.316	20952
809.458	21169
809.6	21260
809.741	21329
809.883	21256
810.025	21291
810.166	21340
810.308	21275
810.45	21302
810.591	21207
810.733	21062
810.875	20906
811.016	20883
811.158	20925
811.299	20876
811.441	20990
811.582	20994
811.724	20998
811.865	20887
812.007	20979
812.148	20933
812.29	21146
812.431	20998
812.573	21203
812.714	21211
812.855	21492
812.997	21686
813.138	21591
813.279	21431
813.421	21321
813.562	21374
813.703	21188
813.845	21055
813.986	20838
814.127	20712
814.268	20423
814.41	20613
814.551	20446
814.692	20499
814.833	20385
814.974	20358
815.115	20473
815.256	20298
815.397	20336
815.539	20206
815.68	20168
815.821	20164
815.962	20172
816.103	20233
816.244	19986
816.385	19875
816.526	19871
816.666	19746
816.807	19571
816.948	19795
817.089	19772
817.23	19776
817.371	19620
817.512	19525
817.653	19590
817.793	19552
817.934	19662
818.075	19590
818.216	19639
818.356	19578
818.497	19487
818.638	19331
818.778	19168
818.919	19293
819.06	19282
819.2	19506
819.341	19514
819.481	19430
819.622	19620
819.762	19788
819.903	19700
820.043	19643
820.184	19510
820.324	19609
820.465	19655
820.605	19518
820.746	19594
820.886	19476
821.026	19491
821.167	19651
821.307	19586
821.447	19434
821.588	19430
821.728	19293
821.868	19251
822.008	18947
822.149	19061
822.289	18962
822.429	18749
822.569	18688
822.709	18688
822.849	18513
822.99	18525
823.13	18464
823.27	18391
823.41	18182
823.55	18262
823.69	18254
823.83	18289
823.97	18357
824.11	18136
824.25	18034
824.389	18205
824.529	18106
824.669	18106
824.809	18155
824.949	18152
825.089	18163
825.228	18235
825.368	17908
825.508	17870
825.648	17866
825.787	17847
825.927	17901
826.067	17817
826.206	17779
826.346	17786
826.485	17878
826.625	17836
826.765	17931
826.904	17889
827.044	17528
827.183	17600
827.323	17608
827.462	17505
827.601	17619
827.741	17589
827.88	17482
828.02	17376
828.159	17512
828.298	17539
828.437	17630
828.577	17459
828.716	17672
828.855	17524
828.994	17322
829.134	17337
829.273	17261
829.412	17254
829.551	17075
829.69	17162
829.829	17337
829.968	17364
830.107	17269
830.246	17261
830.385	17261
830.524	17140
830.663	17090
830.802	16904
830.941	16858
831.08	16850
831.219	16999
831.357	16866
831.496	17143
831.635	16968
831.774	16873
831.913	16752
832.051	16656
832.19	16694
832.329	16805
832.467	16645
832.606	16546
832.744	16573
832.883	16538
833.022	16527
833.16	16516
833.299	16634
833.437	16679
833.576	16622
833.714	16603
833.852	16622
833.991	16634
834.129	16748
834.267	16580
834.406	16538
834.544	16740
834.682	16592
834.821	16596
834.959	16828
835.097	16622
835.235	16660
835.373	16637
835.511	16630
835.65	16512
835.788	16470
835.926	16459
836.064	16344
836.202	16348
836.34	16512
836.478	16626
836.615	16519
836.753	16641
836.891	16584
837.029	16516
837.167	16546
837.305	16424
837.443	16402
837.58	16413
837.718	16421
837.856	16386
837.993	16363
838.131	16421
838.269	16325
838.406	16280
838.544	16204
838.681	16120
838.819	16082
838.956	15975
839.094	15926
839.231	16055
839.369	16097
839.506	16356
839.643	16284
839.781	15987
839.918	15800
840.055	16021
840.193	15994
840.33	15854
840.467	15819
840.604	15983
840.742	16116
840.879	15698
841.016	15861
841.153	15888
841.29	16131
841.427	16071
841.564	16067
841.701	15972
841.838	16013
841.975	15808
842.112	15903
842.249	15732
842.385	15641
842.522	15869
842.659	15751
842.796	15686
842.933	15728
843.069	15705
843.206	15679
843.343	15759
843.479	15690
843.616	15774
843.752	15504
843.889	15420
844.025	15622
844.162	15450
844.298	15606
844.435	15488
844.571	15500
844.708	15507
844.844	15732
844.98	15564
845.117	15587
845.253	15435
845.389	15294
845.525	15355
845.661	15351
845.798	15287
845.934	15321
846.07	15310
846.206	15412
846.342	15435
846.478	15310
846.614	15081
846.75	15062
846.886	14933
847.022	15100
847.158	15104
847.294	15062
847.429	15009
847.565	15009
847.701	15325
847.837	14842
847.972	14773
848.108	14887
848.244	14857
848.379	14708
848.515	14621
848.65	14659
848.786	14750
848.921	14686
849.057	14804
849.192	14682
849.328	14701
849.463	14663
849.598	14659
849.734	14606
849.869	14427
850.004	14480
850.14	14442
850.275	14355
850.41	14313
850.545	14362
850.68	14377
850.815	14419
850.95	14415
851.085	14571
851.22	14495
851.355	14503
851.49	14427
851.625	14412
851.76	14438
851.895	14256
852.03	14328
852.165	14381
852.299	14484
852.434	14434
852.569	14450
852.703	14438
852.838	14549
852.973	14488
853.107	14613
853.242	14370
853.376	14282
853.511	14202
853.645	14301
853.78	14434
853.914	14248
854.048	14320
854.183	14309
854.317	14328
854.451	14533
854.585	14244
854.72	14233
854.854	14347
854.988	14172
855.122	14294
855.256	14050
855.39	14237
855.524	14336
855.658	14309
855.792	14286
855.926	14313
856.06	14358
856.194	14355
856.327	14332
856.461	14240
856.595	14271
856.729	14214
856.862	14393
856.996	14339
857.13	14317
857.263	14431
857.397	14408
857.53	14134
857.664	14343
857.797	14351
857.931	14358
858.064	14362
858.197	14461
858.331	14355
858.464	14275
858.597	14187
858.731	14195
858.864	14240
858.997	14305
859.13	14305
859.263	14298
859.396	14328
859.529	14164
859.662	14225
859.795	14195
859.928	14233
860.061	14457
860.194	14480
860.327	14362
860.46	14271
860.592	14389
860.725	14374
860.858	14431
860.99	14271
861.123	14233
861.256	14328
861.388	14324
861.521	14853
861.653	14145
861.786	14039
861.918	14191
862.05	14180
862.183	14244
862.315	14161
862.447	14294
862.58	14199
862.712	14062
862.844	13974
862.976	14168
863.108	14195
863.24	14393
863.372	13989
863.504	14103
863.636	14115
863.768	14069
863.9	14084
864.032	13978
864.164	14058
864.296	14103
864.428	14290
864.559	14134
864.691	14218
864.823	14138
864.954	14119
865.086	14065
865.217	14088
865.349	14020
865.48	14084
865.612	14111
865.743	14172
865.875	14107
866.006	14058
866.137	14107
866.269	14005
866.4	14138
866.531	14043
866.662	14062
866.793	14016
866.924	14046
867.055	13993
867.186	13993
867.317	14001
867.448	13970
867.579	13997
867.71	13963
867.841	13944
867.972	14073
868.103	14088
868.233	14062
868.364	13963
868.495	14111
868.625	14267
868.756	14419
868.886	14206
869.017	14237
869.147	14370
869.278	14370
869.408	14362
869.539	14351
869.669	14324
869.799	14374
869.929	14454
870.06	14415
870.19	14541
870.32	14556
870.45	14632
870.58	14667
870.71	14792
870.84	14800
870.97	14762
871.1	14602
871.23	14895
871.36	14834
871.489	14807
871.619	14811
871.749	14895
871.879	14815
872.008	14994
872.138	14899
872.267	14868
872.397	14769
872.526	14712
872.656	14735
872.785	14773
872.915	14914
873.044	14982
873.173	15009
873.303	14952
873.432	15051
873.561	15074
873.69	14910
873.819	14944
873.948	14979
874.077	15013
874.206	14891
874.335	14963
874.464	15089
874.593	15241
874.722	15150
874.851	15237
874.979	15222
875.108	15298
875.237	15127
875.365	15252
875.494	15272
875.623	15325
875.751	15355
875.88	15367
876.008	15340
876.136	15469
876.265	15682
876.393	15861
876.521	15800
876.65	15637
876.778	15633
876.906	15743
877.034	15603
877.162	15644
877.29	15564
877.418	15682
877.546	15713
877.674	15610
877.802	15720
877.93	15728
878.058	15652
878.185	15599
878.313	15656
878.441	15663
878.568	15618
878.696	15587
878.824	15637
878.951	15652
879.079	15835
879.206	15964
879.333	15842
879.461	15797
879.588	15800
879.715	15873
879.842	16002
879.97	15701
880.097	15568
880.224	15519
880.351	15622
880.478	15557
880.605	15591
880.732	15568
880.859	15812
880.986	15641
881.112	15595
881.239	15420
881.366	15306
881.493	15249
881.619	15260
881.746	15165
881.872	15169
881.999	15195
882.125	15112
882.252	15214
882.378	15226
882.505	15344
882.631	15077
882.757	15005
882.883	15036
883.01	15032
883.136	14990
883.262	14918
883.388	14815
883.514	15119
883.64	15074
883.766	14948
883.892	14807
884.018	14845
884.143	15081
884.269	15123
884.395	14796
884.52	14636
884.646	14655
884.772	14610
884.897	14530
885.023	14785
885.148	14758
885.274	14834
885.399	14796
885.524	14712
885.65	14746
885.775	14724
885.9	14644
886.025	14823
886.15	14682
886.275	14625
886.4	14606
886.525	14716
886.65	14701
886.775	14682
886.9	14796
887.025	14960
887.149	14701
887.274	14549
887.399	14530
887.523	14450
887.648	14461
887.773	14377
887.897	14537
888.021	14552
888.146	14461
888.27	14663
888.395	14568
888.519	14598
888.643	14507
888.767	14610
888.891	14495
889.015	14366
889.139	14339
889.263	14457
889.387	14507
889.511	14556
889.635	14465
889.759	14317
889.883	14408
890.006	14469
890.13	14522
890.254	14199
890.377	14370
890.501	14168
890.624	14161
890.748	14176
890.871	14191
890.995	14073
891.118	14069
891.241	14039
891.364	14100
891.488	14202
891.611	14096
891.734	14043
891.857	14096
891.98	14153
892.103	14164
892.226	14134
892.349	14130
892.471	13970
892.594	14168
892.717	14065
892.839	14024
892.962	14096
893.085	14233
893.207	14161
893.33	13959
893.452	13986
893.575	14069
893.697	14024
893.819	14199
893.941	14317
894.064	14225
894.186	14073
894.308	14088
894.43	14259
894.552	14256
894.674	14275
894.796	14069
894.918	14142
895.04	14081
895.161	14191
895.283	14218
895.405	14126
895.526	14149
895.648	14256
895.769	14271
895.891	14233
896.012	14374
896.134	14324
896.255	14191
896.376	14282
896.498	14221
896.619	14275
896.74	14324
896.861	14244
896.982	14530
897.103	14678
897.224	14522
897.345	14549
897.466	14461
897.587	14537
897.708	14697
897.828	14686
897.949	14473
898.07	14408
898.19	14549
898.311	14743
898.431	14545
898.552	14511
898.672	14667
898.792	14746
898.913	14590
899.033	14507
899.153	14488
899.273	14450
899.393	14377
899.513	14518
899.633	14552
899.753	14556
899.873	14518
899.993	14579
900.113	14480
900.232	14575
900.352	14404
900.472	14343
900.591	14347
900.711	14370
900.83	14187
900.95	14377
901.069	14537
901.189	14244
901.308	14100
901.427	14046
901.546	14081
901.665	14073
901.784	14062
901.904	13887
902.023	13738
902.141	13616
902.26	13544
902.379	13715
902.498	13548
902.617	13567
902.735	13578
902.854	13559
902.973	13548
903.091	13327
903.21	13304
903.328	13362
903.446	13221
903.565	13122
903.683	13141
903.801	13015
903.919	13069
904.038	13171
904.156	13004
904.274	13099
904.392	12916
904.51	13000
904.627	12966
904.745	12901
904.863	13034
904.981	12783
905.098	12597
905.216	12642
905.334	12730
905.451	12559
905.569	12654
905.686	12703
905.803	12681
905.921	12494
906.038	12563
906.155	12486
906.272	12433
906.389	12410
906.506	12277
906.623	12228
906.74	12251
906.857	12167
906.974	12194
907.091	12338
907.208	12395
907.324	12304
907.441	12106
907.557	12057
907.674	12011
907.79	11973
907.907	11954
908.023	11954
908.139	11996
908.256	12045
908.372	11935
908.488	11866
908.604	11764
908.72	11722
908.836	11786
908.952	11684
909.068	11733
909.184	11813
909.3	11764
909.415	11847
909.531	11726
909.647	11604
909.762	11543
909.878	11547
909.993	11528
910.108	11501
910.224	11482
910.339	11551
910.454	11376
910.57	11379
910.685	11258
910.8	11573
910.915	11596
911.03	11455
911.145	11159
911.259	11201
911.374	11147
911.489	11117
911.604	11067
911.718	11003
911.833	10984
911.947	10885
912.062	10828
912.176	10999
912.291	11018
912.405	10972
912.519	11227
912.633	11212
912.748	11086
912.862	11014
912.976	10915
913.09	10714
913.204	10820
913.318	10885
913.431	10915
913.545	10934
913.659	10995
913.772	10843
913.886	10721
914	10622
914.113	10786
914.226	10869
914.34	10755
914.453	10634
914.566	10858
914.68	10668
914.793	10630
914.906	10497
915.019	10504
915.132	10360
915.245	10405
915.358	10432
915.47	10516
915.583	10489
915.696	10653
915.809	10630
915.921	10615
916.034	10512
916.146	10462
916.259	10478
916.371	10451
916.483	10516
916.595	10344
916.708	10413
916.82	10485
916.932	10375
917.044	10470
917.156	10459
917.268	10230
917.38	10280
917.491	10337
917.603	10299
917.715	10417
917.826	10413
917.938	10303
918.049	10265
918.161	10234
918.272	10451
918.384	10470
918.495	10375
918.606	10223
918.717	10097
918.828	10219
918.939	10116
919.05	9991
919.161	10082
919.272	10017
919.383	10086
919.494	10223
919.604	10428
919.715	10219
919.826	10112
919.936	10124
920.047	10295
920.157	10204
920.267	10531
920.378	10223
920.488	10211
920.598	10341
920.708	10554
920.818	10481
920.928	10409
921.038	10577
921.148	10554
921.258	10185
921.368	10200
921.477	10032
921.587	10067
921.697	9968
921.806	10074
921.916	9960
922.025	9785
922.134	9766
922.244	9770
922.353	9823
922.462	9698
922.571	9603
922.68	9443
922.789	9492
922.898	9507
923.007	9378
923.116	9500
923.224	9538
923.333	9439
923.442	9329
923.55	9302
923.659	9367
923.767	9466
923.876	9317
923.984	9401
924.092	9268
924.201	9439
924.309	9298
924.417	9329
924.525	9260
924.633	9321
924.741	10029
924.849	9043
924.956	9310
925.064	9055
925.172	9028
925.279	9074
925.387	9176
925.494	9058
925.602	9306
925.709	9203
925.816	9001
925.924	9112
926.031	9135
926.138	9093
926.245	9112
926.352	9020
926.459	9211
926.566	9298
926.673	9097
926.779	8982
926.886	8944
926.993	8842
927.099	8796
927.206	8777
927.312	8830
927.419	8861
927.525	8826
927.631	8891
927.737	8777
927.843	8708
927.95	8606
928.056	8716
928.162	8629
928.267	8834
928.373	9348
928.479	8773
928.585	8636
928.69	8724
928.796	8773
928.901	8602
929.007	8473
929.112	8663
929.218	8644
929.323	8518
929.428	8602
929.533	8686
929.638	8507
929.743	8507
929.848	8594
929.953	8560
930.058	8522
930.163	8244
930.267	8343
930.372	8480
930.477	8252
930.581	8511
930.685	8324
930.79	8248
930.894	8259
930.998	8240
931.103	8404
931.207	8084
931.311	8016
931.415	7917
931.519	7780
931.623	7784
