Data from test_V78500241_3117.txt Node
Date: Fri Mar 25 14:55:25 CST 2022
User: usil
Spectrometer: V785-0024
Trigger mode: 0
Integration Time (sec): 4.000000E-1
Scans to average: 1
Nonlinearity correction enabled: false
Boxcar width: 0
Storing dark spectrum: false
XAxis mode: Wavelengths
Number of Pixels in Spectrum: 1024
>>>>>Begin Spectral Data<<<<<
801.071	21937
801.214	22044
801.356	21694
801.499	21587
801.641	21492
801.783	21332
801.926	21447
802.068	21325
802.211	21473
802.353	21211
802.496	21039
802.638	20986
802.78	20857
802.923	20807
803.065	20800
803.208	20727
803.35	20712
803.492	20891
803.635	20834
803.777	20750
803.919	20777
804.061	21252
804.204	20769
804.346	20667
804.488	20712
804.63	20727
804.773	20575
804.915	20705
805.057	20792
805.199	20663
805.341	20727
805.483	20861
805.626	20781
805.768	20705
805.91	20815
806.052	20712
806.194	20579
806.336	20781
806.478	20682
806.62	20503
806.762	20606
806.904	20800
807.046	21051
807.188	21104
807.33	21005
807.472	21089
807.614	20971
807.756	20895
807.898	20804
808.04	20712
808.182	20727
808.324	20845
808.465	20735
808.607	20910
808.749	21135
808.891	21161
809.033	21173
809.174	21169
809.316	21146
809.458	20948
809.6	20982
809.741	21100
809.883	21157
810.025	21329
810.166	21154
810.308	21211
810.45	21074
810.591	21100
810.733	20937
810.875	20876
811.016	20648
811.158	20773
811.299	20902
811.441	21036
811.582	20918
811.724	20857
811.865	20716
812.007	20701
812.148	20781
812.29	20845
812.431	20872
812.573	21192
812.714	21180
812.855	21283
812.997	21359
813.138	21511
813.279	21416
813.421	21302
813.562	21325
813.703	21043
813.845	20902
813.986	20613
814.127	20533
814.268	20473
814.41	20457
814.551	20385
814.692	20374
814.833	20168
814.974	20336
815.115	20351
815.256	20142
815.397	20157
815.539	20275
815.68	20092
815.821	20039
815.962	20180
816.103	20050
816.244	19932
816.385	19780
816.526	19826
816.666	19662
816.807	19464
816.948	19613
817.089	19597
817.23	19426
817.371	19495
817.512	19438
817.653	19464
817.793	19445
817.934	19438
818.075	19567
818.216	19373
818.356	19487
818.497	19362
818.638	19240
818.778	19137
818.919	19228
819.06	19240
819.2	19251
819.341	19301
819.481	19419
819.622	19552
819.762	19734
819.903	19605
820.043	19514
820.184	19521
820.324	19491
820.465	19575
820.605	19400
820.746	19457
820.886	19365
821.026	19316
821.167	19419
821.307	19491
821.447	19396
821.588	19236
821.728	19156
821.868	18996
822.008	18871
822.149	18935
822.289	18825
822.429	18551
822.569	18528
822.709	18547
822.849	18376
822.99	18304
823.13	18429
823.27	18357
823.41	18197
823.55	18095
823.69	18186
823.83	18110
823.97	18106
824.11	17946
824.25	17923
824.389	17961
824.529	17980
824.669	17950
824.809	18015
824.949	17996
825.089	17927
825.228	17935
825.368	17802
825.508	17672
825.648	17729
825.787	17687
825.927	17855
826.067	17657
826.206	17634
826.346	17756
826.485	17710
826.625	17790
826.765	17779
826.904	17748
827.044	17524
827.183	17360
827.323	17360
827.462	17452
827.601	17455
827.741	17330
827.88	17349
828.02	17258
828.159	17353
828.298	17429
828.437	17406
828.577	17296
828.716	17520
828.855	17387
828.994	17200
829.134	17105
829.273	17075
829.412	17231
829.551	17113
829.69	17105
829.829	17208
829.968	17204
830.107	17155
830.246	17102
830.385	17124
830.524	16995
830.663	16995
830.802	16896
830.941	16793
831.08	16691
831.219	16733
831.357	16831
831.496	16911
831.635	16698
831.774	16717
831.913	16641
832.051	16603
832.19	16500
832.329	16546
832.467	16565
832.606	16455
832.744	16291
832.883	16478
833.022	16352
833.16	16481
833.299	16424
833.437	16497
833.576	16519
833.714	16508
833.852	16527
833.991	16561
834.129	16599
834.267	16489
834.406	16481
834.544	16580
834.682	16455
834.821	16356
834.959	16656
835.097	16375
835.235	16558
835.373	16379
835.511	16504
835.65	16424
835.788	16451
835.926	16234
836.064	16185
836.202	16204
836.34	16428
836.478	16443
836.615	16291
836.753	16474
836.891	16451
837.029	16474
837.167	16356
837.305	16398
837.443	16261
837.58	16253
837.718	16333
837.856	16379
837.993	16158
838.131	16284
838.269	16185
838.406	16109
838.544	16128
838.681	15991
838.819	16036
838.956	15804
839.094	15812
839.231	15911
839.369	15911
839.506	16143
839.643	16074
839.781	15812
839.918	15663
840.055	15812
840.193	15899
840.33	15682
840.467	15808
840.604	15774
840.742	16010
840.879	15686
841.016	15675
841.153	15663
841.29	15899
841.427	15831
841.564	15808
841.701	15842
841.838	15694
841.975	15682
842.112	15751
842.249	15644
842.385	15454
842.522	15759
842.659	15713
842.796	15603
842.933	15671
843.069	15587
843.206	15469
843.343	15614
843.479	15530
843.616	15610
843.752	15363
843.889	15351
844.025	15450
844.162	15340
844.298	15477
844.435	15329
844.571	15313
844.708	15401
844.844	15534
844.98	15545
845.117	15469
845.253	15332
845.389	15237
845.525	15355
845.661	15192
845.798	15127
845.934	15211
846.07	15097
846.206	15203
846.342	15325
846.478	15154
846.614	14963
846.75	14872
846.886	14986
847.022	14975
847.158	14990
847.294	14944
847.429	15017
847.565	14918
847.701	15188
847.837	14785
847.972	14644
848.108	14686
848.244	14781
848.379	14689
848.515	14556
848.65	14480
848.786	14594
848.921	14568
849.057	14621
849.192	14743
849.328	14629
849.463	14575
849.598	14465
849.734	14568
849.869	14370
850.004	14408
850.14	14415
850.275	14339
850.41	14298
850.545	14183
850.68	14282
850.815	14332
850.95	14275
851.085	14507
851.22	14450
851.355	14336
851.49	14298
851.625	14263
851.76	14240
851.895	14199
852.03	14183
852.165	14244
852.299	14317
852.434	14381
852.569	14298
852.703	14313
852.838	14385
852.973	14438
853.107	14404
853.242	14275
853.376	14202
853.511	14103
853.645	14115
853.78	14259
853.914	14187
854.048	14168
854.183	14107
854.317	14267
854.451	14286
854.585	14259
854.72	14123
854.854	14259
854.988	14035
855.122	14054
855.256	14065
855.39	14172
855.524	14263
855.658	14126
855.792	14202
855.926	14157
856.06	14199
856.194	14294
856.327	14195
856.461	14115
856.595	14119
856.729	14130
856.862	14305
856.996	14282
857.13	14248
857.263	14347
857.397	14298
857.53	14202
857.664	14237
857.797	14267
857.931	14237
858.064	14202
858.197	14282
858.331	14142
858.464	14153
858.597	14054
858.731	14172
858.864	14100
858.997	14195
859.13	14218
859.263	14176
859.396	14358
859.529	14081
859.662	14210
859.795	14130
859.928	14172
860.061	14358
860.194	14351
860.327	14290
860.46	14195
860.592	14317
860.725	14370
860.858	14259
860.99	14240
861.123	14130
861.256	14081
861.388	14244
861.521	14842
861.653	14111
861.786	13997
861.918	13951
862.05	14084
862.183	14084
862.315	14206
862.447	14157
862.58	14115
862.712	13959
862.844	13898
862.976	14001
863.108	13986
863.24	14286
863.372	13890
863.504	13951
863.636	13944
863.768	14046
863.9	14020
864.032	13902
864.164	14005
864.296	13947
864.428	13997
864.559	14020
864.691	14107
864.823	14024
864.954	13959
865.086	14005
865.217	13951
865.349	13940
865.48	13875
865.612	13951
865.743	14130
865.875	13986
866.006	13879
866.137	13925
866.269	13909
866.4	14024
866.531	13845
866.662	13837
866.793	13868
866.924	14046
867.055	13947
867.186	13940
867.317	13944
867.448	13856
867.579	13925
867.71	13909
867.841	13860
867.972	13982
868.103	14035
868.233	13932
868.364	14008
868.495	14062
868.625	14157
868.756	14294
868.886	14100
869.017	14149
869.147	14343
869.278	14305
869.408	14153
869.539	14142
869.669	14294
869.799	14248
869.929	14336
870.06	14313
870.19	14480
870.32	14469
870.45	14549
870.58	14659
870.71	14716
870.84	14716
870.97	14503
871.1	14560
871.23	14864
871.36	14750
871.489	14621
871.619	14739
871.749	14781
871.879	14754
872.008	14960
872.138	14819
872.267	14773
872.397	14602
872.526	14655
872.656	14617
872.785	14689
872.915	14788
873.044	14883
873.173	14842
873.303	14937
873.432	14963
873.561	14971
873.69	14815
873.819	14925
873.948	14960
874.077	14887
874.206	14956
874.335	14902
874.464	15032
874.593	15127
874.722	15028
874.851	15142
874.979	15123
875.108	15203
875.237	15032
875.365	15203
875.494	15154
875.623	15146
875.751	15150
875.88	15192
876.008	15211
876.136	15298
876.265	15663
876.393	15652
876.521	15679
876.65	15610
876.778	15561
876.906	15610
877.034	15568
877.162	15614
877.29	15439
877.418	15568
877.546	15614
877.674	15557
877.802	15576
877.93	15568
878.058	15553
878.185	15469
878.313	15675
878.441	15534
878.568	15439
878.696	15439
878.824	15713
878.951	15625
879.079	15804
879.206	15869
879.333	15751
879.461	15561
879.588	15603
879.715	15694
879.842	15865
879.97	15633
880.097	15416
880.224	15401
880.351	15424
880.478	15511
880.605	15454
880.732	15389
880.859	15625
880.986	15466
881.112	15439
881.239	15302
881.366	15272
881.493	15138
881.619	15036
881.746	15180
881.872	15062
881.999	15043
882.125	14963
882.252	15169
882.378	15119
882.505	15230
882.631	15001
882.757	14845
882.883	14979
883.01	14864
883.136	14842
883.262	14868
883.388	14800
883.514	14929
883.64	14944
883.766	14872
883.892	14769
884.018	14697
884.143	14906
884.269	14960
884.395	14606
884.52	14594
884.646	14587
884.772	14537
884.897	14514
885.023	14640
885.148	14674
885.274	14758
885.399	14777
885.524	14686
885.65	14663
885.775	14636
885.9	14636
886.025	14678
886.15	14629
886.275	14541
886.4	14518
886.525	14644
886.65	14522
886.775	14434
886.9	14667
887.025	14853
887.149	14606
887.274	14385
887.399	14336
887.523	14385
887.648	14396
887.773	14278
887.897	14492
888.021	14549
888.146	14385
888.27	14648
888.395	14575
888.519	14492
888.643	14438
888.767	14473
888.891	14362
889.015	14259
889.139	14362
889.263	14263
889.387	14374
889.511	14533
889.635	14400
889.759	14206
889.883	14313
890.006	14336
890.13	14423
890.254	14240
890.377	14305
890.501	14096
890.624	14100
890.748	14229
890.871	14183
890.995	13963
891.118	13936
891.241	14027
891.364	14001
891.488	14119
891.611	13997
891.734	14039
891.857	14115
891.98	14065
892.103	14081
892.226	13921
892.349	14001
892.471	13818
892.594	14012
892.717	14005
892.839	13970
892.962	14031
893.085	14012
893.207	13978
893.33	13921
893.452	14012
893.575	14069
893.697	14077
893.819	14221
893.941	14153
894.064	14111
894.186	13959
894.308	14050
894.43	14062
894.552	14210
894.674	14142
894.796	14016
894.918	14123
895.04	14107
895.161	14073
895.283	14142
895.405	13963
895.526	14206
895.648	14157
895.769	14138
895.891	14221
896.012	14180
896.134	14138
896.255	14206
896.376	14161
896.498	14145
896.619	14153
896.74	14202
896.861	14164
896.982	14442
897.103	14716
897.224	14454
897.345	14488
897.466	14419
897.587	14370
897.708	14583
897.828	14488
897.949	14450
898.07	14244
898.19	14457
898.311	14598
898.431	14419
898.552	14461
898.672	14571
898.792	14636
898.913	14663
899.033	14518
899.153	14434
899.273	14263
899.393	14214
899.513	14465
899.633	14400
899.753	14434
899.873	14377
899.993	14423
900.113	14301
900.232	14438
900.352	14343
900.472	14336
900.591	14214
900.711	14244
900.83	14210
900.95	14328
901.069	14324
901.189	14145
901.308	13940
901.427	13902
901.546	13879
901.665	13963
901.784	14020
901.904	13864
902.023	13704
902.141	13556
902.26	13506
902.379	13624
902.498	13457
902.617	13548
902.735	13605
902.854	13426
902.973	13419
903.091	13259
903.21	13247
903.328	13202
903.446	13118
903.565	13107
903.683	13179
903.801	13046
903.919	13088
904.038	13126
904.156	12814
904.274	12970
904.392	12863
904.51	12882
904.627	12962
904.745	12886
904.863	12939
904.981	12574
905.098	12585
905.216	12684
905.334	12658
905.451	12578
905.569	12559
905.686	12589
905.803	12585
905.921	12391
906.038	12509
906.155	12490
906.272	12315
906.389	12311
906.506	12201
906.623	12152
906.74	12098
906.857	12053
906.974	12121
907.091	12194
907.208	12266
907.324	12228
907.441	12201
907.557	11908
907.674	11904
907.79	11748
907.907	11946
908.023	11954
908.139	11923
908.256	11893
908.372	11893
908.488	11809
908.604	11729
908.72	11657
908.836	11623
908.952	11638
909.068	11680
909.184	11798
909.3	11695
909.415	11748
909.531	11684
909.647	11493
909.762	11459
909.878	11440
909.993	11452
910.108	11436
910.224	11444
910.339	11440
910.454	11379
910.57	11334
910.685	11185
910.8	11505
910.915	11490
911.03	11254
911.145	11124
911.259	11201
911.374	11083
911.489	11086
911.604	11064
911.718	10968
911.833	10946
911.947	10778
912.062	10733
912.176	10934
912.291	10946
912.405	10892
912.519	11037
912.633	11079
912.748	11033
912.862	10850
912.976	10812
913.09	10717
913.204	10771
913.318	10771
913.431	10900
913.545	10892
913.659	10946
913.772	10759
913.886	10675
914	10672
914.113	10714
914.226	10755
914.34	10748
914.453	10535
914.566	10835
914.68	10645
914.793	10649
914.906	10432
915.019	10375
915.132	10325
915.245	10428
915.358	10428
915.47	10512
915.583	10466
915.696	10485
915.809	10596
915.921	10615
916.034	10356
916.146	10352
916.259	10337
916.371	10462
916.483	10394
916.595	10272
916.708	10417
916.82	10432
916.932	10333
917.044	10272
917.156	10322
917.268	10265
917.38	10314
917.491	10249
917.603	10329
917.715	10291
917.826	10386
917.938	10204
918.049	10162
918.161	10257
918.272	10402
918.384	10341
918.495	10322
918.606	10177
918.717	10112
918.828	10128
918.939	10173
919.05	10036
919.161	10109
919.272	9915
919.383	10025
919.494	10261
919.604	10268
919.715	10169
919.826	10055
919.936	10097
920.047	10192
920.157	10166
920.267	10318
920.378	10162
920.488	10166
920.598	10291
920.708	10512
920.818	10344
920.928	10291
921.038	10447
921.148	10493
921.258	10234
921.368	10067
921.477	10063
921.587	10017
921.697	9842
921.806	10086
921.916	9934
922.025	9728
922.134	9755
922.244	9667
922.353	9740
922.462	9542
922.571	9553
922.68	9401
922.789	9428
922.898	9469
923.007	9367
923.116	9447
923.224	9416
923.333	9405
923.442	9298
923.55	9218
923.659	9332
923.767	9336
923.876	9230
923.984	9412
924.092	9245
924.201	9306
924.309	9226
924.417	9287
924.525	9226
924.633	9230
924.741	10173
924.849	9032
924.956	9226
925.064	9047
925.172	9005
925.279	9081
925.387	9089
925.494	9062
925.602	9138
925.709	9150
925.816	8998
925.924	9039
926.031	9173
926.138	9051
926.245	9085
926.352	9028
926.459	9138
926.566	9146
926.673	9020
926.779	8925
926.886	8921
926.993	8830
927.099	8811
927.206	8716
927.312	8758
927.419	8804
927.525	8792
927.631	8819
927.737	8750
927.843	8667
927.95	8621
928.056	8617
928.162	8693
928.267	8762
928.373	9249
928.479	8811
928.585	8526
928.69	8705
928.796	8655
928.901	8545
929.007	8457
929.112	8571
929.218	8636
929.323	8476
929.428	8503
929.533	8686
929.638	8446
929.743	8522
929.848	8575
929.953	8511
930.058	8461
930.163	8271
930.267	8275
930.372	8423
930.477	8202
930.581	8454
930.685	8343
930.79	8244
930.894	8229
930.998	8157
931.103	8381
931.207	8062
931.311	8024
931.415	7837
931.519	7708
931.623	7746
