Data from test_V78500241_3004.txt Node
Date: Fri Mar 25 14:54:37 CST 2022
User: usil
Spectrometer: V785-0024
Trigger mode: 0
Integration Time (sec): 4.000000E-1
Scans to average: 1
Nonlinearity correction enabled: false
Boxcar width: 0
Storing dark spectrum: false
XAxis mode: Wavelengths
Number of Pixels in Spectrum: 1024
>>>>>Begin Spectral Data<<<<<
801.071	22249
801.214	22048
801.356	21793
801.499	21595
801.641	21523
801.783	21454
801.926	21386
802.068	21454
802.211	21222
802.353	21268
802.496	21146
802.638	20971
802.78	20960
802.923	20845
803.065	20796
803.208	20750
803.35	20773
803.492	20979
803.635	21055
803.777	20823
803.919	20902
804.061	21173
804.204	20853
804.346	20705
804.488	20739
804.63	20864
804.773	20693
804.915	20674
805.057	20750
805.199	20705
805.341	20872
805.483	20781
805.626	20811
805.768	20705
805.91	20731
806.052	20746
806.194	20602
806.336	20823
806.478	20720
806.62	20750
806.762	20883
806.904	20857
807.046	21157
807.188	20982
807.33	21077
807.472	21169
807.614	20941
807.756	20971
807.898	20792
808.04	20842
808.182	20773
808.324	20861
808.465	20796
808.607	21043
808.749	21119
808.891	21123
809.033	21146
809.174	21195
809.316	20982
809.458	21055
809.6	21062
809.741	21142
809.883	21165
810.025	21310
810.166	21218
810.308	21245
810.45	21104
810.591	21157
810.733	21024
810.875	20899
811.016	20792
811.158	20765
811.299	20724
811.441	20971
811.582	20960
811.724	20963
811.865	20845
812.007	20906
812.148	20823
812.29	20944
812.431	21058
812.573	21089
812.714	21332
812.855	21294
812.997	21439
813.138	21625
813.279	21583
813.421	21443
813.562	21264
813.703	21157
813.845	20872
813.986	20716
814.127	20564
814.268	20450
814.41	20507
814.551	20495
814.692	20434
814.833	20305
814.974	20389
815.115	20465
815.256	20389
815.397	20366
815.539	20225
815.68	20161
815.821	20130
815.962	20092
816.103	20115
816.244	19852
816.385	19936
816.526	19742
816.666	19788
816.807	19537
816.948	19624
817.089	19601
817.23	19666
817.371	19548
817.512	19445
817.653	19533
817.793	19495
817.934	19563
818.075	19624
818.216	19563
818.356	19441
818.497	19312
818.638	19160
818.778	19228
818.919	19152
819.06	19221
819.2	19365
819.341	19365
819.481	19419
819.622	19491
819.762	19742
819.903	19719
820.043	19616
820.184	19521
820.324	19590
820.465	19540
820.605	19453
820.746	19533
820.886	19373
821.026	19480
821.167	19472
821.307	19468
821.447	19434
821.588	19362
821.728	19240
821.868	18977
822.008	19084
822.149	18954
822.289	18901
822.429	18707
822.569	18608
822.709	18654
822.849	18452
822.99	18498
823.13	18300
823.27	18388
823.41	18239
823.55	18216
823.69	18201
823.83	18201
823.97	18174
824.11	18034
824.25	17946
824.389	17882
824.529	18064
824.669	18019
824.809	18057
824.949	18064
825.089	17992
825.228	18003
825.368	17821
825.508	17939
825.648	17745
825.787	17809
825.927	17729
826.067	17786
826.206	17649
826.346	17821
826.485	17710
826.625	17676
826.765	17840
826.904	17695
827.044	17608
827.183	17459
827.323	17315
827.462	17425
827.601	17425
827.741	17448
827.88	17444
828.02	17254
828.159	17425
828.298	17467
828.437	17592
828.577	17493
828.716	17551
828.855	17414
828.994	17121
829.134	17189
829.273	17220
829.412	17109
829.551	17056
829.69	17181
829.829	17254
829.968	17303
830.107	17181
830.246	17197
830.385	17071
830.524	17022
830.663	17010
830.802	16999
830.941	16866
831.08	16774
831.219	17018
831.357	16809
831.496	16946
831.635	16733
831.774	16637
831.913	16797
832.051	16664
832.19	16637
832.329	16698
832.467	16478
832.606	16493
832.744	16447
832.883	16512
833.022	16352
833.16	16489
833.299	16462
833.437	16535
833.576	16478
833.714	16489
833.852	16485
833.991	16550
834.129	16596
834.267	16664
834.406	16565
834.544	16535
834.682	16561
834.821	16459
834.959	16733
835.097	16459
835.235	16561
835.373	16577
835.511	16558
835.65	16508
835.788	16394
835.926	16257
836.064	16188
836.202	16143
836.34	16538
836.478	16588
836.615	16341
836.753	16409
836.891	16478
837.029	16447
837.167	16394
837.305	16428
837.443	16322
837.58	16265
837.718	16394
837.856	16246
837.993	16268
838.131	16329
838.269	16219
838.406	16249
838.544	16109
838.681	15991
838.819	15949
838.956	15793
839.094	15857
839.231	15899
839.369	16021
839.506	16196
839.643	16090
839.781	15915
839.918	15766
840.055	15823
840.193	15766
840.33	15831
840.467	15842
840.604	15743
840.742	16097
840.879	15717
841.016	15698
841.153	15671
841.29	15918
841.427	15797
841.564	15831
841.701	15816
841.838	15618
841.975	15793
842.112	15701
842.249	15629
842.385	15595
842.522	15770
842.659	15641
842.796	15466
842.933	15595
843.069	15610
843.206	15492
843.343	15720
843.479	15625
843.616	15587
843.752	15428
843.889	15386
844.025	15591
844.162	15370
844.298	15511
844.435	15344
844.571	15264
844.708	15408
844.844	15485
844.98	15473
845.117	15416
845.253	15367
845.389	15233
845.525	15329
845.661	15332
845.798	15211
845.934	15233
846.07	15112
846.206	15363
846.342	15252
846.478	15211
846.614	15043
846.75	14906
846.886	14933
847.022	15047
847.158	15043
847.294	14975
847.429	15024
847.565	14918
847.701	15199
847.837	14727
847.972	14686
848.108	14807
848.244	14743
848.379	14560
848.515	14560
848.65	14461
848.786	14606
848.921	14571
849.057	14670
849.192	14632
849.328	14606
849.463	14518
849.598	14526
849.734	14438
849.869	14457
850.004	14351
850.14	14431
850.275	14271
850.41	14309
850.545	14317
850.68	14301
850.815	14431
850.95	14393
851.085	14514
851.22	14400
851.355	14339
851.49	14309
851.625	14290
851.76	14187
851.895	14233
852.03	14294
852.165	14259
852.299	14343
852.434	14434
852.569	14324
852.703	14313
852.838	14412
852.973	14526
853.107	14522
853.242	14374
853.376	14237
853.511	14157
853.645	14153
853.78	14317
853.914	14218
854.048	14199
854.183	14244
854.317	14191
854.451	14362
854.585	14103
854.72	14187
854.854	14229
854.988	14244
855.122	14153
855.256	14077
855.39	14187
855.524	14233
855.658	14275
855.792	14168
855.926	14164
856.06	14176
856.194	14267
856.327	14138
856.461	14092
856.595	14077
856.729	14202
856.862	14248
856.996	14191
857.13	14240
857.263	14237
857.397	14328
857.53	14252
857.664	14259
857.797	14298
857.931	14294
858.064	14191
858.197	14278
858.331	14218
858.464	14229
858.597	14123
858.731	14126
858.864	14176
858.997	14138
859.13	14164
859.263	14263
859.396	14229
859.529	14233
859.662	14206
859.795	14134
859.928	14237
860.061	14396
860.194	14351
860.327	14130
860.46	14153
860.592	14336
860.725	14370
860.858	14271
860.99	14149
861.123	14180
861.256	14126
861.388	14149
861.521	14872
861.653	14043
861.786	14058
861.918	14001
862.05	14096
862.183	14191
862.315	14180
862.447	14206
862.58	14039
862.712	14008
862.844	13959
862.976	14077
863.108	14005
863.24	14431
863.372	13852
863.504	13967
863.636	13947
863.768	13982
863.9	14012
864.032	13963
864.164	13932
864.296	13955
864.428	14031
864.559	14081
864.691	14103
864.823	14027
864.954	13959
865.086	14016
865.217	13940
865.349	13852
865.48	13868
865.612	14039
865.743	14081
865.875	13963
866.006	13963
866.137	13921
866.269	13944
866.4	13959
866.531	13875
866.662	13902
866.793	13894
866.924	13887
867.055	13887
867.186	13940
867.317	13989
867.448	13913
867.579	13845
867.71	13845
867.841	13860
867.972	13963
868.103	13986
868.233	14020
868.364	13860
868.495	14024
868.625	14206
868.756	14294
868.886	14073
869.017	14240
869.147	14381
869.278	14389
869.408	14176
869.539	14149
869.669	14259
869.799	14210
869.929	14240
870.06	14396
870.19	14507
870.32	14480
870.45	14568
870.58	14587
870.71	14625
870.84	14762
870.97	14606
871.1	14651
871.23	14720
871.36	14769
871.489	14655
871.619	14659
871.749	14743
871.879	14701
872.008	14861
872.138	14804
872.267	14781
872.397	14636
872.526	14602
872.656	14568
872.785	14541
872.915	14762
873.044	14906
873.173	14868
873.303	14857
873.432	14929
873.561	15001
873.69	14868
873.819	14876
873.948	14769
874.077	14933
874.206	14743
874.335	14895
874.464	15039
874.593	15165
874.722	15055
874.851	15074
874.979	15192
875.108	15123
875.237	15176
875.365	15138
875.494	15135
875.623	15298
875.751	15123
875.88	15211
876.008	15355
876.136	15382
876.265	15629
876.393	15671
876.521	15694
876.65	15656
876.778	15625
876.906	15466
877.034	15572
877.162	15603
877.29	15500
877.418	15538
877.546	15564
877.674	15717
877.802	15534
877.93	15572
878.058	15564
878.185	15492
878.313	15553
878.441	15561
878.568	15416
878.696	15496
878.824	15549
878.951	15595
879.079	15713
879.206	15911
879.333	15755
879.461	15679
879.588	15736
879.715	15739
879.842	15854
879.97	15705
880.097	15344
880.224	15431
880.351	15389
880.478	15481
880.605	15382
880.732	15321
880.859	15682
880.986	15450
881.112	15530
881.239	15313
881.366	15256
881.493	15150
881.619	15047
881.746	15127
881.872	15226
881.999	15024
882.125	15081
882.252	15028
882.378	15252
882.505	15226
882.631	15123
882.757	14853
882.883	15058
883.01	14937
883.136	14864
883.262	14876
883.388	14746
883.514	14918
883.64	14918
883.766	14902
883.892	14682
884.018	14746
884.143	14944
884.269	15055
884.395	14705
884.52	14590
884.646	14659
884.772	14579
884.897	14465
885.023	14617
885.148	14727
885.274	14800
885.399	14678
885.524	14621
885.65	14579
885.775	14629
885.9	14674
886.025	14781
886.15	14674
886.275	14537
886.4	14465
886.525	14552
886.65	14549
886.775	14549
886.9	14834
887.025	14838
887.149	14583
887.274	14499
887.399	14328
887.523	14423
887.648	14339
887.773	14389
887.897	14575
888.021	14617
888.146	14294
888.27	14560
888.395	14537
888.519	14507
888.643	14518
888.767	14522
888.891	14423
889.015	14267
889.139	14309
889.263	14328
889.387	14412
889.511	14556
889.635	14442
889.759	14320
889.883	14328
890.006	14282
890.13	14454
890.254	14180
890.377	14259
890.501	14050
890.624	14092
890.748	14123
890.871	14058
890.995	13951
891.118	13951
891.241	14115
891.364	14005
891.488	14149
891.611	13959
891.734	14027
891.857	14065
891.98	13963
892.103	14092
892.226	14046
892.349	14031
892.471	13841
892.594	14046
892.717	14024
892.839	14043
892.962	14103
893.085	14050
893.207	13986
893.33	13909
893.452	14005
893.575	14031
893.697	14031
893.819	14157
893.941	14210
894.064	14138
894.186	13955
894.308	13921
894.43	14134
894.552	14206
894.674	14183
894.796	13906
894.918	14031
895.04	14035
895.161	14134
895.283	14142
895.405	13993
895.526	14100
895.648	14119
895.769	14195
895.891	14073
896.012	14218
896.134	14164
896.255	14240
896.376	14202
896.498	14180
896.619	14240
896.74	14142
896.861	14115
896.982	14480
897.103	14606
897.224	14423
897.345	14438
897.466	14434
897.587	14434
897.708	14613
897.828	14549
897.949	14427
898.07	14248
898.19	14404
898.311	14590
898.431	14480
898.552	14632
898.672	14663
898.792	14636
898.913	14689
899.033	14457
899.153	14362
899.273	14351
899.393	14351
899.513	14404
899.633	14415
899.753	14469
899.873	14343
899.993	14434
900.113	14385
900.232	14415
900.352	14362
900.472	14320
900.591	14187
900.711	14332
900.83	14290
900.95	14404
901.069	14507
901.189	14244
901.308	13944
901.427	13921
901.546	13936
901.665	13959
901.784	14027
901.904	13852
902.023	13719
902.141	13537
902.26	13537
902.379	13586
902.498	13559
902.617	13502
902.735	13552
902.854	13624
902.973	13487
903.091	13175
903.21	13156
903.328	13259
903.446	13145
903.565	13065
903.683	13091
903.801	12947
903.919	13145
904.038	13015
904.156	12962
904.274	12932
904.392	12924
904.51	12875
904.627	12867
904.745	12924
904.863	12939
904.981	12726
905.098	12616
905.216	12563
905.334	12665
905.451	12604
905.569	12555
905.686	12593
905.803	12612
905.921	12330
906.038	12429
906.155	12506
906.272	12300
906.389	12380
906.506	12190
906.623	12273
906.74	12213
906.857	12197
906.974	12163
907.091	12220
907.208	12300
907.324	12273
907.441	12087
907.557	11984
907.674	11942
907.79	11885
907.907	12045
908.023	11843
908.139	11882
908.256	11840
908.372	11836
908.488	11775
908.604	11722
908.72	11619
908.836	11627
908.952	11638
909.068	11646
909.184	11783
909.3	11684
909.415	11756
909.531	11688
909.647	11478
909.762	11478
909.878	11459
909.993	11414
910.108	11433
910.224	11467
910.339	11417
910.454	11414
910.57	11201
910.685	11235
910.8	11566
910.915	11440
911.03	11315
911.145	11136
911.259	11166
911.374	11147
911.489	11010
911.604	11079
911.718	10972
911.833	10816
911.947	10862
912.062	10786
912.176	10949
912.291	10919
912.405	10927
912.519	11102
912.633	11083
912.748	10968
912.862	10892
912.976	10843
913.09	10672
913.204	10714
913.318	10809
913.431	10923
913.545	10873
913.659	10854
913.772	10801
913.886	10592
914	10611
914.113	10763
914.226	10820
914.34	10759
914.453	10550
914.566	10755
914.68	10672
914.793	10626
914.906	10497
915.019	10386
915.132	10360
915.245	10390
915.358	10440
915.47	10451
915.583	10447
915.696	10424
915.809	10599
915.921	10561
916.034	10405
916.146	10432
916.259	10348
916.371	10470
916.483	10546
916.595	10344
916.708	10356
916.82	10348
916.932	10367
917.044	10306
917.156	10398
917.268	10238
917.38	10276
917.491	10166
917.603	10265
917.715	10306
917.826	10356
917.938	10249
918.049	10173
918.161	10185
918.272	10451
918.384	10436
918.495	10322
918.606	10196
918.717	10131
918.828	10120
918.939	10124
919.05	9979
919.161	10109
919.272	9964
919.383	10002
919.494	10207
919.604	10390
919.715	10177
919.826	10086
919.936	10173
920.047	10329
920.157	10188
920.267	10337
920.378	10120
920.488	10181
920.598	10356
920.708	10478
920.818	10356
920.928	10356
921.038	10569
921.148	10519
921.258	10177
921.368	10143
921.477	10067
921.587	9979
921.697	9941
921.806	10013
921.916	9831
922.025	9740
922.134	9713
922.244	9671
922.353	9759
922.462	9595
922.571	9561
922.68	9393
922.789	9389
922.898	9412
923.007	9389
923.116	9420
923.224	9393
923.333	9405
923.442	9359
923.55	9256
923.659	9374
923.767	9359
923.876	9253
923.984	9329
924.092	9264
924.201	9294
924.309	9272
924.417	9268
924.525	9203
924.633	9268
924.741	10177
924.849	9005
924.956	9165
925.064	9116
925.172	9028
925.279	9028
925.387	9066
925.494	9070
925.602	9135
925.709	9138
925.816	9047
925.924	9100
926.031	9116
926.138	9116
926.245	9157
926.352	8963
926.459	9093
926.566	9195
926.673	9017
926.779	8998
926.886	8948
926.993	8769
927.099	8746
927.206	8636
927.312	8792
927.419	8788
927.525	8781
927.631	8861
927.737	8716
927.843	8674
927.95	8606
928.056	8598
928.162	8697
928.267	8750
928.373	9245
928.479	8750
928.585	8613
928.69	8686
928.796	8670
928.901	8537
929.007	8442
929.112	8522
929.218	8625
929.323	8549
929.428	8514
929.533	8682
929.638	8476
929.743	8499
929.848	8537
929.953	8610
930.058	8457
930.163	8263
930.267	8317
930.372	8454
930.477	8206
930.581	8522
930.685	8336
930.79	8195
930.894	8218
930.998	8202
931.103	8298
931.207	8031
931.311	7967
931.415	7947
931.519	7753
931.623	7731
