Data from test_V78500241_510.txt Node
Date: Fri Mar 25 14:37:16 CST 2022
User: usil
Spectrometer: V785-0024
Trigger mode: 0
Integration Time (sec): 4.000000E-1
Scans to average: 1
Nonlinearity correction enabled: false
Boxcar width: 0
Storing dark spectrum: false
XAxis mode: Wavelengths
Number of Pixels in Spectrum: 1024
>>>>>Begin Spectral Data<<<<<
801.071	26956
801.214	26849
801.356	26632
801.499	26564
801.641	26469
801.783	26431
801.926	26453
802.068	26328
802.211	26225
802.353	26153
802.496	25940
802.638	25860
802.78	25986
802.923	25852
803.065	25761
803.208	25791
803.35	25830
803.492	25795
803.635	25898
803.777	25788
803.919	25860
804.061	26134
804.204	25852
804.346	25837
804.488	25700
804.63	25951
804.773	25750
804.915	25807
805.057	25982
805.199	25784
805.341	25856
805.483	25989
805.626	25909
805.768	25879
805.91	25837
806.052	25970
806.194	25845
806.336	26119
806.478	26016
806.62	25841
806.762	26073
806.904	26210
807.046	26556
807.188	26434
807.33	26571
807.472	26609
807.614	26648
807.756	26651
807.898	26705
808.04	26667
808.182	27028
808.324	27397
808.465	27732
808.607	28272
808.749	28592
808.891	28752
809.033	28831
809.174	28626
809.316	28215
809.458	27854
809.6	27427
809.741	27325
809.883	26925
810.025	27070
810.166	26956
810.308	26921
810.45	26708
810.591	26587
810.733	26438
810.875	26244
811.016	26145
811.158	26278
811.299	26450
811.441	26389
811.582	26358
811.724	26374
811.865	26153
812.007	26229
812.148	26218
812.29	26202
812.431	26366
812.573	26320
812.714	26446
812.855	26606
812.997	26811
813.138	27013
813.279	26804
813.421	26552
813.562	26492
813.703	26446
813.845	26332
813.986	25959
814.127	25727
814.268	25639
814.41	25685
814.551	25681
814.692	25887
814.833	25575
814.974	25582
815.115	25590
815.256	25510
815.397	25468
815.539	25537
815.68	25441
815.821	25403
815.962	25365
816.103	25354
816.244	25228
816.385	25209
816.526	24970
816.666	24802
816.807	24741
816.948	24738
817.089	24886
817.23	24840
817.371	24627
817.512	24738
817.653	24745
817.793	24585
817.934	24612
818.075	24741
818.216	24658
818.356	24635
818.497	24612
818.638	24418
818.778	24311
818.919	24353
819.06	24479
819.2	24467
819.341	24593
819.481	24608
819.622	24677
819.762	24985
819.903	24951
820.043	24806
820.184	24768
820.324	24681
820.465	24745
820.605	24760
820.746	24753
820.886	24505
821.026	24623
821.167	24578
821.307	24597
821.447	24410
821.588	24448
821.728	24327
821.868	24216
822.008	24110
822.149	23942
822.289	23893
822.429	23699
822.569	23668
822.709	23646
822.849	23505
822.99	23543
823.13	23433
823.27	23497
823.41	23212
823.55	23212
823.69	23322
823.83	23349
823.97	23239
824.11	23083
824.25	23064
824.389	23048
824.529	23105
824.669	23079
824.809	23025
824.949	23147
825.089	23041
825.228	23178
825.368	22877
825.508	22801
825.648	22812
825.787	22896
825.927	22835
826.067	22816
826.206	22774
826.346	22729
826.485	22980
826.625	22771
826.765	22957
826.904	22915
827.044	22550
827.183	22561
827.323	22466
827.462	22538
827.601	22607
827.741	22603
827.88	22500
828.02	22367
828.159	22497
828.298	22557
828.437	22546
828.577	22344
828.716	22573
828.855	22474
828.994	22200
829.134	22173
829.273	22177
829.412	22143
829.551	22158
829.69	22059
829.829	22116
829.968	22200
830.107	22215
830.246	22105
830.385	22013
830.524	22147
830.663	21941
830.802	21804
830.941	21766
831.08	21606
831.219	21899
831.357	21835
831.496	21956
831.635	21682
831.774	21690
831.913	21610
832.051	21545
832.19	21629
832.329	21443
832.467	21458
832.606	21367
832.744	21313
832.883	21325
833.022	21420
833.16	21431
833.299	21443
833.437	21603
833.576	21523
833.714	21473
833.852	21644
833.991	21504
834.129	21526
834.267	21595
834.406	21382
834.544	21458
834.682	21526
834.821	21492
834.959	21610
835.097	21431
835.235	21507
835.373	21374
835.511	21519
835.65	21405
835.788	21249
835.926	21089
836.064	21039
836.202	21119
836.34	21192
836.478	21336
836.615	21150
836.753	21256
836.891	21237
837.029	21218
837.167	21119
837.305	21237
837.443	21192
837.58	21017
837.718	21241
837.856	21108
837.993	21043
838.131	21085
838.269	20948
838.406	20838
838.544	20838
838.681	20746
838.819	20602
838.956	20636
839.094	20526
839.231	20659
839.369	20651
839.506	20899
839.643	20800
839.781	20568
839.918	20568
840.055	20609
840.193	20442
840.33	20328
840.467	20465
840.604	20412
840.742	20686
840.879	20298
841.016	20400
841.153	20278
841.29	20518
841.427	20358
841.564	20351
841.701	20393
841.838	20389
841.975	20366
842.112	20389
842.249	20240
842.385	20005
842.522	20484
842.659	20202
842.796	20187
842.933	20126
843.069	20145
843.206	20035
843.343	20115
843.479	20153
843.616	20237
843.752	20031
843.889	19925
844.025	19986
844.162	19947
844.298	20012
844.435	19818
844.571	20031
844.708	19986
844.844	20237
844.98	20195
845.117	20244
845.253	20119
845.389	20324
845.525	20632
845.661	21096
845.798	21819
845.934	22489
846.07	22782
846.206	22592
846.342	22204
846.478	21348
846.614	20629
846.75	19997
846.886	19795
847.022	19864
847.158	19613
847.294	19510
847.429	19384
847.565	19247
847.701	19712
847.837	19202
847.972	19228
848.108	19293
848.244	19156
848.379	18928
848.515	18958
848.65	18871
848.786	18981
848.921	18977
849.057	19023
849.192	19019
849.328	18909
849.463	18951
849.598	18905
849.734	18840
849.869	18810
850.004	18703
850.14	18711
850.275	18802
850.41	18601
850.545	18700
850.68	18635
850.815	18585
850.95	18555
851.085	18779
851.22	18658
851.355	18692
851.49	18616
851.625	18684
851.76	18722
851.895	18517
852.03	18544
852.165	18631
852.299	18646
852.434	18631
852.569	18646
852.703	18627
852.838	18661
852.973	18798
853.107	18848
853.242	18517
853.376	18563
853.511	18376
853.645	18467
853.78	18661
853.914	18574
854.048	18391
854.183	18559
854.317	18525
854.451	18570
854.585	18544
854.72	18437
854.854	18551
854.988	18380
855.122	18376
855.256	18262
855.39	18350
855.524	18475
855.658	18623
855.792	18452
855.926	18445
856.06	18532
856.194	18521
856.327	18426
856.461	18414
856.595	18506
856.729	18353
856.862	18589
856.996	18570
857.13	18486
857.263	18502
857.397	18388
857.53	18365
857.664	18456
857.797	18452
857.931	18532
858.064	18369
858.197	18540
858.331	18391
858.464	18270
858.597	18376
858.731	18384
858.864	18346
858.997	18311
859.13	18502
859.263	18509
859.396	18498
859.529	18376
859.662	18369
859.795	18346
859.928	18464
860.061	18563
860.194	18574
860.327	18460
860.46	18384
860.592	18483
860.725	18513
860.858	18456
860.99	18391
861.123	18334
861.256	18407
861.388	18399
861.521	19164
861.653	18197
861.786	18220
861.918	18342
862.05	18429
862.183	18292
862.315	18384
862.447	18483
862.58	18380
862.712	18209
862.844	18125
862.976	18228
863.108	18171
863.24	18475
863.372	18053
863.504	18125
863.636	18060
863.768	18102
863.9	18034
864.032	17988
864.164	18098
864.296	18091
864.428	18228
864.559	18155
864.691	18182
864.823	18178
864.954	18133
865.086	18053
865.217	18022
865.349	17927
865.48	17984
865.612	18091
865.743	18266
865.875	18152
866.006	17923
866.137	17931
866.269	17950
866.4	18091
866.531	17988
866.662	17901
866.793	17961
866.924	17977
867.055	18053
867.186	18057
867.317	17847
867.448	17908
867.579	17973
867.71	17897
867.841	17863
867.972	18041
868.103	18034
868.233	17977
868.364	18060
868.495	18049
868.625	18205
868.756	18342
868.886	18140
869.017	18216
869.147	18395
869.278	18163
869.408	18228
869.539	18243
869.669	18292
869.799	18270
869.929	18296
870.06	18342
870.19	18528
870.32	18479
870.45	18582
870.58	18673
870.71	18684
870.84	18642
870.97	18601
871.1	18654
871.23	18738
871.36	18840
871.489	18650
871.619	18730
871.749	18696
871.879	18878
872.008	18882
872.138	18722
872.267	18829
872.397	18825
872.526	18608
872.656	18665
872.785	18608
872.915	18848
873.044	18909
873.173	18901
873.303	18871
873.432	18920
873.561	18970
873.69	18859
873.819	18920
873.948	18962
874.077	18928
874.206	18798
874.335	18970
874.464	18985
874.593	19156
874.722	19069
874.851	19244
874.979	19263
875.108	19194
875.237	19259
875.365	19088
875.494	19289
875.623	19232
875.751	19129
875.88	19190
876.008	19362
876.136	19373
876.265	19582
876.393	19788
876.521	19674
876.65	19757
876.778	19708
876.906	19655
877.034	19639
877.162	19552
877.29	19525
877.418	19681
877.546	19586
877.674	19582
877.802	19723
877.93	19723
878.058	19628
878.185	19529
878.313	19822
878.441	19868
878.568	19674
878.696	19837
878.824	20043
878.951	20187
879.079	20446
879.206	20758
879.333	20941
879.461	20986
879.588	21036
879.715	21195
879.842	21173
879.97	20872
880.097	20431
880.224	20115
880.351	20035
880.478	19989
880.605	19837
880.732	19902
880.859	20035
880.986	19818
881.112	19860
881.239	19681
881.366	19441
881.493	19430
881.619	19381
881.746	19419
881.872	19430
881.999	19297
882.125	19274
882.252	19518
882.378	19400
882.505	19556
882.631	19415
882.757	19137
882.883	19285
883.01	19244
883.136	19236
883.262	19206
883.388	19110
883.514	19141
883.64	19244
883.766	19145
883.892	19061
884.018	19069
884.143	19331
884.269	19240
884.395	18894
884.52	18943
884.646	19000
884.772	18859
884.897	18886
885.023	18867
885.148	18958
885.274	18913
885.399	19046
885.524	18916
885.65	18905
885.775	18840
885.9	18772
886.025	18840
886.15	18779
886.275	18867
886.4	18589
886.525	18665
886.65	18623
886.775	18551
886.9	18738
887.025	18909
887.149	18654
887.274	18502
887.399	18407
887.523	18357
887.648	18365
887.773	18258
887.897	18429
888.021	18467
888.146	18403
888.27	18429
888.395	18475
888.519	18467
888.643	18422
888.767	18384
888.891	18281
889.015	18243
889.139	18239
889.263	18076
889.387	18216
889.511	18464
889.635	18235
889.759	18125
889.883	18098
890.006	18186
890.13	18201
890.254	18083
890.377	18102
890.501	17950
890.624	17863
890.748	17939
890.871	17718
890.995	17714
891.118	17665
891.241	17760
891.364	17752
891.488	17840
891.611	17684
891.734	17729
891.857	17764
891.98	17745
892.103	17668
892.226	17733
892.349	17653
892.471	17649
892.594	17630
892.717	17619
892.839	17714
892.962	17661
893.085	17726
893.207	17532
893.33	17452
893.452	17600
893.575	17718
893.697	17604
893.819	17760
893.941	17786
894.064	17741
894.186	17627
894.308	17577
894.43	17642
894.552	17741
894.674	17741
894.796	17478
894.918	17600
895.04	17608
895.161	17684
895.283	17600
895.405	17600
895.526	17585
895.648	17581
895.769	17573
895.891	17638
896.012	17634
896.134	17714
896.255	17615
896.376	17623
896.498	17752
896.619	17699
896.74	17672
896.861	17760
896.982	18068
897.103	18258
897.224	18030
897.345	17996
897.466	17828
897.587	17870
897.708	17977
897.828	18022
897.949	17984
898.07	17684
898.19	17866
898.311	18064
898.431	17847
898.552	17851
898.672	17992
898.792	18026
898.913	18007
899.033	17874
899.153	17771
899.273	17748
899.393	17752
899.513	17691
899.633	17741
899.753	17760
899.873	17687
899.993	17726
900.113	17726
900.232	17783
900.352	17729
900.472	17630
900.591	17478
900.711	17592
900.83	17524
900.95	17581
901.069	17798
901.189	17425
901.308	17311
901.427	17105
901.546	17292
901.665	17174
901.784	17269
901.904	17018
902.023	16889
902.141	16759
902.26	16675
902.379	16786
902.498	16725
902.617	16592
902.735	16729
902.854	16641
902.973	16626
903.091	16344
903.21	16284
903.328	16432
903.446	16242
903.565	16120
903.683	16150
903.801	16124
903.919	16188
904.038	16242
904.156	15941
904.274	16040
904.392	15979
904.51	15926
904.627	15884
904.745	16010
904.863	15964
904.981	15713
905.098	15629
905.216	15568
905.334	15580
905.451	15549
905.569	15492
905.686	15614
905.803	15641
905.921	15485
906.038	15542
906.155	15431
906.272	15298
906.389	15378
906.506	15154
906.623	15176
906.74	15142
906.857	15036
906.974	14971
907.091	15173
907.208	15241
907.324	15199
907.441	15104
907.557	14910
907.674	14937
907.79	14746
907.907	14754
908.023	14792
908.139	14872
908.256	14762
908.372	14826
908.488	14693
908.604	14480
908.72	14526
908.836	14556
908.952	14533
909.068	14625
909.184	14625
909.3	14602
909.415	14511
909.531	14419
909.647	14240
909.762	14290
909.878	14210
909.993	14252
910.108	14225
910.224	14237
910.339	14214
910.454	14058
910.57	14123
910.685	14039
910.8	14233
910.915	14183
911.03	14111
911.145	13788
911.259	13883
911.374	13894
911.489	13818
911.604	13746
911.718	13643
911.833	13727
911.947	13506
912.062	13483
912.176	13643
912.291	13643
912.405	13624
912.519	13738
912.633	13776
912.748	13742
912.862	13578
912.976	13445
913.09	13251
913.204	13384
913.318	13457
913.431	13540
913.545	13540
913.659	13537
913.772	13430
913.886	13384
914	13358
914.113	13403
914.226	13388
914.34	13373
914.453	13297
914.566	13266
914.68	13095
914.793	13171
914.906	13095
915.019	12977
915.132	12890
915.245	12924
915.358	12973
915.47	13019
915.583	12897
915.696	12973
915.809	13099
915.921	13080
916.034	12970
916.146	12871
916.259	12875
916.371	12958
916.483	12867
916.595	12867
916.708	12829
916.82	12882
916.932	12859
917.044	12817
917.156	12741
917.268	12669
917.38	12795
917.491	12707
917.603	12673
917.715	12768
917.826	12787
917.938	12700
918.049	12540
918.161	12669
918.272	12882
918.384	12734
918.495	12608
918.606	12490
918.717	12410
918.828	12498
918.939	12486
919.05	12464
919.161	12452
919.272	12285
919.383	12319
919.494	12464
919.604	12665
919.715	12471
919.826	12388
919.936	12490
920.047	12418
920.157	12471
920.267	12631
920.378	12540
920.488	12372
920.598	12620
920.708	12722
920.818	12639
920.928	12578
921.038	12806
921.148	12734
921.258	12395
921.368	12300
921.477	12228
921.587	12266
921.697	12049
921.806	12194
921.916	12152
922.025	11961
922.134	11996
922.244	11863
922.353	11920
922.462	11893
922.571	11748
922.68	11592
922.789	11543
922.898	11581
923.007	11547
923.116	11570
923.224	11566
923.333	11505
923.442	11433
923.55	11421
923.659	11391
923.767	11486
923.876	11356
923.984	11383
924.092	11402
924.201	11379
924.309	11391
924.417	11318
924.525	11296
924.633	11246
924.741	12308
924.849	11128
924.956	11277
925.064	11094
925.172	10991
925.279	11037
925.387	11113
925.494	11166
925.602	11208
925.709	11147
925.816	11094
925.924	11071
926.031	11159
926.138	11064
926.245	11117
926.352	10965
926.459	11174
926.566	11159
926.673	10957
926.779	10915
926.886	10877
926.993	10691
927.099	10615
927.206	10717
927.312	10725
927.419	10847
927.525	10706
927.631	10805
927.737	10729
927.843	10588
927.95	10519
928.056	10523
928.162	10588
928.267	10664
928.373	11223
928.479	10645
928.585	10466
928.69	10508
928.796	10596
928.901	10531
929.007	10322
929.112	10447
929.218	10447
929.323	10390
929.428	10318
929.533	10409
929.638	10329
929.743	10284
929.848	10413
929.953	10344
930.058	10272
930.163	10044
930.267	10093
930.372	10242
930.477	10082
930.581	10268
930.685	10071
930.79	10109
930.894	10010
930.998	9998
931.103	10040
931.207	9747
931.311	9732
931.415	9614
931.519	9435
931.623	9428
