Data from test_V78500241_3593.txt Node
Date: Fri Mar 25 14:58:44 CST 2022
User: usil
Spectrometer: V785-0024
Trigger mode: 0
Integration Time (sec): 4.000000E-1
Scans to average: 1
Nonlinearity correction enabled: false
Boxcar width: 0
Storing dark spectrum: false
XAxis mode: Wavelengths
Number of Pixels in Spectrum: 1024
>>>>>Begin Spectral Data<<<<<
801.071	21819
801.214	21690
801.356	21481
801.499	21477
801.641	21268
801.783	21161
801.926	21256
802.068	21249
802.211	21096
802.353	21013
802.496	20762
802.638	20796
802.78	20689
802.923	20697
803.065	20568
803.208	20575
803.35	20579
803.492	20762
803.635	20777
803.777	20495
803.919	20636
804.061	20941
804.204	20678
804.346	20518
804.488	20469
804.63	20609
804.773	20442
804.915	20465
805.057	20617
805.199	20358
805.341	20473
805.483	20590
805.626	20556
805.768	20370
805.91	20518
806.052	20488
806.194	20374
806.336	20533
806.478	20476
806.62	20495
806.762	20579
806.904	20514
807.046	20868
807.188	20781
807.33	20800
807.472	20819
807.614	20613
807.756	20663
807.898	20686
808.04	20552
808.182	20511
808.324	20549
808.465	20564
808.607	20644
808.749	20800
808.891	20963
809.033	21024
809.174	20853
809.316	20819
809.458	20804
809.6	20769
809.741	20914
809.883	20823
810.025	20899
810.166	20994
810.308	20998
810.45	20929
810.591	20762
810.733	20552
810.875	20636
811.016	20457
811.158	20537
811.299	20613
811.441	20823
811.582	20689
811.724	20541
811.865	20434
812.007	20590
812.148	20594
812.29	20571
812.431	20571
812.573	20845
812.714	21104
812.855	20998
812.997	21241
813.138	21310
813.279	21199
813.421	21150
813.562	20982
813.703	20796
813.845	20701
813.986	20473
814.127	20282
814.268	20180
814.41	20191
814.551	20145
814.692	20271
814.833	20088
814.974	20145
815.115	20050
815.256	20054
815.397	19970
815.539	19978
815.68	19906
815.821	19860
815.962	19951
816.103	19917
816.244	19738
816.385	19727
816.526	19559
816.666	19521
816.807	19304
816.948	19343
817.089	19392
817.23	19430
817.371	19198
817.512	19308
817.653	19236
817.793	19282
817.934	19263
818.075	19255
818.216	19247
818.356	19236
818.497	19206
818.638	18962
818.778	18928
818.919	18966
819.06	19091
819.2	19118
819.341	19259
819.481	19137
819.622	19339
819.762	19457
819.903	19369
820.043	19373
820.184	19350
820.324	19327
820.465	19381
820.605	19187
820.746	19270
820.886	19148
821.026	19244
821.167	19301
821.307	19282
821.447	19263
821.588	19107
821.728	19019
821.868	18779
822.008	18707
822.149	18726
822.289	18650
822.429	18407
822.569	18327
822.709	18311
822.849	18144
822.99	18209
823.13	18098
823.27	18285
823.41	17965
823.55	18045
823.69	18053
823.83	18076
823.97	17824
824.11	17786
824.25	17634
824.389	17786
824.529	17821
824.669	17745
824.809	17961
824.949	17771
825.089	17756
825.228	17779
825.368	17570
825.508	17509
825.648	17627
825.787	17615
825.927	17551
826.067	17501
826.206	17406
826.346	17524
826.485	17478
826.625	17573
826.765	17646
826.904	17581
827.044	17356
827.183	17227
827.323	17250
827.462	17277
827.601	17223
827.741	17132
827.88	17376
828.02	17155
828.159	17193
828.298	17208
828.437	17292
828.577	17193
828.716	17383
828.855	17235
828.994	17094
829.134	16984
829.273	16987
829.412	16942
829.551	16873
829.69	16980
829.829	17022
829.968	17025
830.107	17086
830.246	16984
830.385	16991
830.524	16892
830.663	16740
830.802	16725
830.941	16702
831.08	16607
831.219	16687
831.357	16687
831.496	16869
831.635	16596
831.774	16519
831.913	16554
832.051	16386
832.19	16398
832.329	16516
832.467	16291
832.606	16238
832.744	16242
832.883	16253
833.022	16253
833.16	16306
833.299	16287
833.437	16318
833.576	16375
833.714	16230
833.852	16394
833.991	16459
834.129	16497
834.267	16417
834.406	16386
834.544	16379
834.682	16394
834.821	16394
834.959	16599
835.097	16390
835.235	16459
835.373	16382
835.511	16421
835.65	16242
835.788	16234
835.926	16166
836.064	16029
836.202	16105
836.34	16265
836.478	16352
836.615	16268
836.753	16322
836.891	16424
837.029	16310
837.167	16257
837.305	16215
837.443	16192
837.58	16101
837.718	16329
837.856	16196
837.993	16124
838.131	16120
838.269	16044
838.406	16120
838.544	16097
838.681	15895
838.819	15934
838.956	15766
839.094	15599
839.231	15812
839.369	15930
839.506	16051
839.643	16010
839.781	15804
839.918	15705
840.055	15778
840.193	15709
840.33	15641
840.467	15736
840.604	15743
840.742	15895
840.879	15667
841.016	15618
841.153	15584
841.29	15819
841.427	15736
841.564	15766
841.701	15823
841.838	15686
841.975	15728
842.112	15614
842.249	15511
842.385	15545
842.522	15641
842.659	15488
842.796	15458
842.933	15462
843.069	15462
843.206	15420
843.343	15705
843.479	15416
843.616	15545
843.752	15321
843.889	15329
844.025	15428
844.162	15245
844.298	15378
844.435	15332
844.571	15241
844.708	15332
844.844	15496
844.98	15485
845.117	15313
845.253	15241
845.389	15176
845.525	15157
845.661	15233
845.798	15009
845.934	15188
846.07	15009
846.206	15222
846.342	15157
846.478	15085
846.614	14891
846.75	14773
846.886	14861
847.022	14941
847.158	14807
847.294	14891
847.429	15013
847.565	14830
847.701	15047
847.837	14617
847.972	14606
848.108	14621
848.244	14632
848.379	14579
848.515	14526
848.65	14454
848.786	14522
848.921	14473
849.057	14579
849.192	14579
849.328	14579
849.463	14552
849.598	14419
849.734	14404
849.869	14294
850.004	14183
850.14	14244
850.275	14206
850.41	14050
850.545	14206
850.68	14123
850.815	14286
850.95	14358
851.085	14423
851.22	14305
851.355	14324
851.49	14282
851.625	14225
851.76	14199
851.895	14123
852.03	14107
852.165	14172
852.299	14206
852.434	14336
852.569	14240
852.703	14252
852.838	14339
852.973	14454
853.107	14336
853.242	14259
853.376	14126
853.511	14062
853.645	13989
853.78	14286
853.914	14077
854.048	14008
854.183	14050
854.317	14092
854.451	14259
854.585	14081
854.72	14046
854.854	14035
854.988	14065
855.122	14107
855.256	13986
855.39	14096
855.524	14191
855.658	14176
855.792	14119
855.926	14123
856.06	14256
856.194	14191
856.327	14161
856.461	14016
856.595	14065
856.729	14130
856.862	14259
856.996	14157
857.13	14187
857.263	14218
857.397	14199
857.53	14187
857.664	14187
857.797	14225
857.931	14195
858.064	14123
858.197	14195
858.331	14005
858.464	14005
858.597	14039
858.731	14092
858.864	14119
858.997	14043
859.13	14149
859.263	14183
859.396	14172
859.529	14084
859.662	14126
859.795	13989
859.928	14176
860.061	14282
860.194	14237
860.327	14225
860.46	14202
860.592	14195
860.725	14240
860.858	14210
860.99	14031
861.123	14043
861.256	13955
861.388	14142
861.521	14891
861.653	14016
861.786	13951
861.918	13997
862.05	14039
862.183	14084
862.315	14111
862.447	14111
862.58	14046
862.712	13909
862.844	13803
862.976	13940
863.108	13898
863.24	14229
863.372	13833
863.504	13894
863.636	13890
863.768	13936
863.9	13993
864.032	13769
864.164	13875
864.296	13917
864.428	14005
864.559	14005
864.691	14020
864.823	13947
864.954	13925
865.086	13822
865.217	13879
865.349	13795
865.48	13902
865.612	13906
865.743	13982
865.875	13955
866.006	13734
866.137	13883
866.269	13845
866.4	13852
866.531	13818
866.662	13814
866.793	13845
866.924	13795
867.055	13856
867.186	13845
867.317	13898
867.448	13761
867.579	13917
867.71	13883
867.841	13837
867.972	13887
868.103	13868
868.233	13860
868.364	13894
868.495	13875
868.625	14115
868.756	14180
868.886	13955
869.017	14088
869.147	14237
869.278	14286
869.408	14035
869.539	14062
869.669	14172
869.799	14237
869.929	14195
870.06	14233
870.19	14389
870.32	14507
870.45	14499
870.58	14499
870.71	14629
870.84	14610
870.97	14454
871.1	14484
871.23	14716
871.36	14674
871.489	14640
871.619	14663
871.749	14765
871.879	14670
872.008	14765
872.138	14902
872.267	14739
872.397	14602
872.526	14461
872.656	14526
872.785	14545
872.915	14811
873.044	14883
873.173	14701
873.303	14800
873.432	14735
873.561	14845
873.69	14765
873.819	14781
873.948	14906
874.077	14796
874.206	14804
874.335	14731
874.464	14944
874.593	15074
874.722	15020
874.851	15195
874.979	15161
875.108	15112
875.237	15001
875.365	15032
875.494	15116
875.623	15256
875.751	15066
875.88	15157
876.008	15211
876.136	15268
876.265	15652
876.393	15720
876.521	15622
876.65	15709
876.778	15553
876.906	15553
877.034	15405
877.162	15488
877.29	15584
877.418	15488
877.546	15477
877.674	15401
877.802	15481
877.93	15534
878.058	15485
878.185	15355
878.313	15545
878.441	15469
878.568	15340
878.696	15485
878.824	15618
878.951	15614
879.079	15641
879.206	15724
879.333	15599
879.461	15557
879.588	15660
879.715	15641
879.842	15755
879.97	15625
880.097	15382
880.224	15363
880.351	15332
880.478	15279
880.605	15344
880.732	15336
880.859	15553
880.986	15367
881.112	15466
881.239	15188
881.366	15184
881.493	15081
881.619	15020
881.746	15066
881.872	15089
881.999	15005
882.125	14952
882.252	15081
882.378	15081
882.505	15036
882.631	14979
882.757	14796
882.883	14883
883.01	14975
883.136	14739
883.262	14743
883.388	14659
883.514	14853
883.64	14838
883.766	14796
883.892	14701
884.018	14625
884.143	14796
884.269	14891
884.395	14629
884.52	14602
884.646	14484
884.772	14488
884.897	14438
885.023	14533
885.148	14579
885.274	14613
885.399	14632
885.524	14594
885.65	14568
885.775	14602
885.9	14533
886.025	14648
886.15	14594
886.275	14560
886.4	14431
886.525	14530
886.65	14518
886.775	14533
886.9	14659
887.025	14705
887.149	14594
887.274	14381
887.399	14324
887.523	14389
887.648	14351
887.773	14324
887.897	14541
888.021	14488
888.146	14271
888.27	14431
888.395	14522
888.519	14461
888.643	14427
888.767	14438
888.891	14332
889.015	14195
889.139	14290
889.263	14058
889.387	14317
889.511	14423
889.635	14476
889.759	14256
889.883	14195
890.006	14298
890.13	14324
890.254	14210
890.377	14244
890.501	14107
890.624	13986
890.748	14138
890.871	13864
890.995	13921
891.118	13921
891.241	13947
891.364	13917
891.488	13993
891.611	13986
891.734	13936
891.857	13967
891.98	13986
892.103	14065
892.226	14058
892.349	13978
892.471	13807
892.594	13887
892.717	14024
892.839	13959
892.962	14027
893.085	13944
893.207	14008
893.33	13849
893.452	13864
893.575	14031
893.697	13928
893.819	14187
893.941	14149
894.064	14145
894.186	13906
894.308	13906
894.43	14008
894.552	14183
894.674	14157
894.796	13890
894.918	14008
895.04	13986
895.161	14115
895.283	14065
895.405	14008
895.526	13986
895.648	14130
895.769	14065
895.891	14142
896.012	14233
896.134	14259
896.255	14126
896.376	14081
896.498	14191
896.619	14115
896.74	14100
896.861	14164
896.982	14583
897.103	14686
897.224	14419
897.345	14313
897.466	14408
897.587	14358
897.708	14533
897.828	14590
897.949	14415
898.07	14366
898.19	14275
898.311	14511
898.431	14408
898.552	14442
898.672	14461
898.792	14613
898.913	14476
899.033	14476
899.153	14294
899.273	14415
899.393	14343
899.513	14389
899.633	14324
899.753	14301
899.873	14252
899.993	14343
900.113	14240
900.232	14358
900.352	14275
900.472	14176
900.591	14172
900.711	14206
900.83	14111
900.95	14240
901.069	14240
901.189	14164
901.308	13894
901.427	13811
901.546	13928
901.665	13871
901.784	13890
901.904	13734
902.023	13666
902.141	13499
902.26	13438
902.379	13415
902.498	13358
902.617	13312
902.735	13506
902.854	13419
902.973	13384
903.091	13145
903.21	13171
903.328	13156
903.446	13107
903.565	12989
903.683	12993
903.801	12901
903.919	13015
904.038	13008
904.156	12840
904.274	12806
904.392	12863
904.51	12840
904.627	12760
904.745	12852
904.863	12867
904.981	12601
905.098	12540
905.216	12525
905.334	12460
905.451	12422
905.569	12566
905.686	12525
905.803	12506
905.921	12346
906.038	12407
906.155	12429
906.272	12262
906.389	12346
906.506	12136
906.623	12136
906.74	12228
906.857	12003
906.974	11988
907.091	12110
907.208	12232
907.324	12197
907.441	11965
907.557	11863
907.674	11840
907.79	11798
907.907	11828
908.023	11897
908.139	11908
908.256	11794
908.372	11794
908.488	11752
908.604	11646
908.72	11589
908.836	11634
908.952	11570
909.068	11646
909.184	11672
909.3	11775
909.415	11665
909.531	11611
909.647	11471
909.762	11444
909.878	11455
909.993	11421
910.108	11417
910.224	11421
910.339	11383
910.454	11254
910.57	11258
910.685	11143
910.8	11417
910.915	11425
911.03	11265
911.145	11216
911.259	11166
911.374	11094
911.489	11048
911.604	10984
911.718	10934
911.833	10850
911.947	10793
912.062	10725
912.176	10820
912.291	10934
912.405	10843
912.519	11014
912.633	11132
912.748	10892
912.862	10919
912.976	10717
913.09	10573
913.204	10668
913.318	10752
913.431	10839
913.545	10816
913.659	10854
913.772	10679
913.886	10641
914	10577
914.113	10698
914.226	10877
914.34	10725
914.453	10481
914.566	10641
914.68	10516
914.793	10573
914.906	10363
915.019	10390
915.132	10325
915.245	10432
915.358	10413
915.47	10447
915.583	10428
915.696	10421
915.809	10565
915.921	10554
916.034	10356
916.146	10318
916.259	10299
916.371	10447
916.483	10344
916.595	10329
916.708	10318
916.82	10318
916.932	10360
917.044	10219
917.156	10261
917.268	10192
917.38	10211
917.491	10230
917.603	10268
917.715	10257
917.826	10363
917.938	10147
918.049	10143
918.161	10242
918.272	10409
918.384	10382
918.495	10192
918.606	10025
918.717	10059
918.828	10177
918.939	10109
919.05	10078
919.161	10013
919.272	9785
919.383	9907
919.494	10074
919.604	10215
919.715	10101
919.826	9968
919.936	10086
920.047	10219
920.157	10055
920.267	10223
920.378	10173
920.488	10112
920.598	10356
920.708	10436
920.818	10348
920.928	10303
921.038	10455
921.148	10398
921.258	10211
921.368	10086
921.477	9941
921.587	9937
921.697	9857
921.806	9903
921.916	9793
922.025	9701
922.134	9690
922.244	9667
922.353	9648
922.462	9606
922.571	9496
922.68	9397
922.789	9306
922.898	9416
923.007	9321
923.116	9443
923.224	9428
923.333	9313
923.442	9256
923.55	9199
923.659	9302
923.767	9291
923.876	9161
923.984	9344
924.092	9138
924.201	9306
924.309	9317
924.417	9291
924.525	9188
924.633	9195
924.741	9922
924.849	8944
924.956	9157
925.064	8975
925.172	8941
925.279	8986
925.387	9020
925.494	9013
925.602	9230
925.709	9066
925.816	8929
925.924	9062
926.031	9119
926.138	9089
926.245	9032
926.352	8990
926.459	9150
926.566	9142
926.673	8979
926.779	8872
926.886	8876
926.993	8716
927.099	8754
927.206	8617
927.312	8785
927.419	8739
927.525	8796
927.631	8743
927.737	8705
927.843	8651
927.95	8503
928.056	8575
928.162	8644
928.267	8697
928.373	9264
928.479	8785
928.585	8530
928.69	8674
928.796	8670
928.901	8560
929.007	8446
929.112	8575
929.218	8480
929.323	8488
929.428	8454
929.533	8663
929.638	8404
929.743	8446
929.848	8549
929.953	8438
930.058	8396
930.163	8263
930.267	8202
930.372	8351
930.477	8275
930.581	8476
930.685	8298
930.79	8107
930.894	8161
930.998	8161
931.103	8290
931.207	7997
931.311	7871
931.415	7818
931.519	7708
931.623	7723
