Data from test_V78500241_773.txt Node
Date: Fri Mar 25 14:39:06 CST 2022
User: usil
Spectrometer: V785-0024
Trigger mode: 0
Integration Time (sec): 4.000000E-1
Scans to average: 1
Nonlinearity correction enabled: false
Boxcar width: 0
Storing dark spectrum: false
XAxis mode: Wavelengths
Number of Pixels in Spectrum: 1024
>>>>>Begin Spectral Data<<<<<
801.071	26864
801.214	26712
801.356	26522
801.499	26324
801.641	26339
801.783	26370
801.926	26077
802.068	26081
802.211	25966
802.353	25951
802.496	25776
802.638	25590
802.78	25734
802.923	25700
803.065	25552
803.208	25601
803.35	25712
803.492	25826
803.635	25822
803.777	25647
803.919	25868
804.061	26138
804.204	25906
804.346	25811
804.488	25841
804.63	25909
804.773	25731
804.915	25875
805.057	26020
805.199	26016
805.341	26183
805.483	26423
805.626	26537
805.768	26351
805.91	26339
806.052	26602
806.194	26629
806.336	26982
806.478	27005
806.62	27256
806.762	27549
806.904	27717
807.046	28367
807.188	28759
807.33	28957
807.472	29589
807.614	30220
807.756	31053
807.898	32138
808.04	33553
808.182	35322
808.324	37947
808.465	40710
808.607	43902
808.749	46637
808.891	48532
809.033	48471
809.174	47018
809.316	44259
809.458	41029
809.6	37662
809.741	35219
809.883	33055
810.025	31605
810.166	30479
810.308	29859
810.45	29299
810.591	28809
810.733	28424
810.875	27743
811.016	27511
811.158	27283
811.299	27230
811.441	27112
811.582	27005
811.724	26750
811.865	26625
812.007	26533
812.148	26495
812.29	26636
812.431	26693
812.573	26712
812.714	26800
812.855	26724
812.997	26781
813.138	26769
813.279	26659
813.421	26533
813.562	26442
813.703	26320
813.845	26183
813.986	25871
814.127	25575
814.268	25430
814.41	25529
814.551	25419
814.692	25445
814.833	25301
814.974	25270
815.115	25236
815.256	25202
815.397	25164
815.539	25072
815.68	25061
815.821	24920
815.962	24939
816.103	24829
816.244	24829
816.385	24521
816.526	24620
816.666	24422
816.807	24232
816.948	24273
817.089	24266
817.23	24232
817.371	24167
817.512	24186
817.653	24095
817.793	24144
817.934	24163
818.075	24117
818.216	24174
818.356	24117
818.497	23950
818.638	23859
818.778	23878
818.919	23802
819.06	23927
819.2	23893
819.341	23965
819.481	24068
819.622	24140
819.762	24342
819.903	24087
820.043	24201
820.184	24022
820.324	24068
820.465	24011
820.605	24034
820.746	24026
820.886	23824
821.026	23916
821.167	23866
821.307	23939
821.447	23771
821.588	23714
821.728	23684
821.868	23395
822.008	23334
822.149	23193
822.289	23140
822.429	23022
822.569	22934
822.709	22877
822.849	22649
822.99	22664
823.13	22679
823.27	22649
823.41	22451
823.55	22348
823.69	22565
823.83	22531
823.97	22310
824.11	22196
824.25	22196
824.389	22295
824.529	22360
824.669	22287
824.809	22459
824.949	22386
825.089	22299
825.228	22261
825.368	22040
825.508	22074
825.648	22029
825.787	22055
825.927	22158
826.067	22006
826.206	21819
826.346	21991
826.485	21994
826.625	21892
826.765	21998
826.904	22040
827.044	21793
827.183	21717
827.323	21580
827.462	21880
827.601	21622
827.741	21614
827.88	21526
828.02	21572
828.159	21660
828.298	21576
828.437	21663
828.577	21622
828.716	21766
828.855	21481
828.994	21348
829.134	21306
829.273	21294
829.412	21302
829.551	21230
829.69	21272
829.829	21367
829.968	21424
830.107	21454
830.246	21325
830.385	21279
830.524	21283
830.663	21176
830.802	21150
830.941	20963
831.08	20990
831.219	21039
831.357	21020
831.496	21192
831.635	20941
831.774	20914
831.913	20785
832.051	20743
832.19	20701
832.329	20826
832.467	20807
832.606	20663
832.744	20811
832.883	20899
833.022	20876
833.16	20956
833.299	21047
833.437	21203
833.576	21367
833.714	21545
833.852	21610
833.991	21663
834.129	21941
834.267	21895
834.406	21720
834.544	21873
834.682	21800
834.821	21462
834.959	21587
835.097	21298
835.235	21287
835.373	21032
835.511	21051
835.65	20845
835.788	20739
835.926	20514
836.064	20473
836.202	20480
836.34	20663
836.478	20636
836.615	20396
836.753	20415
836.891	20579
837.029	20533
837.167	20461
837.305	20450
837.443	20381
837.58	20328
837.718	20377
837.856	20286
837.993	20145
838.131	20225
838.269	20237
838.406	20256
838.544	20054
838.681	20001
838.819	19883
838.956	19917
839.094	19795
839.231	19784
839.369	19841
839.506	19978
839.643	19993
839.781	19757
839.918	19734
840.055	19677
840.193	19811
840.33	19772
840.467	19670
840.604	19670
840.742	19898
840.879	19620
841.016	19632
841.153	19544
841.29	19822
841.427	19723
841.564	19769
841.701	19658
841.838	19681
841.975	19689
842.112	19643
842.249	19605
842.385	19480
842.522	19696
842.659	19563
842.796	19449
842.933	19518
843.069	19438
843.206	19609
843.343	19616
843.479	19548
843.616	19651
843.752	19594
843.889	19430
844.025	19658
844.162	19571
844.298	19753
844.435	19902
844.571	20031
844.708	20412
844.844	20800
844.98	21241
845.117	21736
845.253	22641
845.389	24376
845.525	27736
845.661	33207
845.798	39774
845.934	44754
846.07	46607
846.206	45100
846.342	40729
846.478	34375
846.614	28611
846.75	25107
846.886	22987
847.022	21519
847.158	20693
847.294	20183
847.429	19902
847.565	19693
847.701	19643
847.837	19099
847.972	19027
848.108	18970
848.244	19008
848.379	18760
848.515	18502
848.65	18623
848.786	18525
848.921	18593
849.057	18585
849.192	18620
849.328	18544
849.463	18498
849.598	18403
849.734	18300
849.869	18213
850.004	18155
850.14	18262
850.275	18216
850.41	18098
850.545	18114
850.68	18034
850.815	18091
850.95	18049
851.085	18372
851.22	18186
851.355	18144
851.49	18064
851.625	18022
851.76	18087
851.895	18060
852.03	18125
852.165	18106
852.299	18201
852.434	18232
852.569	18205
852.703	18205
852.838	18330
852.973	18277
853.107	18281
853.242	18258
853.376	18155
853.511	18220
853.645	18087
853.78	18281
853.914	18254
854.048	18338
854.183	18292
854.317	18376
854.451	18547
854.585	18388
854.72	18338
854.854	18403
854.988	18076
855.122	18209
855.256	18068
855.39	18117
855.524	18197
855.658	18235
855.792	18182
855.926	18064
856.06	18171
856.194	18136
856.327	17935
856.461	17958
856.595	17950
856.729	18060
856.862	18133
856.996	18007
857.13	17996
857.263	18068
857.397	17984
857.53	17927
857.664	17939
857.797	18034
857.931	17992
858.064	17999
858.197	18049
858.331	17843
858.464	17790
858.597	17790
858.731	17843
858.864	17809
858.997	17863
859.13	17904
859.263	17863
859.396	17939
859.529	17771
859.662	17733
859.795	17722
859.928	17855
860.061	17859
860.194	17927
860.327	17882
860.46	17699
860.592	17950
860.725	17885
860.858	17992
860.99	17802
861.123	17752
861.256	17741
861.388	17695
861.521	18467
861.653	17630
861.786	17615
861.918	17566
862.05	17767
862.183	17817
862.315	17684
862.447	17786
862.58	17760
862.712	17486
862.844	17505
862.976	17562
863.108	17562
863.24	17942
863.372	17349
863.504	17505
863.636	17554
863.768	17395
863.9	17474
864.032	17372
864.164	17433
864.296	17452
864.428	17528
864.559	17562
864.691	17482
864.823	17596
864.954	17452
865.086	17368
865.217	17474
865.349	17356
865.48	17448
865.612	17452
865.743	17608
865.875	17406
866.006	17421
866.137	17383
866.269	17433
866.4	17387
866.531	17398
866.662	17311
866.793	17330
866.924	17376
867.055	17421
867.186	17372
867.317	17353
867.448	17250
867.579	17334
867.71	17216
867.841	17372
867.972	17425
868.103	17356
868.233	17364
868.364	17379
868.495	17383
868.625	17543
868.756	17672
868.886	17585
869.017	17573
869.147	17779
869.278	17805
869.408	17756
869.539	17638
869.669	17779
869.799	17661
869.929	17851
870.06	17821
870.19	18015
870.32	17969
870.45	18003
870.58	18106
870.71	18235
870.84	18205
870.97	17950
871.1	17965
871.23	18350
871.36	18330
871.489	18273
871.619	18213
871.749	18304
871.879	18452
872.008	18395
872.138	18346
872.267	18315
872.397	18232
872.526	18296
872.656	18254
872.785	18338
872.915	18445
873.044	18570
873.173	18456
873.303	18604
873.432	18540
873.561	18555
873.69	18578
873.819	18681
873.948	18684
874.077	18677
874.206	18639
874.335	18715
874.464	18852
874.593	19065
874.722	18970
874.851	19069
874.979	19232
875.108	19217
875.237	19129
875.365	19095
875.494	19183
875.623	19316
875.751	19232
875.88	19301
876.008	19510
876.136	19674
876.265	19909
876.393	20164
876.521	20088
876.65	20096
876.778	20183
876.906	20183
877.034	19982
877.162	20244
877.29	20355
877.418	20290
877.546	20533
877.674	20609
877.802	20701
877.93	20788
878.058	20971
878.185	21112
878.313	21458
878.441	21838
878.568	21945
878.696	22641
878.824	23368
878.951	24490
879.079	25997
879.206	27937
879.333	29973
879.461	31487
879.588	32617
879.715	32602
879.842	31814
879.97	29885
880.097	27895
880.224	26320
880.351	25152
880.478	24323
880.605	23760
880.732	23440
880.859	23402
880.986	23056
881.112	22862
881.239	22713
881.366	22607
881.493	22618
881.619	22394
881.746	22557
881.872	22546
881.999	22542
882.125	22557
882.252	22721
882.378	22706
882.505	22885
882.631	22653
882.757	22584
882.883	22577
883.01	22527
883.136	22626
883.262	22481
883.388	22390
883.514	22580
883.64	22405
883.766	22268
883.892	22329
884.018	22466
884.143	22493
884.269	22599
884.395	22295
884.52	22303
884.646	22306
884.772	22188
884.897	22158
885.023	22287
885.148	22322
885.274	22390
885.399	22177
885.524	22021
885.65	21945
885.775	21770
885.9	21766
886.025	21694
886.15	21530
886.275	21104
886.4	21005
886.525	20952
886.65	20804
886.775	20743
886.9	20838
887.025	20754
887.149	20465
887.274	20221
887.399	20103
887.523	20008
887.648	19780
887.773	19826
887.897	19841
888.021	19849
888.146	19670
888.27	19837
888.395	19791
888.519	19594
888.643	19571
888.767	19441
888.891	19282
889.015	19232
889.139	19187
889.263	19118
889.387	19266
889.511	19308
889.635	19122
889.759	19034
889.883	19004
890.006	19046
890.13	19046
890.254	18859
890.377	18787
890.501	18612
890.624	18528
890.748	18658
890.871	18483
890.995	18418
891.118	18319
891.241	18270
891.364	18251
891.488	18369
891.611	18235
891.734	18182
891.857	18292
891.98	18254
892.103	18251
892.226	18213
892.349	18026
892.471	17916
892.594	17988
892.717	18007
892.839	18030
892.962	17901
893.085	18011
893.207	17847
893.33	17684
893.452	17680
893.575	17874
893.697	17775
893.819	17882
893.941	17927
894.064	17805
894.186	17570
894.308	17630
894.43	17687
894.552	17783
894.674	17676
894.796	17528
894.918	17596
895.04	17505
895.161	17680
895.283	17516
895.405	17509
895.526	17528
895.648	17452
895.769	17520
895.891	17497
896.012	17646
896.134	17459
896.255	17448
896.376	17433
896.498	17524
896.619	17516
896.74	17429
896.861	17566
896.982	17733
897.103	17897
897.224	17695
897.345	17634
897.466	17532
897.587	17592
897.708	17737
897.828	17566
897.949	17630
898.07	17486
898.19	17551
898.311	17684
898.431	17592
898.552	17585
898.672	17737
898.792	17718
898.913	17627
899.033	17493
899.153	17448
899.273	17356
899.393	17535
899.513	17455
899.633	17440
899.753	17478
899.873	17376
899.993	17524
900.113	17376
900.232	17379
900.352	17368
900.472	17239
900.591	17189
900.711	17140
900.83	17132
900.95	17349
901.069	17368
901.189	17197
901.308	16934
901.427	16908
901.546	16831
901.665	16805
901.784	16740
901.904	16630
902.023	16531
902.141	16394
902.26	16329
902.379	16299
902.498	16325
902.617	16181
902.735	16272
902.854	16226
902.973	16162
903.091	15812
903.21	15930
903.328	15907
903.446	15899
903.565	15663
903.683	15724
903.801	15660
903.919	15675
904.038	15622
904.156	15603
904.274	15553
904.392	15488
904.51	15454
904.627	15393
904.745	15595
904.863	15515
904.981	15283
905.098	15211
905.216	15104
905.334	15165
905.451	15165
905.569	15104
905.686	15112
905.803	15104
905.921	14963
906.038	15017
906.155	14937
906.272	14864
906.389	14857
906.506	14541
906.623	14674
906.74	14720
906.857	14541
906.974	14526
907.091	14667
907.208	14773
907.324	14625
907.441	14530
907.557	14404
907.674	14476
907.79	14305
907.907	14271
908.023	14336
908.139	14393
908.256	14248
908.372	14267
908.488	14206
908.604	14103
908.72	14088
908.836	14149
908.952	14081
909.068	14183
909.184	14126
909.3	14088
909.415	14157
909.531	14168
909.647	13906
909.762	13974
909.878	13837
909.993	13791
910.108	13890
910.224	13837
910.339	13765
910.454	13704
910.57	13700
910.685	13575
910.8	13947
910.915	13833
911.03	13731
911.145	13521
911.259	13506
911.374	13624
911.489	13457
911.604	13453
911.718	13346
911.833	13255
911.947	13175
912.062	13175
912.176	13168
912.291	13202
912.405	13346
912.519	13468
912.633	13343
912.748	13350
912.862	13129
912.976	13126
913.09	13046
913.204	13091
913.318	13057
913.431	13179
913.545	13091
913.659	13217
913.772	13023
913.886	12932
914	12867
914.113	12958
914.226	13034
914.34	12970
914.453	12928
914.566	13038
914.68	12859
914.793	12878
914.906	12700
915.019	12707
915.132	12601
915.245	12654
915.358	12711
915.47	12665
915.583	12673
915.696	12673
915.809	12817
915.921	12844
916.034	12658
916.146	12642
916.259	12673
916.371	12726
916.483	12612
916.595	12604
916.708	12658
916.82	12646
916.932	12669
917.044	12597
917.156	12563
917.268	12536
917.38	12353
917.491	12460
917.603	12429
917.715	12498
917.826	12578
917.938	12342
918.049	12289
918.161	12399
918.272	12540
918.384	12525
918.495	12281
918.606	12338
918.717	12117
918.828	12220
918.939	12292
919.05	12129
919.161	12220
919.272	12030
919.383	12041
919.494	12201
919.604	12467
919.715	12175
919.826	12106
919.936	12121
920.047	12216
920.157	12201
920.267	12346
920.378	12190
920.488	12163
920.598	12464
920.708	12521
920.818	12346
920.928	12414
921.038	12517
921.148	12445
921.258	12152
921.368	12060
921.477	11954
921.587	11958
921.697	11821
921.806	12045
921.916	11866
922.025	11676
922.134	11653
922.244	11592
922.353	11703
922.462	11463
922.571	11493
922.68	11322
922.789	11299
922.898	11315
923.007	11208
923.116	11307
923.224	11296
923.333	11269
923.442	11159
923.55	11189
923.659	11079
923.767	11227
923.876	11083
923.984	11140
924.092	11052
924.201	11109
924.309	11117
924.417	11071
924.525	11102
924.633	11056
924.741	11821
924.849	10748
924.956	10999
925.064	10831
925.172	10866
925.279	10812
925.387	10854
925.494	10839
925.602	11033
925.709	10816
925.816	10725
925.924	10850
926.031	10900
926.138	10881
926.245	10881
926.352	10752
926.459	10843
926.566	10923
926.673	10702
926.779	10607
926.886	10683
926.993	10519
927.099	10405
927.206	10318
927.312	10337
927.419	10481
927.525	10474
927.631	10523
927.737	10398
927.843	10459
927.95	10238
928.056	10310
928.162	10394
928.267	10398
928.373	10999
928.479	10447
928.585	10249
928.69	10379
928.796	10428
928.901	10169
929.007	10154
929.112	10257
929.218	10223
929.323	10067
929.428	10169
929.533	10303
929.638	10097
929.743	10109
929.848	10261
929.953	10090
930.058	9918
930.163	9888
930.267	9850
930.372	10067
930.477	9857
930.581	10116
930.685	9926
930.79	9823
930.894	9808
930.998	9804
931.103	9934
931.207	9553
931.311	9462
931.415	9378
931.519	9275
931.623	9226
