Data from test_V78500241_2857.txt Node
Date: Fri Mar 25 14:53:36 CST 2022
User: usil
Spectrometer: V785-0024
Trigger mode: 0
Integration Time (sec): 4.000000E-1
Scans to average: 1
Nonlinearity correction enabled: false
Boxcar width: 0
Storing dark spectrum: false
XAxis mode: Wavelengths
Number of Pixels in Spectrum: 1024
>>>>>Begin Spectral Data<<<<<
801.071	22067
801.214	22078
801.356	21842
801.499	21625
801.641	21458
801.783	21496
801.926	21545
802.068	21420
802.211	21325
802.353	21214
802.496	20948
802.638	20811
802.78	20933
802.923	20845
803.065	20750
803.208	20701
803.35	20746
803.492	20804
803.635	20956
803.777	20785
803.919	20796
804.061	21142
804.204	20971
804.346	20705
804.488	20625
804.63	20804
804.773	20632
804.915	20693
805.057	20674
805.199	20579
805.341	20739
805.483	20845
805.626	20720
805.768	20739
805.91	20644
806.052	20701
806.194	20545
806.336	20735
806.478	20613
806.62	20571
806.762	20712
806.904	20842
807.046	21180
807.188	21028
807.33	20899
807.472	21116
807.614	20975
807.756	20944
807.898	20773
808.04	20743
808.182	20716
808.324	20693
808.465	20781
808.607	20933
808.749	21085
808.891	21150
809.033	21321
809.174	21127
809.316	21100
809.458	20971
809.6	21024
809.741	20994
809.883	21104
810.025	21264
810.166	21195
810.308	21199
810.45	21119
810.591	21089
810.733	20960
810.875	20819
811.016	20693
811.158	20655
811.299	20937
811.441	20906
811.582	20876
811.724	20773
811.865	20773
812.007	20765
812.148	20678
812.29	20777
812.431	20948
812.573	21009
812.714	21180
812.855	21340
812.997	21473
813.138	21462
813.279	21428
813.421	21332
813.562	21291
813.703	21039
813.845	21020
813.986	20659
814.127	20446
814.268	20385
814.41	20461
814.551	20374
814.692	20419
814.833	20214
814.974	20313
815.115	20328
815.256	20142
815.397	20195
815.539	20157
815.68	20081
815.821	20115
815.962	20103
816.103	20065
816.244	19963
816.385	19864
816.526	19879
816.666	19647
816.807	19540
816.948	19597
817.089	19624
817.23	19521
817.371	19476
817.512	19506
817.653	19377
817.793	19434
817.934	19460
818.075	19495
818.216	19605
818.356	19518
818.497	19232
818.638	19168
818.778	19190
818.919	19247
819.06	19095
819.2	19422
819.341	19411
819.481	19331
819.622	19495
819.762	19635
819.903	19613
820.043	19483
820.184	19457
820.324	19457
820.465	19601
820.605	19502
820.746	19438
820.886	19407
821.026	19411
821.167	19384
821.307	19434
821.447	19331
821.588	19312
821.728	19171
821.868	19023
822.008	18859
822.149	18776
822.289	18798
822.429	18635
822.569	18601
822.709	18494
822.849	18300
822.99	18315
823.13	18266
823.27	18369
823.41	18178
823.55	18133
823.69	18110
823.83	18140
823.97	18015
824.11	17927
824.25	17863
824.389	17809
824.529	17958
824.669	17874
824.809	18110
824.949	18068
825.089	17965
825.228	17859
825.368	17824
825.508	17691
825.648	17745
825.787	17710
825.927	17680
826.067	17615
826.206	17729
826.346	17745
826.485	17779
826.625	17570
826.765	17851
826.904	17714
827.044	17452
827.183	17520
827.323	17433
827.462	17486
827.601	17402
827.741	17459
827.88	17421
828.02	17425
828.159	17387
828.298	17356
828.437	17459
828.577	17360
828.716	17452
828.855	17356
828.994	17159
829.134	17143
829.273	17166
829.412	17105
829.551	17014
829.69	17178
829.829	17140
829.968	17178
830.107	17246
830.246	17231
830.385	17143
830.524	17025
830.663	17045
830.802	16854
830.941	16771
831.08	16797
831.219	16908
831.357	16866
831.496	17060
831.635	16847
831.774	16588
831.913	16611
832.051	16603
832.19	16561
832.329	16675
832.467	16527
832.606	16417
832.744	16497
832.883	16405
833.022	16390
833.16	16432
833.299	16558
833.437	16603
833.576	16584
833.714	16519
833.852	16535
833.991	16599
834.129	16687
834.267	16527
834.406	16561
834.544	16637
834.682	16523
834.821	16481
834.959	16668
835.097	16500
835.235	16710
835.373	16615
835.511	16538
835.65	16519
835.788	16485
835.926	16280
836.064	16200
836.202	16303
836.34	16538
836.478	16588
836.615	16478
836.753	16485
836.891	16573
837.029	16538
837.167	16322
837.305	16238
837.443	16329
837.58	16306
837.718	16417
837.856	16322
837.993	16215
838.131	16360
838.269	16181
838.406	16306
838.544	16185
838.681	16086
838.819	16029
838.956	15884
839.094	15838
839.231	15915
839.369	16017
839.506	16284
839.643	16154
839.781	15911
839.918	15724
840.055	15892
840.193	15797
840.33	15899
840.467	15903
840.604	15766
840.742	16139
840.879	15709
841.016	15694
841.153	15709
841.29	15895
841.427	15873
841.564	15895
841.701	15819
841.838	15918
841.975	15819
842.112	15770
842.249	15633
842.385	15580
842.522	15808
842.659	15686
842.796	15633
842.933	15656
843.069	15622
843.206	15519
843.343	15717
843.479	15671
843.616	15625
843.752	15424
843.889	15405
844.025	15523
844.162	15431
844.298	15534
844.435	15412
844.571	15294
844.708	15488
844.844	15580
844.98	15625
845.117	15507
845.253	15325
845.389	15340
845.525	15283
845.661	15367
845.798	15252
845.934	15355
846.07	15203
846.206	15222
846.342	15317
846.478	15249
846.614	15097
846.75	15032
846.886	14967
847.022	15154
847.158	14975
847.294	15119
847.429	15036
847.565	15017
847.701	15150
847.837	14727
847.972	14701
848.108	14743
848.244	14796
848.379	14648
848.515	14617
848.65	14545
848.786	14579
848.921	14579
849.057	14765
849.192	14720
849.328	14629
849.463	14689
849.598	14507
849.734	14484
849.869	14412
850.004	14343
850.14	14427
850.275	14385
850.41	14305
850.545	14187
850.68	14336
850.815	14366
850.95	14324
851.085	14499
851.22	14442
851.355	14415
851.49	14457
851.625	14324
851.76	14271
851.895	14275
852.03	14317
852.165	14324
852.299	14366
852.434	14469
852.569	14415
852.703	14328
852.838	14465
852.973	14545
853.107	14579
853.242	14324
853.376	14183
853.511	14134
853.645	14168
853.78	14328
853.914	14240
854.048	14244
854.183	14164
854.317	14229
854.451	14374
854.585	14191
854.72	14191
854.854	14294
854.988	14164
855.122	14237
855.256	14084
855.39	14225
855.524	14320
855.658	14259
855.792	14320
855.926	14271
856.06	14317
856.194	14339
856.327	14252
856.461	14191
856.595	14206
856.729	14161
856.862	14339
856.996	14191
857.13	14393
857.263	14374
857.397	14366
857.53	14218
857.664	14263
857.797	14267
857.931	14381
858.064	14210
858.197	14408
858.331	14206
858.464	14157
858.597	14100
858.731	14282
858.864	14271
858.997	14187
859.13	14206
859.263	14237
859.396	14267
859.529	14221
859.662	14229
859.795	14145
859.928	14248
860.061	14438
860.194	14408
860.327	14320
860.46	14210
860.592	14298
860.725	14256
860.858	14343
860.99	14267
861.123	14271
861.256	14145
861.388	14221
861.521	14796
861.653	14081
861.786	14005
861.918	14119
862.05	14199
862.183	14240
862.315	14259
862.447	14275
862.58	14134
862.712	14039
862.844	13963
862.976	14126
863.108	14046
863.24	14484
863.372	13978
863.504	13978
863.636	13967
863.768	14058
863.9	14084
864.032	13997
864.164	13921
864.296	13989
864.428	14096
864.559	14031
864.691	14119
864.823	14065
864.954	14065
865.086	14024
865.217	14046
865.349	13906
865.48	13970
865.612	14001
865.743	14115
865.875	14027
866.006	13967
866.137	14024
866.269	13898
866.4	13955
866.531	13940
866.662	13856
866.793	13951
866.924	13970
867.055	13986
867.186	13936
867.317	13944
867.448	13883
867.579	13917
867.71	13940
867.841	13887
867.972	14050
868.103	13993
868.233	14062
868.364	13974
868.495	14069
868.625	14221
868.756	14324
868.886	14168
869.017	14259
869.147	14290
869.278	14396
869.408	14221
869.539	14218
869.669	14347
869.799	14355
869.929	14393
870.06	14457
870.19	14514
870.32	14613
870.45	14625
870.58	14549
870.71	14674
870.84	14769
870.97	14648
871.1	14541
871.23	14918
871.36	14883
871.489	14746
871.619	14769
871.749	14887
871.879	14804
872.008	14982
872.138	14864
872.267	14876
872.397	14689
872.526	14610
872.656	14590
872.785	14716
872.915	14883
873.044	14834
873.173	14937
873.303	14921
873.432	14876
873.561	15009
873.69	14952
873.819	14861
873.948	14960
874.077	14861
874.206	14815
874.335	14823
874.464	15070
874.593	15085
874.722	15123
874.851	15256
874.979	15135
875.108	15294
875.237	15127
875.365	15150
875.494	15154
875.623	15268
875.751	15142
875.88	15306
876.008	15492
876.136	15458
876.265	15694
876.393	15675
876.521	15709
876.65	15629
876.778	15644
876.906	15606
877.034	15584
877.162	15625
877.29	15519
877.418	15690
877.546	15595
877.674	15652
877.802	15576
877.93	15618
878.058	15637
878.185	15515
878.313	15572
878.441	15603
878.568	15454
878.696	15542
878.824	15675
878.951	15698
879.079	15808
879.206	15888
879.333	15857
879.461	15682
879.588	15701
879.715	15762
879.842	15903
879.97	15694
880.097	15504
880.224	15420
880.351	15458
880.478	15500
880.605	15351
880.732	15447
880.859	15648
880.986	15447
881.112	15450
881.239	15348
881.366	15207
881.493	15211
881.619	15157
881.746	15306
881.872	15165
881.999	15142
882.125	15127
882.252	15192
882.378	15161
882.505	15207
882.631	15051
882.757	14956
882.883	14948
883.01	14891
883.136	14933
883.262	14834
883.388	14857
883.514	14918
883.64	15020
883.766	14876
883.892	14807
884.018	14883
884.143	14937
884.269	14944
884.395	14693
884.52	14632
884.646	14625
884.772	14632
884.897	14598
885.023	14644
885.148	14724
885.274	14727
885.399	14689
885.524	14648
885.65	14716
885.775	14617
885.9	14617
886.025	14727
886.15	14697
886.275	14625
886.4	14575
886.525	14663
886.65	14606
886.775	14545
886.9	14781
887.025	14891
887.149	14674
887.274	14537
887.399	14377
887.523	14469
887.648	14473
887.773	14408
887.897	14530
888.021	14522
888.146	14389
888.27	14522
888.395	14659
888.519	14511
888.643	14476
888.767	14549
888.891	14389
889.015	14434
889.139	14347
889.263	14332
889.387	14446
889.511	14431
889.635	14427
889.759	14328
889.883	14385
890.006	14389
890.13	14442
890.254	14282
890.377	14221
890.501	14161
890.624	14096
890.748	14225
890.871	14123
890.995	13967
891.118	13940
891.241	14031
891.364	13997
891.488	14161
891.611	14065
891.734	13970
891.857	14183
891.98	14115
892.103	14103
892.226	14065
892.349	14157
892.471	13906
892.594	14035
892.717	14130
892.839	14020
892.962	14054
893.085	14130
893.207	14016
893.33	13959
893.452	13989
893.575	14145
893.697	14069
893.819	14145
893.941	14237
894.064	14183
894.186	14035
894.308	14077
894.43	14149
894.552	14263
894.674	14233
894.796	14001
894.918	14115
895.04	14062
895.161	14149
895.283	14221
895.405	14077
895.526	14202
895.648	14244
895.769	14199
895.891	14221
896.012	14237
896.134	14218
896.255	14191
896.376	14240
896.498	14218
896.619	14290
896.74	14328
896.861	14298
896.982	14552
897.103	14670
897.224	14621
897.345	14473
897.466	14396
897.587	14473
897.708	14587
897.828	14625
897.949	14374
898.07	14377
898.19	14434
898.311	14659
898.431	14568
898.552	14514
898.672	14606
898.792	14522
898.913	14708
899.033	14545
899.153	14442
899.273	14263
899.393	14450
899.513	14480
899.633	14396
899.753	14590
899.873	14431
899.993	14469
900.113	14389
900.232	14457
900.352	14415
900.472	14336
900.591	14271
900.711	14317
900.83	14180
900.95	14427
901.069	14343
901.189	14290
901.308	14096
901.427	14046
901.546	13947
901.665	13974
901.784	13959
901.904	13860
902.023	13685
902.141	13578
902.26	13685
902.379	13715
902.498	13499
902.617	13510
902.735	13510
902.854	13559
902.973	13460
903.091	13282
903.21	13304
903.328	13282
903.446	13152
903.565	13133
903.683	13141
903.801	13099
903.919	13145
904.038	13080
904.156	12958
904.274	13065
904.392	12871
904.51	12875
904.627	12951
904.745	13042
904.863	12985
904.981	12711
905.098	12604
905.216	12681
905.334	12738
905.451	12620
905.569	12574
905.686	12703
905.803	12684
905.921	12498
906.038	12502
906.155	12589
906.272	12448
906.389	12426
906.506	12243
906.623	12171
906.74	12224
906.857	12159
906.974	12076
907.091	12353
907.208	12369
907.324	12285
907.441	12148
907.557	12083
907.674	11988
907.79	11893
907.907	12034
908.023	11999
908.139	11901
908.256	11958
908.372	11920
908.488	11927
908.604	11790
908.72	11695
908.836	11718
908.952	11684
909.068	11767
909.184	11813
909.3	11767
909.415	11653
909.531	11794
909.647	11532
909.762	11497
909.878	11478
909.993	11558
910.108	11486
910.224	11486
910.339	11505
910.454	11452
910.57	11349
910.685	11322
910.8	11630
910.915	11630
911.03	11406
911.145	11181
911.259	11258
911.374	11261
911.489	11212
911.604	11075
911.718	11048
911.833	10942
911.947	10854
912.062	10782
912.176	10957
912.291	11022
912.405	11071
912.519	11223
912.633	11280
912.748	11052
912.862	10942
912.976	10873
913.09	10797
913.204	10835
913.318	10786
913.431	10999
913.545	10835
913.659	10938
913.772	10904
913.886	10672
914	10774
914.113	10740
914.226	10873
914.34	10786
914.453	10714
914.566	10797
914.68	10611
914.793	10675
914.906	10493
915.019	10462
915.132	10382
915.245	10516
915.358	10466
915.47	10538
915.583	10542
915.696	10580
915.809	10538
915.921	10542
916.034	10371
916.146	10417
916.259	10500
916.371	10512
916.483	10527
916.595	10390
916.708	10360
916.82	10455
916.932	10382
917.044	10379
917.156	10363
917.268	10242
917.38	10227
917.491	10295
917.603	10337
917.715	10398
917.826	10470
917.938	10268
918.049	10192
918.161	10291
918.272	10428
918.384	10367
918.495	10325
918.606	10227
918.717	10124
918.828	10242
918.939	10177
919.05	10158
919.161	10154
919.272	10010
919.383	10059
919.494	10276
919.604	10440
919.715	10227
919.826	10097
919.936	10207
920.047	10303
920.157	10261
920.267	10356
920.378	10227
920.488	10287
920.598	10386
920.708	10508
920.818	10382
920.928	10371
921.038	10531
921.148	10432
921.258	10276
921.368	10181
921.477	10101
921.587	10097
921.697	9975
921.806	10040
921.916	9964
922.025	9778
922.134	9789
922.244	9743
922.353	9770
922.462	9603
922.571	9523
922.68	9496
922.789	9462
922.898	9439
923.007	9397
923.116	9447
923.224	9424
923.333	9462
923.442	9332
923.55	9329
923.659	9355
923.767	9462
923.876	9272
923.984	9405
924.092	9272
924.201	9382
924.309	9336
924.417	9268
924.525	9283
924.633	9260
924.741	10150
924.849	9108
924.956	9253
925.064	9161
925.172	9074
925.279	9066
925.387	9093
925.494	9112
925.602	9237
925.709	9260
925.816	9020
925.924	9142
926.031	9199
926.138	9222
926.245	9142
926.352	9039
926.459	9142
926.566	9176
926.673	9070
926.779	8994
926.886	8960
926.993	8838
927.099	8842
927.206	8834
927.312	8788
927.419	8883
927.525	8826
927.631	8872
927.737	8823
927.843	8766
927.95	8629
928.056	8731
928.162	8716
928.267	8777
928.373	9313
928.479	8868
928.585	8610
928.69	8746
928.796	8758
928.901	8648
929.007	8484
929.112	8659
929.218	8644
929.323	8556
929.428	8556
929.533	8682
929.638	8495
929.743	8552
929.848	8564
929.953	8552
930.058	8427
930.163	8305
930.267	8347
930.372	8385
930.477	8286
930.581	8507
930.685	8347
930.79	8199
930.894	8279
930.998	8286
931.103	8419
931.207	8046
931.311	7982
931.415	7955
931.519	7807
931.623	7753
