Data from test_V78500241_1036.txt Node
Date: Fri Mar 25 14:40:55 CST 2022
User: usil
Spectrometer: V785-0024
Trigger mode: 0
Integration Time (sec): 4.000000E-1
Scans to average: 1
Nonlinearity correction enabled: false
Boxcar width: 0
Storing dark spectrum: false
XAxis mode: Wavelengths
Number of Pixels in Spectrum: 1024
>>>>>Begin Spectral Data<<<<<
801.071	22812
801.214	22790
801.356	22535
801.499	22478
801.641	22166
801.783	22147
801.926	22287
802.068	22200
802.211	22025
802.353	22006
802.496	21759
802.638	21800
802.78	21713
802.923	21644
803.065	21561
803.208	21557
803.35	21564
803.492	21724
803.635	21755
803.777	21603
803.919	21633
804.061	21987
804.204	21652
804.346	21583
804.488	21515
804.63	21454
804.773	21401
804.915	21576
805.057	21709
805.199	21481
805.341	21618
805.483	21625
805.626	21720
805.768	21485
805.91	21504
806.052	21500
806.194	21511
806.336	21701
806.478	21625
806.62	21618
806.762	21561
806.904	21614
807.046	22006
807.188	21960
807.33	21949
807.472	22013
807.614	21838
807.756	22063
807.898	21907
808.04	21755
808.182	21983
808.324	22101
808.465	22246
808.607	22424
808.749	22710
808.891	22824
809.033	22877
809.174	22717
809.316	22573
809.458	22493
809.6	22204
809.741	22310
809.883	22196
810.025	22341
810.166	22455
810.308	22306
810.45	22162
810.591	22097
810.733	21937
810.875	21842
811.016	21793
811.158	21667
811.299	21873
811.441	21911
811.582	21831
811.724	21698
811.865	21759
812.007	21663
812.148	21701
812.29	21781
812.431	21907
812.573	22036
812.714	22173
812.855	22299
812.997	22398
813.138	22329
813.279	22219
813.421	22344
813.562	22192
813.703	21941
813.845	21994
813.986	21701
814.127	21428
814.268	21450
814.41	21424
814.551	21329
814.692	21287
814.833	21173
814.974	21294
815.115	21397
815.256	21085
815.397	21043
815.539	21066
815.68	20990
815.821	20979
815.962	20975
816.103	20941
816.244	20902
816.385	20773
816.526	20830
816.666	20621
816.807	20488
816.948	20495
817.089	20602
817.23	20400
817.371	20518
817.512	20469
817.653	20530
817.793	20446
817.934	20412
818.075	20427
818.216	20545
818.356	20507
818.497	20317
818.638	20107
818.778	20199
818.919	20153
819.06	20176
819.2	20278
819.341	20313
819.481	20259
819.622	20412
819.762	20537
819.903	20499
820.043	20507
820.184	20408
820.324	20332
820.465	20465
820.605	20336
820.746	20461
820.886	20317
821.026	20290
821.167	20427
821.307	20377
821.447	20305
821.588	20202
821.728	20119
821.868	20001
822.008	19776
822.149	19723
822.289	19849
822.429	19620
822.569	19544
822.709	19476
822.849	19316
822.99	19270
823.13	19225
823.27	19244
823.41	19145
823.55	18985
823.69	19160
823.83	19141
823.97	18943
824.11	18859
824.25	18954
824.389	18905
824.529	18932
824.669	18954
824.809	18958
824.949	18867
825.089	18897
825.228	18825
825.368	18669
825.508	18760
825.648	18757
825.787	18806
825.927	18654
826.067	18688
826.206	18692
826.346	18650
826.485	18738
826.625	18597
826.765	18707
826.904	18559
827.044	18418
827.183	18456
827.323	18319
827.462	18384
827.601	18361
827.741	18304
827.88	18361
828.02	18163
828.159	18395
828.298	18426
828.437	18429
828.577	18228
828.716	18426
828.855	18300
828.994	18057
829.134	18106
829.273	18102
829.412	18064
829.551	18053
829.69	18087
829.829	18125
829.968	18247
830.107	18144
830.246	18060
830.385	17996
830.524	18026
830.663	17980
830.802	17847
830.941	17760
831.08	17729
831.219	17882
831.357	17668
831.496	17958
831.635	17661
831.774	17657
831.913	17596
832.051	17630
832.19	17448
832.329	17615
832.467	17490
832.606	17311
832.744	17315
832.883	17433
833.022	17417
833.16	17433
833.299	17493
833.437	17425
833.576	17463
833.714	17421
833.852	17421
833.991	17581
834.129	17493
834.267	17566
834.406	17455
834.544	17501
834.682	17471
834.821	17547
834.959	17539
835.097	17471
835.235	17608
835.373	17512
835.511	17547
835.65	17482
835.788	17345
835.926	17311
836.064	17254
836.202	17086
836.34	17368
836.478	17360
836.615	17402
836.753	17303
836.891	17448
837.029	17398
837.167	17273
837.305	17216
837.443	17197
837.58	17064
837.718	17231
837.856	17231
837.993	17105
838.131	17178
838.269	17162
838.406	17258
838.544	17143
838.681	16908
838.819	16942
838.956	16744
839.094	16831
839.231	16763
839.369	16904
839.506	17261
839.643	16881
839.781	16824
839.918	16805
840.055	16809
840.193	16656
840.33	16744
840.467	16850
840.604	16740
840.742	16930
840.879	16622
841.016	16702
841.153	16698
841.29	16877
841.427	16908
841.564	16759
841.701	16774
841.838	16618
841.975	16641
842.112	16637
842.249	16565
842.385	16558
842.522	16733
842.659	16592
842.796	16519
842.933	16516
843.069	16485
843.206	16485
843.343	16588
843.479	16558
843.616	16558
843.752	16421
843.889	16284
844.025	16470
844.162	16249
844.298	16386
844.435	16303
844.571	16135
844.708	16402
844.844	16531
844.98	16497
845.117	16527
845.253	16455
845.389	16284
845.525	16493
845.661	16645
845.798	16816
845.934	16980
846.07	17079
846.206	17041
846.342	16957
846.478	16645
846.614	16253
846.75	16055
846.886	15987
847.022	16150
847.158	15979
847.294	15964
847.429	15983
847.565	15827
847.701	16112
847.837	15667
847.972	15618
848.108	15743
848.244	15622
848.379	15564
848.515	15428
848.65	15454
848.786	15553
848.921	15431
849.057	15519
849.192	15614
849.328	15496
849.463	15492
849.598	15439
849.734	15241
849.869	15321
850.004	15203
850.14	15302
850.275	15245
850.41	15252
850.545	15055
850.68	15256
850.815	15222
850.95	15146
851.085	15363
851.22	15348
851.355	15207
851.49	15135
851.625	15325
851.76	15127
851.895	15112
852.03	15074
852.165	15180
852.299	15344
852.434	15256
852.569	15279
852.703	15283
852.838	15431
852.973	15443
853.107	15355
853.242	15104
853.376	15161
853.511	14925
853.645	15074
853.78	15245
853.914	15211
854.048	15085
854.183	15100
854.317	15146
854.451	15291
854.585	15047
854.72	14990
854.854	15131
854.988	14899
855.122	15001
855.256	14990
855.39	15154
855.524	15176
855.658	15108
855.792	15077
855.926	15142
856.06	15032
856.194	15245
856.327	15104
856.461	14941
856.595	15066
856.729	15085
856.862	15161
856.996	15085
857.13	15116
857.263	15154
857.397	15272
857.53	15020
857.664	15135
857.797	15203
857.931	15344
858.064	15108
858.197	15138
858.331	15108
858.464	15024
858.597	14857
858.731	15013
858.864	15039
858.997	15020
859.13	15070
859.263	15104
859.396	15150
859.529	15001
859.662	15081
859.795	15024
859.928	15051
860.061	15233
860.194	15329
860.327	15161
860.46	15051
860.592	15199
860.725	15237
860.858	15211
860.99	15108
861.123	15055
861.256	14952
861.388	15043
861.521	15759
861.653	14925
861.786	14975
861.918	14895
862.05	14944
862.183	15066
862.315	15028
862.447	15119
862.58	14963
862.712	14781
862.844	14804
862.976	14819
863.108	14853
863.24	15294
863.372	14724
863.504	14785
863.636	14826
863.768	14842
863.9	14807
864.032	14735
864.164	14845
864.296	14876
864.428	15032
864.559	15020
864.691	14857
864.823	14895
864.954	14819
865.086	14838
865.217	14849
865.349	14621
865.48	14758
865.612	14887
865.743	14994
865.875	14853
866.006	14765
866.137	14819
866.269	14857
866.4	14792
866.531	14830
866.662	14804
866.793	14670
866.924	14807
867.055	14785
867.186	14762
867.317	14826
867.448	14632
867.579	14758
867.71	14686
867.841	14754
867.972	14773
868.103	14842
868.233	14857
868.364	14861
868.495	14883
868.625	14979
868.756	15207
868.886	14910
869.017	14986
869.147	15180
869.278	15173
869.408	15066
869.539	14952
869.669	15188
869.799	15108
869.929	15123
870.06	15211
870.19	15382
870.32	15359
870.45	15424
870.58	15504
870.71	15572
870.84	15572
870.97	15481
871.1	15412
871.23	15720
871.36	15667
871.489	15477
871.619	15622
871.749	15641
871.879	15629
872.008	15774
872.138	15656
872.267	15625
872.397	15557
872.526	15447
872.656	15435
872.785	15500
872.915	15701
873.044	15751
873.173	15698
873.303	15785
873.432	15701
873.561	15747
873.69	15690
873.819	15694
873.948	15808
874.077	15667
874.206	15545
874.335	15720
874.464	15789
874.593	15960
874.722	15934
874.851	16044
874.979	16074
875.108	16063
875.237	15918
875.365	15850
875.494	15994
875.623	16158
875.751	15987
875.88	16013
876.008	16105
876.136	16150
876.265	16341
876.393	16580
876.521	16538
876.65	16504
876.778	16436
876.906	16421
877.034	16363
877.162	16558
877.29	16356
877.418	16409
877.546	16504
877.674	16424
877.802	16527
877.93	16462
878.058	16436
878.185	16360
878.313	16573
878.441	16573
878.568	16405
878.696	16470
878.824	16512
878.951	16653
879.079	16908
879.206	17109
879.333	16961
879.461	16816
879.588	17060
879.715	17151
879.842	17124
879.97	16793
880.097	16588
880.224	16504
880.351	16519
880.478	16455
880.605	16443
880.732	16356
880.859	16584
880.986	16493
881.112	16329
881.239	16325
881.366	16112
881.493	16040
881.619	15994
881.746	16048
881.872	16082
881.999	16036
882.125	16013
882.252	16048
882.378	16093
882.505	16158
882.631	15899
882.757	15869
882.883	15873
883.01	15907
883.136	15751
883.262	15762
883.388	15766
883.514	15953
883.64	15907
883.766	15755
883.892	15580
884.018	15720
884.143	15838
884.269	15903
884.395	15584
884.52	15500
884.646	15580
884.772	15481
884.897	15386
885.023	15507
885.148	15675
885.274	15671
885.399	15614
885.524	15538
885.65	15545
885.775	15580
885.9	15553
886.025	15698
886.15	15519
886.275	15416
886.4	15378
886.525	15496
886.65	15412
886.775	15325
886.9	15591
887.025	15724
887.149	15519
887.274	15310
887.399	15272
887.523	15211
887.648	15157
887.773	15294
887.897	15272
888.021	15397
888.146	15310
888.27	15439
888.395	15469
888.519	15351
888.643	15340
888.767	15291
888.891	15237
889.015	15135
889.139	15176
889.263	15176
889.387	15256
889.511	15283
889.635	15203
889.759	15119
889.883	15074
890.006	15146
890.13	15283
890.254	15032
890.377	15043
890.501	14887
890.624	14857
890.748	14956
890.871	14868
890.995	14708
891.118	14792
891.241	14838
891.364	14731
891.488	14811
891.611	14819
891.734	14834
891.857	14811
891.98	14868
892.103	14861
892.226	14845
892.349	14762
892.471	14640
892.594	14826
892.717	14830
892.839	14693
892.962	14758
893.085	14933
893.207	14788
893.33	14556
893.452	14674
893.575	14792
893.697	14796
893.819	15001
893.941	14937
894.064	14876
894.186	14697
894.308	14746
894.43	14910
894.552	15081
894.674	14876
894.796	14701
894.918	14861
895.04	14777
895.161	14933
895.283	14872
895.405	14762
895.526	14902
895.648	14929
895.769	14868
895.891	14864
896.012	14941
896.134	14906
896.255	14941
896.376	14891
896.498	14937
896.619	14982
896.74	15005
896.861	15028
896.982	15294
897.103	15443
897.224	15226
897.345	15214
897.466	15157
897.587	15161
897.708	15359
897.828	15279
897.949	15135
898.07	15051
898.19	15108
898.311	15401
898.431	15184
898.552	15321
898.672	15332
898.792	15386
898.913	15298
899.033	15161
899.153	15108
899.273	15017
899.393	15093
899.513	15230
899.633	15070
899.753	15123
899.873	15138
899.993	15260
900.113	15051
900.232	15116
900.352	15047
900.472	15013
900.591	14979
900.711	15028
900.83	15028
900.95	15211
901.069	15116
901.189	15009
901.308	14731
901.427	14682
901.546	14758
901.665	14765
901.784	14701
901.904	14625
902.023	14541
902.141	14294
902.26	14225
902.379	14347
902.498	14233
902.617	14145
902.735	14244
902.854	14218
902.973	14096
903.091	13963
903.21	13913
903.328	13978
903.446	13925
903.565	13795
903.683	13826
903.801	13734
903.919	13772
904.038	13833
904.156	13704
904.274	13552
904.392	13636
904.51	13639
904.627	13624
904.745	13620
904.863	13655
904.981	13441
905.098	13293
905.216	13289
905.334	13304
905.451	13240
905.569	13240
905.686	13320
905.803	13289
905.921	13008
906.038	13198
906.155	13110
906.272	12996
906.389	13034
906.506	12909
906.623	12825
906.74	12814
906.857	12741
906.974	12745
907.091	12932
907.208	13038
907.324	12863
907.441	12825
907.557	12635
907.674	12623
907.79	12551
907.907	12589
908.023	12566
908.139	12585
908.256	12559
908.372	12494
908.488	12498
908.604	12414
908.72	12285
908.836	12418
908.952	12342
909.068	12296
909.184	12441
909.3	12361
909.415	12452
909.531	12273
909.647	12136
909.762	12133
909.878	12076
909.993	12232
910.108	12144
910.224	12041
910.339	12121
910.454	11958
910.57	11889
910.685	11961
910.8	12273
910.915	12133
911.03	11939
911.145	11813
911.259	11733
911.374	11855
911.489	11741
911.604	11604
911.718	11551
911.833	11585
911.947	11486
912.062	11391
912.176	11570
912.291	11589
912.405	11539
912.519	11714
912.633	11760
912.748	11577
912.862	11558
912.976	11414
913.09	11239
913.204	11356
913.318	11444
913.431	11493
913.545	11440
913.659	11528
913.772	11395
913.886	11330
914	11246
914.113	11296
914.226	11391
914.34	11383
914.453	11204
914.566	11303
914.68	11212
914.793	11216
914.906	11033
915.019	11010
915.132	10904
915.245	11029
915.358	10995
915.47	11010
915.583	11090
915.696	11025
915.809	11162
915.921	11216
916.034	10980
916.146	10961
916.259	10991
916.371	11048
916.483	11014
916.595	10965
916.708	10923
916.82	10900
916.932	10965
917.044	10953
917.156	10869
917.268	10774
917.38	10877
917.491	10869
917.603	10908
917.715	10942
917.826	10908
917.938	10740
918.049	10744
918.161	10759
918.272	10889
918.384	10995
918.495	10843
918.606	10710
918.717	10607
918.828	10725
918.939	10698
919.05	10615
919.161	10710
919.272	10455
919.383	10516
919.494	10740
919.604	10953
919.715	10740
919.826	10584
919.936	10687
920.047	10721
920.157	10694
920.267	10896
920.378	10740
920.488	10622
920.598	10824
920.708	11010
920.818	10843
920.928	10919
921.038	11086
921.148	11022
921.258	10714
921.368	10660
921.477	10630
921.587	10538
921.697	10432
921.806	10584
921.916	10375
922.025	10246
922.134	10249
922.244	10207
922.353	10291
922.462	10120
922.571	10002
922.68	9911
922.789	9964
922.898	9888
923.007	9907
923.116	9975
923.224	9934
923.333	9884
923.442	9842
923.55	9850
923.659	9850
923.767	9907
923.876	9793
923.984	9827
924.092	9751
924.201	9755
924.309	9778
924.417	9755
924.525	9755
924.633	9781
924.741	10660
924.849	9526
924.956	9686
925.064	9447
925.172	9485
925.279	9473
925.387	9587
925.494	9572
925.602	9679
925.709	9618
925.816	9462
925.924	9545
926.031	9641
926.138	9549
926.245	9561
926.352	9454
926.459	9610
926.566	9698
926.673	9481
926.779	9428
926.886	9458
926.993	9298
927.099	9275
927.206	9245
927.312	9195
927.419	9374
927.525	9275
927.631	9336
927.737	9173
927.843	9131
927.95	9077
928.056	9127
928.162	9203
928.267	9253
928.373	9774
928.479	9226
928.585	9009
928.69	9154
928.796	9150
928.901	9081
929.007	9039
929.112	9074
929.218	8963
929.323	9001
929.428	8956
929.533	9169
929.638	8864
929.743	8906
929.848	9051
929.953	8967
930.058	8815
930.163	8708
930.267	8674
930.372	8880
930.477	8693
930.581	8880
930.685	8849
930.79	8613
930.894	8708
930.998	8590
931.103	8701
931.207	8423
931.311	8427
931.415	8324
931.519	8206
931.623	8191
