Data from test_V78500241_3113.txt Node
Date: Fri Mar 25 14:55:23 CST 2022
User: usil
Spectrometer: V785-0024
Trigger mode: 0
Integration Time (sec): 4.000000E-1
Scans to average: 1
Nonlinearity correction enabled: false
Boxcar width: 0
Storing dark spectrum: false
XAxis mode: Wavelengths
Number of Pixels in Spectrum: 1024
>>>>>Begin Spectral Data<<<<<
801.071	22040
801.214	21899
801.356	21755
801.499	21656
801.641	21485
801.783	21458
801.926	21447
802.068	21466
802.211	21367
802.353	21207
802.496	21032
802.638	21066
802.78	20933
802.923	20842
803.065	20701
803.208	20758
803.35	20682
803.492	20925
803.635	21020
803.777	20781
803.919	20819
804.061	21116
804.204	20788
804.346	20720
804.488	20686
804.63	20815
804.773	20617
804.915	20613
805.057	20811
805.199	20598
805.341	20724
805.483	20682
805.626	20785
805.768	20564
805.91	20724
806.052	20602
806.194	20533
806.336	20807
806.478	20583
806.62	20545
806.762	20724
806.904	20815
807.046	21100
807.188	20994
807.33	20952
807.472	21062
807.614	20895
807.756	20929
807.898	20788
808.04	20705
808.182	20743
808.324	20796
808.465	20830
808.607	20838
808.749	21135
808.891	21127
809.033	21237
809.174	21062
809.316	21043
809.458	21074
809.6	21036
809.741	21077
809.883	21070
810.025	21070
810.166	21173
810.308	21161
810.45	21169
810.591	21028
810.733	20956
810.875	20834
811.016	20663
811.158	20769
811.299	20952
811.441	21028
811.582	20956
811.724	20674
811.865	20785
812.007	20864
812.148	20800
812.29	20876
812.431	20937
812.573	21222
812.714	21260
812.855	21351
812.997	21462
813.138	21523
813.279	21351
813.421	21272
813.562	21268
813.703	21055
813.845	20971
813.986	20568
814.127	20514
814.268	20374
814.41	20343
814.551	20282
814.692	20408
814.833	20202
814.974	20400
815.115	20339
815.256	20301
815.397	20214
815.539	20157
815.68	20161
815.821	19993
815.962	20092
816.103	20008
816.244	20001
816.385	19738
816.526	19849
816.666	19651
816.807	19419
816.948	19590
817.089	19529
817.23	19624
817.371	19510
817.512	19483
817.653	19392
817.793	19365
817.934	19540
818.075	19419
818.216	19483
818.356	19388
818.497	19304
818.638	19228
818.778	19076
818.919	19187
819.06	19213
819.2	19263
819.341	19381
819.481	19369
819.622	19499
819.762	19578
819.903	19594
820.043	19457
820.184	19480
820.324	19400
820.465	19476
820.605	19403
820.746	19434
820.886	19346
821.026	19324
821.167	19308
821.307	19430
821.447	19343
821.588	19251
821.728	19160
821.868	19027
822.008	18875
822.149	18837
822.289	18890
822.429	18585
822.569	18437
822.709	18521
822.849	18445
822.99	18304
823.13	18399
823.27	18281
823.41	18125
823.55	18106
823.69	18190
823.83	18186
823.97	17939
824.11	17931
824.25	17790
824.389	17920
824.529	18007
824.669	17950
824.809	17992
824.949	17935
825.089	18015
825.228	17889
825.368	17695
825.508	17714
825.648	17726
825.787	17710
825.927	17699
826.067	17589
826.206	17687
826.346	17718
826.485	17726
826.625	17676
826.765	17889
826.904	17767
827.044	17471
827.183	17493
827.323	17360
827.462	17356
827.601	17277
827.741	17459
827.88	17334
828.02	17246
828.159	17429
828.298	17535
828.437	17524
828.577	17296
828.716	17471
828.855	17318
828.994	17200
829.134	17018
829.273	17124
829.412	17140
829.551	17025
829.69	17052
829.829	17045
829.968	17208
830.107	17223
830.246	17269
830.385	17102
830.524	16987
830.663	16961
830.802	16889
830.941	16862
831.08	16740
831.219	16816
831.357	16748
831.496	16881
831.635	16828
831.774	16706
831.913	16641
832.051	16470
832.19	16561
832.329	16615
832.467	16402
832.606	16306
832.744	16436
832.883	16344
833.022	16379
833.16	16436
833.299	16447
833.437	16527
833.576	16481
833.714	16508
833.852	16417
833.991	16440
834.129	16504
834.267	16516
834.406	16348
834.544	16550
834.682	16390
834.821	16485
834.959	16637
835.097	16356
835.235	16584
835.373	16592
835.511	16443
835.65	16405
835.788	16417
835.926	16303
836.064	16177
836.202	16090
836.34	16394
836.478	16405
836.615	16318
836.753	16367
836.891	16459
837.029	16421
837.167	16390
837.305	16303
837.443	16230
837.58	16215
837.718	16207
837.856	16246
837.993	16272
838.131	16348
838.269	16135
838.406	16169
838.544	16051
838.681	15998
838.819	15937
838.956	15823
839.094	15873
839.231	15956
839.369	15888
839.506	16219
839.643	16181
839.781	15884
839.918	15656
840.055	15838
840.193	15857
840.33	15728
840.467	15747
840.604	15717
840.742	16055
840.879	15675
841.016	15739
841.153	15770
841.29	15835
841.427	15800
841.564	15838
841.701	15800
841.838	15774
841.975	15667
842.112	15728
842.249	15591
842.385	15542
842.522	15739
842.659	15587
842.796	15629
842.933	15671
843.069	15591
843.206	15564
843.343	15656
843.479	15591
843.616	15641
843.752	15511
843.889	15336
844.025	15572
844.162	15321
844.298	15458
844.435	15336
844.571	15226
844.708	15435
844.844	15584
844.98	15564
845.117	15424
845.253	15336
845.389	15184
845.525	15268
845.661	15283
845.798	15146
845.934	15195
846.07	15020
846.206	15176
846.342	15218
846.478	15176
846.614	15013
846.75	14864
846.886	14868
847.022	14941
847.158	14918
847.294	14941
847.429	14925
847.565	14834
847.701	15157
847.837	14693
847.972	14705
848.108	14724
848.244	14678
848.379	14556
848.515	14442
848.65	14480
848.786	14511
848.921	14556
849.057	14651
849.192	14518
849.328	14552
849.463	14526
849.598	14526
849.734	14370
849.869	14343
850.004	14336
850.14	14252
850.275	14275
850.41	14233
850.545	14259
850.68	14370
850.815	14301
850.95	14317
851.085	14377
851.22	14370
851.355	14286
851.49	14240
851.625	14157
851.76	14252
851.895	14195
852.03	14183
852.165	14256
852.299	14317
852.434	14282
852.569	14377
852.703	14385
852.838	14374
852.973	14404
853.107	14412
853.242	14275
853.376	14164
853.511	14164
853.645	14142
853.78	14191
853.914	14191
854.048	14126
854.183	14096
854.317	14168
854.451	14286
854.585	14267
854.72	14107
854.854	14256
854.988	14065
855.122	14145
855.256	13982
855.39	14134
855.524	14358
855.658	14164
855.792	14195
855.926	14187
856.06	14187
856.194	14244
856.327	14180
856.461	14126
856.595	14008
856.729	14107
856.862	14271
856.996	14153
857.13	14199
857.263	14233
857.397	14248
857.53	14252
857.664	14305
857.797	14259
857.931	14343
858.064	14103
858.197	14294
858.331	14210
858.464	14172
858.597	14172
858.731	14069
858.864	14168
858.997	14096
859.13	14168
859.263	14267
859.396	14290
859.529	14157
859.662	14206
859.795	14020
859.928	14111
860.061	14332
860.194	14412
860.327	14237
860.46	14092
860.592	14237
860.725	14355
860.858	14286
860.99	14134
861.123	14126
861.256	14138
861.388	14237
861.521	14830
861.653	14043
861.786	14092
861.918	14046
862.05	14115
862.183	14145
862.315	14229
862.447	14252
862.58	14187
862.712	14001
862.844	13978
862.976	14008
863.108	13967
863.24	14210
863.372	13837
863.504	13963
863.636	13894
863.768	13959
863.9	13932
864.032	13906
864.164	13898
864.296	13921
864.428	14035
864.559	14050
864.691	14024
864.823	14001
864.954	13887
865.086	14031
865.217	13940
865.349	13898
865.48	13909
865.612	13982
865.743	14039
865.875	13940
866.006	13871
866.137	14008
866.269	13822
866.4	13944
866.531	13879
866.662	13833
866.793	13868
866.924	13887
867.055	13917
867.186	13978
867.317	13940
867.448	13811
867.579	13788
867.71	13860
867.841	13852
867.972	13906
868.103	13963
868.233	13982
868.364	13909
868.495	14039
868.625	14119
868.756	14183
868.886	14073
869.017	14138
869.147	14221
869.278	14286
869.408	14218
869.539	14191
869.669	14282
869.799	14240
869.929	14328
870.06	14240
870.19	14476
870.32	14431
870.45	14454
870.58	14625
870.71	14705
870.84	14769
870.97	14594
871.1	14594
871.23	14849
871.36	14826
871.489	14682
871.619	14754
871.749	14754
871.879	14807
872.008	14845
872.138	14720
872.267	14895
872.397	14651
872.526	14606
872.656	14682
872.785	14629
872.915	14819
873.044	14887
873.173	14914
873.303	14925
873.432	14864
873.561	14963
873.69	14891
873.819	14902
873.948	14956
874.077	14929
874.206	14807
874.335	14963
874.464	14910
874.593	15138
874.722	15017
874.851	15291
874.979	15188
875.108	15218
875.237	15138
875.365	14998
875.494	15169
875.623	15260
875.751	15089
875.88	15237
876.008	15329
876.136	15332
876.265	15603
876.393	15713
876.521	15755
876.65	15698
876.778	15549
876.906	15591
877.034	15580
877.162	15534
877.29	15545
877.418	15557
877.546	15614
877.674	15622
877.802	15713
877.93	15561
878.058	15564
878.185	15507
878.313	15545
878.441	15648
878.568	15420
878.696	15538
878.824	15652
878.951	15717
879.079	15766
879.206	15781
879.333	15819
879.461	15663
879.588	15701
879.715	15823
879.842	15865
879.97	15614
880.097	15515
880.224	15473
880.351	15447
880.478	15492
880.605	15405
880.732	15515
880.859	15591
880.986	15386
881.112	15542
881.239	15329
881.366	15199
881.493	15169
881.619	15142
881.746	15211
881.872	15112
881.999	15058
882.125	15032
882.252	15085
882.378	15165
882.505	15230
882.631	15169
882.757	14891
882.883	14956
883.01	14937
883.136	14918
883.262	14811
883.388	14750
883.514	14849
883.64	14990
883.766	14834
883.892	14815
884.018	14743
884.143	14899
884.269	14952
884.395	14701
884.52	14522
884.646	14545
884.772	14594
884.897	14564
885.023	14621
885.148	14746
885.274	14785
885.399	14697
885.524	14625
885.65	14648
885.775	14682
885.9	14571
886.025	14777
886.15	14743
886.275	14571
886.4	14575
886.525	14511
886.65	14514
886.775	14549
886.9	14750
887.025	14872
887.149	14602
887.274	14431
887.399	14457
887.523	14408
887.648	14423
887.773	14358
887.897	14549
888.021	14564
888.146	14427
888.27	14560
888.395	14602
888.519	14507
888.643	14541
888.767	14579
888.891	14446
889.015	14328
889.139	14396
889.263	14237
889.387	14473
889.511	14556
889.635	14400
889.759	14309
889.883	14187
890.006	14377
890.13	14499
890.254	14240
890.377	14237
890.501	14115
890.624	14054
890.748	14180
890.871	14088
890.995	13993
891.118	13906
891.241	14027
891.364	14016
891.488	14149
891.611	13959
891.734	14016
891.857	14035
891.98	13963
892.103	14069
892.226	14081
892.349	14024
892.471	13871
892.594	14043
892.717	13963
892.839	14043
892.962	14001
893.085	14077
893.207	14054
893.33	13925
893.452	13982
893.575	14031
893.697	14054
893.819	14077
893.941	14328
894.064	14149
894.186	13970
894.308	13940
894.43	14043
894.552	14275
894.674	14172
894.796	13932
894.918	14027
895.04	14111
895.161	14161
895.283	14161
895.405	14027
895.526	14202
895.648	14168
895.769	14180
895.891	14202
896.012	14210
896.134	14180
896.255	14138
896.376	14210
896.498	14214
896.619	14210
896.74	14298
896.861	14263
896.982	14644
897.103	14644
897.224	14514
897.345	14446
897.466	14339
897.587	14511
897.708	14602
897.828	14492
897.949	14454
898.07	14457
898.19	14507
898.311	14663
898.431	14507
898.552	14571
898.672	14670
898.792	14560
898.913	14610
899.033	14488
899.153	14404
899.273	14343
899.393	14400
899.513	14415
899.633	14511
899.753	14438
899.873	14427
899.993	14503
900.113	14427
900.232	14362
900.352	14355
900.472	14278
900.591	14210
900.711	14252
900.83	14263
900.95	14351
901.069	14431
901.189	14134
901.308	13959
901.427	13917
901.546	13852
901.665	13940
901.784	13928
901.904	13856
902.023	13818
902.141	13624
902.26	13548
902.379	13567
902.498	13563
902.617	13381
902.735	13521
902.854	13502
902.973	13384
903.091	13213
903.21	13266
903.328	13270
903.446	13217
903.565	13091
903.683	13103
903.801	13012
903.919	13099
904.038	13156
904.156	12943
904.274	12973
904.392	12894
904.51	12924
904.627	12863
904.745	12947
904.863	13076
904.981	12703
905.098	12631
905.216	12669
905.334	12601
905.451	12509
905.569	12601
905.686	12578
905.803	12559
905.921	12346
906.038	12570
906.155	12418
906.272	12330
906.389	12258
906.506	12235
906.623	12262
906.74	12182
906.857	12152
906.974	12117
907.091	12232
907.208	12323
907.324	12148
907.441	12079
907.557	11961
907.674	11984
907.79	11916
907.907	11901
908.023	11973
908.139	11946
908.256	11843
908.372	11965
908.488	11863
908.604	11733
908.72	11737
908.836	11752
908.952	11611
909.068	11745
909.184	11756
909.3	11680
909.415	11718
909.531	11779
909.647	11535
909.762	11440
909.878	11474
909.993	11482
910.108	11414
910.224	11345
910.339	11474
910.454	11280
910.57	11265
910.685	11204
910.8	11558
910.915	11497
911.03	11280
911.145	11197
911.259	11201
911.374	11113
911.489	11071
911.604	11064
911.718	10877
911.833	10946
911.947	10759
912.062	10786
912.176	10896
912.291	10968
912.405	10866
912.519	11109
912.633	11136
912.748	11006
912.862	10961
912.976	10801
913.09	10725
913.204	10786
913.318	10763
913.431	10911
913.545	10892
913.659	11003
913.772	10790
913.886	10721
914	10691
914.113	10790
914.226	10850
914.34	10809
914.453	10592
914.566	10744
914.68	10702
914.793	10622
914.906	10398
915.019	10436
915.132	10318
915.245	10413
915.358	10455
915.47	10462
915.583	10440
915.696	10481
915.809	10603
915.921	10577
916.034	10413
916.146	10428
916.259	10413
916.371	10512
916.483	10386
916.595	10291
916.708	10314
916.82	10405
916.932	10394
917.044	10314
917.156	10333
917.268	10200
917.38	10242
917.491	10249
917.603	10181
917.715	10451
917.826	10394
917.938	10238
918.049	10128
918.161	10318
918.272	10329
918.384	10314
918.495	10242
918.606	10173
918.717	10116
918.828	10169
918.939	10166
919.05	10044
919.161	10147
919.272	9941
919.383	10059
919.494	10200
919.604	10379
919.715	10207
919.826	10051
919.936	10135
920.047	10128
920.157	10238
920.267	10409
920.378	10192
920.488	10143
920.598	10344
920.708	10443
920.818	10432
920.928	10413
921.038	10459
921.148	10588
921.258	10150
921.368	10188
921.477	10051
921.587	10036
921.697	9918
921.806	10048
921.916	9873
922.025	9679
922.134	9736
922.244	9648
922.353	9857
922.462	9580
922.571	9526
922.68	9416
922.789	9306
922.898	9439
923.007	9397
923.116	9473
923.224	9344
923.333	9428
923.442	9313
923.55	9237
923.659	9389
923.767	9344
923.876	9161
923.984	9355
924.092	9184
924.201	9279
924.309	9317
924.417	9279
924.525	9230
924.633	9294
924.741	10169
924.849	9093
924.956	9207
925.064	9036
925.172	9039
925.279	9058
925.387	9119
925.494	9058
925.602	9199
925.709	9127
925.816	8963
925.924	9043
926.031	9207
926.138	9089
926.245	9131
926.352	9028
926.459	9131
926.566	9207
926.673	9036
926.779	8914
926.886	8910
926.993	8792
927.099	8735
927.206	8762
927.312	8743
927.419	8880
927.525	8815
927.631	8781
927.737	8712
927.843	8701
927.95	8621
928.056	8678
928.162	8739
928.267	8716
928.373	9195
928.479	8815
928.585	8560
928.69	8697
928.796	8697
928.901	8564
929.007	8503
929.112	8617
929.218	8556
929.323	8579
929.428	8454
929.533	8693
929.638	8461
929.743	8465
929.848	8556
929.953	8530
930.058	8419
930.163	8263
930.267	8256
930.372	8419
930.477	8305
930.581	8541
930.685	8328
930.79	8183
930.894	8256
930.998	8237
931.103	8305
931.207	8012
931.311	8016
931.415	7906
931.519	7704
931.623	7727
