Data from test_V78500241_1121.txt Node
Date: Fri Mar 25 14:41:31 CST 2022
User: usil
Spectrometer: V785-0024
Trigger mode: 0
Integration Time (sec): 4.000000E-1
Scans to average: 1
Nonlinearity correction enabled: false
Boxcar width: 0
Storing dark spectrum: false
XAxis mode: Wavelengths
Number of Pixels in Spectrum: 1024
>>>>>Begin Spectral Data<<<<<
801.071	22599
801.214	22542
801.356	22265
801.499	22181
801.641	21945
801.783	22036
801.926	21960
802.068	21930
802.211	21739
802.353	21804
802.496	21583
802.638	21542
802.78	21500
802.923	21325
803.065	21412
803.208	21272
803.35	21313
803.492	21329
803.635	21511
803.777	21310
803.919	21329
804.061	21587
804.204	21355
804.346	21332
804.488	21226
804.63	21245
804.773	21089
804.915	21298
805.057	21264
805.199	21218
805.341	21313
805.483	21439
805.626	21367
805.768	21146
805.91	21264
806.052	21279
806.194	21165
806.336	21325
806.478	21272
806.62	21165
806.762	21397
806.904	21443
807.046	21633
807.188	21553
807.33	21576
807.472	21667
807.614	21492
807.756	21614
807.898	21606
808.04	21447
808.182	21443
808.324	21530
808.465	21507
808.607	21755
808.749	21941
808.891	22040
809.033	22017
809.174	21892
809.316	21831
809.458	21884
809.6	21778
809.741	21823
809.883	21865
810.025	21968
810.166	21895
810.308	21960
810.45	21869
810.591	21667
810.733	21622
810.875	21473
811.016	21450
811.158	21367
811.299	21622
811.441	21599
811.582	21545
811.724	21447
811.865	21283
812.007	21458
812.148	21450
812.29	21424
812.431	21492
812.573	21755
812.714	21762
812.855	22063
812.997	22128
813.138	22147
813.279	21994
813.421	22074
813.562	21880
813.703	21698
813.845	21572
813.986	21291
814.127	21096
814.268	21150
814.41	21157
814.551	20998
814.692	21112
814.833	20876
814.974	20990
815.115	20925
815.256	20876
815.397	20796
815.539	20735
815.68	20823
815.821	20571
815.962	20693
816.103	20708
816.244	20469
816.385	20427
816.526	20408
816.666	20191
816.807	20195
816.948	20206
817.089	20267
817.23	20164
817.371	20145
817.512	20191
817.653	20111
817.793	19993
817.934	20191
818.075	20157
818.216	20027
818.356	20043
818.497	19909
818.638	19807
818.778	19723
818.919	19772
819.06	19887
819.2	20050
819.341	19947
819.481	19955
819.622	20180
819.762	20256
819.903	20229
820.043	20183
820.184	20176
820.324	20164
820.465	20054
820.605	20145
820.746	20043
820.886	20054
821.026	20088
821.167	19959
821.307	20191
821.447	20039
821.588	19951
821.728	19849
821.868	19696
822.008	19594
822.149	19491
822.289	19525
822.429	19304
822.569	19183
822.709	19202
822.849	18985
822.99	19053
823.13	18973
823.27	18993
823.41	18749
823.55	18825
823.69	18859
823.83	18901
823.97	18844
824.11	18677
824.25	18627
824.389	18585
824.529	18677
824.669	18612
824.809	18779
824.949	18646
825.089	18715
825.228	18623
825.368	18448
825.508	18452
825.648	18460
825.787	18452
825.927	18604
826.067	18380
826.206	18311
826.346	18338
826.485	18517
826.625	18445
826.765	18471
826.904	18441
827.044	18243
827.183	18114
827.323	18148
827.462	18152
827.601	18144
827.741	18190
827.88	18076
828.02	17973
828.159	18019
828.298	18022
828.437	18117
828.577	18068
828.716	18174
828.855	18155
828.994	17927
829.134	17870
829.273	17931
829.412	17832
829.551	17691
829.69	17767
829.829	17946
829.968	17973
830.107	17813
830.246	17992
830.385	17855
830.524	17691
830.663	17646
830.802	17528
830.941	17509
831.08	17429
831.219	17600
831.357	17570
831.496	17638
831.635	17436
831.774	17467
831.913	17436
832.051	17322
832.19	17322
832.329	17250
832.467	17246
832.606	17292
832.744	17189
832.883	17197
833.022	17235
833.16	17235
833.299	17261
833.437	17185
833.576	17181
833.714	17307
833.852	17254
833.991	17250
834.129	17254
834.267	17296
834.406	17212
834.544	17220
834.682	17337
834.821	17326
834.959	17452
835.097	17265
835.235	17326
835.373	17231
835.511	17178
835.65	17185
835.788	17143
835.926	16995
836.064	17048
836.202	16995
836.34	17174
836.478	17117
836.615	17037
836.753	17181
836.891	17265
837.029	17170
837.167	17113
837.305	16942
837.443	17018
837.58	16949
837.718	17052
837.856	17052
837.993	17071
838.131	17014
838.269	17029
838.406	16957
838.544	16793
838.681	16744
838.819	16649
838.956	16504
839.094	16596
839.231	16580
839.369	16752
839.506	16892
839.643	16725
839.781	16550
839.918	16489
840.055	16588
840.193	16565
840.33	16512
840.467	16573
840.604	16554
840.742	16869
840.879	16497
841.016	16402
841.153	16402
841.29	16660
841.427	16535
841.564	16523
841.701	16672
841.838	16565
841.975	16432
842.112	16421
842.249	16356
842.385	16253
842.522	16542
842.659	16348
842.796	16268
842.933	16291
843.069	16246
843.206	16185
843.343	16413
843.479	16306
843.616	16390
843.752	16093
843.889	16055
844.025	16234
844.162	16101
844.298	16200
844.435	16063
844.571	16044
844.708	16204
844.844	16261
844.98	16325
845.117	16280
845.253	16071
845.389	16029
845.525	16177
845.661	16067
845.798	16059
845.934	16242
846.07	16211
846.206	16348
846.342	16265
846.478	16124
846.614	15918
846.75	15713
846.886	15728
847.022	15713
847.158	15648
847.294	15625
847.429	15728
847.565	15534
847.701	15850
847.837	15450
847.972	15401
848.108	15591
848.244	15504
848.379	15321
848.515	15298
848.65	15127
848.786	15302
848.921	15237
849.057	15264
849.192	15389
849.328	15230
849.463	15245
849.598	15252
849.734	15135
849.869	15207
850.004	15123
850.14	15047
850.275	15001
850.41	14929
850.545	14902
850.68	15020
850.815	14986
850.95	14994
851.085	15161
851.22	15039
851.355	14986
851.49	14956
851.625	15017
851.76	15074
851.895	14941
852.03	14960
852.165	14921
852.299	15039
852.434	15131
852.569	15074
852.703	15047
852.838	15062
852.973	15169
853.107	15081
853.242	15043
853.376	14857
853.511	14857
853.645	14902
853.78	15058
853.914	14872
854.048	14853
854.183	14906
854.317	14883
854.451	15058
854.585	14887
854.72	14807
854.854	14933
854.988	14815
855.122	14857
855.256	14648
855.39	14845
855.524	14914
855.658	14979
855.792	14925
855.926	14891
856.06	14891
856.194	14952
856.327	14845
856.461	14857
856.595	14853
856.729	14883
856.862	15024
856.996	14944
857.13	15005
857.263	14986
857.397	14982
857.53	14899
857.664	14956
857.797	14979
857.931	14979
858.064	14861
858.197	15001
858.331	14868
858.464	14823
858.597	14811
858.731	14788
858.864	14762
858.997	14914
859.13	14853
859.263	14891
859.396	14883
859.529	14861
859.662	14842
859.795	14880
859.928	14895
860.061	15024
860.194	15013
860.327	14899
860.46	14910
860.592	15047
860.725	14914
860.858	15013
860.99	14868
861.123	14811
861.256	14819
861.388	14994
861.521	15538
861.653	14815
861.786	14686
861.918	14712
862.05	14731
862.183	14845
862.315	14826
862.447	14944
862.58	14765
862.712	14640
862.844	14568
862.976	14758
863.108	14727
863.24	15097
863.372	14526
863.504	14613
863.636	14617
863.768	14689
863.9	14621
864.032	14552
864.164	14621
864.296	14655
864.428	14727
864.559	14762
864.691	14693
864.823	14724
864.954	14720
865.086	14640
865.217	14571
865.349	14537
865.48	14575
865.612	14606
865.743	14746
865.875	14621
866.006	14594
866.137	14644
866.269	14640
866.4	14560
866.531	14651
866.662	14583
866.793	14495
866.924	14598
867.055	14636
867.186	14629
867.317	14640
867.448	14549
867.579	14518
867.71	14461
867.841	14545
867.972	14644
868.103	14571
868.233	14651
868.364	14724
868.495	14682
868.625	14826
868.756	14952
868.886	14785
869.017	14887
869.147	15036
869.278	15028
869.408	14929
869.539	14815
869.669	14967
869.799	14864
869.929	14998
870.06	14933
870.19	15161
870.32	15207
870.45	15150
870.58	15272
870.71	15359
870.84	15363
870.97	15287
871.1	15199
871.23	15469
871.36	15485
871.489	15275
871.619	15313
871.749	15469
871.879	15504
872.008	15507
872.138	15614
872.267	15382
872.397	15321
872.526	15325
872.656	15287
872.785	15291
872.915	15469
873.044	15633
873.173	15473
873.303	15500
873.432	15557
873.561	15515
873.69	15477
873.819	15458
873.948	15622
874.077	15587
874.206	15511
874.335	15603
874.464	15671
874.593	15797
874.722	15774
874.851	15831
874.979	15842
875.108	15861
875.237	15755
875.365	15747
875.494	15698
875.623	15850
875.751	15812
875.88	15842
876.008	15926
876.136	15991
876.265	16192
876.393	16436
876.521	16363
876.65	16295
876.778	16299
876.906	16116
877.034	16120
877.162	16299
877.29	16124
877.418	16181
877.546	16291
877.674	16291
877.802	16215
877.93	16238
878.058	16158
878.185	16101
878.313	16318
878.441	16306
878.568	16048
878.696	16207
878.824	16417
878.951	16333
879.079	16382
879.206	16618
879.333	16523
879.461	16443
879.588	16493
879.715	16626
879.842	16611
879.97	16436
880.097	16154
880.224	16166
880.351	16139
880.478	16162
880.605	16116
880.732	16124
880.859	16280
880.986	16181
881.112	16169
881.239	15918
881.366	15884
881.493	15781
881.619	15762
881.746	15846
881.872	15842
881.999	15804
882.125	15823
882.252	15911
882.378	15732
882.505	15960
882.631	15713
882.757	15587
882.883	15682
883.01	15576
883.136	15648
883.262	15363
883.388	15523
883.514	15591
883.64	15667
883.766	15504
883.892	15283
884.018	15397
884.143	15580
884.269	15603
884.395	15351
884.52	15268
884.646	15321
884.772	15233
884.897	15169
885.023	15249
885.148	15454
885.274	15424
885.399	15405
885.524	15264
885.65	15184
885.775	15348
885.9	15176
886.025	15370
886.15	15374
886.275	15173
886.4	15203
886.525	15199
886.65	15188
886.775	15184
886.9	15428
887.025	15447
887.149	15249
887.274	15009
887.399	15081
887.523	15127
887.648	14998
887.773	15001
887.897	15176
888.021	15138
888.146	15036
888.27	15165
888.395	15233
888.519	15203
888.643	15005
888.767	15081
888.891	14963
889.015	15009
889.139	14982
889.263	14868
889.387	15074
889.511	15146
889.635	15055
889.759	14971
889.883	15039
890.006	14929
890.13	14914
890.254	14880
890.377	14823
890.501	14842
890.624	14754
890.748	14773
890.871	14579
890.995	14564
891.118	14499
891.241	14667
891.364	14556
891.488	14705
891.611	14590
891.734	14594
891.857	14724
891.98	14678
892.103	14716
892.226	14655
892.349	14590
892.471	14533
892.594	14621
892.717	14613
892.839	14522
892.962	14693
893.085	14629
893.207	14602
893.33	14530
893.452	14396
893.575	14663
893.697	14530
893.819	14686
893.941	14800
894.064	14739
894.186	14655
894.308	14552
894.43	14705
894.552	14750
894.674	14773
894.796	14518
894.918	14712
895.04	14587
895.161	14746
895.283	14564
895.405	14754
895.526	14644
895.648	14785
895.769	14823
895.891	14705
896.012	14895
896.134	14724
896.255	14815
896.376	14670
896.498	14773
896.619	14823
896.74	14750
896.861	14781
896.982	15005
897.103	15207
897.224	15017
897.345	14963
897.466	14963
897.587	14921
897.708	15188
897.828	15089
897.949	15001
898.07	14876
898.19	14933
898.311	15135
898.431	15005
898.552	15104
898.672	15199
898.792	15176
898.913	15089
899.033	15039
899.153	14937
899.273	14811
899.393	14967
899.513	14967
899.633	14872
899.753	14925
899.873	14937
899.993	14952
900.113	14910
900.232	15058
900.352	14895
900.472	14868
900.591	14739
900.711	14807
900.83	14674
900.95	14952
901.069	14883
901.189	14731
901.308	14518
901.427	14492
901.546	14480
901.665	14522
901.784	14594
901.904	14278
902.023	14301
902.141	14157
902.26	13989
902.379	14103
902.498	14016
902.617	13860
902.735	14069
902.854	13993
902.973	13944
903.091	13693
903.21	13807
903.328	13788
903.446	13655
903.565	13643
903.683	13578
903.801	13556
903.919	13548
904.038	13594
904.156	13449
904.274	13472
904.392	13324
904.51	13377
904.627	13346
904.745	13487
904.863	13468
904.981	13194
905.098	13194
905.216	13114
905.334	13080
905.451	13122
905.569	13107
905.686	12993
905.803	13137
905.921	12897
906.038	12977
906.155	12939
906.272	12848
906.389	12840
906.506	12673
906.623	12688
906.74	12642
906.857	12410
906.974	12540
907.091	12787
907.208	12776
907.324	12646
907.441	12551
907.557	12365
907.674	12399
907.79	12399
907.907	12479
908.023	12376
908.139	12422
908.256	12357
908.372	12300
908.488	12235
908.604	12167
908.72	12072
908.836	12167
908.952	12178
909.068	12175
909.184	12228
909.3	12175
909.415	12167
909.531	12254
909.647	12007
909.762	11939
909.878	11920
909.993	11942
910.108	11927
910.224	11950
910.339	11908
910.454	11821
910.57	11802
910.685	11760
910.8	12076
910.915	11904
911.03	11760
911.145	11547
911.259	11627
911.374	11570
911.489	11577
911.604	11452
911.718	11402
911.833	11353
911.947	11254
912.062	11250
912.176	11376
912.291	11296
912.405	11353
912.519	11566
912.633	11592
912.748	11398
912.862	11402
912.976	11189
913.09	11136
913.204	11220
913.318	11265
913.431	11414
913.545	11277
913.659	11402
913.772	11140
913.886	11105
914	11098
914.113	11113
914.226	11277
914.34	11254
914.453	11045
914.566	11113
914.68	11052
914.793	11105
914.906	10858
915.019	10816
915.132	10835
915.245	10862
915.358	10847
915.47	10896
915.583	10877
915.696	10850
915.809	10957
915.921	11037
916.034	10900
916.146	10809
916.259	10801
916.371	10877
916.483	10869
916.595	10687
916.708	10733
916.82	10774
916.932	10782
917.044	10767
917.156	10763
917.268	10626
917.38	10645
917.491	10683
917.603	10618
917.715	10752
917.826	10748
917.938	10702
918.049	10634
918.161	10706
918.272	10820
918.384	10816
918.495	10668
918.606	10523
918.717	10516
918.828	10493
918.939	10584
919.05	10519
919.161	10459
919.272	10375
919.383	10413
919.494	10626
919.604	10774
919.715	10615
919.826	10538
919.936	10565
920.047	10592
920.157	10630
920.267	10820
920.378	10538
920.488	10500
920.598	10744
920.708	10892
920.818	10805
920.928	10812
921.038	10854
921.148	10820
921.258	10516
921.368	10656
921.477	10402
921.587	10356
921.697	10299
921.806	10386
921.916	10299
922.025	10185
922.134	10128
922.244	10036
922.353	10120
922.462	9991
922.571	9983
922.68	9759
922.789	9728
922.898	9781
923.007	9720
923.116	9854
923.224	9789
923.333	9724
923.442	9724
923.55	9667
923.659	9618
923.767	9705
923.876	9622
923.984	9766
924.092	9606
924.201	9614
924.309	9652
924.417	9618
924.525	9599
924.633	9648
924.741	10276
924.849	9416
924.956	9603
925.064	9443
925.172	9279
925.279	9363
925.387	9370
925.494	9431
925.602	9542
925.709	9549
925.816	9374
925.924	9405
926.031	9481
926.138	9458
926.245	9405
926.352	9340
926.459	9447
926.566	9568
926.673	9370
926.779	9283
926.886	9260
926.993	9116
927.099	9104
927.206	9108
927.312	9062
927.419	9192
927.525	9081
927.631	9169
927.737	9081
927.843	8994
927.95	8963
928.056	8990
928.162	9013
928.267	9028
928.373	9675
928.479	9184
928.585	8834
928.69	9081
928.796	9093
928.901	8883
929.007	8727
929.112	8876
929.218	8887
929.323	8872
929.428	8746
929.533	8902
929.638	8826
929.743	8773
929.848	8872
929.953	8781
930.058	8762
930.163	8571
930.267	8655
930.372	8796
930.477	8560
930.581	8853
930.685	8667
930.79	8503
930.894	8556
930.998	8495
931.103	8640
931.207	8305
931.311	8305
931.415	8180
931.519	8046
931.623	8020
