Data from test_V78500241_414.txt Node
Date: Fri Mar 25 14:36:36 CST 2022
User: usil
Spectrometer: V785-0024
Trigger mode: 0
Integration Time (sec): 4.000000E-1
Scans to average: 1
Nonlinearity correction enabled: false
Boxcar width: 0
Storing dark spectrum: false
XAxis mode: Wavelengths
Number of Pixels in Spectrum: 1024
>>>>>Begin Spectral Data<<<<<
801.071	26705
801.214	26587
801.356	26309
801.499	26366
801.641	26084
801.783	26043
801.926	26172
802.068	26058
802.211	26031
802.353	25909
802.496	25666
802.638	25738
802.78	25757
802.923	25578
803.065	25533
803.208	25681
803.35	25601
803.492	25666
803.635	25727
803.777	25628
803.919	25761
804.061	25963
804.204	25727
804.346	25616
804.488	25403
804.63	25548
804.773	25453
804.915	25658
805.057	25780
805.199	25586
805.341	25791
805.483	25700
805.626	25780
805.768	25628
805.91	25723
806.052	25594
806.194	25540
806.336	25856
806.478	25597
806.62	25609
806.762	25662
806.904	25947
807.046	26134
807.188	25928
807.33	26024
807.472	26115
807.614	25955
807.756	25894
807.898	25868
808.04	25811
808.182	25837
808.324	25761
808.465	25788
808.607	25970
808.749	26058
808.891	26187
809.033	26282
809.174	26210
809.316	26039
809.458	26107
809.6	26054
809.741	26145
809.883	26324
810.025	26339
810.166	26294
810.308	26415
810.45	26244
810.591	26301
810.733	26077
810.875	25978
811.016	25890
811.158	25845
811.299	26043
811.441	25970
811.582	26206
811.724	25925
811.865	25947
812.007	25928
812.148	25879
812.29	25883
812.431	26084
812.573	26214
812.714	26358
812.855	26396
812.997	26522
813.138	26625
813.279	26651
813.421	26457
813.562	26415
813.703	26355
813.845	26221
813.986	25788
814.127	25746
814.268	25544
814.41	25514
814.551	25479
814.692	25586
814.833	25445
814.974	25373
815.115	25396
815.256	25346
815.397	25426
815.539	25354
815.68	25259
815.821	25190
815.962	25251
816.103	25228
816.244	25088
816.385	24935
816.526	24837
816.666	24798
816.807	24642
816.948	24692
817.089	24692
817.23	24719
817.371	24544
817.512	24635
817.653	24692
817.793	24700
817.934	24642
818.075	24612
818.216	24532
818.356	24490
818.497	24441
818.638	24418
818.778	24163
818.919	24357
819.06	24281
819.2	24308
819.341	24391
819.481	24490
819.622	24620
819.762	24856
819.903	24627
820.043	24646
820.184	24665
820.324	24719
820.465	24741
820.605	24563
820.746	24639
820.886	24300
821.026	24513
821.167	24555
821.307	24612
821.447	24505
821.588	24460
821.728	24213
821.868	24095
822.008	23977
822.149	23920
822.289	23885
822.429	23726
822.569	23577
822.709	23592
822.849	23398
822.99	23356
823.13	23463
823.27	23360
823.41	23155
823.55	23170
823.69	23250
823.83	23204
823.97	23147
824.11	22972
824.25	22911
824.389	22900
824.529	23083
824.669	23006
824.809	23052
824.949	23048
825.089	23041
825.228	22927
825.368	22809
825.508	22672
825.648	22809
825.787	22915
825.927	22930
826.067	22778
826.206	22805
826.346	22797
826.485	22965
826.625	22755
826.765	22885
826.904	22675
827.044	22554
827.183	22478
827.323	22417
827.462	22493
827.601	22478
827.741	22436
827.88	22481
828.02	22314
828.159	22428
828.298	22462
828.437	22459
828.577	22284
828.716	22569
828.855	22284
828.994	22196
829.134	22150
829.273	22048
829.412	22128
829.551	22162
829.69	21991
829.829	22238
829.968	22310
830.107	22287
830.246	22116
830.385	22025
830.524	22097
830.663	21857
830.802	21857
830.941	21743
831.08	21614
831.219	21812
831.357	21743
831.496	21911
831.635	21595
831.774	21743
831.913	21603
832.051	21450
832.19	21420
832.329	21542
832.467	21389
832.606	21378
832.744	21439
832.883	21355
833.022	21397
833.16	21283
833.299	21393
833.437	21401
833.576	21568
833.714	21268
833.852	21412
833.991	21393
834.129	21466
834.267	21435
834.406	21507
834.544	21374
834.682	21294
834.821	21424
834.959	21477
835.097	21165
835.235	21325
835.373	21428
835.511	21378
835.65	21093
835.788	21233
835.926	20994
836.064	21032
836.202	21081
836.34	21245
836.478	21237
836.615	21222
836.753	21226
836.891	21310
837.029	21313
837.167	21085
837.305	21070
837.443	21260
837.58	21119
837.718	21096
837.856	20990
837.993	20921
838.131	21058
838.269	21013
838.406	20990
838.544	20868
838.681	20667
838.819	20769
838.956	20522
839.094	20575
839.231	20655
839.369	20762
839.506	20929
839.643	20708
839.781	20594
839.918	20480
840.055	20450
840.193	20393
840.33	20442
840.467	20457
840.604	20549
840.742	20743
840.879	20461
841.016	20374
841.153	20305
841.29	20526
841.427	20473
841.564	20377
841.701	20507
841.838	20389
841.975	20339
842.112	20252
842.249	20256
842.385	20020
842.522	20328
842.659	20206
842.796	20096
842.933	20077
843.069	20214
843.206	20218
843.343	20298
843.479	20191
843.616	20126
843.752	19906
843.889	19913
844.025	20020
844.162	19887
844.298	19871
844.435	19845
844.571	19871
844.708	19940
844.844	19982
844.98	20024
845.117	19898
845.253	19799
845.389	19841
845.525	19814
845.661	19788
845.798	19704
845.934	19700
846.07	19788
846.206	19685
846.342	19746
846.478	19742
846.614	19388
846.75	19324
846.886	19369
847.022	19567
847.158	19365
847.294	19415
847.429	19392
847.565	19350
847.701	19563
847.837	19118
847.972	19023
848.108	19164
848.244	19076
848.379	18993
848.515	18935
848.65	18958
848.786	18844
848.921	18989
849.057	18989
849.192	18989
849.328	18951
849.463	19034
849.598	18913
849.734	18703
849.869	18795
850.004	18760
850.14	18688
850.275	18711
850.41	18620
850.545	18570
850.68	18692
850.815	18760
850.95	18688
851.085	18852
851.22	18787
851.355	18741
851.49	18684
851.625	18589
851.76	18673
851.895	18589
852.03	18570
852.165	18635
852.299	18688
852.434	18787
852.569	18597
852.703	18696
852.838	18749
852.973	18802
853.107	18814
853.242	18665
853.376	18604
853.511	18346
853.645	18521
853.78	18540
853.914	18627
854.048	18460
854.183	18464
854.317	18540
854.451	18570
854.585	18429
854.72	18456
854.854	18498
854.988	18407
855.122	18464
855.256	18342
855.39	18437
855.524	18574
855.658	18642
855.792	18506
855.926	18551
856.06	18570
856.194	18582
856.327	18483
856.461	18407
856.595	18471
856.729	18365
856.862	18486
856.996	18532
857.13	18578
857.263	18483
857.397	18570
857.53	18448
857.664	18456
857.797	18509
857.931	18627
858.064	18486
858.197	18559
858.331	18414
858.464	18342
858.597	18361
858.731	18475
858.864	18445
858.997	18418
859.13	18407
859.263	18521
859.396	18388
859.529	18407
859.662	18422
859.795	18376
859.928	18346
860.061	18574
860.194	18547
860.327	18483
860.46	18376
860.592	18433
860.725	18532
860.858	18456
860.99	18464
861.123	18235
861.256	18319
861.388	18486
861.521	19168
861.653	18174
861.786	18216
861.918	18319
862.05	18388
862.183	18456
862.315	18388
862.447	18532
862.58	18395
862.712	18114
862.844	18110
862.976	18228
863.108	18239
863.24	18502
863.372	18159
863.504	18064
863.636	18083
863.768	18178
863.9	18171
864.032	18095
864.164	17961
864.296	18102
864.428	18235
864.559	18182
864.691	18289
864.823	18136
864.954	18239
865.086	18174
865.217	18038
865.349	18072
865.48	18091
865.612	18019
865.743	18197
865.875	18079
866.006	18026
866.137	18026
866.269	18083
866.4	18083
866.531	18057
866.662	17904
866.793	17988
866.924	18034
867.055	18060
867.186	18060
867.317	18060
867.448	17939
867.579	17992
867.71	17840
867.841	17973
867.972	18083
868.103	17977
868.233	18057
868.364	17969
868.495	18125
868.625	18152
868.756	18376
868.886	18254
869.017	18209
869.147	18171
869.278	18270
869.408	18194
869.539	18178
869.669	18384
869.799	18365
869.929	18403
870.06	18254
870.19	18566
870.32	18513
870.45	18582
870.58	18608
870.71	18696
870.84	18757
870.97	18544
871.1	18650
871.23	18814
871.36	18935
871.489	18840
871.619	18814
871.749	18791
871.879	18764
872.008	18882
872.138	18886
872.267	18878
872.397	18677
872.526	18597
872.656	18532
872.785	18658
872.915	18897
873.044	18817
873.173	18833
873.303	18859
873.432	18981
873.561	18962
873.69	18810
873.819	18852
873.948	19023
874.077	18859
874.206	18825
874.335	18897
874.464	18962
874.593	19095
874.722	19080
874.851	19095
874.979	19061
875.108	19202
875.237	19114
875.365	19072
875.494	19175
875.623	19358
875.751	19198
875.88	19217
876.008	19270
876.136	19343
876.265	19514
876.393	19597
876.521	19556
876.65	19788
876.778	19620
876.906	19510
877.034	19525
877.162	19575
877.29	19365
877.418	19468
877.546	19605
877.674	19411
877.802	19457
877.93	19510
878.058	19453
878.185	19422
878.313	19411
878.441	19472
878.568	19438
878.696	19476
878.824	19582
878.951	19658
879.079	19677
879.206	19849
879.333	19624
879.461	19578
879.588	19647
879.715	19689
879.842	19830
879.97	19575
880.097	19400
880.224	19362
880.351	19369
880.478	19354
880.605	19304
880.732	19358
880.859	19590
880.986	19384
881.112	19388
881.239	19324
881.366	19129
881.493	19023
881.619	19000
881.746	19038
881.872	19004
881.999	18996
882.125	18924
882.252	19133
882.378	18977
882.505	19137
882.631	18901
882.757	18722
882.883	18753
883.01	18764
883.136	18776
883.262	18639
883.388	18578
883.514	18764
883.64	18734
883.766	18703
883.892	18570
884.018	18593
884.143	18654
884.269	18810
884.395	18517
884.52	18441
884.646	18494
884.772	18445
884.897	18365
885.023	18395
885.148	18521
885.274	18582
885.399	18532
885.524	18311
885.65	18407
885.775	18593
885.9	18410
886.025	18521
886.15	18391
886.275	18300
886.4	18338
886.525	18178
886.65	18289
886.775	18323
886.9	18597
887.025	18559
887.149	18502
887.274	18277
887.399	18220
887.523	18110
887.648	18167
887.773	18079
887.897	18323
888.021	18224
888.146	18174
888.27	18239
888.395	18167
888.519	18258
888.643	18209
888.767	18247
888.891	18102
889.015	17984
889.139	18041
889.263	17984
889.387	18087
889.511	18228
889.635	18087
889.759	18019
889.883	17973
890.006	18110
890.13	18133
890.254	17996
890.377	17927
890.501	17798
890.624	17718
890.748	17756
890.871	17672
890.995	17566
891.118	17501
891.241	17604
891.364	17646
891.488	17729
891.611	17600
891.734	17551
891.857	17657
891.98	17573
892.103	17691
892.226	17760
892.349	17619
892.471	17482
892.594	17547
892.717	17642
892.839	17551
892.962	17619
893.085	17695
893.207	17543
893.33	17440
893.452	17509
893.575	17562
893.697	17524
893.819	17729
893.941	17707
894.064	17672
894.186	17528
894.308	17547
894.43	17638
894.552	17745
894.674	17520
894.796	17516
894.918	17497
895.04	17547
895.161	17764
895.283	17570
895.405	17440
895.526	17573
895.648	17512
895.769	17619
895.891	17684
896.012	17646
896.134	17668
896.255	17668
896.376	17589
896.498	17649
896.619	17608
896.74	17604
896.861	17786
896.982	17973
897.103	18015
897.224	17969
897.345	17916
897.466	17840
897.587	17889
897.708	18026
897.828	17870
897.949	17874
898.07	17805
898.19	17923
898.311	17885
898.431	17794
898.552	17973
898.672	17973
898.792	17950
898.913	17912
899.033	17760
899.153	17668
899.273	17611
899.393	17718
899.513	17707
899.633	17592
899.753	17775
899.873	17627
899.993	17680
900.113	17661
900.232	17532
900.352	17737
900.472	17493
900.591	17433
900.711	17661
900.83	17429
900.95	17585
901.069	17581
901.189	17459
901.308	17147
901.427	17075
901.546	17075
901.665	17189
901.784	17185
901.904	16987
902.023	16946
902.141	16634
902.26	16622
902.379	16812
902.498	16683
902.617	16523
902.735	16710
902.854	16630
902.973	16538
903.091	16284
903.21	16322
903.328	16329
903.446	16230
903.565	16139
903.683	16284
903.801	16090
903.919	16169
904.038	16162
904.156	15934
904.274	16097
904.392	15968
904.51	15979
904.627	15922
904.745	15903
904.863	15895
904.981	15781
905.098	15564
905.216	15511
905.334	15523
905.451	15530
905.569	15591
905.686	15648
905.803	15526
905.921	15397
906.038	15549
906.155	15469
906.272	15348
906.389	15367
906.506	15169
906.623	15150
906.74	15100
906.857	14929
906.974	15085
907.091	15226
907.208	15283
907.324	15127
907.441	15070
907.557	14864
907.674	14834
907.79	14788
907.907	14804
908.023	14785
908.139	14838
908.256	14811
908.372	14758
908.488	14735
908.604	14606
908.72	14499
908.836	14560
908.952	14545
909.068	14530
909.184	14686
909.3	14412
909.415	14549
909.531	14579
909.647	14259
909.762	14366
909.878	14317
909.993	14206
910.108	14294
910.224	14294
910.339	14282
910.454	14107
910.57	14043
910.685	14027
910.8	14320
910.915	14172
911.03	14065
911.145	13871
911.259	13879
911.374	13909
911.489	13887
911.604	13799
911.718	13693
911.833	13662
911.947	13651
912.062	13441
912.176	13586
912.291	13556
912.405	13681
912.519	13795
912.633	13757
912.748	13746
912.862	13559
912.976	13499
913.09	13320
913.204	13426
913.318	13483
913.431	13521
913.545	13594
913.659	13601
913.772	13396
913.886	13335
914	13297
914.113	13483
914.226	13476
914.34	13415
914.453	13225
914.566	13354
914.68	13228
914.793	13312
914.906	13038
915.019	12977
915.132	12901
915.245	13095
915.358	13042
915.47	12924
915.583	12993
915.696	13008
915.809	13175
915.921	13110
916.034	12924
916.146	12852
916.259	12859
916.371	13012
916.483	12962
916.595	12852
916.708	12897
916.82	12863
916.932	12753
917.044	12913
917.156	12798
917.268	12787
917.38	12825
917.491	12673
917.603	12757
917.715	12844
917.826	12859
917.938	12726
918.049	12604
918.161	12707
918.272	12871
918.384	12768
918.495	12738
918.606	12532
918.717	12429
918.828	12536
918.939	12532
919.05	12532
919.161	12467
919.272	12289
919.383	12327
919.494	12471
919.604	12658
919.715	12578
919.826	12429
919.936	12399
920.047	12521
920.157	12502
920.267	12612
920.378	12536
920.488	12441
920.598	12631
920.708	12791
920.818	12597
920.928	12616
921.038	12821
921.148	12757
921.258	12486
921.368	12422
921.477	12247
921.587	12266
921.697	12114
921.806	12327
921.916	12133
922.025	11942
922.134	11935
922.244	11824
922.353	11927
922.462	11779
922.571	11688
922.68	11585
922.789	11566
922.898	11623
923.007	11520
923.116	11573
923.224	11630
923.333	11551
923.442	11463
923.55	11425
923.659	11410
923.767	11535
923.876	11353
923.984	11505
924.092	11273
924.201	11379
924.309	11402
924.417	11402
924.525	11307
924.633	11315
924.741	12311
924.849	11269
924.956	11341
925.064	11105
925.172	11102
925.279	11197
925.387	11166
925.494	11041
925.602	11284
925.709	11193
925.816	11010
925.924	11083
926.031	11201
926.138	11037
926.245	11189
926.352	11022
926.459	11136
926.566	11136
926.673	10980
926.779	10862
926.886	10866
926.993	10771
927.099	10797
927.206	10767
927.312	10733
927.419	10752
927.525	10774
927.631	10755
927.737	10706
927.843	10672
927.95	10500
928.056	10679
928.162	10550
928.267	10679
928.373	11246
928.479	10729
928.585	10417
928.69	10588
928.796	10542
928.901	10493
929.007	10451
929.112	10459
929.218	10459
929.323	10367
929.428	10287
929.533	10500
929.638	10322
929.743	10306
929.848	10318
929.953	10329
930.058	10200
930.163	10074
930.267	10078
930.372	10124
930.477	10090
930.581	10246
930.685	10112
930.79	9991
930.894	10048
930.998	10021
931.103	10112
931.207	9793
931.311	9667
931.415	9625
931.519	9408
931.623	9492
