Data from test_V78500241_1803.txt Node
Date: Fri Mar 25 14:46:16 CST 2022
User: usil
Spectrometer: V785-0024
Trigger mode: 0
Integration Time (sec): 4.000000E-1
Scans to average: 1
Nonlinearity correction enabled: false
Boxcar width: 0
Storing dark spectrum: false
XAxis mode: Wavelengths
Number of Pixels in Spectrum: 1024
>>>>>Begin Spectral Data<<<<<
801.071	22238
801.214	22116
801.356	21694
801.499	21629
801.641	21435
801.783	21485
801.926	21652
802.068	21545
802.211	21397
802.353	21272
802.496	21207
802.638	20941
802.78	20971
802.923	20906
803.065	20842
803.208	20887
803.35	20948
803.492	20887
803.635	21074
803.777	20933
803.919	20967
804.061	21116
804.204	20895
804.346	20849
804.488	20773
804.63	20773
804.773	20731
804.915	20823
805.057	20925
805.199	20678
805.341	20864
805.483	20933
805.626	20853
805.768	20819
805.91	20826
806.052	20902
806.194	20648
806.336	20963
806.478	20887
806.62	20739
806.762	20834
806.904	20762
807.046	21100
807.188	21131
807.33	21154
807.472	21176
807.614	21104
807.756	21093
807.898	20948
808.04	20769
808.182	20876
808.324	20971
808.465	20956
808.607	21146
808.749	21150
808.891	21211
809.033	21416
809.174	21340
809.316	21245
809.458	21222
809.6	21108
809.741	21214
809.883	21180
810.025	21507
810.166	21344
810.308	21336
810.45	21272
810.591	21245
810.733	21028
810.875	21024
811.016	20807
811.158	20769
811.299	21039
811.441	21184
811.582	21051
811.724	21020
811.865	20975
812.007	20910
812.148	20895
812.29	20960
812.431	21146
812.573	21348
812.714	21439
812.855	21359
812.997	21545
813.138	21675
813.279	21519
813.421	21587
813.562	21294
813.703	21260
813.845	21108
813.986	20845
814.127	20678
814.268	20632
814.41	20465
814.551	20457
814.692	20514
814.833	20427
814.974	20457
815.115	20480
815.256	20294
815.397	20385
815.539	20355
815.68	20259
815.821	20195
815.962	20347
816.103	20176
816.244	20134
816.385	19974
816.526	19978
816.666	19746
816.807	19689
816.948	19780
817.089	19746
817.23	19647
817.371	19590
817.512	19499
817.653	19533
817.793	19628
817.934	19658
818.075	19643
818.216	19540
818.356	19529
818.497	19491
818.638	19255
818.778	19362
818.919	19438
819.06	19240
819.2	19476
819.341	19563
819.481	19559
819.622	19685
819.762	19833
819.903	19666
820.043	19750
820.184	19540
820.324	19571
820.465	19674
820.605	19594
820.746	19632
820.886	19472
821.026	19719
821.167	19438
821.307	19712
821.447	19605
821.588	19453
821.728	19392
821.868	19141
822.008	19065
822.149	19023
822.289	18871
822.429	18825
822.569	18741
822.709	18677
822.849	18570
822.99	18582
823.13	18475
823.27	18433
823.41	18262
823.55	18220
823.69	18235
823.83	18338
823.97	18327
824.11	18148
824.25	18174
824.389	18064
824.529	18106
824.669	18148
824.809	18273
824.949	18201
825.089	18213
825.228	18072
825.368	17920
825.508	17870
825.648	17920
825.787	17893
825.927	18011
826.067	17794
826.206	17859
826.346	17965
826.485	17866
826.625	17855
826.765	17927
826.904	17897
827.044	17619
827.183	17562
827.323	17562
827.462	17653
827.601	17471
827.741	17551
827.88	17581
828.02	17459
828.159	17570
828.298	17619
828.437	17623
828.577	17573
828.716	17657
828.855	17558
828.994	17288
829.134	17402
829.273	17326
829.412	17235
829.551	17181
829.69	17315
829.829	17356
829.968	17436
830.107	17368
830.246	17311
830.385	17254
830.524	17212
830.663	17140
830.802	17090
830.941	16904
831.08	16919
831.219	17045
831.357	17033
831.496	17121
831.635	16942
831.774	16812
831.913	16809
832.051	16733
832.19	16710
832.329	16778
832.467	16603
832.606	16508
832.744	16603
832.883	16561
833.022	16706
833.16	16603
833.299	16653
833.437	16580
833.576	16649
833.714	16679
833.852	16752
833.991	16752
834.129	16786
834.267	16793
834.406	16660
834.544	16816
834.682	16824
834.821	16736
834.959	16881
835.097	16702
835.235	16797
835.373	16740
835.511	16771
835.65	16630
835.788	16611
835.926	16459
836.064	16409
836.202	16474
836.34	16542
836.478	16653
836.615	16622
836.753	16607
836.891	16767
837.029	16664
837.167	16577
837.305	16535
837.443	16561
837.58	16485
837.718	16481
837.856	16462
837.993	16386
838.131	16470
838.269	16443
838.406	16478
838.544	16341
838.681	16177
838.819	16253
838.956	16120
839.094	16059
839.231	16055
839.369	16200
839.506	16409
839.643	16284
839.781	16086
839.918	16044
840.055	16109
840.193	16051
840.33	16048
840.467	16021
840.604	16097
840.742	16303
840.879	15888
841.016	15907
841.153	15979
841.29	16204
841.427	16025
841.564	16181
841.701	16086
841.838	15987
841.975	16017
842.112	15983
842.249	15899
842.385	15831
842.522	15960
842.659	15804
842.796	15835
842.933	15876
843.069	15838
843.206	15743
843.343	15846
843.479	15876
843.616	15884
843.752	15587
843.889	15622
844.025	15827
844.162	15473
844.298	15717
844.435	15614
844.571	15507
844.708	15610
844.844	15789
844.98	15797
845.117	15663
845.253	15595
845.389	15504
845.525	15629
845.661	15568
845.798	15367
845.934	15488
846.07	15382
846.206	15500
846.342	15641
846.478	15526
846.614	15256
846.75	15161
846.886	15176
847.022	15272
847.158	15135
847.294	15135
847.429	15199
847.565	15142
847.701	15313
847.837	14975
847.972	14937
848.108	14929
848.244	15009
848.379	14804
848.515	14781
848.65	14765
848.786	14800
848.921	14777
849.057	14937
849.192	14785
849.328	14834
849.463	14918
849.598	14788
849.734	14765
849.869	14743
850.004	14640
850.14	14575
850.275	14617
850.41	14450
850.545	14503
850.68	14549
850.815	14632
850.95	14549
851.085	14667
851.22	14598
851.355	14560
851.49	14511
851.625	14556
851.76	14530
851.895	14427
852.03	14530
852.165	14465
852.299	14541
852.434	14667
852.569	14602
852.703	14575
852.838	14655
852.973	14739
853.107	14765
853.242	14556
853.376	14442
853.511	14267
853.645	14339
853.78	14476
853.914	14492
854.048	14404
854.183	14412
854.317	14446
854.451	14537
854.585	14377
854.72	14355
854.854	14507
854.988	14210
855.122	14324
855.256	14282
855.39	14374
855.524	14511
855.658	14465
855.792	14423
855.926	14518
856.06	14492
856.194	14530
856.327	14412
856.461	14305
856.595	14256
856.729	14518
856.862	14530
856.996	14457
857.13	14545
857.263	14556
857.397	14549
857.53	14374
857.664	14419
857.797	14480
857.931	14507
858.064	14518
858.197	14549
858.331	14499
858.464	14294
858.597	14328
858.731	14385
858.864	14408
858.997	14408
859.13	14507
859.263	14320
859.396	14476
859.529	14309
859.662	14385
859.795	14286
859.928	14473
860.061	14564
860.194	14560
860.327	14412
860.46	14396
860.592	14495
860.725	14606
860.858	14518
860.99	14438
861.123	14374
861.256	14355
861.388	14438
861.521	14956
861.653	14309
861.786	14336
861.918	14332
862.05	14332
862.183	14313
862.315	14419
862.447	14396
862.58	14393
862.712	14130
862.844	14142
862.976	14278
863.108	14320
863.24	14636
863.372	14119
863.504	14294
863.636	14119
863.768	14214
863.9	14263
864.032	14115
864.164	14111
864.296	14161
864.428	14286
864.559	14324
864.691	14271
864.823	14381
864.954	14317
865.086	14225
865.217	14229
865.349	14145
865.48	14126
865.612	14221
865.743	14278
865.875	14157
866.006	14191
866.137	14126
866.269	14084
866.4	14134
866.531	14103
866.662	14107
866.793	14161
866.924	14149
867.055	14157
867.186	14161
867.317	14161
867.448	14043
867.579	14096
867.71	14031
867.841	14058
867.972	14161
868.103	14206
868.233	14111
868.364	14225
868.495	14305
868.625	14389
868.756	14499
868.886	14313
869.017	14408
869.147	14541
869.278	14575
869.408	14419
869.539	14419
869.669	14541
869.799	14480
869.929	14518
870.06	14598
870.19	14842
870.32	14701
870.45	14857
870.58	14823
870.71	14944
870.84	14921
870.97	14842
871.1	14838
871.23	14990
871.36	14902
871.489	14986
871.619	14944
871.749	14979
871.879	15135
872.008	15070
872.138	15005
872.267	14979
872.397	14891
872.526	14864
872.656	14781
872.785	14868
872.915	15066
873.044	15097
873.173	14990
873.303	15100
873.432	15116
873.561	15123
873.69	15055
873.819	15062
873.948	15123
874.077	15017
874.206	14982
874.335	15154
874.464	15165
874.593	15294
874.722	15264
874.851	15443
874.979	15378
875.108	15534
875.237	15336
875.365	15447
875.494	15351
875.623	15523
875.751	15306
875.88	15481
876.008	15549
876.136	15523
876.265	15819
876.393	15918
876.521	15819
876.65	15842
876.778	15770
876.906	15743
877.034	15789
877.162	15690
877.29	15739
877.418	15766
877.546	15854
877.674	15739
877.802	15800
877.93	15797
878.058	15747
878.185	15671
878.313	15797
878.441	15770
878.568	15599
878.696	15759
878.824	15812
878.951	15854
879.079	15941
879.206	16101
879.333	15895
879.461	15755
879.588	15991
879.715	15964
879.842	16128
879.97	15926
880.097	15656
880.224	15477
880.351	15625
880.478	15606
880.605	15591
880.732	15663
880.859	15816
880.986	15698
881.112	15698
881.239	15545
881.366	15397
881.493	15321
881.619	15313
881.746	15169
881.872	15279
881.999	15230
882.125	15370
882.252	15382
882.378	15275
882.505	15439
882.631	15283
882.757	15085
882.883	15142
883.01	15150
883.136	15123
883.262	15081
883.388	14956
883.514	15081
883.64	15192
883.766	15043
883.892	14952
884.018	14906
884.143	15112
884.269	15180
884.395	14823
884.52	14830
884.646	14807
884.772	14731
884.897	14663
885.023	14830
885.148	14902
885.274	14963
885.399	14845
885.524	14868
885.65	14899
885.775	14891
885.9	14842
886.025	14895
886.15	14876
886.275	14807
886.4	14663
886.525	14686
886.65	14682
886.775	14758
886.9	15039
887.025	15047
887.149	14769
887.274	14636
887.399	14606
887.523	14610
887.648	14568
887.773	14632
887.897	14800
888.021	14727
888.146	14625
888.27	14716
888.395	14743
888.519	14807
888.643	14659
888.767	14724
888.891	14708
889.015	14495
889.139	14511
889.263	14446
889.387	14663
889.511	14674
889.635	14693
889.759	14404
889.883	14461
890.006	14560
890.13	14568
890.254	14393
890.377	14423
890.501	14347
890.624	14298
890.748	14286
890.871	14259
890.995	14172
891.118	14218
891.241	14149
891.364	14183
891.488	14336
891.611	14191
891.734	14172
891.857	14313
891.98	14183
892.103	14191
892.226	14214
892.349	14187
892.471	14043
892.594	14183
892.717	14237
892.839	14180
892.962	14248
893.085	14229
893.207	14225
893.33	14202
893.452	14123
893.575	14176
893.697	14100
893.819	14351
893.941	14362
894.064	14278
894.186	14221
894.308	14187
894.43	14339
894.552	14381
894.674	14317
894.796	14172
894.918	14210
895.04	14248
895.161	14332
895.283	14412
895.405	14298
895.526	14320
895.648	14385
895.769	14286
895.891	14362
896.012	14404
896.134	14404
896.255	14415
896.376	14355
896.498	14301
896.619	14377
896.74	14355
896.861	14492
896.982	14674
897.103	14815
897.224	14682
897.345	14602
897.466	14522
897.587	14625
897.708	14724
897.828	14617
897.949	14526
898.07	14511
898.19	14530
898.311	14804
898.431	14617
898.552	14731
898.672	14731
898.792	14845
898.913	14754
899.033	14590
899.153	14632
899.273	14522
899.393	14644
899.513	14640
899.633	14568
899.753	14583
899.873	14511
899.993	14606
900.113	14617
900.232	14629
900.352	14526
900.472	14476
900.591	14343
900.711	14431
900.83	14461
900.95	14545
901.069	14602
901.189	14393
901.308	14256
901.427	14130
901.546	14157
901.665	14183
901.784	14168
901.904	14081
902.023	13837
902.141	13719
902.26	13746
902.379	13693
902.498	13704
902.617	13655
902.735	13734
902.854	13616
902.973	13628
903.091	13491
903.21	13392
903.328	13331
903.446	13346
903.565	13168
903.683	13236
903.801	13190
903.919	13190
904.038	13206
904.156	13019
904.274	13088
904.392	13042
904.51	13118
904.627	13034
904.745	13080
904.863	13065
904.981	12859
905.098	12768
905.216	12726
905.334	12802
905.451	12795
905.569	12814
905.686	12749
905.803	12844
905.921	12578
906.038	12623
906.155	12608
906.272	12456
906.389	12410
906.506	12353
906.623	12346
906.74	12292
906.857	12148
906.974	12258
907.091	12403
907.208	12471
907.324	12452
907.441	12224
907.557	12110
907.674	12053
907.79	12007
907.907	12019
908.023	12098
908.139	12125
908.256	12072
908.372	12106
908.488	11931
908.604	11893
908.72	11798
908.836	11847
908.952	11798
909.068	11878
909.184	11980
909.3	11805
909.415	11882
909.531	11847
909.647	11684
909.762	11619
909.878	11573
909.993	11703
910.108	11653
910.224	11604
910.339	11581
910.454	11608
910.57	11493
910.685	11414
910.8	11695
910.915	11581
911.03	11471
911.145	11315
911.259	11311
911.374	11353
911.489	11223
911.604	11105
911.718	11083
911.833	11109
911.947	10911
912.062	10934
912.176	11041
912.291	11056
912.405	11029
912.519	11250
912.633	11318
912.748	11113
912.862	10999
912.976	10927
913.09	10759
913.204	10869
913.318	10968
913.431	10965
913.545	10965
913.659	11037
913.772	10915
913.886	10847
914	10748
914.113	10957
914.226	10938
914.34	10923
914.453	10691
914.566	10889
914.68	10820
914.793	10687
914.906	10599
915.019	10611
915.132	10535
915.245	10584
915.358	10584
915.47	10569
915.583	10656
915.696	10660
915.809	10706
915.921	10733
916.034	10584
916.146	10523
916.259	10493
916.371	10714
916.483	10512
916.595	10470
916.708	10493
916.82	10489
916.932	10508
917.044	10485
917.156	10459
917.268	10337
917.38	10394
917.491	10379
917.603	10356
917.715	10466
917.826	10561
917.938	10333
918.049	10310
918.161	10329
918.272	10558
918.384	10577
918.495	10424
918.606	10287
918.717	10177
918.828	10310
918.939	10356
919.05	10173
919.161	10284
919.272	10101
919.383	10093
919.494	10322
919.604	10500
919.715	10276
919.826	10242
919.936	10272
920.047	10379
920.157	10272
920.267	10500
920.378	10306
920.488	10310
920.598	10500
920.708	10611
920.818	10508
920.928	10493
921.038	10592
921.148	10577
921.258	10287
921.368	10219
921.477	10158
921.587	10162
921.697	9960
921.806	10188
921.916	10071
922.025	9873
922.134	9869
922.244	9705
922.353	9911
922.462	9785
922.571	9724
922.68	9515
922.789	9572
922.898	9572
923.007	9458
923.116	9599
923.224	9496
923.333	9492
923.442	9389
923.55	9359
923.659	9477
923.767	9526
923.876	9336
923.984	9397
924.092	9367
924.201	9496
924.309	9329
924.417	9382
924.525	9355
924.633	9401
924.741	10253
924.849	9169
924.956	9344
925.064	9260
925.172	9104
925.279	9112
925.387	9237
925.494	9192
925.602	9367
925.709	9283
925.816	9085
925.924	9211
926.031	9272
926.138	9199
926.245	9245
926.352	9055
926.459	9222
926.566	9249
926.673	9119
926.779	9013
926.886	9017
926.993	8944
927.099	8876
927.206	8811
927.312	8868
927.419	8979
927.525	8883
927.631	8967
927.737	8807
927.843	8815
927.95	8636
928.056	8777
928.162	8807
928.267	8823
928.373	9363
928.479	8910
928.585	8697
928.69	8811
928.796	8762
928.901	8773
929.007	8587
929.112	8670
929.218	8727
929.323	8674
929.428	8545
929.533	8678
929.638	8526
929.743	8564
929.848	8629
929.953	8579
930.058	8480
930.163	8320
930.267	8320
930.372	8514
930.477	8286
930.581	8583
930.685	8526
930.79	8400
930.894	8355
930.998	8298
931.103	8431
931.207	8119
931.311	8126
931.415	7940
931.519	7788
931.623	7822
