Data from test_V78500241_699.txt Node
Date: Fri Mar 25 14:38:35 CST 2022
User: usil
Spectrometer: V785-0024
Trigger mode: 0
Integration Time (sec): 4.000000E-1
Scans to average: 1
Nonlinearity correction enabled: false
Boxcar width: 0
Storing dark spectrum: false
XAxis mode: Wavelengths
Number of Pixels in Spectrum: 1024
>>>>>Begin Spectral Data<<<<<
801.071	27922
801.214	27724
801.356	27473
801.499	27408
801.641	27188
801.783	27207
801.926	27245
802.068	27119
802.211	27150
802.353	26956
802.496	26811
802.638	26883
802.78	26712
802.923	26716
803.065	26670
803.208	26640
803.35	26762
803.492	26864
803.635	26864
803.777	26899
803.919	26948
804.061	27268
804.204	27013
804.346	26880
804.488	27001
804.63	27104
804.773	26918
804.915	27119
805.057	27237
805.199	27173
805.341	27393
805.483	27492
805.626	27618
805.768	27519
805.91	27561
806.052	27907
806.194	27694
806.336	28280
806.478	28360
806.62	28462
806.762	28771
806.904	29109
807.046	29756
807.188	29988
807.33	30441
807.472	31168
807.614	31712
807.756	32522
807.898	33599
808.04	35265
808.182	37293
808.324	39899
808.465	42985
808.607	46002
808.749	49179
808.891	50902
809.033	51039
809.174	49476
809.316	46367
809.458	43118
809.6	39488
809.741	36768
809.883	34653
810.025	33287
810.166	32020
810.308	31236
810.45	30574
810.591	29866
810.733	29512
810.875	29113
811.016	28862
811.158	28592
811.299	28630
811.441	28451
811.582	28428
811.724	28105
811.865	27918
812.007	27850
812.148	27629
812.29	27717
812.431	27911
812.573	27793
812.714	27808
812.855	28029
812.997	28025
813.138	27998
813.279	28029
813.421	27831
813.562	27713
813.703	27519
813.845	27260
813.986	27074
814.127	26701
814.268	26682
814.41	26621
814.551	26530
814.692	26598
814.833	26404
814.974	26374
815.115	26374
815.256	26332
815.397	26309
815.539	26145
815.68	26020
815.821	26012
815.962	26149
816.103	26077
816.244	25769
816.385	25860
816.526	25727
816.666	25582
816.807	25312
816.948	25415
817.089	25445
817.23	25453
817.371	25415
817.512	25297
817.653	25384
817.793	25183
817.934	25278
818.075	25324
818.216	25240
818.356	25187
818.497	25114
818.638	25000
818.778	24981
818.919	25004
819.06	25145
819.2	25225
819.341	25209
819.481	25175
819.622	25381
819.762	25422
819.903	25426
820.043	25282
820.184	25129
820.324	25274
820.465	25274
820.605	25194
820.746	25027
820.886	24958
821.026	24943
821.167	25236
821.307	25042
821.447	24985
821.588	24734
821.728	24768
821.868	24635
822.008	24509
822.149	24334
822.289	24296
822.429	24102
822.569	24087
822.709	24064
822.849	23901
822.99	23821
823.13	23939
823.27	23756
823.41	23585
823.55	23516
823.69	23596
823.83	23554
823.97	23452
824.11	23356
824.25	23379
824.389	23379
824.529	23425
824.669	23398
824.809	23551
824.949	23421
825.089	23501
825.228	23391
825.368	23242
825.508	23162
825.648	23140
825.787	23162
825.927	23216
826.067	23204
826.206	23121
826.346	23170
826.485	23136
826.625	23143
826.765	23143
826.904	23208
827.044	22778
827.183	22877
827.323	22805
827.462	22850
827.601	22820
827.741	22797
827.88	22805
828.02	22645
828.159	22771
828.298	22793
828.437	22839
828.577	22698
828.716	22869
828.855	22831
828.994	22443
829.134	22656
829.273	22436
829.412	22352
829.551	22428
829.69	22459
829.829	22478
829.968	22607
830.107	22607
830.246	22428
830.385	22474
830.524	22299
830.663	22421
830.802	22196
830.941	22059
831.08	22059
831.219	22097
831.357	22226
831.496	22280
831.635	22116
831.774	22048
831.913	22082
832.051	21846
832.19	21926
832.329	21960
832.467	21945
832.606	22032
832.744	21964
832.883	22010
833.022	21975
833.16	22135
833.299	22341
833.437	22394
833.576	22527
833.714	22679
833.852	23025
833.991	23010
834.129	23178
834.267	23227
834.406	23052
834.544	22991
834.682	22854
834.821	22557
834.959	22721
835.097	22379
835.235	22352
835.373	22333
835.511	22116
835.65	21994
835.788	21953
835.926	21633
836.064	21545
836.202	21739
836.34	21713
836.478	21785
836.615	21686
836.753	21572
836.891	21663
837.029	21641
837.167	21530
837.305	21561
837.443	21424
837.58	21435
837.718	21424
837.856	21462
837.993	21359
838.131	21428
838.269	21291
838.406	21359
838.544	21249
838.681	21077
838.819	20971
838.956	20845
839.094	21043
839.231	20883
839.369	21043
839.506	21135
839.643	21074
839.781	20800
839.918	20750
840.055	20781
840.193	20823
840.33	20800
840.467	20864
840.604	20804
840.742	20944
840.879	20754
841.016	20697
841.153	20674
841.29	20956
841.427	20758
841.564	20716
841.701	20804
841.838	20727
841.975	20689
842.112	20583
842.249	20644
842.385	20625
842.522	20773
842.659	20609
842.796	20663
842.933	20606
843.069	20648
843.206	20571
843.343	20819
843.479	20720
843.616	20739
843.752	20560
843.889	20701
844.025	20868
844.162	20785
844.298	21024
844.435	21058
844.571	21252
844.708	21538
844.844	21934
844.98	22402
845.117	23003
845.253	23969
845.389	25784
845.525	29395
845.661	35482
845.798	42380
845.934	47490
846.07	49487
846.206	47965
846.342	42970
846.478	36251
846.614	30155
846.75	26495
846.886	24045
847.022	22828
847.158	21907
847.294	21260
847.429	20857
847.565	20689
847.701	20769
847.837	20187
847.972	20081
848.108	20161
848.244	19997
848.379	19788
848.515	19677
848.65	19662
848.786	19723
848.921	19689
849.057	19635
849.192	19776
849.328	19521
849.463	19609
849.598	19495
849.734	19392
849.869	19335
850.004	19190
850.14	19263
850.275	19316
850.41	19266
850.545	19061
850.68	19050
850.815	19183
850.95	19179
851.085	19270
851.22	19255
851.355	19183
851.49	19164
851.625	19118
851.76	19076
851.895	19152
852.03	19080
852.165	19255
852.299	19274
852.434	19225
852.569	19312
852.703	19339
852.838	19354
852.973	19426
853.107	19445
853.242	19259
853.376	19171
853.511	19091
853.645	19236
853.78	19468
853.914	19377
854.048	19304
854.183	19369
854.317	19415
854.451	19772
854.585	19377
854.72	19438
854.854	19449
854.988	19320
855.122	19244
855.256	19247
855.39	19247
855.524	19312
855.658	19099
855.792	19141
855.926	18977
856.06	19168
856.194	19175
856.327	19118
856.461	19012
856.595	19061
856.729	18935
856.862	19198
856.996	19027
857.13	19023
857.263	19015
857.397	19118
857.53	18905
857.664	19015
857.797	18935
857.931	18947
858.064	19050
858.197	19034
858.331	18985
858.464	18916
858.597	18779
858.731	18806
858.864	18848
858.997	18764
859.13	18821
859.263	18882
859.396	18856
859.529	18749
859.662	18711
859.795	18867
859.928	18840
860.061	19050
860.194	18970
860.327	18753
860.46	18833
860.592	18920
860.725	18852
860.858	19038
860.99	18833
861.123	18715
861.256	18772
861.388	18703
861.521	19457
861.653	18578
861.786	18650
861.918	18692
862.05	18772
862.183	18783
862.315	18848
862.447	18798
862.58	18783
862.712	18559
862.844	18521
862.976	18616
863.108	18540
863.24	18970
863.372	18456
863.504	18376
863.636	18384
863.768	18570
863.9	18498
864.032	18376
864.164	18475
864.296	18475
864.428	18616
864.559	18437
864.691	18479
864.823	18464
864.954	18433
865.086	18452
865.217	18509
865.349	18361
865.48	18471
865.612	18448
865.743	18540
865.875	18429
866.006	18388
866.137	18407
866.269	18334
866.4	18471
866.531	18266
866.662	18369
866.793	18346
866.924	18433
867.055	18395
867.186	18399
867.317	18323
867.448	18216
867.579	18391
867.71	18213
867.841	18190
867.972	18437
868.103	18399
868.233	18327
868.364	18403
868.495	18426
868.625	18544
868.756	18665
868.886	18410
869.017	18597
869.147	18726
869.278	18810
869.408	18631
869.539	18601
869.669	18635
869.799	18612
869.929	18741
870.06	18696
870.19	19072
870.32	19019
870.45	19023
870.58	19015
870.71	19217
870.84	19065
870.97	19050
871.1	18970
871.23	19168
871.36	19354
871.489	19240
871.619	19206
871.749	19312
871.879	19274
872.008	19510
872.138	19460
872.267	19365
872.397	19266
872.526	19175
872.656	19221
872.785	19301
872.915	19552
873.044	19620
873.173	19540
873.303	19605
873.432	19613
873.561	19624
873.69	19525
873.819	19616
873.948	19601
874.077	19651
874.206	19670
874.335	19738
874.464	19791
874.593	20020
874.722	20069
874.851	20134
874.979	20111
875.108	20218
875.237	20164
875.365	20130
875.494	20191
875.623	20454
875.751	20336
875.88	20309
876.008	20522
876.136	20606
876.265	20868
876.393	21077
876.521	21100
876.65	21150
876.778	21222
876.906	20986
877.034	21161
877.162	21428
877.29	21340
877.418	21542
877.546	21542
877.674	21485
877.802	21793
877.93	21876
878.058	22067
878.185	22105
878.313	22451
878.441	22820
878.568	23086
878.696	23836
878.824	24688
878.951	25875
879.079	27237
879.206	29429
879.333	31457
879.461	33279
879.588	34280
879.715	34303
879.842	33435
879.97	31556
880.097	29387
880.224	27736
880.351	26499
880.478	25693
880.605	25012
880.732	24700
880.859	24646
880.986	24277
881.112	24087
881.239	23946
881.366	23863
881.493	23764
881.619	23699
881.746	23714
881.872	23691
881.999	23889
882.125	23760
882.252	23851
882.378	23893
882.505	24266
882.631	23923
882.757	23824
882.883	23935
883.01	23901
883.136	23634
883.262	23775
883.388	23615
883.514	23710
883.64	23695
883.766	23608
883.892	23391
884.018	23524
884.143	23691
884.269	23729
884.395	23436
884.52	23334
884.646	23493
884.772	23490
884.897	23414
885.023	23478
885.148	23452
885.274	23524
885.399	23364
885.524	23265
885.65	23280
885.775	23029
885.9	22763
886.025	22809
886.15	22618
886.275	22478
886.4	22257
886.525	22029
886.65	21800
886.775	21770
886.9	21861
887.025	21915
887.149	21553
887.274	21245
887.399	21188
887.523	21039
887.648	21032
887.773	20811
887.897	20895
888.021	20868
888.146	20792
888.27	20731
888.395	20667
888.519	20545
888.643	20484
888.767	20590
888.891	20305
889.015	20252
889.139	20278
889.263	20100
889.387	20145
889.511	20164
889.635	20138
889.759	19902
889.883	19936
890.006	20035
890.13	19970
890.254	19803
890.377	19715
890.501	19441
890.624	19533
890.748	19639
890.871	19445
890.995	19228
891.118	19202
891.241	19297
891.364	19156
891.488	19240
891.611	19103
891.734	19148
891.857	19168
891.98	19095
892.103	19103
892.226	19038
892.349	19004
892.471	18715
892.594	18897
892.717	18943
892.839	18837
892.962	18913
893.085	18935
893.207	18749
893.33	18642
893.452	18585
893.575	18760
893.697	18760
893.819	18791
893.941	18715
894.064	18665
894.186	18429
894.308	18372
894.43	18711
894.552	18764
894.674	18471
894.796	18384
894.918	18509
895.04	18277
895.161	18532
895.283	18532
895.405	18270
895.526	18254
895.648	18258
895.769	18315
895.891	18285
896.012	18467
896.134	18357
896.255	18357
896.376	18300
896.498	18327
896.619	18304
896.74	18346
896.861	18300
896.982	18467
897.103	18776
897.224	18490
897.345	18395
897.466	18391
897.587	18589
897.708	18521
897.828	18467
897.949	18391
898.07	18258
898.19	18410
898.311	18506
898.431	18391
898.552	18517
898.672	18521
898.792	18525
898.913	18498
899.033	18311
899.153	18334
899.273	18163
899.393	18216
899.513	18194
899.633	18232
899.753	18136
899.873	18121
899.993	18155
900.113	18197
900.232	18289
900.352	18262
900.472	18140
900.591	18007
900.711	17973
900.83	18026
900.95	18053
901.069	18034
901.189	17908
901.308	17733
901.427	17554
901.546	17414
901.665	17649
901.784	17547
901.904	17474
902.023	17364
902.141	17140
902.26	17014
902.379	17136
902.498	17003
902.617	16949
902.735	16976
902.854	16934
902.973	16915
903.091	16694
903.21	16698
903.328	16706
903.446	16615
903.565	16508
903.683	16451
903.801	16371
903.919	16386
904.038	16382
904.156	16215
904.274	16226
904.392	16242
904.51	16188
904.627	16196
904.745	16207
904.863	16257
904.981	15918
905.098	15808
905.216	15770
905.334	15743
905.451	15857
905.569	15739
905.686	15804
905.803	15785
905.921	15625
906.038	15747
906.155	15572
906.272	15481
906.389	15614
906.506	15298
906.623	15344
906.74	15348
906.857	15287
906.974	15237
907.091	15469
907.208	15435
907.324	15275
907.441	15264
907.557	15066
907.674	15119
907.79	15047
907.907	15051
908.023	15001
908.139	15024
908.256	15036
908.372	14918
908.488	14868
908.604	14868
908.72	14746
908.836	14781
908.952	14651
909.068	14743
909.184	14815
909.3	14739
909.415	14819
909.531	14716
909.647	14530
909.762	14484
909.878	14476
909.993	14541
910.108	14438
910.224	14408
910.339	14518
910.454	14415
910.57	14393
910.685	14317
910.8	14499
910.915	14423
911.03	14328
911.145	14092
911.259	14130
911.374	14119
911.489	14100
911.604	14031
911.718	13909
911.833	13951
911.947	13723
912.062	13677
912.176	13879
912.291	13890
912.405	13871
912.519	13944
912.633	14084
912.748	13909
912.862	13921
912.976	13814
913.09	13674
913.204	13677
913.318	13620
913.431	13807
913.545	13833
913.659	13860
913.772	13704
913.886	13582
914	13575
914.113	13723
914.226	13696
914.34	13647
914.453	13472
914.566	13609
914.68	13525
914.793	13525
914.906	13411
915.019	13274
915.132	13282
915.245	13190
915.358	13339
915.47	13263
915.583	13255
915.696	13335
915.809	13460
915.921	13384
916.034	13312
916.146	13293
916.259	13198
916.371	13289
916.483	13350
916.595	13293
916.708	13308
916.82	13206
916.932	13202
917.044	13145
917.156	13232
917.268	13095
917.38	13099
917.491	13110
917.603	13004
917.715	13084
917.826	13206
917.938	12943
918.049	12817
918.161	12947
918.272	13107
918.384	13156
918.495	12973
918.606	12810
918.717	12726
918.828	12863
918.939	12760
919.05	12642
919.161	12673
919.272	12608
919.383	12589
919.494	12760
919.604	12943
919.715	12734
919.826	12677
919.936	12772
920.047	12852
920.157	12738
920.267	12954
920.378	12760
920.488	12677
920.598	12977
920.708	13023
920.818	12878
920.928	12886
921.038	13099
921.148	12977
921.258	12753
921.368	12612
921.477	12673
921.587	12532
921.697	12410
921.806	12452
921.916	12372
922.025	12194
922.134	12095
922.244	12110
922.353	12224
922.462	11954
922.571	12007
922.68	11904
922.789	11718
922.898	11779
923.007	11828
923.116	11878
923.224	11802
923.333	11786
923.442	11691
923.55	11695
923.659	11646
923.767	11771
923.876	11558
923.984	11710
924.092	11615
924.201	11604
924.309	11596
924.417	11547
924.525	11547
924.633	11505
924.741	12376
924.849	11322
924.956	11505
925.064	11349
925.172	11254
925.279	11318
925.387	11356
925.494	11356
925.602	11467
925.709	11391
925.816	11181
925.924	11330
926.031	11391
926.138	11261
926.245	11326
926.352	11174
926.459	11349
926.566	11337
926.673	11250
926.779	11083
926.886	11159
926.993	11022
927.099	11018
927.206	10927
927.312	10919
927.419	11003
927.525	10984
927.631	11018
927.737	10885
927.843	10782
927.95	10637
928.056	10782
928.162	10854
928.267	10850
928.373	11410
928.479	10965
928.585	10622
928.69	10793
928.796	10843
928.901	10630
929.007	10611
929.112	10664
929.218	10630
929.323	10615
929.428	10565
929.533	10679
929.638	10508
929.743	10618
929.848	10592
929.953	10527
930.058	10394
930.163	10280
930.267	10261
930.372	10451
930.477	10272
930.581	10447
930.685	10394
930.79	10192
930.894	10204
930.998	10242
931.103	10280
931.207	9960
931.311	9979
931.415	9774
931.519	9698
931.623	9641
