Data from test_V78500241_973.txt Node
Date: Fri Mar 25 14:40:29 CST 2022
User: usil
Spectrometer: V785-0024
Trigger mode: 0
Integration Time (sec): 4.000000E-1
Scans to average: 1
Nonlinearity correction enabled: false
Boxcar width: 0
Storing dark spectrum: false
XAxis mode: Wavelengths
Number of Pixels in Spectrum: 1024
>>>>>Begin Spectral Data<<<<<
801.071	23398
801.214	23372
801.356	23136
801.499	22972
801.641	22858
801.783	22675
801.926	22660
802.068	22557
802.211	22485
802.353	22325
802.496	22162
802.638	22215
802.78	22109
802.923	22185
803.065	22109
803.208	22086
803.35	21983
803.492	22226
803.635	22211
803.777	21964
803.919	22017
804.061	22276
804.204	22101
804.346	22040
804.488	21994
804.63	22010
804.773	21911
804.915	21953
805.057	22006
805.199	22032
805.341	22063
805.483	22143
805.626	22128
805.768	21926
805.91	22070
806.052	21979
806.194	21972
806.336	22207
806.478	22105
806.62	22044
806.762	22204
806.904	22318
807.046	22527
807.188	22489
807.33	22672
807.472	22687
807.614	22660
807.756	22656
807.898	22679
808.04	22656
808.182	22847
808.324	23105
808.465	23315
808.607	23756
808.749	23969
808.891	24174
809.033	24205
809.174	24102
809.316	23687
809.458	23433
809.6	23280
809.741	23170
809.883	22930
810.025	22892
810.166	22889
810.308	22862
810.45	22717
810.591	22626
810.733	22584
810.875	22402
811.016	22223
811.158	22329
811.299	22382
811.441	22409
811.582	22424
811.724	22276
811.865	22230
812.007	22215
812.148	22284
812.29	22200
812.431	22405
812.573	22584
812.714	22691
812.855	22793
812.997	22885
813.138	23018
813.279	22793
813.421	22641
813.562	22713
813.703	22512
813.845	22519
813.986	22249
814.127	21892
814.268	21793
814.41	21823
814.551	21793
814.692	21823
814.833	21770
814.974	21717
815.115	21774
815.256	21504
815.397	21523
815.539	21553
815.68	21496
815.821	21367
815.962	21507
816.103	21500
816.244	21363
816.385	21302
816.526	21272
816.666	21150
816.807	20910
816.948	20967
817.089	21096
817.23	20956
817.371	20956
817.512	20800
817.653	20948
817.793	20781
817.934	20918
818.075	20895
818.216	20743
818.356	20868
818.497	20640
818.638	20530
818.778	20545
818.919	20564
819.06	20583
819.2	20602
819.341	20735
819.481	20708
819.622	20929
819.762	21062
819.903	21017
820.043	21013
820.184	20887
820.324	20853
820.465	20944
820.605	20815
820.746	20758
820.886	20792
821.026	20880
821.167	20796
821.307	20902
821.447	20773
821.588	20655
821.728	20495
821.868	20370
822.008	20195
822.149	20339
822.289	20221
822.429	19917
822.569	19974
822.709	19917
822.849	19753
822.99	19776
823.13	19731
823.27	19666
823.41	19510
823.55	19487
823.69	19537
823.83	19525
823.97	19476
824.11	19377
824.25	19324
824.389	19270
824.529	19373
824.669	19304
824.809	19430
824.949	19324
825.089	19392
825.228	19358
825.368	19080
825.508	19076
825.648	19122
825.787	19217
825.927	19061
826.067	19099
826.206	19023
826.346	18985
826.485	19076
826.625	19114
826.765	19175
826.904	19148
827.044	18878
827.183	18703
827.323	18757
827.462	18901
827.601	18833
827.741	18711
827.88	18772
828.02	18593
828.159	18684
828.298	18806
828.437	18753
828.577	18741
828.716	18909
828.855	18688
828.994	18460
829.134	18544
829.273	18669
829.412	18384
829.551	18445
829.69	18460
829.829	18483
829.968	18559
830.107	18532
830.246	18471
830.385	18483
830.524	18407
830.663	18330
830.802	18281
830.941	18106
831.08	18148
831.219	18194
831.357	18220
831.496	18372
831.635	18022
831.774	18110
831.913	17973
832.051	17950
832.19	17893
832.329	17935
832.467	17908
832.606	17824
832.744	17790
832.883	17767
833.022	17767
833.16	17775
833.299	17824
833.437	17760
833.576	18038
833.714	17923
833.852	17916
833.991	17904
834.129	17923
834.267	18079
834.406	17939
834.544	18049
834.682	17920
834.821	17878
834.959	18087
835.097	17908
835.235	17863
835.373	17760
835.511	17843
835.65	17729
835.788	17680
835.926	17657
836.064	17459
836.202	17600
836.34	17783
836.478	17741
836.615	17684
836.753	17847
836.891	17798
837.029	17794
837.167	17661
837.305	17691
837.443	17520
837.58	17653
837.718	17680
837.856	17668
837.993	17528
838.131	17585
838.269	17471
838.406	17573
838.544	17417
838.681	17265
838.819	17227
838.956	17014
839.094	17086
839.231	17090
839.369	17277
839.506	17459
839.643	17376
839.781	17086
839.918	17075
840.055	17033
840.193	17041
840.33	16987
840.467	17086
840.604	17018
840.742	17299
840.879	16953
841.016	17079
841.153	17064
841.29	17239
841.427	16946
841.564	17117
841.701	17090
841.838	17025
841.975	17010
842.112	17018
842.249	16877
842.385	16847
842.522	17018
842.659	16908
842.796	16866
842.933	16805
843.069	16763
843.206	16713
843.343	16961
843.479	16987
843.616	16877
843.752	16592
843.889	16702
844.025	16801
844.162	16611
844.298	16866
844.435	16687
844.571	16679
844.708	16752
844.844	16938
844.98	16896
845.117	16904
845.253	16729
845.389	16942
845.525	17174
845.661	17490
845.798	17889
845.934	18456
846.07	18559
846.206	18403
846.342	18391
846.478	17741
846.614	17045
846.75	16641
846.886	16481
847.022	16436
847.158	16367
847.294	16386
847.429	16291
847.565	16124
847.701	16375
847.837	15953
847.972	15960
848.108	16025
848.244	15953
848.379	15808
848.515	15816
848.65	15781
848.786	15770
848.921	15739
849.057	15892
849.192	15838
849.328	15861
849.463	15713
849.598	15694
849.734	15667
849.869	15606
850.004	15485
850.14	15614
850.275	15553
850.41	15515
850.545	15477
850.68	15542
850.815	15618
850.95	15557
851.085	15656
851.22	15599
851.355	15549
851.49	15488
851.625	15382
851.76	15519
851.895	15367
852.03	15412
852.165	15488
852.299	15584
852.434	15599
852.569	15515
852.703	15606
852.838	15534
852.973	15610
853.107	15720
853.242	15507
853.376	15397
853.511	15287
853.645	15416
853.78	15587
853.914	15431
854.048	15291
854.183	15332
854.317	15477
854.451	15599
854.585	15401
854.72	15374
854.854	15424
854.988	15367
855.122	15424
855.256	15226
855.39	15355
855.524	15564
855.658	15428
855.792	15439
855.926	15389
856.06	15515
856.194	15485
856.327	15450
856.461	15313
856.595	15245
856.729	15294
856.862	15511
856.996	15389
857.13	15538
857.263	15568
857.397	15534
857.53	15496
857.664	15412
857.797	15477
857.931	15515
858.064	15469
858.197	15530
858.331	15435
858.464	15336
858.597	15355
858.731	15340
858.864	15355
858.997	15363
859.13	15317
859.263	15401
859.396	15439
859.529	15492
859.662	15298
859.795	15275
859.928	15405
860.061	15485
860.194	15591
860.327	15424
860.46	15359
860.592	15504
860.725	15534
860.858	15458
860.99	15351
861.123	15336
861.256	15329
861.388	15389
861.521	16124
861.653	15245
861.786	15104
861.918	15306
862.05	15272
862.183	15252
862.315	15329
862.447	15435
862.58	15272
862.712	15097
862.844	15135
862.976	15237
863.108	15268
863.24	15507
863.372	15005
863.504	15169
863.636	15116
863.768	15233
863.9	15199
864.032	15142
864.164	15093
864.296	15070
864.428	15199
864.559	15142
864.691	15161
864.823	15157
864.954	15203
865.086	15108
865.217	15097
865.349	15074
865.48	15150
865.612	15142
865.743	15272
865.875	15260
866.006	15119
866.137	15089
866.269	15207
866.4	15074
866.531	15017
866.662	15017
866.793	15036
866.924	15039
867.055	15169
867.186	15074
867.317	15039
867.448	15017
867.579	15043
867.71	15001
867.841	14994
867.972	15077
868.103	15089
868.233	15085
868.364	15089
868.495	15085
868.625	15443
868.756	15473
868.886	15237
869.017	15351
869.147	15485
869.278	15477
869.408	15412
869.539	15256
869.669	15363
869.799	15431
869.929	15519
870.06	15397
870.19	15595
870.32	15618
870.45	15591
870.58	15747
870.71	15774
870.84	15842
870.97	15694
871.1	15823
871.23	15926
871.36	15911
871.489	15884
871.619	15876
871.749	15895
871.879	15956
872.008	15975
872.138	15884
872.267	15960
872.397	15816
872.526	15732
872.656	15663
872.785	15865
872.915	16074
873.044	15983
873.173	15926
873.303	16013
873.432	15991
873.561	15975
873.69	15937
873.819	15964
873.948	15956
874.077	16021
874.206	16059
874.335	16097
874.464	16185
874.593	16337
874.722	16230
874.851	16230
874.979	16337
875.108	16295
875.237	16249
875.365	16261
875.494	16257
875.623	16356
875.751	16287
875.88	16337
876.008	16489
876.136	16523
876.265	16710
876.393	16809
876.521	16862
876.65	16706
876.778	16771
876.906	16793
877.034	16752
877.162	16717
877.29	16729
877.418	16786
877.546	16736
877.674	16881
877.802	16835
877.93	16790
878.058	16809
878.185	16675
878.313	16866
878.441	16980
878.568	16664
878.696	16892
878.824	17029
878.951	17113
879.079	17406
879.206	17642
879.333	17805
879.461	17638
879.588	17847
879.715	17958
879.842	17916
879.97	17687
880.097	17212
880.224	17018
880.351	17102
880.478	17041
880.605	16809
880.732	16831
880.859	16927
880.986	16812
881.112	16843
881.239	16805
881.366	16565
881.493	16481
881.619	16558
881.746	16440
881.872	16466
881.999	16470
882.125	16485
882.252	16447
882.378	16443
882.505	16599
882.631	16424
882.757	16341
882.883	16303
883.01	16276
883.136	16158
883.262	16158
883.388	16223
883.514	16280
883.64	16379
883.766	16204
883.892	16124
884.018	16211
884.143	16226
884.269	16325
884.395	15987
884.52	15941
884.646	15903
884.772	15911
884.897	15975
885.023	16093
885.148	16074
885.274	16063
885.399	16048
885.524	15972
885.65	15960
885.775	15956
885.9	15949
886.025	16044
886.15	15926
886.275	15956
886.4	15819
886.525	15823
886.65	15739
886.775	15812
886.9	16036
887.025	16097
887.149	15918
887.274	15660
887.399	15610
887.523	15663
887.648	15614
887.773	15564
887.897	15739
888.021	15663
888.146	15618
888.27	15736
888.395	15717
888.519	15724
888.643	15667
888.767	15785
888.891	15545
889.015	15545
889.139	15412
889.263	15469
889.387	15584
889.511	15671
889.635	15496
889.759	15431
889.883	15443
890.006	15443
890.13	15473
890.254	15462
890.377	15367
890.501	15203
890.624	15207
890.748	15275
890.871	15104
890.995	15104
891.118	15013
891.241	15055
891.364	15218
891.488	15184
891.611	15104
891.734	15024
891.857	15135
891.98	15211
892.103	15173
892.226	15173
892.349	15119
892.471	14994
892.594	15070
892.717	15154
892.839	15081
892.962	15169
893.085	15154
893.207	15074
893.33	14910
893.452	14967
893.575	15146
893.697	15036
893.819	15230
893.941	15310
894.064	15249
894.186	14952
894.308	15043
894.43	15252
894.552	15264
894.674	15131
894.796	14982
894.918	15081
895.04	15047
895.161	15188
895.283	15192
895.405	15127
895.526	15150
895.648	15112
895.769	15207
895.891	15298
896.012	15260
896.134	15294
896.255	15097
896.376	15135
896.498	15192
896.619	15340
896.74	15123
896.861	15302
896.982	15572
897.103	15652
897.224	15439
897.345	15481
897.466	15355
897.587	15447
897.708	15561
897.828	15584
897.949	15447
898.07	15363
898.19	15367
898.311	15526
898.431	15450
898.552	15561
898.672	15530
898.792	15690
898.913	15675
899.033	15462
899.153	15435
899.273	15367
899.393	15291
899.513	15397
899.633	15454
899.753	15386
899.873	15325
899.993	15374
900.113	15435
900.232	15447
900.352	15405
900.472	15321
900.591	15085
900.711	15310
900.83	15268
900.95	15348
901.069	15359
901.189	15173
901.308	15070
901.427	14937
901.546	14902
901.665	14948
901.784	14914
901.904	14777
902.023	14826
902.141	14537
902.26	14442
902.379	14579
902.498	14450
902.617	14278
902.735	14434
902.854	14465
902.973	14301
903.091	14183
903.21	14115
903.328	14157
903.446	14103
903.565	13921
903.683	14035
903.801	13799
903.919	14046
904.038	13879
904.156	13837
904.274	13784
904.392	13757
904.51	13814
904.627	13814
904.745	13849
904.863	13746
904.981	13693
905.098	13529
905.216	13525
905.334	13457
905.451	13571
905.569	13453
905.686	13472
905.803	13495
905.921	13236
906.038	13343
906.155	13289
906.272	13194
906.389	13133
906.506	13038
906.623	13053
906.74	12973
906.857	13038
906.974	12935
907.091	13164
907.208	13099
907.324	13038
907.441	12993
907.557	12837
907.674	12783
907.79	12738
907.907	12715
908.023	12795
908.139	12821
908.256	12753
908.372	12722
908.488	12566
908.604	12620
908.72	12498
908.836	12517
908.952	12433
909.068	12483
909.184	12585
909.3	12456
909.415	12547
909.531	12479
909.647	12266
909.762	12277
909.878	12323
909.993	12296
910.108	12220
910.224	12247
910.339	12197
910.454	12159
910.57	12098
910.685	12060
910.8	12330
910.915	12243
911.03	12239
911.145	11988
911.259	11946
911.374	11927
911.489	11805
911.604	11851
911.718	11688
911.833	11729
911.947	11543
912.062	11547
912.176	11684
912.291	11649
912.405	11691
912.519	11999
912.633	11851
912.748	11771
912.862	11733
912.976	11581
913.09	11463
913.204	11497
913.318	11585
913.431	11767
913.545	11539
913.659	11741
913.772	11573
913.886	11478
914	11474
914.113	11570
914.226	11592
914.34	11459
914.453	11425
914.566	11516
914.68	11406
914.793	11341
914.906	11185
915.019	11098
915.132	11079
915.245	11155
915.358	11162
915.47	11147
915.583	11155
915.696	11208
915.809	11231
915.921	11227
916.034	11197
916.146	11083
916.259	11090
916.371	11197
916.483	11231
916.595	11109
916.708	11083
916.82	11098
916.932	11121
917.044	11132
917.156	11029
917.268	10889
917.38	10934
917.491	10934
917.603	10934
917.715	11048
917.826	11056
917.938	10919
918.049	10877
918.161	10930
918.272	11079
918.384	11121
918.495	10938
918.606	10847
918.717	10733
918.828	10843
918.939	10828
919.05	10729
919.161	10744
919.272	10535
919.383	10634
919.494	10866
919.604	11006
919.715	10812
919.826	10778
919.936	10850
920.047	10938
920.157	10793
920.267	10999
920.378	10858
920.488	10824
920.598	11075
920.708	11105
920.818	11025
920.928	10999
921.038	11109
921.148	11132
921.258	10835
921.368	10847
921.477	10698
921.587	10744
921.697	10535
921.806	10733
921.916	10512
922.025	10417
922.134	10413
922.244	10348
922.353	10352
922.462	10246
922.571	10207
922.68	9994
922.789	9994
922.898	10048
923.007	9975
923.116	10116
923.224	9975
923.333	10048
923.442	9892
923.55	9949
923.659	10010
923.767	9930
923.876	9888
923.984	10013
924.092	9854
924.201	9960
924.309	9854
924.417	9922
924.525	9827
924.633	9831
924.741	10622
924.849	9793
924.956	9835
925.064	9686
925.172	9652
925.279	9580
925.387	9652
925.494	9720
925.602	9785
925.709	9740
925.816	9671
925.924	9644
926.031	9740
926.138	9679
926.245	9720
926.352	9610
926.459	9694
926.566	9800
926.673	9682
926.779	9614
926.886	9496
926.993	9473
927.099	9374
927.206	9386
927.312	9370
927.419	9355
927.525	9374
927.631	9416
927.737	9348
927.843	9249
927.95	9169
928.056	9211
928.162	9245
928.267	9253
928.373	9793
928.479	9382
928.585	9093
928.69	9211
928.796	9291
928.901	9157
929.007	9051
929.112	9161
929.218	9138
929.323	9108
929.428	8948
929.533	9104
929.638	8990
929.743	9001
929.848	9062
929.953	9077
930.058	8990
930.163	8781
930.267	8834
930.372	8944
930.477	8762
930.581	9032
930.685	8834
930.79	8754
930.894	8750
930.998	8727
931.103	8883
931.207	8560
931.311	8492
931.415	8396
931.519	8240
931.623	8263
