Data from test_V78500241_1753.txt Node
Date: Fri Mar 25 14:45:55 CST 2022
User: usil
Spectrometer: V785-0024
Trigger mode: 0
Integration Time (sec): 4.000000E-1
Scans to average: 1
Nonlinearity correction enabled: false
Boxcar width: 0
Storing dark spectrum: false
XAxis mode: Wavelengths
Number of Pixels in Spectrum: 1024
>>>>>Begin Spectral Data<<<<<
801.071	22234
801.214	22150
801.356	21926
801.499	21838
801.641	21564
801.783	21519
801.926	21648
802.068	21564
802.211	21496
802.353	21340
802.496	21142
802.638	21173
802.78	21138
802.923	21028
803.065	20823
803.208	20899
803.35	20929
803.492	21001
803.635	21077
803.777	21005
803.919	21032
804.061	21226
804.204	21074
804.346	20960
804.488	20864
804.63	20845
804.773	20815
804.915	20880
805.057	20963
805.199	20773
805.341	21077
805.483	20914
805.626	21017
805.768	20727
805.91	20944
806.052	20819
806.194	20804
806.336	20906
806.478	20792
806.62	20826
806.762	20982
806.904	21093
807.046	21294
807.188	21142
807.33	21112
807.472	21340
807.614	21093
807.756	21104
807.898	21077
808.04	20963
808.182	20834
808.324	20861
808.465	20937
808.607	21188
808.749	21298
808.891	21256
809.033	21321
809.174	21294
809.316	21184
809.458	21142
809.6	21222
809.741	21374
809.883	21329
810.025	21416
810.166	21443
810.308	21485
810.45	21367
810.591	21233
810.733	21039
810.875	21001
811.016	20895
811.158	20857
811.299	20979
811.441	21173
811.582	21116
811.724	20990
811.865	21047
812.007	20975
812.148	21081
812.29	21070
812.431	21157
812.573	21291
812.714	21370
812.855	21557
812.997	21492
813.138	21774
813.279	21557
813.421	21488
813.562	21450
813.703	21275
813.845	21195
813.986	20960
814.127	20674
814.268	20560
814.41	20632
814.551	20537
814.692	20598
814.833	20583
814.974	20575
815.115	20518
815.256	20374
815.397	20415
815.539	20389
815.68	20313
815.821	20339
815.962	20374
816.103	20191
816.244	20145
816.385	20031
816.526	20024
816.666	19856
816.807	19643
816.948	19845
817.089	19811
817.23	19708
817.371	19780
817.512	19753
817.653	19647
817.793	19647
817.934	19666
818.075	19734
818.216	19719
818.356	19605
818.497	19472
818.638	19400
818.778	19339
818.919	19400
819.06	19472
819.2	19559
819.341	19586
819.481	19510
819.622	19651
819.762	19909
819.903	19852
820.043	19769
820.184	19746
820.324	19674
820.465	19700
820.605	19841
820.746	19651
820.886	19453
821.026	19556
821.167	19597
821.307	19738
821.447	19575
821.588	19449
821.728	19331
821.868	19225
822.008	19076
822.149	19114
822.289	19110
822.429	18890
822.569	18715
822.709	18825
822.849	18597
822.99	18604
823.13	18566
823.27	18395
823.41	18372
823.55	18323
823.69	18365
823.83	18334
823.97	18270
824.11	17996
824.25	18136
824.389	18228
824.529	18159
824.669	18152
824.809	18247
824.949	18346
825.089	18083
825.228	18110
825.368	18038
825.508	17813
825.648	18060
825.787	17889
825.927	18007
826.067	17942
826.206	17904
826.346	17992
826.485	17923
826.625	17866
826.765	18064
826.904	17912
827.044	17707
827.183	17653
827.323	17592
827.462	17638
827.601	17558
827.741	17619
827.88	17668
828.02	17589
828.159	17649
828.298	17726
828.437	17741
828.577	17589
828.716	17771
828.855	17566
828.994	17410
829.134	17452
829.273	17406
829.412	17410
829.551	17395
829.69	17379
829.829	17372
829.968	17425
830.107	17486
830.246	17356
830.385	17273
830.524	17265
830.663	17174
830.802	17060
830.941	16896
831.08	16976
831.219	17181
831.357	17083
831.496	17140
831.635	16934
831.774	16904
831.913	16805
832.051	16744
832.19	16812
832.329	16854
832.467	16637
832.606	16569
832.744	16622
832.883	16641
833.022	16618
833.16	16710
833.299	16725
833.437	16805
833.576	16755
833.714	16733
833.852	16672
833.991	16744
834.129	16752
834.267	16801
834.406	16748
834.544	16672
834.682	16733
834.821	16679
834.959	16805
835.097	16733
835.235	16835
835.373	16698
835.511	16725
835.65	16542
835.788	16618
835.926	16531
836.064	16470
836.202	16443
836.34	16626
836.478	16653
836.615	16561
836.753	16641
836.891	16755
837.029	16691
837.167	16626
837.305	16588
837.443	16440
837.58	16512
837.718	16527
837.856	16519
837.993	16447
838.131	16485
838.269	16394
838.406	16371
838.544	16318
838.681	16280
838.819	16185
838.956	16078
839.094	16025
839.231	16116
839.369	16177
839.506	16390
839.643	16257
839.781	15987
839.918	16021
840.055	16181
840.193	15945
840.33	16013
840.467	15994
840.604	16090
840.742	16185
840.879	15915
841.016	15983
841.153	16002
841.29	16059
841.427	16116
841.564	15991
841.701	16055
841.838	15953
841.975	15907
842.112	15979
842.249	15857
842.385	15835
842.522	15953
842.659	15797
842.796	15766
842.933	15865
843.069	15755
843.206	15713
843.343	15880
843.479	15892
843.616	15842
843.752	15580
843.889	15637
844.025	15800
844.162	15469
844.298	15625
844.435	15595
844.571	15606
844.708	15694
844.844	15793
844.98	15762
845.117	15663
845.253	15538
845.389	15606
845.525	15542
845.661	15515
845.798	15359
845.934	15435
846.07	15450
846.206	15507
846.342	15523
846.478	15389
846.614	15180
846.75	15268
846.886	15165
847.022	15245
847.158	15199
847.294	15230
847.429	15195
847.565	15241
847.701	15363
847.837	14982
847.972	14823
848.108	14895
848.244	14963
848.379	14754
848.515	14716
848.65	14720
848.786	14731
848.921	14800
849.057	14815
849.192	14826
849.328	14777
849.463	14724
849.598	14811
849.734	14769
849.869	14663
850.004	14556
850.14	14488
850.275	14667
850.41	14476
850.545	14507
850.68	14431
850.815	14545
850.95	14495
851.085	14758
851.22	14659
851.355	14549
851.49	14552
851.625	14590
851.76	14454
851.895	14408
852.03	14442
852.165	14564
852.299	14568
852.434	14682
852.569	14461
852.703	14507
852.838	14564
852.973	14621
853.107	14644
853.242	14423
853.376	14484
853.511	14389
853.645	14396
853.78	14545
853.914	14377
854.048	14415
854.183	14256
854.317	14442
854.451	14598
854.585	14370
854.72	14381
854.854	14579
854.988	14385
855.122	14419
855.256	14271
855.39	14461
855.524	14469
855.658	14511
855.792	14396
855.926	14423
856.06	14408
856.194	14412
856.327	14431
856.461	14294
856.595	14381
856.729	14438
856.862	14545
856.996	14457
857.13	14507
857.263	14518
857.397	14568
857.53	14309
857.664	14415
857.797	14488
857.931	14446
858.064	14511
858.197	14575
858.331	14415
858.464	14317
858.597	14362
858.731	14465
858.864	14377
858.997	14339
859.13	14568
859.263	14434
859.396	14469
859.529	14427
859.662	14294
859.795	14309
859.928	14408
860.061	14575
860.194	14632
860.327	14438
860.46	14377
860.592	14514
860.725	14484
860.858	14507
860.99	14461
861.123	14419
861.256	14320
861.388	14294
861.521	15150
861.653	14309
861.786	14240
861.918	14271
862.05	14305
862.183	14374
862.315	14412
862.447	14473
862.58	14298
862.712	14161
862.844	14031
862.976	14221
863.108	14267
863.24	14541
863.372	14050
863.504	14248
863.636	14157
863.768	14233
863.9	14271
864.032	14115
864.164	14115
864.296	14221
864.428	14286
864.559	14328
864.691	14187
864.823	14191
864.954	14233
865.086	14248
865.217	14149
865.349	14138
865.48	14153
865.612	14233
865.743	14370
865.875	14229
866.006	14126
866.137	14111
866.269	14168
866.4	14161
866.531	14237
866.662	14138
866.793	14176
866.924	14187
867.055	14202
867.186	14164
867.317	14100
867.448	14130
867.579	14123
867.71	14149
867.841	14054
867.972	14149
868.103	14119
868.233	14183
868.364	14176
868.495	14290
868.625	14374
868.756	14583
868.886	14317
869.017	14389
869.147	14537
869.278	14503
869.408	14526
869.539	14286
869.669	14492
869.799	14362
869.929	14587
870.06	14454
870.19	14720
870.32	14769
870.45	14735
870.58	14864
870.71	14804
870.84	14998
870.97	14781
871.1	14785
871.23	15066
871.36	15001
871.489	14891
871.619	14941
871.749	14861
871.879	15112
872.008	15214
872.138	14986
872.267	14960
872.397	14925
872.526	14781
872.656	14823
872.785	14944
872.915	15093
873.044	15028
873.173	15081
873.303	15138
873.432	15017
873.561	15116
873.69	15047
873.819	15116
873.948	15157
874.077	15005
874.206	15055
874.335	15024
874.464	15165
874.593	15378
874.722	15180
874.851	15386
874.979	15454
875.108	15355
875.237	15382
875.365	15405
875.494	15351
875.623	15443
875.751	15340
875.88	15454
876.008	15496
876.136	15526
876.265	15819
876.393	15861
876.521	15922
876.65	15899
876.778	15774
876.906	15724
877.034	15686
877.162	15804
877.29	15717
877.418	15705
877.546	15732
877.674	15842
877.802	15675
877.93	15743
878.058	15823
878.185	15618
878.313	15739
878.441	15766
878.568	15641
878.696	15679
878.824	15812
878.951	15972
879.079	15956
879.206	16166
879.333	16044
879.461	15804
879.588	15895
879.715	16059
879.842	16055
879.97	15823
880.097	15686
880.224	15622
880.351	15675
880.478	15709
880.605	15564
880.732	15614
880.859	15899
880.986	15591
881.112	15724
881.239	15679
881.366	15393
881.493	15275
881.619	15325
881.746	15211
881.872	15344
881.999	15298
882.125	15252
882.252	15355
882.378	15359
882.505	15443
882.631	15138
882.757	15119
882.883	15161
883.01	15131
883.136	15047
883.262	15020
883.388	15001
883.514	15066
883.64	15146
883.766	15024
883.892	15024
884.018	14944
884.143	15062
884.269	15264
884.395	14754
884.52	14739
884.646	14883
884.772	14815
884.897	14682
885.023	14838
885.148	14895
885.274	14868
885.399	14925
885.524	14823
885.65	14826
885.775	14910
885.9	14754
886.025	14880
886.15	14872
886.275	14716
886.4	14849
886.525	14792
886.65	14720
886.775	14765
886.9	14971
887.025	14975
887.149	14834
887.274	14606
887.399	14590
887.523	14587
887.648	14606
887.773	14575
887.897	14826
888.021	14621
888.146	14526
888.27	14746
888.395	14708
888.519	14655
888.643	14610
888.767	14811
888.891	14454
889.015	14427
889.139	14499
889.263	14484
889.387	14651
889.511	14697
889.635	14625
889.759	14396
889.883	14514
890.006	14522
890.13	14621
890.254	14476
890.377	14400
890.501	14271
890.624	14294
890.748	14400
890.871	14206
890.995	14172
891.118	14035
891.241	14206
891.364	14248
891.488	14301
891.611	14240
891.734	14210
891.857	14244
891.98	14225
892.103	14240
892.226	14282
892.349	14218
892.471	14111
892.594	14214
892.717	14233
892.839	14161
892.962	14233
893.085	14168
893.207	14210
893.33	14153
893.452	14202
893.575	14191
893.697	14138
893.819	14431
893.941	14446
894.064	14309
894.186	14119
894.308	14103
894.43	14328
894.552	14385
894.674	14317
894.796	14164
894.918	14145
895.04	14252
895.161	14278
895.283	14336
895.405	14332
895.526	14343
895.648	14206
895.769	14336
895.891	14355
896.012	14313
896.134	14412
896.255	14438
896.376	14317
896.498	14431
896.619	14415
896.74	14305
896.861	14442
896.982	14689
897.103	14693
897.224	14678
897.345	14701
897.466	14533
897.587	14651
897.708	14708
897.828	14689
897.949	14648
898.07	14461
898.19	14564
898.311	14800
898.431	14663
898.552	14758
898.672	14826
898.792	14785
898.913	14724
899.033	14617
899.153	14613
899.273	14434
899.393	14575
899.513	14659
899.633	14541
899.753	14625
899.873	14537
899.993	14583
900.113	14461
900.232	14545
900.352	14469
900.472	14476
900.591	14381
900.711	14431
900.83	14362
900.95	14518
901.069	14590
901.189	14351
901.308	14263
901.427	14134
901.546	14119
901.665	14107
901.784	14126
901.904	14020
902.023	13879
902.141	13738
902.26	13624
902.379	13715
902.498	13674
902.617	13643
902.735	13765
902.854	13605
902.973	13620
903.091	13373
903.21	13350
903.328	13384
903.446	13331
903.565	13270
903.683	13324
903.801	13179
903.919	13198
904.038	13240
904.156	13023
904.274	13179
904.392	13046
904.51	12939
904.627	13012
904.745	13080
904.863	13107
904.981	12909
905.098	12711
905.216	12696
905.334	12791
905.451	12772
905.569	12741
905.686	12791
905.803	12719
905.921	12532
906.038	12700
906.155	12555
906.272	12414
906.389	12547
906.506	12338
906.623	12319
906.74	12353
906.857	12232
906.974	12235
907.091	12410
907.208	12410
907.324	12361
907.441	12171
907.557	12083
907.674	12064
907.79	11965
907.907	12064
908.023	12076
908.139	12011
908.256	12117
908.372	11992
908.488	12003
908.604	11863
908.72	11912
908.836	11817
908.952	11779
909.068	11752
909.184	11969
909.3	11851
909.415	11920
909.531	11870
909.647	11627
909.762	11596
909.878	11528
909.993	11729
910.108	11619
910.224	11585
910.339	11589
910.454	11501
910.57	11433
910.685	11391
910.8	11726
910.915	11668
911.03	11570
911.145	11269
911.259	11292
911.374	11269
911.489	11299
911.604	11162
911.718	10991
911.833	11117
911.947	10949
912.062	10961
912.176	11045
912.291	11033
912.405	11083
912.519	11273
912.633	11280
912.748	11090
912.862	11098
912.976	10904
913.09	10771
913.204	10889
913.318	10938
913.431	11025
913.545	11022
913.659	11022
913.772	10995
913.886	10763
914	10850
914.113	10919
914.226	10930
914.34	10953
914.453	10797
914.566	10946
914.68	10744
914.793	10744
914.906	10580
915.019	10554
915.132	10550
915.245	10535
915.358	10592
915.47	10637
915.583	10573
915.696	10687
915.809	10702
915.921	10759
916.034	10565
916.146	10504
916.259	10421
916.371	10592
916.483	10637
916.595	10565
916.708	10504
916.82	10485
916.932	10443
917.044	10531
917.156	10497
917.268	10360
917.38	10375
917.491	10333
917.603	10478
917.715	10565
917.826	10462
917.938	10440
918.049	10265
918.161	10344
918.272	10497
918.384	10512
918.495	10436
918.606	10325
918.717	10204
918.828	10246
918.939	10337
919.05	10188
919.161	10352
919.272	10048
919.383	10112
919.494	10284
919.604	10512
919.715	10280
919.826	10215
919.936	10238
920.047	10443
920.157	10325
920.267	10542
920.378	10318
920.488	10280
920.598	10447
920.708	10637
920.818	10504
920.928	10470
921.038	10622
921.148	10599
921.258	10386
921.368	10337
921.477	10181
921.587	10131
921.697	10078
921.806	10158
921.916	9960
922.025	9838
922.134	9827
922.244	9861
922.353	9789
922.462	9709
922.571	9580
922.68	9488
922.789	9485
922.898	9507
923.007	9481
923.116	9530
923.224	9469
923.333	9488
923.442	9511
923.55	9408
923.659	9450
923.767	9500
923.876	9412
923.984	9519
924.092	9340
924.201	9462
924.309	9401
924.417	9386
924.525	9268
924.633	9393
924.741	10246
924.849	9176
924.956	9351
925.064	9188
925.172	9093
925.279	9146
925.387	9233
925.494	9207
925.602	9294
925.709	9298
925.816	9146
925.924	9264
926.031	9233
926.138	9180
926.245	9264
926.352	9112
926.459	9150
926.566	9275
926.673	9081
926.779	8998
926.886	9017
926.993	8880
927.099	8876
927.206	8921
927.312	8883
927.419	8929
927.525	8830
927.631	8910
927.737	8880
927.843	8754
927.95	8716
928.056	8807
928.162	8800
928.267	8792
928.373	9408
928.479	8948
928.585	8655
928.69	8864
928.796	8788
928.901	8655
929.007	8549
929.112	8678
929.218	8716
929.323	8610
929.428	8590
929.533	8701
929.638	8469
929.743	8617
929.848	8606
929.953	8636
930.058	8484
930.163	8313
930.267	8389
930.372	8518
930.477	8328
930.581	8594
930.685	8484
930.79	8309
930.894	8374
930.998	8298
931.103	8389
931.207	8145
931.311	8084
931.415	8001
931.519	7883
931.623	7917
