Data from test_V78500241_713.txt Node
Date: Fri Mar 25 14:38:40 CST 2022
User: usil
Spectrometer: V785-0024
Trigger mode: 0
Integration Time (sec): 4.000000E-1
Scans to average: 1
Nonlinearity correction enabled: false
Boxcar width: 0
Storing dark spectrum: false
XAxis mode: Wavelengths
Number of Pixels in Spectrum: 1024
>>>>>Begin Spectral Data<<<<<
801.071	27701
801.214	27603
801.356	27370
801.499	27211
801.641	27062
801.783	26899
801.926	26971
802.068	26940
802.211	26921
802.353	26727
802.496	26663
802.638	26541
802.78	26549
802.923	26446
803.065	26446
803.208	26488
803.35	26564
803.492	26613
803.635	26617
803.777	26655
803.919	26773
804.061	26910
804.204	26811
804.346	26739
804.488	26750
804.63	26842
804.773	26762
804.915	26861
805.057	27081
805.199	27077
805.341	27131
805.483	27176
805.626	27245
805.768	27355
805.91	27378
806.052	27549
806.194	27606
806.336	27934
806.478	28070
806.62	28162
806.762	28626
806.904	28984
807.046	29448
807.188	29718
807.33	30136
807.472	30688
807.614	31259
807.756	32320
807.898	33363
808.04	34831
808.182	36996
808.324	39804
808.465	42833
808.607	45994
808.749	49065
808.891	50834
809.033	51214
809.174	49422
809.316	46474
809.458	43050
809.6	39450
809.741	36703
809.883	34474
810.025	33055
810.166	31894
810.308	31004
810.45	30224
810.591	29786
810.733	29170
810.875	28877
811.016	28531
811.158	28440
811.299	28166
811.441	28177
811.582	28055
811.724	27819
811.865	27656
812.007	27599
812.148	27629
812.29	27450
812.431	27458
812.573	27679
812.714	27656
812.855	27785
812.997	27774
813.138	27671
813.279	27728
813.421	27500
813.562	27332
813.703	27154
813.845	27051
813.986	26674
814.127	26499
814.268	26286
814.41	26431
814.551	26248
814.692	26240
814.833	26130
814.974	26164
815.115	26092
815.256	26069
815.397	25902
815.539	25982
815.68	25947
815.821	25723
815.962	25765
816.103	25742
816.244	25533
816.385	25449
816.526	25350
816.666	25194
816.807	25072
816.948	25152
817.089	25232
817.23	25160
817.371	25110
817.512	25042
817.653	24966
817.793	25015
817.934	25008
818.075	25187
818.216	24935
818.356	24825
818.497	24852
818.638	24696
818.778	24677
818.919	24688
819.06	24722
819.2	24787
819.341	24958
819.481	24909
819.622	24920
819.762	25209
819.903	25038
820.043	25008
820.184	24878
820.324	24833
820.465	24905
820.605	24905
820.746	24878
820.886	24593
821.026	24631
821.167	24741
821.307	24920
821.447	24749
821.588	24582
821.728	24407
821.868	24209
822.008	24152
822.149	24049
822.289	23954
822.429	23821
822.569	23691
822.709	23790
822.849	23543
822.99	23554
823.13	23539
823.27	23410
823.41	23303
823.55	23181
823.69	23261
823.83	23353
823.97	23284
824.11	22972
824.25	23075
824.389	23029
824.529	23208
824.669	23048
824.809	23140
824.949	23117
825.089	23140
825.228	22892
825.368	22972
825.508	22942
825.648	22862
825.787	22927
825.927	22946
826.067	22809
826.206	22824
826.346	22767
826.485	22828
826.625	22782
826.765	22854
826.904	22828
827.044	22615
827.183	22615
827.323	22546
827.462	22531
827.601	22485
827.741	22398
827.88	22421
828.02	22474
828.159	22432
828.298	22424
828.437	22489
828.577	22303
828.716	22573
828.855	22577
828.994	22268
829.134	22215
829.273	22303
829.412	22124
829.551	22162
829.69	22124
829.829	22211
829.968	22238
830.107	22158
830.246	22177
830.385	22131
830.524	22067
830.663	21873
830.802	21918
830.941	21857
831.08	21682
831.219	21816
831.357	21869
831.496	21964
831.635	21789
831.774	21652
831.913	21675
832.051	21622
832.19	21606
832.329	21644
832.467	21671
832.606	21701
832.744	21633
832.883	21743
833.022	21808
833.16	21968
833.299	21934
833.437	22097
833.576	22310
833.714	22356
833.852	22569
833.991	22611
834.129	22824
834.267	22824
834.406	22736
834.544	22637
834.682	22462
834.821	22424
834.959	22421
835.097	22025
835.235	22093
835.373	21941
835.511	21861
835.65	21633
835.788	21542
835.926	21313
836.064	21222
836.202	21222
836.34	21367
836.478	21511
836.615	21351
836.753	21378
836.891	21428
837.029	21279
837.167	21207
837.305	21173
837.443	21173
837.58	21112
837.718	21264
837.856	21195
837.993	21047
838.131	21058
838.269	20971
838.406	21058
838.544	20960
838.681	20655
838.819	20587
838.956	20579
839.094	20438
839.231	20602
839.369	20727
839.506	20902
839.643	20758
839.781	20632
839.918	20442
840.055	20552
840.193	20495
840.33	20438
840.467	20446
840.604	20461
840.742	20743
840.879	20347
841.016	20533
841.153	20324
841.29	20667
841.427	20446
841.564	20594
841.701	20590
841.838	20533
841.975	20454
842.112	20564
842.249	20248
842.385	20347
842.522	20469
842.659	20336
842.796	20221
842.933	20275
843.069	20317
843.206	20419
843.343	20393
843.479	20473
843.616	20374
843.752	20317
843.889	20415
844.025	20484
844.162	20473
844.298	20807
844.435	20746
844.571	21036
844.708	21294
844.844	21728
844.98	21983
845.117	22748
845.253	23745
845.389	25746
845.525	29459
845.661	35436
845.798	42334
845.934	47630
846.07	49316
846.206	48022
846.342	43152
846.478	36167
846.614	30152
846.75	26259
846.886	23954
847.022	22596
847.158	21568
847.294	21062
847.429	20716
847.565	20499
847.701	20438
847.837	19917
847.972	19719
848.108	19795
848.244	19662
848.379	19460
848.515	19415
848.65	19312
848.786	19411
848.921	19331
849.057	19407
849.192	19331
849.328	19209
849.463	19282
849.598	19209
849.734	19110
849.869	19072
850.004	19084
850.14	18962
850.275	19038
850.41	18840
850.545	18989
850.68	18856
850.815	19069
850.95	18924
851.085	18973
851.22	19012
851.355	18856
851.49	18852
851.625	18726
851.76	18939
851.895	18863
852.03	18779
852.165	18890
852.299	18913
852.434	18985
852.569	18962
852.703	18928
852.838	19031
852.973	19164
853.107	19209
853.242	19110
853.376	19034
853.511	18989
853.645	19034
853.78	19137
853.914	19221
854.048	19187
854.183	19027
854.317	19221
854.451	19430
854.585	19069
854.72	19190
854.854	19175
854.988	18939
855.122	19034
855.256	18916
855.39	18779
855.524	19053
855.658	18928
855.792	18844
855.926	18966
856.06	18901
856.194	18871
856.327	18779
856.461	18802
856.595	18730
856.729	18738
856.862	18875
856.996	18696
857.13	18757
857.263	18798
857.397	18768
857.53	18833
857.664	18650
857.797	18734
857.931	18722
858.064	18673
858.197	18601
858.331	18681
858.464	18601
858.597	18433
858.731	18604
858.864	18570
858.997	18597
859.13	18620
859.263	18654
859.396	18601
859.529	18509
859.662	18555
859.795	18585
859.928	18559
860.061	18612
860.194	18722
860.327	18555
860.46	18452
860.592	18608
860.725	18639
860.858	18544
860.99	18582
861.123	18437
861.256	18448
861.388	18460
861.521	19228
861.653	18475
861.786	18266
861.918	18414
862.05	18334
862.183	18490
862.315	18502
862.447	18570
862.58	18513
862.712	18350
862.844	18228
862.976	18452
863.108	18186
863.24	18722
863.372	18224
863.504	18167
863.636	18296
863.768	18304
863.9	18163
864.032	18110
864.164	18136
864.296	18251
864.428	18350
864.559	18190
864.691	18270
864.823	18174
864.954	18148
865.086	18114
865.217	18114
865.349	18041
865.48	18159
865.612	18079
865.743	18197
865.875	18091
866.006	18068
866.137	18102
866.269	18091
866.4	18106
866.531	18144
866.662	18015
866.793	18140
866.924	18060
867.055	18079
867.186	18057
867.317	18068
867.448	18064
867.579	18091
867.71	17980
867.841	18076
867.972	18167
868.103	18083
868.233	18129
868.364	18098
868.495	18205
868.625	18201
868.756	18441
868.886	18323
869.017	18213
869.147	18448
869.278	18471
869.408	18399
869.539	18384
869.669	18471
869.799	18452
869.929	18555
870.06	18433
870.19	18703
870.32	18635
870.45	18817
870.58	18844
870.71	18859
870.84	18909
870.97	18829
871.1	18825
871.23	18977
871.36	19057
871.489	18989
871.619	19019
871.749	18985
871.879	19012
872.008	19145
872.138	19076
872.267	19168
872.397	18951
872.526	18901
872.656	19027
872.785	18935
872.915	19217
873.044	19266
873.173	19285
873.303	19209
873.432	19312
873.561	19244
873.69	19354
873.819	19324
873.948	19438
874.077	19499
874.206	19422
874.335	19537
874.464	19658
874.593	19822
874.722	19757
874.851	19833
874.979	19841
875.108	19936
875.237	19928
875.365	19909
875.494	20020
875.623	20027
875.751	19997
875.88	20130
876.008	20320
876.136	20362
876.265	20602
876.393	20830
876.521	20823
876.65	20952
876.778	20895
876.906	20845
877.034	21036
877.162	21085
877.29	21001
877.418	21188
877.546	21317
877.674	21458
877.802	21477
877.93	21686
878.058	21808
878.185	21979
878.313	22265
878.441	22675
878.568	22961
878.696	23665
878.824	24486
878.951	25655
879.079	27188
879.206	29178
879.333	31438
879.461	32960
879.588	34348
879.715	34261
879.842	33454
879.97	31407
880.097	29258
880.224	27439
880.351	26431
880.478	25506
880.605	24848
880.732	24517
880.859	24403
880.986	23984
881.112	23954
881.239	23752
881.366	23585
881.493	23509
881.619	23547
881.746	23608
881.872	23497
881.999	23558
882.125	23638
882.252	23828
882.378	23726
882.505	23969
882.631	23798
882.757	23505
882.883	23672
883.01	23539
883.136	23592
883.262	23524
883.388	23387
883.514	23531
883.64	23463
883.766	23452
883.892	23303
884.018	23189
884.143	23486
884.269	23649
884.395	23337
884.52	23242
884.646	23330
884.772	23147
884.897	23117
885.023	23174
885.148	23467
885.274	23303
885.399	23239
885.524	23071
885.65	22904
885.775	22873
885.9	22653
886.025	22611
886.15	22443
886.275	21998
886.4	21846
886.525	21892
886.65	21774
886.775	21561
886.9	21644
887.025	21564
887.149	21359
887.274	21039
887.399	20998
887.523	20914
887.648	20678
887.773	20667
887.897	20708
888.021	20651
888.146	20450
888.27	20606
888.395	20526
888.519	20366
888.643	20301
888.767	20324
888.891	20187
889.015	19967
889.139	20020
889.263	19860
889.387	19944
889.511	20012
889.635	19780
889.759	19715
889.883	19715
890.006	19582
890.13	19712
890.254	19597
890.377	19658
890.501	19339
890.624	19365
890.748	19419
890.871	19152
890.995	19061
891.118	18985
891.241	19145
891.364	19019
891.488	18970
891.611	18856
891.734	18901
891.857	18924
891.98	19015
892.103	19004
892.226	18886
892.349	18787
892.471	18623
892.594	18734
892.717	18532
892.839	18623
892.962	18639
893.085	18719
893.207	18452
893.33	18315
893.452	18403
893.575	18445
893.697	18418
893.819	18486
893.941	18570
894.064	18414
894.186	18304
894.308	18216
894.43	18380
894.552	18452
894.674	18330
894.796	18125
894.918	18155
895.04	18125
895.161	18338
895.283	18201
895.405	18095
895.526	18205
895.648	18068
895.769	18235
895.891	18174
896.012	18125
896.134	18136
896.255	18213
896.376	18095
896.498	18201
896.619	18167
896.74	17980
896.861	18007
896.982	18479
897.103	18494
897.224	18350
897.345	18285
897.466	18140
897.587	18266
897.708	18422
897.828	18289
897.949	18083
898.07	18049
898.19	18125
898.311	18258
898.431	18133
898.552	18247
898.672	18376
898.792	18369
898.913	18190
899.033	18072
899.153	18007
899.273	17908
899.393	17992
899.513	18026
899.633	17870
899.753	17958
899.873	18049
899.993	18064
900.113	17984
900.232	18072
900.352	18049
900.472	17771
900.591	17786
900.711	17760
900.83	17756
900.95	17923
901.069	17916
901.189	17695
901.308	17429
901.427	17254
901.546	17345
901.665	17509
901.784	17436
901.904	17204
902.023	17094
902.141	16869
902.26	16820
902.379	16915
902.498	16809
902.617	16835
902.735	16835
902.854	16797
902.973	16721
903.091	16527
903.21	16588
903.328	16443
903.446	16299
903.565	16280
903.683	16341
903.801	16120
903.919	16234
904.038	16211
904.156	15991
904.274	16044
904.392	15975
904.51	15930
904.627	15972
904.745	16071
904.863	16013
904.981	15857
905.098	15622
905.216	15663
905.334	15705
905.451	15595
905.569	15633
905.686	15580
905.803	15671
905.921	15355
906.038	15633
906.155	15378
906.272	15218
906.389	15268
906.506	15157
906.623	15119
906.74	15036
906.857	15116
906.974	15104
907.091	15211
907.208	15161
907.324	15127
907.441	15100
907.557	14887
907.674	14804
907.79	14891
907.907	14864
908.023	14823
908.139	14944
908.256	14800
908.372	14796
908.488	14735
908.604	14625
908.72	14579
908.836	14568
908.952	14552
909.068	14579
909.184	14632
909.3	14552
909.415	14571
909.531	14549
909.647	14400
909.762	14267
909.878	14317
909.993	14374
910.108	14324
910.224	14282
910.339	14355
910.454	14221
910.57	14164
910.685	14073
910.8	14415
910.915	14381
911.03	14088
911.145	14062
911.259	13906
911.374	13982
911.489	13845
911.604	13864
911.718	13742
911.833	13696
911.947	13563
912.062	13544
912.176	13582
912.291	13670
912.405	13704
912.519	13822
912.633	13814
912.748	13647
912.862	13719
912.976	13510
913.09	13468
913.204	13556
913.318	13571
913.431	13674
913.545	13575
913.659	13708
913.772	13491
913.886	13388
914	13400
914.113	13392
914.226	13544
914.34	13495
914.453	13289
914.566	13407
914.68	13240
914.793	13240
914.906	13080
915.019	13050
915.132	12993
915.245	13076
915.358	13076
915.47	13088
915.583	13118
915.696	13015
915.809	13152
915.921	13129
916.034	13027
916.146	13012
916.259	12973
916.371	13160
916.483	13110
916.595	13038
916.708	13015
916.82	13023
916.932	13122
917.044	13031
917.156	12996
917.268	12837
917.38	12852
917.491	12795
917.603	12810
917.715	12920
917.826	12852
917.938	12673
918.049	12688
918.161	12783
918.272	12920
918.384	12951
918.495	12738
918.606	12601
918.717	12525
918.828	12593
918.939	12658
919.05	12528
919.161	12559
919.272	12426
919.383	12410
919.494	12601
919.604	12814
919.715	12616
919.826	12490
919.936	12441
920.047	12681
920.157	12585
920.267	12616
920.378	12563
920.488	12525
920.598	12779
920.708	12863
920.818	12658
920.928	12722
921.038	12859
921.148	12749
921.258	12452
921.368	12540
921.477	12281
921.587	12319
921.697	12129
921.806	12311
921.916	12182
922.025	11958
922.134	11927
922.244	11950
922.353	11931
922.462	11897
922.571	11847
922.68	11638
922.789	11775
922.898	11672
923.007	11623
923.116	11634
923.224	11634
923.333	11562
923.442	11562
923.55	11383
923.659	11459
923.767	11455
923.876	11486
923.984	11581
924.092	11410
924.201	11467
924.309	11414
924.417	11391
924.525	11376
924.633	11311
924.741	12289
924.849	11246
924.956	11273
925.064	11151
925.172	11109
925.279	11102
925.387	11102
925.494	11178
925.602	11318
925.709	11140
925.816	11128
925.924	11166
926.031	11269
926.138	11140
926.245	11185
926.352	10999
926.459	11155
926.566	11181
926.673	11033
926.779	11094
926.886	10961
926.993	10740
927.099	10706
927.206	10691
927.312	10702
927.419	10835
927.525	10782
927.631	10828
927.737	10706
927.843	10683
927.95	10531
928.056	10656
928.162	10626
928.267	10740
928.373	11273
928.479	10717
928.585	10561
928.69	10599
928.796	10679
928.901	10519
929.007	10371
929.112	10500
929.218	10500
929.323	10424
929.428	10379
929.533	10573
929.638	10306
929.743	10375
929.848	10390
929.953	10402
930.058	10284
930.163	10090
930.267	10185
930.372	10284
930.477	10177
930.581	10360
930.685	10196
930.79	9964
930.894	10032
930.998	9994
931.103	10230
931.207	9800
931.311	9717
931.415	9713
931.519	9542
931.623	9447
