Data from test_V78500241_125.txt Node
Date: Fri Mar 25 14:34:35 CST 2022
User: usil
Spectrometer: V785-0024
Trigger mode: 0
Integration Time (sec): 4.000000E-1
Scans to average: 1
Nonlinearity correction enabled: false
Boxcar width: 0
Storing dark spectrum: false
XAxis mode: Wavelengths
Number of Pixels in Spectrum: 1024
>>>>>Begin Spectral Data<<<<<
801.071	30095
801.214	29862
801.356	29547
801.499	29642
801.641	29452
801.783	29379
801.926	29360
802.068	29433
802.211	29235
802.353	29292
802.496	29079
802.638	28968
802.78	29033
802.923	28885
803.065	29010
803.208	29174
803.35	29189
803.492	29098
803.635	29204
803.777	29136
803.919	29372
804.061	29436
804.204	29330
804.346	29197
804.488	29250
804.63	29246
804.773	29250
804.915	29414
805.057	29699
805.199	29425
805.341	29657
805.483	29752
805.626	29687
805.768	29729
805.91	29794
806.052	29958
806.194	30015
806.336	30395
806.478	30369
806.62	30407
806.762	30745
806.904	31038
807.046	31487
807.188	31772
807.33	32081
807.472	32507
807.614	33047
807.756	33800
807.898	34588
808.04	35706
808.182	37403
808.324	39386
808.465	41695
808.607	44252
808.749	46584
808.891	47699
809.033	47722
809.174	46398
809.316	44294
809.458	41577
809.6	38857
809.741	36897
809.883	35277
810.025	34162
810.166	33355
810.308	32796
810.45	32202
810.591	31852
810.733	31369
810.875	31175
811.016	30871
811.158	30555
811.299	30707
811.441	30730
811.582	30452
811.724	30334
811.865	30239
812.007	30194
812.148	30022
812.29	30076
812.431	30053
812.573	30034
812.714	30281
812.855	30213
812.997	30254
813.138	30399
813.279	30311
813.421	30205
813.562	30201
813.703	29904
813.845	29783
813.986	29436
814.127	29375
814.268	29109
814.41	29200
814.551	29155
814.692	29159
814.833	28930
814.974	28946
815.115	29052
815.256	28843
815.397	28854
815.539	28793
815.68	28630
815.821	28577
815.962	28535
816.103	28569
816.244	28500
816.385	28462
816.526	28280
816.666	28074
816.807	28090
816.948	28154
817.089	28181
817.23	28025
817.371	28025
817.512	27895
817.653	28067
817.793	27804
817.934	27949
818.075	27968
818.216	27941
818.356	27732
818.497	27663
818.638	27549
818.778	27637
818.919	27713
819.06	27755
819.2	27732
819.341	27835
819.481	27717
819.622	27865
819.762	28048
819.903	27926
820.043	27865
820.184	27911
820.324	27793
820.465	27854
820.605	27778
820.746	27709
820.886	27534
821.026	27709
821.167	27648
821.307	27720
821.447	27580
821.588	27351
821.728	27458
821.868	27268
822.008	26967
822.149	26857
822.289	26975
822.429	26682
822.569	26583
822.709	26609
822.849	26484
822.99	26412
823.13	26408
823.27	26358
823.41	26130
823.55	26065
823.69	26206
823.83	26062
823.97	26096
824.11	26016
824.25	25963
824.389	25955
824.529	25951
824.669	25947
824.809	25982
824.949	26100
825.089	26054
825.228	25989
825.368	25655
825.508	25757
825.648	25761
825.787	25662
825.927	25795
826.067	25655
826.206	25761
826.346	25677
826.485	25807
826.625	25666
826.765	25814
826.904	25632
827.044	25491
827.183	25449
827.323	25381
827.462	25464
827.601	25441
827.741	25472
827.88	25324
828.02	25343
828.159	25206
828.298	25293
828.437	25491
828.577	25293
828.716	25476
828.855	25263
828.994	25057
829.134	25034
829.273	25004
829.412	25012
829.551	25042
829.69	24977
829.829	25069
829.968	25038
830.107	25015
830.246	24875
830.385	24882
830.524	25088
830.663	24817
830.802	24760
830.941	24601
831.08	24540
831.219	24582
831.357	24753
831.496	24734
831.635	24616
831.774	24494
831.913	24532
832.051	24407
832.19	24380
832.329	24376
832.467	24353
832.606	24262
832.744	24429
832.883	24429
833.022	24528
833.16	24471
833.299	24673
833.437	24741
833.576	24795
833.714	24943
833.852	25213
833.991	25175
834.129	25251
834.267	25308
834.406	25187
834.544	25103
834.682	25099
834.821	24814
834.959	24905
835.097	24684
835.235	24779
835.373	24528
835.511	24448
835.65	24277
835.788	24232
835.926	24133
836.064	24064
836.202	24030
836.34	23992
836.478	24068
836.615	23996
836.753	24140
836.891	24216
837.029	23961
837.167	23999
837.305	23889
837.443	23893
837.58	23863
837.718	23931
837.856	23710
837.993	23703
838.131	23821
838.269	23710
838.406	23748
838.544	23551
838.681	23524
838.819	23383
838.956	23269
839.094	23277
839.231	23189
839.369	23334
839.506	23543
839.643	23383
839.781	23155
839.918	23056
840.055	23212
840.193	23044
840.33	23014
840.467	23102
840.604	23086
840.742	23368
840.879	22976
841.016	22976
841.153	23006
841.29	23296
841.427	23064
841.564	23105
841.701	23083
841.838	23064
841.975	22961
842.112	22968
842.249	22824
842.385	22847
842.522	23162
842.659	22889
842.796	22850
842.933	22968
843.069	22850
843.206	22881
843.343	22999
843.479	22965
843.616	22915
843.752	22767
843.889	22896
844.025	22957
844.162	22900
844.298	23090
844.435	23208
844.571	23303
844.708	23482
844.844	23836
844.98	24174
845.117	24795
845.253	25422
845.389	26609
845.525	29474
845.661	33812
845.798	39024
845.934	43133
846.07	44663
846.206	43620
846.342	40051
846.478	34744
846.614	30224
846.75	27154
846.886	25377
847.022	24369
847.158	23573
847.294	23162
847.429	22965
847.565	22649
847.701	22782
847.837	22173
847.972	22147
848.108	22215
848.244	22097
848.379	21937
848.515	21785
848.65	21679
848.786	21717
848.921	21591
849.057	21838
849.192	21797
849.328	21713
849.463	21766
849.598	21648
849.734	21618
849.869	21504
850.004	21412
850.14	21374
850.275	21485
850.41	21157
850.545	21386
850.68	21424
850.815	21397
850.95	21298
851.085	21500
851.22	21485
851.355	21313
851.49	21321
851.625	21340
851.76	21291
851.895	21272
852.03	21382
852.165	21302
852.299	21481
852.434	21412
852.569	21374
852.703	21408
852.838	21443
852.973	21492
853.107	21576
853.242	21336
853.376	21294
853.511	21363
853.645	21203
853.78	21443
853.914	21458
854.048	21416
854.183	21294
854.317	21454
854.451	21526
854.585	21477
854.72	21412
854.854	21473
854.988	21389
855.122	21359
855.256	21135
855.39	21237
855.524	21336
855.658	21279
855.792	21283
855.926	21237
856.06	21241
856.194	21146
856.327	21249
856.461	21096
856.595	21089
856.729	21264
856.862	21279
856.996	21119
857.13	21222
857.263	21093
857.397	21150
857.53	21108
857.664	21058
857.797	21138
857.931	21275
858.064	21085
858.197	21131
858.331	21138
858.464	20941
858.597	20861
858.731	20986
858.864	20918
858.997	20990
859.13	21108
859.263	21043
859.396	21135
859.529	20986
859.662	20899
859.795	20914
859.928	20990
860.061	21047
860.194	21039
860.327	20967
860.46	20902
860.592	20845
860.725	21096
860.858	21047
860.99	20937
861.123	20845
861.256	20731
861.388	21001
861.521	21561
861.653	20758
861.786	20792
861.918	20948
862.05	20933
862.183	21135
862.315	21036
862.447	21142
862.58	21070
862.712	20765
862.844	20701
862.976	20705
863.108	20765
863.24	20929
863.372	20560
863.504	20609
863.636	20659
863.768	20617
863.9	20579
864.032	20564
864.164	20488
864.296	20678
864.428	20663
864.559	20621
864.691	20701
864.823	20636
864.954	20537
865.086	20526
865.217	20587
865.349	20446
865.48	20541
865.612	20473
865.743	20609
865.875	20575
866.006	20404
866.137	20438
866.269	20480
866.4	20450
866.531	20503
866.662	20408
866.793	20419
866.924	20434
867.055	20465
867.186	20427
867.317	20419
867.448	20298
867.579	20362
867.71	20256
867.841	20355
867.972	20446
868.103	20427
868.233	20446
868.364	20404
868.495	20492
868.625	20655
868.756	20670
868.886	20564
869.017	20705
869.147	20842
869.278	20731
869.408	20648
869.539	20663
869.669	20648
869.799	20678
869.929	20834
870.06	20902
870.19	20952
870.32	20952
870.45	20967
870.58	21142
870.71	21157
870.84	21203
870.97	21104
871.1	21100
871.23	21321
871.36	21272
871.489	21252
871.619	21496
871.749	21310
871.879	21405
872.008	21488
872.138	21348
872.267	21500
872.397	21154
872.526	21260
872.656	21154
872.785	21264
872.915	21462
873.044	21618
873.173	21473
873.303	21622
873.432	21511
873.561	21728
873.69	21591
873.819	21709
873.948	21629
874.077	21724
874.206	21648
874.335	21667
874.464	21759
874.593	22044
874.722	21819
874.851	22086
874.979	22036
875.108	22173
875.237	22025
875.365	22090
875.494	22048
875.623	22204
875.751	22150
875.88	22169
876.008	22409
876.136	22508
876.265	22691
876.393	22778
876.521	22942
876.65	22915
876.778	22892
876.906	22908
877.034	22885
877.162	22999
877.29	23094
877.418	23113
877.546	23246
877.674	23235
877.802	23414
877.93	23528
878.058	23566
878.185	23577
878.313	23866
878.441	24190
878.568	24292
878.696	24738
878.824	25483
878.951	26419
879.079	27534
879.206	29227
879.333	30852
879.461	32252
879.588	32940
879.715	33009
879.842	32351
879.97	30890
880.097	29204
880.224	27888
880.351	27066
880.478	26336
880.605	25784
880.732	25689
880.859	25658
880.986	25263
881.112	25118
881.239	25004
881.366	24977
881.493	24776
881.619	24764
881.746	24734
881.872	24658
881.999	24703
882.125	24669
882.252	24882
882.378	24829
882.505	24977
882.631	24825
882.757	24684
882.883	24798
883.01	24623
883.136	24563
883.262	24464
883.388	24490
883.514	24593
883.64	24513
883.766	24422
883.892	24323
884.018	24342
884.143	24658
884.269	24566
884.395	24330
884.52	24327
884.646	24414
884.772	24239
884.897	24174
885.023	24334
885.148	24311
885.274	24323
885.399	24205
885.524	24117
885.65	23977
885.775	23885
885.9	23760
886.025	23687
886.15	23798
886.275	23417
886.4	23258
886.525	23307
886.65	23121
886.775	23086
886.9	23105
887.025	23090
887.149	22767
887.274	22653
887.399	22451
887.523	22318
887.648	22325
887.773	22116
887.897	22291
888.021	22162
888.146	22021
888.27	22246
888.395	22036
888.519	21892
888.643	22048
888.767	21956
888.891	21785
889.015	21690
889.139	21694
889.263	21705
889.387	21622
889.511	21698
889.635	21671
889.759	21515
889.883	21408
890.006	21534
890.13	21435
890.254	21325
890.377	21302
890.501	21169
890.624	21058
890.748	21104
890.871	20815
890.995	20853
891.118	20785
891.241	20686
891.364	20765
891.488	20872
891.611	20811
891.734	20621
891.857	20765
891.98	20724
892.103	20667
892.226	20621
892.349	20659
892.471	20347
892.594	20518
892.717	20434
892.839	20370
892.962	20522
893.085	20438
893.207	20385
893.33	20248
893.452	20259
893.575	20347
893.697	20290
893.819	20355
893.941	20507
894.064	20343
894.186	20199
894.308	20046
894.43	20317
894.552	20271
894.674	20180
894.796	20008
894.918	20111
895.04	20191
895.161	20130
895.283	20149
895.405	19955
895.526	20088
895.648	20100
895.769	20073
895.891	20054
896.012	20187
896.134	20069
896.255	20107
896.376	20088
896.498	19978
896.619	20031
896.74	20035
896.861	20062
896.982	20313
897.103	20431
897.224	20259
897.345	20191
897.466	20271
897.587	20240
897.708	20385
897.828	20278
897.949	20069
898.07	19986
898.19	20062
898.311	20172
898.431	20107
898.552	20199
898.672	20202
898.792	20233
898.913	20050
899.033	19928
899.153	19940
899.273	19803
899.393	19852
899.513	19963
899.633	19765
899.753	19833
899.873	19723
899.993	19772
900.113	19841
900.232	19803
900.352	19780
900.472	19639
900.591	19575
900.711	19788
900.83	19628
900.95	19681
901.069	19742
901.189	19453
901.308	19266
901.427	19213
901.546	19225
901.665	19206
901.784	19206
901.904	19038
902.023	18916
902.141	18795
902.26	18833
902.379	18730
902.498	18711
902.617	18604
902.735	18585
902.854	18642
902.973	18498
903.091	18197
903.21	18201
903.328	18292
903.446	18129
903.565	18102
903.683	18087
903.801	17843
903.919	18022
904.038	17973
904.156	17699
904.274	17847
904.392	17809
904.51	17752
904.627	17722
904.745	17802
904.863	17866
904.981	17524
905.098	17516
905.216	17364
905.334	17353
905.451	17463
905.569	17337
905.686	17372
905.803	17337
905.921	17140
906.038	17246
906.155	17033
906.272	17045
906.389	17128
906.506	16904
906.623	17014
906.74	16877
906.857	16675
906.974	16843
907.091	16881
907.208	16892
907.324	16858
907.441	16778
907.557	16592
907.674	16504
907.79	16497
907.907	16599
908.023	16622
908.139	16599
908.256	16455
908.372	16550
908.488	16318
908.604	16249
908.72	16306
908.836	16238
908.952	16150
909.068	16181
909.184	16352
909.3	16341
909.415	16280
909.531	16204
909.647	16013
909.762	15903
909.878	15915
909.993	16013
910.108	15941
910.224	15918
910.339	15945
910.454	15838
910.57	15812
910.685	15698
910.8	16074
910.915	16032
911.03	15694
911.145	15705
911.259	15591
911.374	15507
911.489	15504
911.604	15469
911.718	15298
911.833	15393
911.947	15241
912.062	15108
912.176	15363
912.291	15321
912.405	15272
912.519	15462
912.633	15450
912.748	15313
912.862	15207
912.976	15093
913.09	15093
913.204	15013
913.318	15077
913.431	15157
913.545	15188
913.659	15176
913.772	15013
913.886	14933
914	14982
914.113	14944
914.226	15077
914.34	14994
914.453	14807
914.566	15009
914.68	14769
914.793	14826
914.906	14689
915.019	14575
915.132	14507
915.245	14507
915.358	14632
915.47	14663
915.583	14613
915.696	14659
915.809	14648
915.921	14716
916.034	14473
916.146	14541
916.259	14583
916.371	14571
916.483	14552
916.595	14412
916.708	14404
916.82	14415
916.932	14393
917.044	14461
917.156	14351
917.268	14237
917.38	14233
917.491	14290
917.603	14275
917.715	14290
917.826	14336
917.938	14115
918.049	14069
918.161	14115
918.272	14290
918.384	14225
918.495	14096
918.606	14043
918.717	13913
918.828	13871
918.939	14058
919.05	13913
919.161	13967
919.272	13704
919.383	13822
919.494	13940
919.604	14043
919.715	13963
919.826	13807
919.936	13887
920.047	13986
920.157	13860
920.267	14005
920.378	13837
920.488	13913
920.598	14043
920.708	14157
920.818	14020
920.928	13993
921.038	14172
921.148	14168
921.258	13845
921.368	13795
921.477	13548
921.587	13639
921.697	13487
921.806	13582
921.916	13510
922.025	13384
922.134	13400
922.244	13240
922.353	13320
922.462	13110
922.571	13099
922.68	12958
922.789	12840
922.898	12958
923.007	12916
923.116	13000
923.224	12901
923.333	12867
923.442	12795
923.55	12795
923.659	12783
923.767	12825
923.876	12711
923.984	12738
924.092	12544
924.201	12688
924.309	12627
924.417	12738
924.525	12574
924.633	12642
924.741	13472
924.849	12422
924.956	12536
925.064	12391
925.172	12296
925.279	12448
925.387	12410
925.494	12346
925.602	12456
925.709	12422
925.816	12254
925.924	12361
926.031	12448
926.138	12319
926.245	12391
926.352	12292
926.459	12407
926.566	12388
926.673	12273
926.779	12133
926.886	12152
926.993	12019
927.099	11988
927.206	11847
927.312	11923
927.419	11965
927.525	11859
927.631	11954
927.737	11866
927.843	11866
927.95	11707
928.056	11790
928.162	11843
928.267	11832
928.373	12209
928.479	11786
928.585	11707
928.69	11684
928.796	11745
928.901	11649
929.007	11543
929.112	11638
929.218	11608
929.323	11509
929.428	11471
929.533	11649
929.638	11482
929.743	11429
929.848	11497
929.953	11474
930.058	11337
930.163	11174
930.267	11189
930.372	11235
930.477	11151
930.581	11376
930.685	11254
930.79	11064
930.894	11208
930.998	11162
931.103	11151
931.207	10778
931.311	10706
931.415	10622
931.519	10455
931.623	10508
