Data from test_V78500241_988.txt Node
Date: Fri Mar 25 14:40:35 CST 2022
User: usil
Spectrometer: V785-0024
Trigger mode: 0
Integration Time (sec): 4.000000E-1
Scans to average: 1
Nonlinearity correction enabled: false
Boxcar width: 0
Storing dark spectrum: false
XAxis mode: Wavelengths
Number of Pixels in Spectrum: 1024
>>>>>Begin Spectral Data<<<<<
801.071	23299
801.214	23056
801.356	22900
801.499	22755
801.641	22683
801.783	22557
801.926	22588
802.068	22443
802.211	22421
802.353	22322
802.496	22158
802.638	22017
802.78	22002
802.923	21953
803.065	22063
803.208	21755
803.35	21915
803.492	22032
803.635	22010
803.777	21842
803.919	22124
804.061	22318
804.204	21987
804.346	21850
804.488	21823
804.63	21926
804.773	21766
804.915	21854
805.057	21941
805.199	21873
805.341	21945
805.483	22013
805.626	22029
805.768	21732
805.91	21903
806.052	21964
806.194	21873
806.336	22025
806.478	21994
806.62	21983
806.762	22105
806.904	22291
807.046	22356
807.188	22436
807.33	22485
807.472	22398
807.614	22443
807.756	22527
807.898	22474
808.04	22428
808.182	22569
808.324	22873
808.465	23155
808.607	23360
808.749	23615
808.891	23817
809.033	23893
809.174	23657
809.316	23376
809.458	23200
809.6	22881
809.741	22831
809.883	22805
810.025	22816
810.166	22744
810.308	22755
810.45	22637
810.591	22489
810.733	22421
810.875	22329
811.016	22173
811.158	22230
811.299	22139
811.441	22371
811.582	22272
811.724	22074
811.865	22097
812.007	22173
812.148	22124
812.29	22128
812.431	22287
812.573	22466
812.714	22508
812.855	22489
812.997	22691
813.138	22839
813.279	22748
813.421	22538
813.562	22478
813.703	22455
813.845	22226
813.986	21972
814.127	21892
814.268	21759
814.41	21755
814.551	21561
814.692	21660
814.833	21511
814.974	21606
815.115	21606
815.256	21580
815.397	21401
815.539	21435
815.68	21287
815.821	21412
815.962	21287
816.103	21435
816.244	21230
816.385	21211
816.526	21104
816.666	20902
816.807	20758
816.948	20902
817.089	21017
817.23	20804
817.371	20883
817.512	20731
817.653	20785
817.793	20773
817.934	20781
818.075	20781
818.216	20804
818.356	20727
818.497	20575
818.638	20434
818.778	20488
818.919	20503
819.06	20457
819.2	20537
819.341	20697
819.481	20488
819.622	20773
819.762	20906
819.903	21020
820.043	20834
820.184	20758
820.324	20842
820.465	20891
820.605	20826
820.746	20655
820.886	20590
821.026	20689
821.167	20590
821.307	20705
821.447	20625
821.588	20594
821.728	20461
821.868	20180
822.008	20035
822.149	20115
822.289	20161
822.429	19849
822.569	19807
822.709	19677
822.849	19685
822.99	19540
823.13	19514
823.27	19518
823.41	19411
823.55	19362
823.69	19369
823.83	19483
823.97	19297
824.11	19072
824.25	19244
824.389	19179
824.529	19270
824.669	19225
824.809	19270
824.949	19206
825.089	19388
825.228	19194
825.368	18935
825.508	18977
825.648	19069
825.787	19053
825.927	19095
826.067	18977
826.206	18886
826.346	18985
826.485	18958
826.625	18962
826.765	19065
826.904	19069
827.044	18779
827.183	18677
827.323	18585
827.462	18658
827.601	18741
827.741	18604
827.88	18696
828.02	18654
828.159	18654
828.298	18654
828.437	18719
828.577	18570
828.716	18779
828.855	18570
828.994	18448
829.134	18365
829.273	18410
829.412	18353
829.551	18388
829.69	18338
829.829	18437
829.968	18464
830.107	18422
830.246	18384
830.385	18308
830.524	18232
830.663	18117
830.802	18167
830.941	18034
831.08	18091
831.219	18068
831.357	18053
831.496	18174
831.635	18076
831.774	17950
831.913	17912
832.051	17767
832.19	17798
832.329	17809
832.467	17741
832.606	17600
832.744	17668
832.883	17745
833.022	17672
833.16	17760
833.299	17775
833.437	17821
833.576	17745
833.714	17710
833.852	17790
833.991	17863
834.129	17748
834.267	17843
834.406	17931
834.544	17752
834.682	17809
834.821	17847
834.959	17965
835.097	17752
835.235	17878
835.373	17710
835.511	17821
835.65	17691
835.788	17714
835.926	17501
836.064	17452
836.202	17478
836.34	17653
836.478	17726
836.615	17532
836.753	17642
836.891	17687
837.029	17729
837.167	17592
837.305	17551
837.443	17429
837.58	17562
837.718	17448
837.856	17570
837.993	17356
838.131	17429
838.269	17353
838.406	17402
838.544	17379
838.681	17250
838.819	17121
838.956	17025
839.094	17006
839.231	17071
839.369	17117
839.506	17387
839.643	17102
839.781	16999
839.918	17025
840.055	17090
840.193	17037
840.33	16961
840.467	16927
840.604	16923
840.742	17239
840.879	16953
841.016	16919
841.153	16831
841.29	17067
841.427	17109
841.564	17014
841.701	16965
841.838	16923
841.975	16904
842.112	16869
842.249	16930
842.385	16771
842.522	16984
842.659	16847
842.796	16831
842.933	16744
843.069	16763
843.206	16755
843.343	16862
843.479	16816
843.616	16713
843.752	16630
843.889	16470
844.025	16694
844.162	16493
844.298	16668
844.435	16542
844.571	16618
844.708	16649
844.844	16820
844.98	16717
845.117	16839
845.253	16717
845.389	16717
845.525	16965
845.661	17185
845.798	17490
845.934	17828
846.07	17973
846.206	18110
846.342	17927
846.478	17349
846.614	16858
846.75	16588
846.886	16356
847.022	16367
847.158	16234
847.294	16166
847.429	16112
847.565	16219
847.701	16428
847.837	15956
847.972	15827
848.108	15991
848.244	15857
848.379	15812
848.515	15622
848.65	15694
848.786	15667
848.921	15660
849.057	15793
849.192	15835
849.328	15686
849.463	15675
849.598	15671
849.734	15625
849.869	15599
850.004	15481
850.14	15542
850.275	15378
850.41	15291
850.545	15431
850.68	15416
850.815	15443
850.95	15447
851.085	15625
851.22	15477
851.355	15515
851.49	15526
851.625	15424
851.76	15401
851.895	15408
852.03	15374
852.165	15370
852.299	15473
852.434	15504
852.569	15515
852.703	15488
852.838	15568
852.973	15625
853.107	15538
853.242	15428
853.376	15310
853.511	15306
853.645	15256
853.78	15382
853.914	15275
854.048	15367
854.183	15294
854.317	15329
854.451	15462
854.585	15374
854.72	15386
854.854	15386
854.988	15203
855.122	15207
855.256	15146
855.39	15214
855.524	15378
855.658	15310
855.792	15363
855.926	15329
856.06	15310
856.194	15355
856.327	15272
856.461	15310
856.595	15195
856.729	15188
856.862	15424
856.996	15367
857.13	15374
857.263	15393
857.397	15397
857.53	15370
857.664	15332
857.797	15401
857.931	15363
858.064	15431
858.197	15458
858.331	15348
858.464	15310
858.597	15169
858.731	15291
858.864	15325
858.997	15298
859.13	15336
859.263	15317
859.396	15359
859.529	15287
859.662	15306
859.795	15165
859.928	15378
860.061	15488
860.194	15507
860.327	15351
860.46	15245
860.592	15420
860.725	15454
860.858	15431
860.99	15321
861.123	15287
861.256	15226
861.388	15268
861.521	15960
861.653	15199
861.786	15081
861.918	15009
862.05	15249
862.183	15268
862.315	15386
862.447	15401
862.58	15230
862.712	15047
862.844	15051
862.976	15150
863.108	15074
863.24	15545
863.372	15005
863.504	14998
863.636	15020
863.768	15093
863.9	15146
864.032	15062
864.164	15047
864.296	15119
864.428	15279
864.559	15161
864.691	15184
864.823	15142
864.954	15131
865.086	15112
865.217	14982
865.349	14982
865.48	15100
865.612	15123
865.743	15123
865.875	15066
866.006	14929
866.137	15154
866.269	15009
866.4	15024
866.531	15112
866.662	14872
866.793	14967
866.924	14982
867.055	15043
867.186	14914
867.317	14971
867.448	14960
867.579	14975
867.71	14838
867.841	14975
867.972	15085
868.103	14986
868.233	15032
868.364	15070
868.495	15127
868.625	15287
868.756	15351
868.886	15173
869.017	15260
869.147	15351
869.278	15287
869.408	15165
869.539	15351
869.669	15287
869.799	15264
869.929	15454
870.06	15291
870.19	15625
870.32	15633
870.45	15694
870.58	15606
870.71	15819
870.84	15812
870.97	15629
871.1	15603
871.23	15850
871.36	15854
871.489	15884
871.619	15808
871.749	15899
871.879	15994
872.008	15953
872.138	15823
872.267	15884
872.397	15739
872.526	15701
872.656	15663
872.785	15686
872.915	15945
873.044	15956
873.173	15930
873.303	15903
873.432	15895
873.561	15964
873.69	15888
873.819	15926
873.948	15926
874.077	15945
874.206	15994
874.335	15934
874.464	16097
874.593	16158
874.722	16188
874.851	16238
874.979	16303
875.108	16306
875.237	16147
875.365	16086
875.494	16192
875.623	16310
875.751	16280
875.88	16299
876.008	16443
876.136	16432
876.265	16611
876.393	16733
876.521	16809
876.65	16805
876.778	16729
876.906	16645
877.034	16542
877.162	16736
877.29	16569
877.418	16694
877.546	16694
877.674	16679
877.802	16774
877.93	16744
878.058	16679
878.185	16679
878.313	16759
878.441	16752
878.568	16645
878.696	16744
878.824	16885
878.951	16999
879.079	17246
879.206	17417
879.333	17459
879.461	17547
879.588	17551
879.715	17642
879.842	17764
879.97	17372
880.097	17098
880.224	16908
880.351	16942
880.478	16839
880.605	16630
880.732	16698
880.859	16991
880.986	16668
881.112	16744
881.239	16664
881.366	16455
881.493	16394
881.619	16287
881.746	16367
881.872	16295
881.999	16322
882.125	16409
882.252	16455
882.378	16382
882.505	16577
882.631	16253
882.757	16162
882.883	16246
883.01	16204
883.136	16040
883.262	16071
883.388	16017
883.514	16097
883.64	16207
883.766	16109
883.892	15994
884.018	15987
884.143	16150
884.269	16158
884.395	16025
884.52	15895
884.646	15850
884.772	15785
884.897	15713
885.023	15960
885.148	15991
885.274	16010
885.399	15956
885.524	15911
885.65	15915
885.775	15846
885.9	15739
886.025	15880
886.15	15884
886.275	15835
886.4	15698
886.525	15724
886.65	15610
886.775	15743
886.9	15907
887.025	15968
887.149	15770
887.274	15599
887.399	15622
887.523	15553
887.648	15545
887.773	15538
887.897	15603
888.021	15614
888.146	15515
888.27	15637
888.395	15739
888.519	15492
888.643	15564
888.767	15496
888.891	15519
889.015	15389
889.139	15408
889.263	15340
889.387	15420
889.511	15515
889.635	15504
889.759	15351
889.883	15424
890.006	15447
890.13	15469
890.254	15321
890.377	15272
890.501	15161
890.624	15127
890.748	15195
890.871	15055
890.995	14956
891.118	14895
891.241	15077
891.364	14956
891.488	15074
891.611	14971
891.734	15020
891.857	15009
891.98	15131
892.103	15097
892.226	14944
892.349	15017
892.471	14910
892.594	15005
892.717	15024
892.839	15001
892.962	14971
893.085	15051
893.207	15062
893.33	14853
893.452	14948
893.575	15055
893.697	14963
893.819	15146
893.941	15165
894.064	15131
894.186	14918
894.308	14933
894.43	15051
894.552	15256
894.674	15119
894.796	14990
894.918	15009
895.04	15047
895.161	15039
895.283	15013
895.405	15093
895.526	15199
895.648	15024
895.769	15036
895.891	15066
896.012	15119
896.134	15104
896.255	15089
896.376	15077
896.498	15173
896.619	15233
896.74	15074
896.861	15230
896.982	15618
897.103	15580
897.224	15374
897.345	15408
897.466	15268
897.587	15275
897.708	15523
897.828	15538
897.949	15424
898.07	15302
898.19	15317
898.311	15587
898.431	15420
898.552	15428
898.672	15542
898.792	15523
898.913	15523
899.033	15416
899.153	15321
899.273	15154
899.393	15329
899.513	15336
899.633	15325
899.753	15397
899.873	15294
899.993	15298
900.113	15382
900.232	15321
900.352	15275
900.472	15157
900.591	15112
900.711	15169
900.83	15116
900.95	15207
901.069	15363
901.189	14990
901.308	14876
901.427	14849
901.546	14899
901.665	14819
901.784	14849
901.904	14754
902.023	14644
902.141	14381
902.26	14396
902.379	14366
902.498	14351
902.617	14301
902.735	14358
902.854	14404
902.973	14290
903.091	14046
903.21	14024
903.328	14005
903.446	14103
903.565	13925
903.683	13803
903.801	13883
903.919	13959
904.038	13898
904.156	13715
904.274	13799
904.392	13727
904.51	13681
904.627	13681
904.745	13761
904.863	13780
904.981	13571
905.098	13407
905.216	13495
905.334	13499
905.451	13365
905.569	13434
905.686	13362
905.803	13438
905.921	13179
906.038	13373
906.155	13202
906.272	13080
906.389	13122
906.506	13042
906.623	12905
906.74	13000
906.857	12837
906.974	12772
907.091	12928
907.208	13175
907.324	13118
907.441	12867
907.557	12688
907.674	12738
907.79	12658
907.907	12658
908.023	12817
908.139	12715
908.256	12688
908.372	12597
908.488	12597
908.604	12521
908.72	12433
908.836	12506
908.952	12441
909.068	12498
909.184	12540
909.3	12448
909.415	12582
909.531	12464
909.647	12213
909.762	12258
909.878	12167
909.993	12186
910.108	12228
910.224	12182
910.339	12224
910.454	12129
910.57	12026
910.685	11984
910.8	12273
910.915	12197
911.03	12114
911.145	11836
911.259	11908
911.374	11946
911.489	11828
911.604	11824
911.718	11573
911.833	11680
911.947	11554
912.062	11486
912.176	11600
912.291	11604
912.405	11680
912.519	11821
912.633	11817
912.748	11756
912.862	11642
912.976	11566
913.09	11429
913.204	11414
913.318	11497
913.431	11710
913.545	11509
913.659	11619
913.772	11566
913.886	11387
914	11368
914.113	11444
914.226	11547
914.34	11497
914.453	11227
914.566	11448
914.68	11410
914.793	11299
914.906	11166
915.019	11128
915.132	11113
915.245	11185
915.358	11140
915.47	11117
915.583	11102
915.696	11227
915.809	11250
915.921	11242
916.034	11071
916.146	11075
916.259	11033
916.371	11159
916.483	11132
916.595	10987
916.708	11025
916.82	11056
916.932	10999
917.044	11094
917.156	10976
917.268	10889
917.38	10999
917.491	10946
917.603	10976
917.715	11075
917.826	11064
917.938	10908
918.049	10850
918.161	10942
918.272	11086
918.384	11006
918.495	10999
918.606	10801
918.717	10653
918.828	10752
918.939	10812
919.05	10694
919.161	10873
919.272	10565
919.383	10603
919.494	10854
919.604	11010
919.715	10900
919.826	10763
919.936	10694
920.047	10915
920.157	10835
920.267	10919
920.378	10831
920.488	10782
920.598	10995
920.708	11143
920.818	11060
920.928	10991
921.038	11197
921.148	11155
921.258	10831
921.368	10664
921.477	10702
921.587	10596
921.697	10481
921.806	10706
921.916	10531
922.025	10382
922.134	10314
922.244	10249
922.353	10379
922.462	10196
922.571	10215
922.68	10074
922.789	9956
922.898	10048
923.007	9987
923.116	10063
923.224	9998
923.333	9983
923.442	9975
923.55	9884
923.659	9873
923.767	9987
923.876	9888
923.984	9873
924.092	9774
924.201	9934
924.309	9915
924.417	9888
924.525	9876
924.633	9876
924.741	10748
924.849	9618
924.956	9743
925.064	9625
925.172	9595
925.279	9622
925.387	9675
925.494	9698
925.602	9819
925.709	9652
925.816	9637
925.924	9633
926.031	9644
926.138	9599
926.245	9663
926.352	9591
926.459	9637
926.566	9656
926.673	9568
926.779	9473
926.886	9466
926.993	9313
927.099	9374
927.206	9249
927.312	9283
927.419	9408
927.525	9310
927.631	9389
927.737	9230
927.843	9169
927.95	9104
928.056	9173
928.162	9207
928.267	9214
928.373	9747
928.479	9336
928.585	9127
928.69	9188
928.796	9287
928.901	9203
929.007	8956
929.112	9097
929.218	9036
929.323	9020
929.428	8990
929.533	9192
929.638	8986
929.743	8944
929.848	9119
929.953	9005
930.058	8956
930.163	8830
930.267	8849
930.372	8883
930.477	8777
930.581	9032
930.685	8895
930.79	8693
930.894	8766
930.998	8724
931.103	8804
931.207	8503
931.311	8442
931.415	8396
931.519	8256
931.623	8183
