Data from test_V78500241_3484.txt Node
Date: Fri Mar 25 14:57:58 CST 2022
User: usil
Spectrometer: V785-0024
Trigger mode: 0
Integration Time (sec): 4.000000E-1
Scans to average: 1
Nonlinearity correction enabled: false
Boxcar width: 0
Storing dark spectrum: false
XAxis mode: Wavelengths
Number of Pixels in Spectrum: 1024
>>>>>Begin Spectral Data<<<<<
801.071	21994
801.214	21854
801.356	21625
801.499	21386
801.641	21428
801.783	21332
801.926	21336
802.068	21298
802.211	21176
802.353	21116
802.496	20899
802.638	20815
802.78	20701
802.923	20697
803.065	20552
803.208	20594
803.35	20655
803.492	20670
803.635	20830
803.777	20522
803.919	20621
804.061	20956
804.204	20697
804.346	20564
804.488	20438
804.63	20583
804.773	20492
804.915	20537
805.057	20663
805.199	20461
805.341	20575
805.483	20617
805.626	20594
805.768	20461
805.91	20594
806.052	20507
806.194	20461
806.336	20731
806.478	20408
806.62	20541
806.762	20613
806.904	20674
807.046	21028
807.188	20933
807.33	20937
807.472	20849
807.614	20716
807.756	20724
807.898	20579
808.04	20469
808.182	20579
808.324	20469
808.465	20598
808.607	20857
808.749	20804
808.891	20971
809.033	21146
809.174	20868
809.316	20891
809.458	20861
809.6	20807
809.741	20982
809.883	20994
810.025	21001
810.166	20986
810.308	21039
810.45	21001
810.591	20929
810.733	20800
810.875	20743
811.016	20530
811.158	20507
811.299	20689
811.441	20758
811.582	20777
811.724	20705
811.865	20533
812.007	20621
812.148	20651
812.29	20533
812.431	20735
812.573	20921
812.714	20994
812.855	21077
812.997	21169
813.138	21340
813.279	21230
813.421	21093
813.562	21108
813.703	20956
813.845	20663
813.986	20648
814.127	20389
814.268	20233
814.41	20176
814.551	20138
814.692	20252
814.833	20172
814.974	20210
815.115	20096
815.256	20035
815.397	19940
815.539	20046
815.68	19871
815.821	19883
815.962	20001
816.103	19856
816.244	19761
816.385	19635
816.526	19674
816.666	19335
816.807	19381
816.948	19407
817.089	19480
817.23	19354
817.371	19388
817.512	19308
817.653	19282
817.793	19335
817.934	19327
818.075	19426
818.216	19335
818.356	19217
818.497	19065
818.638	18821
818.778	19000
818.919	19015
819.06	19019
819.2	19015
819.341	19110
819.481	19141
819.622	19354
819.762	19472
819.903	19369
820.043	19350
820.184	19263
820.324	19251
820.465	19362
820.605	19373
820.746	19183
820.886	19164
821.026	19251
821.167	19278
821.307	19285
821.447	19194
821.588	19152
821.728	18985
821.868	18745
822.008	18688
822.149	18684
822.289	18635
822.429	18460
822.569	18426
822.709	18380
822.849	18167
822.99	18045
823.13	18159
823.27	18152
823.41	18026
823.55	17954
823.69	17946
823.83	18015
823.97	17973
824.11	17847
824.25	17741
824.389	17821
824.529	17855
824.669	17627
824.809	17741
824.949	17958
825.089	17798
825.228	17817
825.368	17676
825.508	17570
825.648	17646
825.787	17573
825.927	17604
826.067	17482
826.206	17478
826.346	17524
826.485	17509
826.625	17551
826.765	17604
826.904	17615
827.044	17353
827.183	17379
827.323	17280
827.462	17166
827.601	17318
827.741	17326
827.88	17162
828.02	17151
828.159	17280
828.298	17246
828.437	17307
828.577	17159
828.716	17345
828.855	17258
828.994	16987
829.134	17018
829.273	17121
829.412	16938
829.551	16816
829.69	17029
829.829	16946
829.968	17121
830.107	17159
830.246	16999
830.385	16881
830.524	16930
830.663	16831
830.802	16675
830.941	16713
831.08	16630
831.219	16596
831.357	16672
831.496	16938
831.635	16577
831.774	16535
831.913	16485
832.051	16470
832.19	16417
832.329	16500
832.467	16325
832.606	16306
832.744	16299
832.883	16333
833.022	16238
833.16	16360
833.299	16413
833.437	16356
833.576	16390
833.714	16375
833.852	16341
833.991	16375
834.129	16447
834.267	16424
834.406	16360
834.544	16409
834.682	16322
834.821	16291
834.959	16554
835.097	16314
835.235	16352
835.373	16451
835.511	16382
835.65	16325
835.788	16139
835.926	16173
836.064	16071
836.202	16109
836.34	16409
836.478	16413
836.615	16333
836.753	16287
836.891	16371
837.029	16348
837.167	16226
837.305	16226
837.443	16253
837.58	16166
837.718	16268
837.856	16147
837.993	16105
838.131	16185
838.269	16010
838.406	16051
838.544	16051
838.681	15934
838.819	15838
838.956	15857
839.094	15698
839.231	15766
839.369	15854
839.506	16135
839.643	16010
839.781	15709
839.918	15595
840.055	15785
840.193	15705
840.33	15739
840.467	15694
840.604	15785
840.742	15994
840.879	15614
841.016	15675
841.153	15622
841.29	15842
841.427	15785
841.564	15762
841.701	15816
841.838	15766
841.975	15622
842.112	15717
842.249	15542
842.385	15367
842.522	15778
842.659	15637
842.796	15488
842.933	15595
843.069	15515
843.206	15462
843.343	15564
843.479	15542
843.616	15538
843.752	15268
843.889	15291
844.025	15454
844.162	15233
844.298	15416
844.435	15275
844.571	15275
844.708	15325
844.844	15488
844.98	15549
845.117	15447
845.253	15287
845.389	15173
845.525	15272
845.661	15211
845.798	15112
845.934	15142
846.07	15013
846.206	15142
846.342	15165
846.478	15036
846.614	15009
846.75	14811
846.886	14906
847.022	14979
847.158	14804
847.294	14883
847.429	14838
847.565	14785
847.701	15104
847.837	14560
847.972	14606
848.108	14720
848.244	14716
848.379	14583
848.515	14488
848.65	14423
848.786	14522
848.921	14499
849.057	14598
849.192	14552
849.328	14465
849.463	14434
849.598	14461
849.734	14446
849.869	14404
850.004	14248
850.14	14309
850.275	14248
850.41	14233
850.545	14225
850.68	14214
850.815	14252
850.95	14214
851.085	14480
851.22	14328
851.355	14317
851.49	14294
851.625	14275
851.76	14202
851.895	14039
852.03	14130
852.165	14229
852.299	14263
852.434	14237
852.569	14225
852.703	14313
852.838	14313
852.973	14374
853.107	14324
853.242	14123
853.376	14077
853.511	14081
853.645	14050
853.78	14206
853.914	14043
854.048	13997
854.183	14111
854.317	14107
854.451	14275
854.585	14164
854.72	14157
854.854	14248
854.988	13989
855.122	14111
855.256	14012
855.39	14077
855.524	14233
855.658	14168
855.792	14134
855.926	14145
856.06	14191
856.194	14145
856.327	14123
856.461	14024
856.595	14081
856.729	14153
856.862	14210
856.996	14126
857.13	14176
857.263	14218
857.397	14214
857.53	14073
857.664	14126
857.797	14130
857.931	14229
858.064	14221
858.197	14244
858.331	14168
858.464	14092
858.597	14008
858.731	14119
858.864	14123
858.997	14088
859.13	14103
859.263	14153
859.396	14214
859.529	14138
859.662	14096
859.795	14073
859.928	14157
860.061	14256
860.194	14347
860.327	14180
860.46	14123
860.592	14259
860.725	14248
860.858	14210
860.99	14164
861.123	14005
861.256	14035
861.388	14161
861.521	14777
861.653	14062
861.786	13936
861.918	13967
862.05	14046
862.183	14050
862.315	14073
862.447	14115
862.58	14149
862.712	13925
862.844	13791
862.976	14016
863.108	13925
863.24	14434
863.372	13868
863.504	13852
863.636	13875
863.768	13913
863.9	13913
864.032	13940
864.164	13894
864.296	13883
864.428	14031
864.559	14050
864.691	14008
864.823	13940
864.954	13963
865.086	13909
865.217	13917
865.349	13917
865.48	13932
865.612	13833
865.743	13951
865.875	13887
866.006	13967
866.137	13917
866.269	13852
866.4	13902
866.531	13795
866.662	13860
866.793	13871
866.924	13967
867.055	13997
867.186	13772
867.317	13841
867.448	13852
867.579	13856
867.71	13833
867.841	13765
867.972	13784
868.103	13860
868.233	13795
868.364	13917
868.495	13963
868.625	14092
868.756	14286
868.886	14073
869.017	14157
869.147	14237
869.278	14248
869.408	14214
869.539	14195
869.669	14180
869.799	14111
869.929	14275
870.06	14210
870.19	14469
870.32	14438
870.45	14469
870.58	14480
870.71	14629
870.84	14682
870.97	14488
871.1	14579
871.23	14830
871.36	14708
871.489	14705
871.619	14659
871.749	14769
871.879	14739
872.008	14895
872.138	14765
872.267	14785
872.397	14724
872.526	14583
872.656	14571
872.785	14556
872.915	14705
873.044	14914
873.173	14746
873.303	14876
873.432	14834
873.561	14842
873.69	14739
873.819	14781
873.948	14807
874.077	14826
874.206	14792
874.335	14845
874.464	14937
874.593	15009
874.722	14902
874.851	15146
874.979	15192
875.108	15161
875.237	15009
875.365	15085
875.494	15062
875.623	15245
875.751	15043
875.88	15165
876.008	15264
876.136	15340
876.265	15568
876.393	15755
876.521	15595
876.65	15644
876.778	15637
876.906	15584
877.034	15481
877.162	15458
877.29	15496
877.418	15606
877.546	15530
877.674	15603
877.802	15553
877.93	15584
878.058	15511
878.185	15439
878.313	15511
878.441	15443
878.568	15412
878.696	15488
878.824	15610
878.951	15515
879.079	15751
879.206	15819
879.333	15686
879.461	15549
879.588	15618
879.715	15705
879.842	15781
879.97	15553
880.097	15378
880.224	15294
880.351	15317
880.478	15374
880.605	15412
880.732	15416
880.859	15671
880.986	15363
881.112	15389
881.239	15317
881.366	15131
881.493	15146
881.619	14895
881.746	15032
881.872	15131
881.999	15039
882.125	14998
882.252	15039
882.378	15070
882.505	15180
882.631	14963
882.757	14838
882.883	14902
883.01	14902
883.136	14834
883.262	14667
883.388	14689
883.514	14895
883.64	14883
883.766	14746
883.892	14743
884.018	14765
884.143	14868
884.269	14948
884.395	14610
884.52	14564
884.646	14610
884.772	14473
884.897	14461
885.023	14579
885.148	14613
885.274	14773
885.399	14587
885.524	14648
885.65	14484
885.775	14667
885.9	14560
886.025	14693
886.15	14621
886.275	14473
886.4	14381
886.525	14556
886.65	14469
886.775	14545
886.9	14648
887.025	14762
887.149	14552
887.274	14370
887.399	14237
887.523	14412
887.648	14343
887.773	14248
887.897	14602
888.021	14556
888.146	14366
888.27	14469
888.395	14393
888.519	14461
888.643	14343
888.767	14476
888.891	14355
889.015	14305
889.139	14324
889.263	14290
889.387	14431
889.511	14434
889.635	14290
889.759	14096
889.883	14180
890.006	14317
890.13	14370
890.254	14206
890.377	14187
890.501	14035
890.624	14092
890.748	14218
890.871	14065
890.995	13974
891.118	13875
891.241	13928
891.364	13898
891.488	14164
891.611	14027
891.734	13974
891.857	14020
891.98	13906
892.103	13928
892.226	14054
892.349	13902
892.471	13776
892.594	14005
892.717	13932
892.839	14016
892.962	13986
893.085	14081
893.207	13928
893.33	13807
893.452	13955
893.575	14020
893.697	13875
893.819	14210
893.941	14225
894.064	14084
894.186	13925
894.308	13993
894.43	14111
894.552	14187
894.674	14195
894.796	13970
894.918	13989
895.04	14012
895.161	14187
895.283	14115
895.405	14027
895.526	14088
895.648	14084
895.769	14191
895.891	14168
896.012	14202
896.134	14149
896.255	14115
896.376	14145
896.498	14221
896.619	14180
896.74	14065
896.861	14252
896.982	14499
897.103	14648
897.224	14377
897.345	14362
897.466	14339
897.587	14450
897.708	14469
897.828	14480
897.949	14389
898.07	14240
898.19	14366
898.311	14629
898.431	14480
898.552	14549
898.672	14560
898.792	14575
898.913	14450
899.033	14457
899.153	14377
899.273	14336
899.393	14237
899.513	14412
899.633	14389
899.753	14301
899.873	14339
899.993	14385
900.113	14328
900.232	14362
900.352	14290
900.472	14229
900.591	14168
900.711	14206
900.83	14168
900.95	14324
901.069	14339
901.189	14183
901.308	13917
901.427	13887
901.546	13982
901.665	13883
901.784	13864
901.904	13685
902.023	13685
902.141	13483
902.26	13377
902.379	13556
902.498	13430
902.617	13400
902.735	13453
902.854	13487
902.973	13453
903.091	13270
903.21	13209
903.328	13251
903.446	13171
903.565	13008
903.683	13103
903.801	12951
903.919	12901
904.038	13012
904.156	12894
904.274	12928
904.392	12875
904.51	12760
904.627	12795
904.745	12897
904.863	12913
904.981	12601
905.098	12578
905.216	12582
905.334	12547
905.451	12593
905.569	12604
905.686	12528
905.803	12544
905.921	12365
906.038	12532
906.155	12471
906.272	12232
906.389	12292
906.506	12163
906.623	12136
906.74	12106
906.857	12064
906.974	12045
907.091	12136
907.208	12270
907.324	12209
907.441	11950
907.557	11878
907.674	11931
907.79	11779
907.907	11882
908.023	11988
908.139	11885
908.256	11809
908.372	11775
908.488	11813
908.604	11714
908.72	11592
908.836	11688
908.952	11604
909.068	11680
909.184	11767
909.3	11661
909.415	11665
909.531	11585
909.647	11490
909.762	11429
909.878	11322
909.993	11448
910.108	11356
910.224	11353
910.339	11501
910.454	11303
910.57	11273
910.685	11193
910.8	11520
910.915	11478
911.03	11349
911.145	11155
911.259	11083
911.374	11098
911.489	11048
911.604	11010
911.718	10908
911.833	10911
911.947	10771
912.062	10683
912.176	10801
912.291	10999
912.405	10839
912.519	11041
912.633	11117
912.748	10949
912.862	10930
912.976	10831
913.09	10622
913.204	10714
913.318	10744
913.431	10892
913.545	10805
913.659	10896
913.772	10755
913.886	10645
914	10637
914.113	10752
914.226	10710
914.34	10630
914.453	10538
914.566	10694
914.68	10577
914.793	10592
914.906	10371
915.019	10333
915.132	10375
915.245	10367
915.358	10390
915.47	10413
915.583	10493
915.696	10443
915.809	10558
915.921	10519
916.034	10424
916.146	10379
916.259	10253
916.371	10459
916.483	10405
916.595	10238
916.708	10367
916.82	10322
916.932	10382
917.044	10367
917.156	10291
917.268	10268
917.38	10257
917.491	10177
917.603	10242
917.715	10329
917.826	10367
917.938	10154
918.049	10166
918.161	10249
918.272	10382
918.384	10295
918.495	10352
918.606	10139
918.717	10067
918.828	10188
918.939	10128
919.05	9926
919.161	10109
919.272	9926
919.383	9979
919.494	10162
919.604	10390
919.715	10109
919.826	10006
919.936	10116
920.047	10131
920.157	10162
920.267	10322
920.378	10230
920.488	10051
920.598	10329
920.708	10497
920.818	10291
920.928	10398
921.038	10481
921.148	10440
921.258	10173
921.368	10116
921.477	9998
921.587	9991
921.697	9907
921.806	10029
921.916	9956
922.025	9709
922.134	9701
922.244	9652
922.353	9755
922.462	9572
922.571	9504
922.68	9374
922.789	9340
922.898	9382
923.007	9397
923.116	9363
923.224	9329
923.333	9386
923.442	9199
923.55	9241
923.659	9283
923.767	9344
923.876	9272
923.984	9306
924.092	9245
924.201	9188
924.309	9241
924.417	9184
924.525	9203
924.633	9195
924.741	10124
924.849	9028
924.956	9207
925.064	9036
925.172	8960
925.279	8914
925.387	9047
925.494	9062
925.602	9176
925.709	9085
925.816	9017
925.924	9055
926.031	9195
926.138	9032
926.245	9081
926.352	8902
926.459	9119
926.566	9123
926.673	9020
926.779	8902
926.886	8861
926.993	8796
927.099	8674
927.206	8693
927.312	8750
927.419	8754
927.525	8754
927.631	8845
927.737	8708
927.843	8629
927.95	8560
928.056	8632
928.162	8705
928.267	8678
928.373	9294
928.479	8712
928.585	8518
928.69	8648
928.796	8674
928.901	8579
929.007	8415
929.112	8583
929.218	8549
929.323	8431
929.428	8530
929.533	8575
929.638	8358
929.743	8408
929.848	8480
929.953	8457
930.058	8393
930.163	8248
930.267	8267
930.372	8377
930.477	8244
930.581	8511
930.685	8343
930.79	8252
930.894	8191
930.998	8199
931.103	8328
931.207	7959
931.311	7894
931.415	7883
931.519	7700
931.623	7727
