Data from test_V78500241_2961.txt Node
Date: Fri Mar 25 14:54:19 CST 2022
User: usil
Spectrometer: V785-0024
Trigger mode: 0
Integration Time (sec): 4.000000E-1
Scans to average: 1
Nonlinearity correction enabled: false
Boxcar width: 0
Storing dark spectrum: false
XAxis mode: Wavelengths
Number of Pixels in Spectrum: 1024
>>>>>Begin Spectral Data<<<<<
801.071	22200
801.214	22048
801.356	21682
801.499	21583
801.641	21473
801.783	21526
801.926	21378
802.068	21408
802.211	21363
802.353	21237
802.496	21055
802.638	20960
802.78	20849
802.923	20792
803.065	20731
803.208	20796
803.35	20895
803.492	20956
803.635	20845
803.777	20796
803.919	20891
804.061	21146
804.204	20902
804.346	20804
804.488	20606
804.63	20769
804.773	20724
804.915	20705
805.057	20853
805.199	20606
805.341	20762
805.483	20754
805.626	20705
805.768	20686
805.91	20739
806.052	20769
806.194	20701
806.336	20986
806.478	20640
806.62	20583
806.762	20701
806.904	20826
807.046	21104
807.188	20952
807.33	21005
807.472	21039
807.614	20963
807.756	20948
807.898	20788
808.04	20689
808.182	20792
808.324	20982
808.465	20883
808.607	21051
808.749	21089
808.891	21233
809.033	21131
809.174	21093
809.316	20960
809.458	21051
809.6	20967
809.741	21123
809.883	20963
810.025	21199
810.166	21138
810.308	21211
810.45	21199
810.591	20960
810.733	20975
810.875	20948
811.016	20735
811.158	20701
811.299	20762
811.441	20929
811.582	20990
811.724	20804
811.865	20883
812.007	20830
812.148	20758
812.29	20857
812.431	20921
812.573	21218
812.714	21252
812.855	21431
812.997	21386
813.138	21603
813.279	21504
813.421	21233
813.562	21268
813.703	21131
813.845	20902
813.986	20686
814.127	20682
814.268	20419
814.41	20499
814.551	20526
814.692	20385
814.833	20332
814.974	20362
815.115	20427
815.256	20343
815.397	20225
815.539	20229
815.68	20050
815.821	20199
815.962	20214
816.103	20088
816.244	19902
816.385	19871
816.526	19799
816.666	19620
816.807	19510
816.948	19681
817.089	19597
817.23	19632
817.371	19544
817.512	19639
817.653	19590
817.793	19502
817.934	19358
818.075	19445
818.216	19506
818.356	19365
818.497	19384
818.638	19126
818.778	19240
818.919	19194
819.06	19217
819.2	19343
819.341	19358
819.481	19358
819.622	19510
819.762	19689
819.903	19575
820.043	19563
820.184	19499
820.324	19434
820.465	19552
820.605	19548
820.746	19434
820.886	19396
821.026	19441
821.167	19487
821.307	19510
821.447	19365
821.588	19293
821.728	19164
821.868	19050
822.008	18875
822.149	18947
822.289	18806
822.429	18696
822.569	18597
822.709	18642
822.849	18334
822.99	18441
823.13	18296
823.27	18346
823.41	18220
823.55	18114
823.69	18247
823.83	18171
823.97	18155
824.11	17958
824.25	17946
824.389	17977
824.529	17969
824.669	18026
824.809	18072
824.949	18007
825.089	17980
825.228	17958
825.368	17745
825.508	17726
825.648	17779
825.787	17657
825.927	17840
826.067	17748
826.206	17630
826.346	17775
826.485	17775
826.625	17710
826.765	17821
826.904	17817
827.044	17509
827.183	17478
827.323	17402
827.462	17448
827.601	17452
827.741	17505
827.88	17395
828.02	17318
828.159	17391
828.298	17436
828.437	17471
828.577	17280
828.716	17543
828.855	17387
828.994	17079
829.134	17227
829.273	17124
829.412	17124
829.551	17041
829.69	17170
829.829	17239
829.968	17296
830.107	17200
830.246	17307
830.385	17098
830.524	17052
830.663	17041
830.802	16896
830.941	16839
831.08	16725
831.219	16717
831.357	16839
831.496	16957
831.635	16733
831.774	16668
831.913	16759
832.051	16618
832.19	16580
832.329	16577
832.467	16443
832.606	16379
832.744	16432
832.883	16455
833.022	16398
833.16	16409
833.299	16516
833.437	16485
833.576	16478
833.714	16500
833.852	16607
833.991	16569
834.129	16634
834.267	16622
834.406	16603
834.544	16485
834.682	16485
834.821	16512
834.959	16607
835.097	16478
835.235	16550
835.373	16485
835.511	16481
835.65	16405
835.788	16443
835.926	16352
836.064	16192
836.202	16261
836.34	16489
836.478	16474
836.615	16447
836.753	16428
836.891	16497
837.029	16451
837.167	16421
837.305	16249
837.443	16405
837.58	16223
837.718	16413
837.856	16280
837.993	16230
838.131	16249
838.269	16322
838.406	16211
838.544	16223
838.681	16025
838.819	15983
838.956	15838
839.094	15770
839.231	15831
839.369	15975
839.506	16169
839.643	16010
839.781	15941
839.918	15808
840.055	15816
840.193	15778
840.33	15770
840.467	15751
840.604	15838
840.742	16071
840.879	15629
841.016	15694
841.153	15698
841.29	15918
841.427	15880
841.564	15854
841.701	15751
841.838	15705
841.975	15648
842.112	15732
842.249	15564
842.385	15644
842.522	15751
842.659	15542
842.796	15614
842.933	15542
843.069	15511
843.206	15618
843.343	15660
843.479	15618
843.616	15591
843.752	15416
843.889	15428
844.025	15564
844.162	15408
844.298	15454
844.435	15393
844.571	15420
844.708	15481
844.844	15477
844.98	15519
845.117	15492
845.253	15287
845.389	15218
845.525	15332
845.661	15279
845.798	15199
845.934	15325
846.07	15116
846.206	15264
846.342	15374
846.478	15192
846.614	15009
846.75	14941
846.886	14891
847.022	15020
847.158	15024
847.294	15131
847.429	14906
847.565	14944
847.701	15161
847.837	14686
847.972	14613
848.108	14845
848.244	14819
848.379	14750
848.515	14613
848.65	14613
848.786	14590
848.921	14514
849.057	14670
849.192	14651
849.328	14560
849.463	14579
849.598	14556
849.734	14488
849.869	14374
850.004	14362
850.14	14377
850.275	14328
850.41	14389
850.545	14324
850.68	14240
850.815	14343
850.95	14355
851.085	14533
851.22	14374
851.355	14294
851.49	14362
851.625	14237
851.76	14237
851.895	14210
852.03	14161
852.165	14278
852.299	14431
852.434	14438
852.569	14381
852.703	14317
852.838	14473
852.973	14404
853.107	14530
853.242	14256
853.376	14096
853.511	14111
853.645	14195
853.78	14347
853.914	14126
854.048	14183
854.183	14081
854.317	14225
854.451	14370
854.585	14119
854.72	14195
854.854	14248
854.988	14107
855.122	14180
855.256	14115
855.39	14092
855.524	14267
855.658	14225
855.792	14218
855.926	14153
856.06	14290
856.194	14282
856.327	14183
856.461	14202
856.595	14275
856.729	14210
856.862	14301
856.996	14305
857.13	14320
857.263	14259
857.397	14355
857.53	14218
857.664	14248
857.797	14263
857.931	14263
858.064	14176
858.197	14248
858.331	14161
858.464	14244
858.597	14142
858.731	14195
858.864	14126
858.997	14103
859.13	14195
859.263	14229
859.396	14240
859.529	14172
859.662	14229
859.795	14096
859.928	14183
860.061	14328
860.194	14366
860.327	14263
860.46	14244
860.592	14324
860.725	14362
860.858	14358
860.99	14145
861.123	14115
861.256	14092
861.388	14206
861.521	14883
861.653	14123
861.786	14001
861.918	14050
862.05	14046
862.183	14123
862.315	14195
862.447	14271
862.58	14218
862.712	13936
862.844	13856
862.976	14073
863.108	14134
863.24	14370
863.372	13852
863.504	13925
863.636	13963
863.768	14035
863.9	14020
864.032	13898
864.164	13940
864.296	14031
864.428	14046
864.559	14092
864.691	14103
864.823	14035
864.954	14008
865.086	13970
865.217	14005
865.349	13860
865.48	13917
865.612	13887
865.743	14039
865.875	13963
866.006	13913
866.137	14024
866.269	13944
866.4	13818
866.531	13932
866.662	13913
866.793	13959
866.924	13887
867.055	13951
867.186	14001
867.317	13913
867.448	13871
867.579	13947
867.71	13860
867.841	13894
867.972	13947
868.103	13932
868.233	13917
868.364	13955
868.495	14020
868.625	14134
868.756	14317
868.886	14096
869.017	14202
869.147	14301
869.278	14305
869.408	14172
869.539	14172
869.669	14324
869.799	14164
869.929	14362
870.06	14320
870.19	14488
870.32	14507
870.45	14488
870.58	14613
870.71	14773
870.84	14769
870.97	14533
871.1	14594
871.23	14743
871.36	14727
871.489	14697
871.619	14724
871.749	14750
871.879	14826
872.008	14899
872.138	14868
872.267	14834
872.397	14667
872.526	14678
872.656	14651
872.785	14541
872.915	14842
873.044	15051
873.173	14746
873.303	14906
873.432	14868
873.561	14868
873.69	14819
873.819	14826
873.948	14804
874.077	14830
874.206	14777
874.335	14933
874.464	14979
874.593	15176
874.722	15074
874.851	15150
874.979	15214
875.108	15203
875.237	15199
875.365	15100
875.494	15131
875.623	15207
875.751	15142
875.88	15226
876.008	15359
876.136	15340
876.265	15542
876.393	15720
876.521	15618
876.65	15675
876.778	15526
876.906	15545
877.034	15511
877.162	15572
877.29	15485
877.418	15599
877.546	15500
877.674	15622
877.802	15572
877.93	15507
878.058	15538
878.185	15435
878.313	15610
878.441	15542
878.568	15485
878.696	15625
878.824	15656
878.951	15663
879.079	15755
879.206	15888
879.333	15667
879.461	15656
879.588	15641
879.715	15747
879.842	15926
879.97	15732
880.097	15454
880.224	15332
880.351	15443
880.478	15466
880.605	15374
880.732	15382
880.859	15667
880.986	15416
881.112	15492
881.239	15321
881.366	15260
881.493	15131
881.619	15055
881.746	15135
881.872	14975
881.999	15150
882.125	15085
882.252	15131
882.378	15161
882.505	15218
882.631	15032
882.757	14982
882.883	14990
883.01	14914
883.136	14933
883.262	14842
883.388	14750
883.514	14838
883.64	14906
883.766	14849
883.892	14686
884.018	14857
884.143	14929
884.269	14914
884.395	14663
884.52	14587
884.646	14667
884.772	14629
884.897	14511
885.023	14651
885.148	14659
885.274	14823
885.399	14689
885.524	14648
885.65	14533
885.775	14590
885.9	14579
886.025	14693
886.15	14636
886.275	14579
886.4	14537
886.525	14606
886.65	14514
886.775	14602
886.9	14773
887.025	14834
887.149	14632
887.274	14328
887.399	14408
887.523	14404
887.648	14434
887.773	14400
887.897	14545
888.021	14511
888.146	14362
888.27	14659
888.395	14579
888.519	14434
888.643	14438
888.767	14446
888.891	14454
889.015	14286
889.139	14290
889.263	14278
889.387	14450
889.511	14503
889.635	14526
889.759	14328
889.883	14244
890.006	14252
890.13	14385
890.254	14233
890.377	14214
890.501	14199
890.624	14142
890.748	14195
890.871	14081
890.995	13970
891.118	13997
891.241	14035
891.364	13955
891.488	14123
891.611	13963
891.734	13947
891.857	14172
891.98	14069
892.103	14130
892.226	14024
892.349	13986
892.471	13913
892.594	13936
892.717	13978
892.839	14005
892.962	13982
893.085	14115
893.207	14138
893.33	13928
893.452	13951
893.575	14031
893.697	14043
893.819	14210
893.941	14252
894.064	14278
894.186	13978
894.308	13955
894.43	14065
894.552	14088
894.674	14214
894.796	13921
894.918	14020
895.04	14008
895.161	14145
895.283	14084
895.405	14107
895.526	14126
895.648	14069
895.769	14115
895.891	14168
896.012	14294
896.134	14214
896.255	14294
896.376	14161
896.498	14191
896.619	14218
896.74	14240
896.861	14271
896.982	14514
897.103	14716
897.224	14423
897.345	14518
897.466	14389
897.587	14465
897.708	14571
897.828	14511
897.949	14393
898.07	14377
898.19	14438
898.311	14575
898.431	14476
898.552	14556
898.672	14560
898.792	14632
898.913	14556
899.033	14503
899.153	14385
899.273	14282
899.393	14351
899.513	14385
899.633	14351
899.753	14446
899.873	14362
899.993	14480
900.113	14419
900.232	14473
900.352	14450
900.472	14317
900.591	14252
900.711	14267
900.83	14233
900.95	14415
901.069	14526
901.189	14142
901.308	13974
901.427	13940
901.546	13963
901.665	14012
901.784	14012
901.904	13883
902.023	13818
902.141	13518
902.26	13605
902.379	13575
902.498	13552
902.617	13495
902.735	13495
902.854	13426
902.973	13529
903.091	13285
903.21	13206
903.328	13217
903.446	13198
903.565	13019
903.683	13084
903.801	13069
903.919	13019
904.038	13114
904.156	12932
904.274	12829
904.392	12859
904.51	12859
904.627	12966
904.745	12958
904.863	12962
904.981	12757
905.098	12646
905.216	12612
905.334	12650
905.451	12578
905.569	12570
905.686	12589
905.803	12635
905.921	12433
906.038	12525
906.155	12338
906.272	12311
906.389	12372
906.506	12330
906.623	12224
906.74	12262
906.857	12110
906.974	12136
907.091	12239
907.208	12353
907.324	12247
907.441	12140
907.557	11969
907.674	11992
907.79	11973
907.907	11954
908.023	12011
908.139	11954
908.256	11973
908.372	11843
908.488	11897
908.604	11726
908.72	11585
908.836	11741
908.952	11657
909.068	11771
909.184	11790
909.3	11737
909.415	11832
909.531	11779
909.647	11528
909.762	11501
909.878	11478
909.993	11520
910.108	11452
910.224	11433
910.339	11554
910.454	11353
910.57	11353
910.685	11216
910.8	11600
910.915	11501
911.03	11364
911.145	11239
911.259	11193
911.374	11231
911.489	11132
911.604	11075
911.718	10984
911.833	11029
911.947	10869
912.062	10763
912.176	10908
912.291	10968
912.405	10927
912.519	11151
912.633	11170
912.748	11094
912.862	10987
912.976	10729
913.09	10714
913.204	10839
913.318	10858
913.431	10934
913.545	10961
913.659	10911
913.772	10904
913.886	10763
914	10717
914.113	10797
914.226	10904
914.34	10790
914.453	10660
914.566	10828
914.68	10694
914.793	10645
914.906	10538
915.019	10424
915.132	10394
915.245	10481
915.358	10474
915.47	10535
915.583	10519
915.696	10523
915.809	10603
915.921	10637
916.034	10382
916.146	10424
916.259	10481
916.371	10508
916.483	10561
916.595	10356
916.708	10462
916.82	10402
916.932	10440
917.044	10413
917.156	10394
917.268	10238
917.38	10230
917.491	10204
917.603	10291
917.715	10417
917.826	10360
917.938	10329
918.049	10124
918.161	10272
918.272	10481
918.384	10394
918.495	10409
918.606	10223
918.717	10105
918.828	10112
918.939	10268
919.05	10093
919.161	10211
919.272	9975
919.383	9994
919.494	10230
919.604	10470
919.715	10158
919.826	10131
919.936	10120
920.047	10287
920.157	10200
920.267	10371
920.378	10204
920.488	10143
920.598	10398
920.708	10603
920.818	10348
920.928	10451
921.038	10519
921.148	10538
921.258	10246
921.368	10185
921.477	10055
921.587	10063
921.697	9911
921.806	10048
921.916	9960
922.025	9762
922.134	9762
922.244	9633
922.353	9816
922.462	9652
922.571	9576
922.68	9405
922.789	9439
922.898	9408
923.007	9378
923.116	9511
923.224	9481
923.333	9401
923.442	9367
923.55	9336
923.659	9408
923.767	9447
923.876	9245
923.984	9443
924.092	9272
924.201	9370
924.309	9283
924.417	9367
924.525	9291
924.633	9310
924.741	10188
924.849	9108
924.956	9275
925.064	9176
925.172	9051
925.279	9089
925.387	9112
925.494	9184
925.602	9272
925.709	9135
925.816	9066
925.924	9100
926.031	9184
926.138	9142
926.245	9161
926.352	9001
926.459	9211
926.566	9233
926.673	9051
926.779	8986
926.886	8998
926.993	8807
927.099	8845
927.206	8743
927.312	8792
927.419	8826
927.525	8880
927.631	8918
927.737	8762
927.843	8678
927.95	8606
928.056	8667
928.162	8689
928.267	8777
928.373	9405
928.479	8838
928.585	8625
928.69	8796
928.796	8697
928.901	8602
929.007	8507
929.112	8636
929.218	8575
929.323	8518
929.428	8526
929.533	8651
929.638	8537
929.743	8484
929.848	8549
929.953	8545
930.058	8457
930.163	8271
930.267	8385
930.372	8457
930.477	8309
930.581	8503
930.685	8438
930.79	8229
930.894	8324
930.998	8183
931.103	8400
931.207	8058
931.311	8001
931.415	7917
931.519	7776
931.623	7833
