Data from test_V78500241_2936.txt Node
Date: Fri Mar 25 14:54:09 CST 2022
User: usil
Spectrometer: V785-0024
Trigger mode: 0
Integration Time (sec): 4.000000E-1
Scans to average: 1
Nonlinearity correction enabled: false
Boxcar width: 0
Storing dark spectrum: false
XAxis mode: Wavelengths
Number of Pixels in Spectrum: 1024
>>>>>Begin Spectral Data<<<<<
801.071	21972
801.214	21835
801.356	21625
801.499	21557
801.641	21447
801.783	21351
801.926	21515
802.068	21359
802.211	21256
802.353	21222
802.496	20990
802.638	20956
802.78	20830
802.923	20743
803.065	20663
803.208	20678
803.35	20910
803.492	20929
803.635	20864
803.777	20788
803.919	20796
804.061	21047
804.204	20773
804.346	20754
804.488	20705
804.63	20807
804.773	20587
804.915	20663
805.057	20754
805.199	20686
805.341	20667
805.483	20788
805.626	20689
805.768	20541
805.91	20648
806.052	20750
806.194	20609
806.336	20845
806.478	20575
806.62	20606
806.762	20708
806.904	20853
807.046	21055
807.188	20982
807.33	20921
807.472	20960
807.614	20910
807.756	20842
807.898	20727
808.04	20682
808.182	20667
808.324	20686
808.465	20933
808.607	21001
808.749	21123
808.891	21195
809.033	21412
809.174	21013
809.316	21119
809.458	21119
809.6	20933
809.741	21176
809.883	21058
810.025	21180
810.166	21275
810.308	21291
810.45	21039
810.591	21017
810.733	20910
810.875	20971
811.016	20731
811.158	20807
811.299	20925
811.441	20982
811.582	20914
811.724	20823
811.865	20712
812.007	20834
812.148	20724
812.29	20845
812.431	20971
812.573	21104
812.714	21146
812.855	21378
812.997	21321
813.138	21553
813.279	21469
813.421	21275
813.562	21230
813.703	21275
813.845	20861
813.986	20769
814.127	20419
814.268	20351
814.41	20537
814.551	20256
814.692	20389
814.833	20263
814.974	20176
815.115	20294
815.256	20111
815.397	20256
815.539	20233
815.68	20195
815.821	20024
815.962	20130
816.103	20046
816.244	19959
816.385	19871
816.526	19845
816.666	19635
816.807	19491
816.948	19582
817.089	19681
817.23	19499
817.371	19468
817.512	19445
817.653	19384
817.793	19324
817.934	19499
818.075	19438
818.216	19430
818.356	19419
818.497	19426
818.638	19198
818.778	19156
818.919	19175
819.06	19103
819.2	19362
819.341	19289
819.481	19236
819.622	19571
819.762	19681
819.903	19582
820.043	19480
820.184	19472
820.324	19499
820.465	19487
820.605	19514
820.746	19559
820.886	19354
821.026	19373
821.167	19537
821.307	19533
821.447	19426
821.588	19285
821.728	19225
821.868	18954
822.008	18935
822.149	18882
822.289	18768
822.429	18597
822.569	18464
822.709	18525
822.849	18330
822.99	18353
823.13	18292
823.27	18414
823.41	18224
823.55	18243
823.69	18129
823.83	18289
823.97	18068
824.11	17977
824.25	17901
824.389	17878
824.529	18114
824.669	17897
824.809	18011
824.949	17977
825.089	17908
825.228	17939
825.368	17726
825.508	17729
825.648	17649
825.787	17729
825.927	17790
826.067	17661
826.206	17642
826.346	17699
826.485	17646
826.625	17668
826.765	17813
826.904	17748
827.044	17554
827.183	17356
827.323	17299
827.462	17512
827.601	17353
827.741	17330
827.88	17360
828.02	17242
828.159	17303
828.298	17417
828.437	17429
828.577	17334
828.716	17661
828.855	17303
828.994	17140
829.134	17261
829.273	17258
829.412	17079
829.551	17094
829.69	17151
829.829	17128
829.968	17147
830.107	17098
830.246	17121
830.385	16946
830.524	17090
830.663	16923
830.802	16858
830.941	16797
831.08	16809
831.219	16778
831.357	16729
831.496	16987
831.635	16839
831.774	16725
831.913	16721
832.051	16580
832.19	16489
832.329	16607
832.467	16386
832.606	16398
832.744	16360
832.883	16417
833.022	16474
833.16	16333
833.299	16481
833.437	16440
833.576	16394
833.714	16516
833.852	16504
833.991	16523
834.129	16535
834.267	16573
834.406	16508
834.544	16626
834.682	16493
834.821	16386
834.959	16573
835.097	16436
835.235	16596
835.373	16493
835.511	16615
835.65	16424
835.788	16421
835.926	16135
836.064	16211
836.202	16249
836.34	16341
836.478	16485
836.615	16352
836.753	16440
836.891	16504
837.029	16462
837.167	16348
837.305	16303
837.443	16249
837.58	16196
837.718	16230
837.856	16265
837.993	16238
838.131	16337
838.269	16147
838.406	16314
838.544	16166
838.681	15911
838.819	15895
838.956	15930
839.094	15766
839.231	15800
839.369	15941
839.506	16166
839.643	16078
839.781	15892
839.918	15709
840.055	15903
840.193	15701
840.33	15846
840.467	15869
840.604	15846
840.742	16040
840.879	15694
841.016	15739
841.153	15675
841.29	15831
841.427	15766
841.564	15781
841.701	15804
841.838	15720
841.975	15671
842.112	15705
842.249	15660
842.385	15523
842.522	15755
842.659	15538
842.796	15542
842.933	15652
843.069	15500
843.206	15477
843.343	15625
843.479	15656
843.616	15591
843.752	15340
843.889	15306
844.025	15504
844.162	15370
844.298	15568
844.435	15405
844.571	15378
844.708	15473
844.844	15526
844.98	15435
845.117	15431
845.253	15348
845.389	15287
845.525	15256
845.661	15252
845.798	15169
845.934	15142
846.07	15165
846.206	15116
846.342	15367
846.478	15211
846.614	14967
846.75	14899
846.886	14918
847.022	14994
847.158	14986
847.294	14891
847.429	14941
847.565	14891
847.701	15241
847.837	14739
847.972	14667
848.108	14800
848.244	14727
848.379	14522
848.515	14499
848.65	14511
848.786	14571
848.921	14606
849.057	14613
849.192	14541
849.328	14621
849.463	14621
849.598	14533
849.734	14514
849.869	14396
850.004	14343
850.14	14218
850.275	14282
850.41	14244
850.545	14256
850.68	14317
850.815	14305
850.95	14256
851.085	14492
851.22	14396
851.355	14328
851.49	14225
851.625	14278
851.76	14343
851.895	14229
852.03	14195
852.165	14233
852.299	14328
852.434	14423
852.569	14366
852.703	14290
852.838	14343
852.973	14469
853.107	14400
853.242	14355
853.376	14153
853.511	14065
853.645	14149
853.78	14408
853.914	14134
854.048	14130
854.183	14130
854.317	14176
854.451	14393
854.585	14161
854.72	14138
854.854	14233
854.988	14164
855.122	14252
855.256	14039
855.39	14130
855.524	14271
855.658	14336
855.792	14187
855.926	14240
856.06	14233
856.194	14317
856.327	14244
856.461	14103
856.595	14149
856.729	14134
856.862	14324
856.996	14199
857.13	14259
857.263	14320
857.397	14301
857.53	14153
857.664	14214
857.797	14282
857.931	14339
858.064	14240
858.197	14221
858.331	14240
858.464	14202
858.597	14107
858.731	14202
858.864	14199
858.997	14259
859.13	14233
859.263	14191
859.396	14282
859.529	14225
859.662	14084
859.795	14145
859.928	14324
860.061	14393
860.194	14324
860.327	14233
860.46	14233
860.592	14336
860.725	14362
860.858	14400
860.99	14149
861.123	14103
861.256	14134
861.388	14206
861.521	14842
861.653	14134
861.786	14126
861.918	14043
862.05	14138
862.183	14145
862.315	14248
862.447	14199
862.58	14134
862.712	14054
862.844	13852
862.976	14134
863.108	13978
863.24	14294
863.372	13925
863.504	13963
863.636	13982
863.768	14065
863.9	13940
864.032	13894
864.164	14069
864.296	14088
864.428	14084
864.559	13997
864.691	14115
864.823	14126
864.954	14035
865.086	14065
865.217	14027
865.349	13947
865.48	13993
865.612	13997
865.743	14237
865.875	14050
866.006	13951
866.137	14031
866.269	13993
866.4	14031
866.531	13909
866.662	13913
866.793	13898
866.924	13955
867.055	14008
867.186	13928
867.317	13879
867.448	13864
867.579	13925
867.71	13898
867.841	13871
867.972	14073
868.103	13944
868.233	14024
868.364	13993
868.495	14176
868.625	14115
868.756	14317
868.886	14149
869.017	14377
869.147	14244
869.278	14362
869.408	14358
869.539	14210
869.669	14362
869.799	14347
869.929	14355
870.06	14301
870.19	14511
870.32	14590
870.45	14613
870.58	14606
870.71	14686
870.84	14720
870.97	14663
871.1	14575
871.23	14853
871.36	14754
871.489	14743
871.619	14800
871.749	14834
871.879	14891
872.008	14944
872.138	14887
872.267	14895
872.397	14777
872.526	14678
872.656	14587
872.785	14663
872.915	14857
873.044	14944
873.173	14754
873.303	14899
873.432	14967
873.561	14891
873.69	14838
873.819	14815
873.948	14902
874.077	14925
874.206	14880
874.335	14906
874.464	15032
874.593	15176
874.722	15085
874.851	15138
874.979	15199
875.108	15294
875.237	15195
875.365	15100
875.494	15127
875.623	15222
875.751	15100
875.88	15176
876.008	15412
876.136	15462
876.265	15671
876.393	15686
876.521	15644
876.65	15694
876.778	15648
876.906	15595
877.034	15580
877.162	15538
877.29	15595
877.418	15542
877.546	15717
877.674	15587
877.802	15629
877.93	15485
878.058	15564
878.185	15428
878.313	15595
878.441	15599
878.568	15466
878.696	15500
878.824	15660
878.951	15705
879.079	15808
879.206	15865
879.333	15789
879.461	15625
879.588	15606
879.715	15819
879.842	15907
879.97	15755
880.097	15462
880.224	15420
880.351	15443
880.478	15515
880.605	15420
880.732	15568
880.859	15694
880.986	15416
881.112	15500
881.239	15382
881.366	15233
881.493	15112
881.619	15123
881.746	15112
881.872	15119
881.999	15051
882.125	15066
882.252	15150
882.378	15176
882.505	15291
882.631	15005
882.757	14914
882.883	14944
883.01	14963
883.136	14891
883.262	14750
883.388	14697
883.514	14986
883.64	14918
883.766	14948
883.892	14693
884.018	14807
884.143	14994
884.269	15009
884.395	14651
884.52	14518
884.646	14526
884.772	14564
884.897	14632
885.023	14689
885.148	14750
885.274	14785
885.399	14705
885.524	14712
885.65	14613
885.775	14686
885.9	14640
886.025	14777
886.15	14678
886.275	14556
886.4	14469
886.525	14610
886.65	14594
886.775	14587
886.9	14720
887.025	14868
887.149	14598
887.274	14427
887.399	14381
887.523	14473
887.648	14389
887.773	14431
887.897	14606
888.021	14499
888.146	14457
888.27	14530
888.395	14602
888.519	14450
888.643	14541
888.767	14438
888.891	14446
889.015	14355
889.139	14298
889.263	14301
889.387	14351
889.511	14511
889.635	14404
889.759	14351
889.883	14263
890.006	14313
890.13	14446
890.254	14301
890.377	14324
890.501	14172
890.624	14081
890.748	14195
890.871	14126
890.995	13978
891.118	13993
891.241	14088
891.364	14073
891.488	14199
891.611	14035
891.734	14027
891.857	14092
891.98	14092
892.103	14115
892.226	14081
892.349	14035
892.471	13799
892.594	14008
892.717	14035
892.839	13947
892.962	14024
893.085	14065
893.207	13993
893.33	13925
893.452	13974
893.575	14077
893.697	13982
893.819	14145
893.941	14240
894.064	14248
894.186	13913
894.308	14062
894.43	14077
894.552	14149
894.674	14282
894.796	14069
894.918	14069
895.04	14092
895.161	14168
895.283	14233
895.405	14107
895.526	14172
895.648	14145
895.769	14111
895.891	14282
896.012	14149
896.134	14202
896.255	14202
896.376	14123
896.498	14202
896.619	14275
896.74	14202
896.861	14267
896.982	14522
897.103	14708
897.224	14594
897.345	14469
897.466	14404
897.587	14461
897.708	14682
897.828	14480
897.949	14431
898.07	14313
898.19	14480
898.311	14568
898.431	14560
898.552	14514
898.672	14682
898.792	14667
898.913	14636
899.033	14469
899.153	14476
899.273	14324
899.393	14400
899.513	14396
899.633	14450
899.753	14457
899.873	14336
899.993	14434
900.113	14374
900.232	14465
900.352	14396
900.472	14332
900.591	14161
900.711	14263
900.83	14210
900.95	14366
901.069	14427
901.189	14187
901.308	14024
901.427	13913
901.546	14008
901.665	13940
901.784	13986
901.904	13856
902.023	13689
902.141	13597
902.26	13537
902.379	13639
902.498	13616
902.617	13438
902.735	13540
902.854	13521
902.973	13426
903.091	13289
903.21	13247
903.328	13202
903.446	13171
903.565	13149
903.683	13133
903.801	13004
903.919	13023
904.038	13149
904.156	12894
904.274	13019
904.392	12852
904.51	12916
904.627	12867
904.745	12859
904.863	12928
904.981	12768
905.098	12639
905.216	12631
905.334	12639
905.451	12734
905.569	12563
905.686	12665
905.803	12604
905.921	12426
906.038	12483
906.155	12445
906.272	12350
906.389	12334
906.506	12190
906.623	12213
906.74	12228
906.857	12076
906.974	12060
907.091	12277
907.208	12289
907.324	12190
907.441	12087
907.557	12076
907.674	12026
907.79	11851
907.907	11908
908.023	11870
908.139	11927
908.256	11874
908.372	11912
908.488	11874
908.604	11764
908.72	11672
908.836	11680
908.952	11680
909.068	11627
909.184	11756
909.3	11680
909.415	11752
909.531	11718
909.647	11433
909.762	11497
909.878	11387
909.993	11524
910.108	11395
910.224	11448
910.339	11493
910.454	11402
910.57	11330
910.685	11330
910.8	11493
910.915	11505
911.03	11280
911.145	11140
911.259	11185
911.374	11143
911.489	11067
911.604	11033
911.718	10908
911.833	10908
911.947	10873
912.062	10778
912.176	10862
912.291	10961
912.405	10904
912.519	11102
912.633	11193
912.748	11022
912.862	10919
912.976	10801
913.09	10729
913.204	10809
913.318	10786
913.431	10900
913.545	10820
913.659	10946
913.772	10896
913.886	10683
914	10653
914.113	10786
914.226	10812
914.34	10710
914.453	10584
914.566	10752
914.68	10641
914.793	10672
914.906	10527
915.019	10371
915.132	10424
915.245	10386
915.358	10371
915.47	10489
915.583	10508
915.696	10428
915.809	10577
915.921	10637
916.034	10409
916.146	10409
916.259	10314
916.371	10466
916.483	10436
916.595	10379
916.708	10451
916.82	10322
916.932	10348
917.044	10215
917.156	10318
917.268	10234
917.38	10230
917.491	10242
917.603	10261
917.715	10421
917.826	10375
917.938	10306
918.049	10219
918.161	10303
918.272	10417
918.384	10402
918.495	10295
918.606	10196
918.717	10074
918.828	10162
918.939	10078
919.05	10135
919.161	10143
919.272	9960
919.383	9968
919.494	10131
919.604	10299
919.715	10196
919.826	10067
919.936	10093
920.047	10223
920.157	10211
920.267	10314
920.378	10147
920.488	10162
920.598	10265
920.708	10561
920.818	10470
920.928	10291
921.038	10459
921.148	10546
921.258	10211
921.368	10131
921.477	10059
921.587	10036
921.697	9911
921.806	10116
921.916	9926
922.025	9713
922.134	9743
922.244	9679
922.353	9755
922.462	9694
922.571	9656
922.68	9485
922.789	9397
922.898	9405
923.007	9405
923.116	9553
923.224	9405
923.333	9405
923.442	9344
923.55	9332
923.659	9336
923.767	9359
923.876	9313
923.984	9317
924.092	9279
924.201	9355
924.309	9325
924.417	9317
924.525	9226
924.633	9211
924.741	10238
924.849	9169
924.956	9241
925.064	9093
925.172	9043
925.279	9077
925.387	9104
925.494	9085
925.602	9188
925.709	9188
925.816	9039
925.924	9104
926.031	9233
926.138	9089
926.245	9074
926.352	9070
926.459	9146
926.566	9211
926.673	9039
926.779	8971
926.886	8975
926.993	8861
927.099	8853
927.206	8766
927.312	8800
927.419	8941
927.525	8887
927.631	8929
927.737	8781
927.843	8712
927.95	8610
928.056	8602
928.162	8689
928.267	8826
928.373	9405
928.479	8838
928.585	8602
928.69	8720
928.796	8819
928.901	8602
929.007	8590
929.112	8644
929.218	8606
929.323	8552
929.428	8533
929.533	8682
929.638	8522
929.743	8568
929.848	8514
929.953	8530
930.058	8423
930.163	8317
930.267	8263
930.372	8438
930.477	8301
930.581	8503
930.685	8324
930.79	8282
930.894	8282
930.998	8202
931.103	8415
931.207	8096
931.311	7978
931.415	7989
931.519	7757
931.623	7799
