Data from test_V78500241_1047.txt Node
Date: Fri Mar 25 14:41:00 CST 2022
User: usil
Spectrometer: V785-0024
Trigger mode: 0
Integration Time (sec): 4.000000E-1
Scans to average: 1
Nonlinearity correction enabled: false
Boxcar width: 0
Storing dark spectrum: false
XAxis mode: Wavelengths
Number of Pixels in Spectrum: 1024
>>>>>Begin Spectral Data<<<<<
801.071	22763
801.214	22653
801.356	22504
801.499	22432
801.641	22215
801.783	22154
801.926	22234
802.068	22029
802.211	22029
802.353	21937
802.496	21667
802.638	21633
802.78	21576
802.923	21663
803.065	21485
803.208	21496
803.35	21610
803.492	21603
803.635	21728
803.777	21507
803.919	21667
804.061	21994
804.204	21698
804.346	21496
804.488	21393
804.63	21553
804.773	21389
804.915	21553
805.057	21660
805.199	21386
805.341	21454
805.483	21542
805.626	21564
805.768	21545
805.91	21545
806.052	21500
806.194	21435
806.336	21633
806.478	21610
806.62	21564
806.762	21587
806.904	21739
807.046	21975
807.188	22051
807.33	22017
807.472	22010
807.614	21812
807.756	21926
807.898	21892
808.04	21865
808.182	21892
808.324	22059
808.465	22128
808.607	22409
808.749	22478
808.891	22759
809.033	22615
809.174	22675
809.316	22436
809.458	22341
809.6	22200
809.741	22162
809.883	22246
810.025	22287
810.166	22200
810.308	22242
810.45	22150
810.591	22070
810.733	21850
810.875	21778
811.016	21766
811.158	21751
811.299	21895
811.441	21918
811.582	21880
811.724	21720
811.865	21717
812.007	21713
812.148	21713
812.29	21869
812.431	21956
812.573	22044
812.714	21937
812.855	22162
812.997	22295
813.138	22508
813.279	22265
813.421	22310
813.562	22166
813.703	22010
813.845	21831
813.986	21663
814.127	21435
814.268	21313
814.41	21351
814.551	21192
814.692	21302
814.833	21017
814.974	21294
815.115	21180
815.256	21207
815.397	21123
815.539	21047
815.68	21055
815.821	20883
815.962	20933
816.103	21096
816.244	20891
816.385	20720
816.526	20686
816.666	20575
816.807	20385
816.948	20560
817.089	20594
817.23	20423
817.371	20480
817.512	20408
817.653	20507
817.793	20355
817.934	20328
818.075	20438
818.216	20332
818.356	20412
818.497	20278
818.638	19906
818.778	20046
818.919	20111
819.06	20069
819.2	20271
819.341	20244
819.481	20366
819.622	20347
819.762	20621
819.903	20537
820.043	20507
820.184	20286
820.324	20385
820.465	20404
820.605	20351
820.746	20301
820.886	20225
821.026	20309
821.167	20324
821.307	20415
821.447	20377
821.588	20206
821.728	20062
821.868	19982
822.008	19811
822.149	19761
822.289	19807
822.429	19556
822.569	19491
822.709	19453
822.849	19247
822.99	19301
823.13	19187
823.27	19217
823.41	19069
823.55	19110
823.69	19031
823.83	19126
823.97	19050
824.11	18932
824.25	18856
824.389	18837
824.529	18894
824.669	18821
824.809	18966
824.949	18901
825.089	18920
825.228	18848
825.368	18757
825.508	18665
825.648	18658
825.787	18646
825.927	18654
826.067	18646
826.206	18623
826.346	18642
826.485	18650
826.625	18741
826.765	18791
826.904	18612
827.044	18509
827.183	18456
827.323	18315
827.462	18448
827.601	18410
827.741	18372
827.88	18346
828.02	18213
828.159	18281
828.298	18338
828.437	18357
828.577	18361
828.716	18506
828.855	18346
828.994	18087
829.134	18117
829.273	18152
829.412	18015
829.551	18022
829.69	18034
829.829	18174
829.968	18201
830.107	18079
830.246	18205
830.385	18114
830.524	18045
830.663	17908
830.802	17802
830.941	17661
831.08	17741
831.219	17767
831.357	17737
831.496	17946
831.635	17657
831.774	17589
831.913	17703
832.051	17592
832.19	17467
832.329	17562
832.467	17417
832.606	17455
832.744	17356
832.883	17429
833.022	17364
833.16	17520
833.299	17459
833.437	17410
833.576	17528
833.714	17501
833.852	17539
833.991	17619
834.129	17627
834.267	17532
834.406	17486
834.544	17573
834.682	17524
834.821	17509
834.959	17661
835.097	17448
835.235	17615
835.373	17452
835.511	17493
835.65	17322
835.788	17315
835.926	17345
836.064	17261
836.202	17288
836.34	17299
836.478	17471
836.615	17406
836.753	17368
836.891	17425
837.029	17395
837.167	17334
837.305	17345
837.443	17311
837.58	17296
837.718	17292
837.856	17269
837.993	17136
838.131	17208
838.269	17090
838.406	17151
838.544	17083
838.681	16961
838.819	16839
838.956	16797
839.094	16805
839.231	16797
839.369	16991
839.506	17121
839.643	17018
839.781	16778
839.918	16736
840.055	16850
840.193	16820
840.33	16755
840.467	16782
840.604	16694
840.742	17041
840.879	16733
841.016	16683
841.153	16736
841.29	16782
841.427	16881
841.564	16873
841.701	16740
841.838	16710
841.975	16683
842.112	16733
842.249	16481
842.385	16462
842.522	16717
842.659	16611
842.796	16478
842.933	16504
843.069	16462
843.206	16588
843.343	16683
843.479	16550
843.616	16497
843.752	16295
843.889	16318
844.025	16519
844.162	16207
844.298	16352
844.435	16344
844.571	16295
844.708	16382
844.844	16596
844.98	16474
845.117	16512
845.253	16360
845.389	16295
845.525	16508
845.661	16618
845.798	16774
845.934	16946
846.07	16946
846.206	17117
846.342	16885
846.478	16630
846.614	16128
846.75	16006
846.886	16010
847.022	16044
847.158	16006
847.294	15838
847.429	15865
847.565	15842
847.701	16097
847.837	15584
847.972	15587
848.108	15656
848.244	15709
848.379	15572
848.515	15431
848.65	15485
848.786	15450
848.921	15431
849.057	15538
849.192	15580
849.328	15458
849.463	15511
849.598	15447
849.734	15279
849.869	15389
850.004	15279
850.14	15287
850.275	15237
850.41	15241
850.545	15287
850.68	15192
850.815	15252
850.95	15272
851.085	15386
851.22	15386
851.355	15195
851.49	15222
851.625	15146
851.76	15146
851.895	15093
852.03	15070
852.165	15306
852.299	15275
852.434	15275
852.569	15370
852.703	15367
852.838	15321
852.973	15386
853.107	15294
853.242	15211
853.376	15089
853.511	14948
853.645	15142
853.78	15222
853.914	15123
854.048	14990
854.183	15116
854.317	15112
854.451	15222
854.585	15135
854.72	15062
854.854	15230
854.988	15055
855.122	15051
855.256	14971
855.39	14937
855.524	15169
855.658	15241
855.792	15188
855.926	15077
856.06	15165
856.194	15188
856.327	15077
856.461	15032
856.595	15066
856.729	14979
856.862	15157
856.996	15074
857.13	15100
857.263	15306
857.397	15214
857.53	15100
857.664	15142
857.797	15119
857.931	15233
858.064	15150
858.197	15173
858.331	15157
858.464	15017
858.597	14982
858.731	15017
858.864	15001
858.997	15024
859.13	15070
859.263	15089
859.396	15214
859.529	15089
859.662	15017
859.795	15032
859.928	15173
860.061	15355
860.194	15279
860.327	15077
860.46	15142
860.592	15070
860.725	15245
860.858	15176
860.99	15150
861.123	14918
861.256	14990
861.388	15001
861.521	15766
861.653	14998
861.786	14857
861.918	14944
862.05	15020
862.183	15028
862.315	14990
862.447	15104
862.58	15081
862.712	14796
862.844	14838
862.976	14921
863.108	14872
863.24	15294
863.372	14811
863.504	14933
863.636	14872
863.768	14826
863.9	14842
864.032	14807
864.164	14746
864.296	14921
864.428	14918
864.559	14998
864.691	14941
864.823	14861
864.954	14857
865.086	14861
865.217	14788
865.349	14758
865.48	14845
865.612	14823
865.743	14956
865.875	14864
866.006	14796
866.137	14842
866.269	14857
866.4	14823
866.531	14788
866.662	14781
866.793	14807
866.924	14758
867.055	14925
867.186	14727
867.317	14777
867.448	14667
867.579	14800
867.71	14735
867.841	14853
867.972	14819
868.103	14708
868.233	14823
868.364	14857
868.495	14925
868.625	15081
868.756	15123
868.886	14979
869.017	14990
869.147	15207
869.278	15207
869.408	15135
869.539	15013
869.669	15199
869.799	15119
869.929	15146
870.06	15226
870.19	15374
870.32	15321
870.45	15386
870.58	15389
870.71	15500
870.84	15500
870.97	15412
871.1	15496
871.23	15663
871.36	15701
871.489	15519
871.619	15622
871.749	15587
871.879	15743
872.008	15793
872.138	15633
872.267	15644
872.397	15553
872.526	15458
872.656	15504
872.785	15454
872.915	15667
873.044	15743
873.173	15652
873.303	15747
873.432	15762
873.561	15774
873.69	15698
873.819	15682
873.948	15827
874.077	15766
874.206	15686
874.335	15736
874.464	15876
874.593	16013
874.722	15945
874.851	16086
874.979	16021
875.108	16082
875.237	16032
875.365	15926
875.494	15983
875.623	16059
875.751	15922
875.88	16093
876.008	16120
876.136	16223
876.265	16512
876.393	16584
876.521	16466
876.65	16550
876.778	16462
876.906	16451
877.034	16333
877.162	16447
877.29	16432
877.418	16451
877.546	16470
877.674	16413
877.802	16558
877.93	16523
878.058	16466
878.185	16344
878.313	16421
878.441	16337
878.568	16352
878.696	16500
878.824	16588
878.951	16596
879.079	16843
879.206	17029
879.333	16934
879.461	16733
879.588	16911
879.715	17029
879.842	17064
879.97	16721
880.097	16474
880.224	16455
880.351	16519
880.478	16371
880.605	16333
880.732	16329
880.859	16618
880.986	16546
881.112	16329
881.239	16272
881.366	16131
881.493	16124
881.619	16032
881.746	16010
881.872	16124
881.999	15991
882.125	15991
882.252	16036
882.378	16169
882.505	16105
882.631	15975
882.757	15831
882.883	15892
883.01	15865
883.136	15812
883.262	15690
883.388	15686
883.514	15842
883.64	15800
883.766	15793
883.892	15625
884.018	15728
884.143	15759
884.269	15941
884.395	15561
884.52	15564
884.646	15530
884.772	15519
884.897	15549
885.023	15564
885.148	15576
885.274	15781
885.399	15682
885.524	15584
885.65	15526
885.775	15538
885.9	15504
886.025	15549
886.15	15595
886.275	15367
886.4	15386
886.525	15473
886.65	15401
886.775	15477
886.9	15584
887.025	15823
887.149	15568
887.274	15329
887.399	15351
887.523	15199
887.648	15268
887.773	15268
887.897	15405
888.021	15393
888.146	15252
888.27	15439
888.395	15439
888.519	15363
888.643	15313
888.767	15351
888.891	15222
889.015	15085
889.139	15192
889.263	15142
889.387	15222
889.511	15359
889.635	15313
889.759	15176
889.883	15154
890.006	15138
890.13	15154
890.254	14975
890.377	15024
890.501	14891
890.624	14861
890.748	15020
890.871	14887
890.995	14800
891.118	14758
891.241	14868
891.364	14826
891.488	14857
891.611	14724
891.734	14887
891.857	14861
891.98	14857
892.103	14880
892.226	14921
892.349	14807
892.471	14663
892.594	14792
892.717	14876
892.839	14800
892.962	14788
893.085	14861
893.207	14819
893.33	14651
893.452	14693
893.575	14842
893.697	14720
893.819	14963
893.941	15001
894.064	14910
894.186	14762
894.308	14689
894.43	14823
894.552	14967
894.674	14861
894.796	14743
894.918	14708
895.04	14735
895.161	14861
895.283	14804
895.405	14773
895.526	14937
895.648	14781
895.769	14883
895.891	14994
896.012	14963
896.134	15116
896.255	15017
896.376	14910
896.498	14925
896.619	14982
896.74	14773
896.861	14948
896.982	15275
897.103	15386
897.224	15317
897.345	15173
897.466	15173
897.587	15165
897.708	15325
897.828	15165
897.949	15157
898.07	15123
898.19	15173
898.311	15287
898.431	15287
898.552	15138
898.672	15332
898.792	15325
898.913	15260
899.033	15237
899.153	15180
899.273	15081
899.393	15142
899.513	15131
899.633	15058
899.753	15161
899.873	15001
899.993	15135
900.113	15085
900.232	15081
900.352	15161
900.472	14960
900.591	14937
900.711	14929
900.83	14941
900.95	15127
901.069	15062
901.189	14929
901.308	14716
901.427	14625
901.546	14590
901.665	14705
901.784	14682
901.904	14473
902.023	14400
902.141	14263
902.26	14191
902.379	14256
902.498	14187
902.617	14199
902.735	14278
902.854	14130
902.973	14214
903.091	13902
903.21	13978
903.328	13947
903.446	13818
903.565	13784
903.683	13803
903.801	13643
903.919	13746
904.038	13658
904.156	13685
904.274	13662
904.392	13662
904.51	13590
904.627	13548
904.745	13670
904.863	13685
904.981	13335
905.098	13221
905.216	13206
905.334	13263
905.451	13274
905.569	13190
905.686	13316
905.803	13225
905.921	13152
906.038	13225
906.155	13156
906.272	12973
906.389	13141
906.506	12859
906.623	12943
906.74	12882
906.857	12760
906.974	12757
907.091	12939
907.208	12913
907.324	12928
907.441	12757
907.557	12623
907.674	12570
907.79	12429
907.907	12517
908.023	12612
908.139	12604
908.256	12525
908.372	12460
908.488	12471
908.604	12361
908.72	12342
908.836	12384
908.952	12319
909.068	12437
909.184	12509
909.3	12365
909.415	12471
909.531	12323
909.647	12121
909.762	12178
909.878	12129
909.993	12129
910.108	12102
910.224	12110
910.339	12072
910.454	12083
910.57	11954
910.685	11863
910.8	12117
910.915	12129
911.03	11916
911.145	11840
911.259	11741
911.374	11790
911.489	11752
911.604	11718
911.718	11535
911.833	11573
911.947	11372
912.062	11341
912.176	11539
912.291	11493
912.405	11554
912.519	11657
912.633	11703
912.748	11665
912.862	11532
912.976	11463
913.09	11265
913.204	11387
913.318	11372
913.431	11467
913.545	11478
913.659	11535
913.772	11410
913.886	11288
914	11322
914.113	11383
914.226	11429
914.34	11265
914.453	11220
914.566	11410
914.68	11299
914.793	11174
914.906	11067
915.019	10953
915.132	10965
915.245	11029
915.358	11033
915.47	11075
915.583	11109
915.696	11121
915.809	11201
915.921	11121
916.034	10942
916.146	10930
916.259	10869
916.371	11029
916.483	11060
916.595	10908
916.708	10938
916.82	10919
916.932	10889
917.044	10930
917.156	10854
917.268	10763
917.38	10816
917.491	10763
917.603	10900
917.715	10953
917.826	10919
917.938	10786
918.049	10702
918.161	10809
918.272	10957
918.384	10968
918.495	10828
918.606	10702
918.717	10649
918.828	10710
918.939	10744
919.05	10649
919.161	10675
919.272	10538
919.383	10599
919.494	10744
919.604	10873
919.715	10691
919.826	10592
919.936	10630
920.047	10786
920.157	10767
920.267	10965
920.378	10782
920.488	10771
920.598	10885
920.708	11045
920.818	10900
920.928	10854
921.038	11014
921.148	11010
921.258	10759
921.368	10660
921.477	10546
921.587	10580
921.697	10459
921.806	10554
921.916	10474
922.025	10337
922.134	10219
922.244	10207
922.353	10379
922.462	10158
922.571	10071
922.68	9987
922.789	9861
922.898	9873
923.007	9926
923.116	9979
923.224	9934
923.333	9918
923.442	9819
923.55	9789
923.659	9819
923.767	9869
923.876	9717
923.984	9812
924.092	9717
924.201	9812
924.309	9800
924.417	9819
924.525	9724
924.633	9755
924.741	10714
924.849	9553
924.956	9724
925.064	9561
925.172	9428
925.279	9435
925.387	9606
925.494	9610
925.602	9705
925.709	9625
925.816	9485
925.924	9469
926.031	9606
926.138	9519
926.245	9610
926.352	9401
926.459	9637
926.566	9641
926.673	9542
926.779	9359
926.886	9393
926.993	9310
927.099	9241
927.206	9157
927.312	9169
927.419	9329
927.525	9233
927.631	9306
927.737	9169
927.843	9112
927.95	9051
928.056	9176
928.162	9154
928.267	9176
928.373	9774
928.479	9233
928.585	9039
928.69	9207
928.796	9226
928.901	9123
929.007	8887
929.112	9036
929.218	8986
929.323	9013
929.428	8937
929.533	9097
929.638	8891
929.743	8937
929.848	8864
929.953	8906
930.058	8864
930.163	8701
930.267	8720
930.372	8849
930.477	8712
930.581	8899
930.685	8754
930.79	8594
930.894	8686
930.998	8610
931.103	8788
931.207	8492
931.311	8358
931.415	8301
931.519	8115
931.623	8199
