Data from test_V78500241_291.txt Node
Date: Fri Mar 25 14:35:44 CST 2022
User: usil
Spectrometer: V785-0024
Trigger mode: 0
Integration Time (sec): 4.000000E-1
Scans to average: 1
Nonlinearity correction enabled: false
Boxcar width: 0
Storing dark spectrum: false
XAxis mode: Wavelengths
Number of Pixels in Spectrum: 1024
>>>>>Begin Spectral Data<<<<<
801.071	27252
801.214	27077
801.356	26853
801.499	26731
801.641	26731
801.783	26575
801.926	26655
802.068	26549
802.211	26564
802.353	26606
802.496	26305
802.638	26313
802.78	26290
802.923	26103
803.065	26069
803.208	25902
803.35	26278
803.492	26275
803.635	26305
803.777	26233
803.919	26271
804.061	26442
804.204	26343
804.346	26016
804.488	25993
804.63	26168
804.773	26016
804.915	26202
805.057	26343
805.199	26221
805.341	26218
805.483	26206
805.626	26164
805.768	26157
805.91	26233
806.052	26157
806.194	26153
806.336	26355
806.478	26168
806.62	26290
806.762	26339
806.904	26549
807.046	26533
807.188	26564
807.33	26686
807.472	26625
807.614	26602
807.756	26488
807.898	26476
808.04	26434
808.182	26499
808.324	26377
808.465	26522
808.607	26648
808.749	26648
808.891	26716
809.033	27070
809.174	26743
809.316	26705
809.458	26746
809.6	26800
809.741	26864
809.883	26781
810.025	26823
810.166	27081
810.308	26956
810.45	26868
810.591	26785
810.733	26674
810.875	26750
811.016	26560
811.158	26507
811.299	26625
811.441	26720
811.582	26632
811.724	26450
811.865	26488
812.007	26568
812.148	26537
812.29	26621
812.431	26724
812.573	26887
812.714	26918
812.855	26925
812.997	27203
813.138	27279
813.279	27123
813.421	27047
813.562	26891
813.703	26887
813.845	26815
813.986	26408
814.127	26328
814.268	26176
814.41	26244
814.551	26157
814.692	26237
814.833	26191
814.974	26134
815.115	26168
815.256	26035
815.397	25925
815.539	25940
815.68	25925
815.821	25822
815.962	25814
816.103	25753
816.244	25738
816.385	25658
816.526	25578
816.666	25354
816.807	25373
816.948	25441
817.089	25350
817.23	25331
817.371	25194
817.512	25304
817.653	25183
817.793	25187
817.934	25247
818.075	25194
818.216	25339
818.356	25122
818.497	25053
818.638	24939
818.778	24852
818.919	25023
819.06	25023
819.2	24992
819.341	25072
819.481	25091
819.622	25304
819.762	25533
819.903	25278
820.043	25274
820.184	25209
820.324	25236
820.465	25293
820.605	25274
820.746	25183
820.886	25145
821.026	25206
821.167	25126
821.307	25285
821.447	25160
821.588	25084
821.728	24814
821.868	24688
822.008	24681
822.149	24665
822.289	24433
822.429	24342
822.569	24194
822.709	24209
822.849	24034
822.99	24034
823.13	24079
823.27	24038
823.41	23840
823.55	23710
823.69	23870
823.83	23912
823.97	23786
824.11	23638
824.25	23718
824.389	23551
824.529	23752
824.669	23608
824.809	23672
824.949	23707
825.089	23615
825.228	23573
825.368	23486
825.508	23505
825.648	23349
825.787	23520
825.927	23307
826.067	23235
826.206	23326
826.346	23478
826.485	23356
826.625	23444
826.765	23471
826.904	23322
827.044	23246
827.183	23170
827.323	23075
827.462	23029
827.601	23105
827.741	23052
827.88	23060
828.02	22889
828.159	23029
828.298	23056
828.437	23071
828.577	22927
828.716	23121
828.855	23022
828.994	22645
829.134	22824
829.273	22801
829.412	22740
829.551	22713
829.69	22687
829.829	22577
829.968	22942
830.107	22847
830.246	22721
830.385	22649
830.524	22508
830.663	22542
830.802	22421
830.941	22333
831.08	22196
831.219	22432
831.357	22519
831.496	22569
831.635	22299
831.774	22230
831.913	22131
832.051	22162
832.19	22036
832.329	22036
832.467	22002
832.606	21972
832.744	22013
832.883	21918
833.022	21880
833.16	22017
833.299	21968
833.437	21915
833.576	22078
833.714	21991
833.852	22048
833.991	22048
834.129	22029
834.267	22032
834.406	22006
834.544	21994
834.682	21899
834.821	21949
834.959	22162
835.097	21861
835.235	22059
835.373	21994
835.511	21937
835.65	21812
835.788	21876
835.926	21614
836.064	21644
836.202	21583
836.34	21770
836.478	21880
836.615	21743
836.753	21739
836.891	21937
837.029	21884
837.167	21698
837.305	21622
837.443	21724
837.58	21633
837.718	21660
837.856	21667
837.993	21545
838.131	21606
838.269	21545
838.406	21553
838.544	21386
838.681	21249
838.819	21211
838.956	21138
839.094	21123
839.231	21051
839.369	21332
839.506	21302
839.643	21138
839.781	21230
839.918	21142
840.055	21070
840.193	21146
840.33	20941
840.467	20963
840.604	20982
840.742	21233
840.879	20876
841.016	20857
841.153	20914
841.29	21047
841.427	20952
841.564	20937
841.701	20971
841.838	21005
841.975	20872
842.112	20861
842.249	20716
842.385	20743
842.522	20853
842.659	20705
842.796	20765
842.933	20731
843.069	20670
843.206	20701
843.343	20910
843.479	20663
843.616	20800
843.752	20480
843.889	20552
844.025	20530
844.162	20419
844.298	20545
844.435	20495
844.571	20248
844.708	20518
844.844	20598
844.98	20530
845.117	20461
845.253	20309
845.389	20396
845.525	20404
845.661	20377
845.798	20320
845.934	20366
846.07	20317
846.206	20434
846.342	20480
846.478	20256
846.614	19982
846.75	19906
846.886	20008
847.022	20001
847.158	19947
847.294	19925
847.429	19902
847.565	19902
847.701	20092
847.837	19582
847.972	19571
848.108	19719
848.244	19731
848.379	19567
848.515	19544
848.65	19502
848.786	19556
848.921	19384
849.057	19525
849.192	19586
849.328	19563
849.463	19518
849.598	19335
849.734	19392
849.869	19331
850.004	19168
850.14	19266
850.275	19209
850.41	19099
850.545	19129
850.68	19217
850.815	19240
850.95	19335
851.085	19422
851.22	19251
851.355	19202
851.49	19099
851.625	19110
851.76	19118
851.895	19091
852.03	19190
852.165	19194
852.299	19122
852.434	19369
852.569	19270
852.703	19209
852.838	19168
852.973	19403
853.107	19297
853.242	19156
853.376	19107
853.511	18920
853.645	19027
853.78	19148
853.914	19008
854.048	18909
854.183	19034
854.317	18943
854.451	19095
854.585	18962
854.72	18993
854.854	19122
854.988	18993
855.122	18935
855.256	18833
855.39	18939
855.524	19133
855.658	19031
855.792	19015
855.926	18985
856.06	19008
856.194	19126
856.327	18966
856.461	18901
856.595	19038
856.729	18916
856.862	19057
856.996	19050
857.13	19050
857.263	19209
857.397	19042
857.53	18981
857.664	19076
857.797	19088
857.931	19015
858.064	18901
858.197	19046
858.331	18970
858.464	18817
858.597	18871
858.731	18993
858.864	18954
858.997	19038
859.13	18863
859.263	19103
859.396	19209
859.529	18970
859.662	18909
859.795	18837
859.928	18943
860.061	19110
860.194	19148
860.327	18970
860.46	18897
860.592	19038
860.725	18993
860.858	19042
860.99	18913
861.123	18867
861.256	18821
861.388	18916
861.521	19506
861.653	18753
861.786	18753
861.918	18772
862.05	18844
862.183	18996
862.315	18924
862.447	18977
862.58	18970
862.712	18802
862.844	18661
862.976	18730
863.108	18791
863.24	19065
863.372	18608
863.504	18707
863.636	18654
863.768	18703
863.9	18760
864.032	18620
864.164	18532
864.296	18700
864.428	18669
864.559	18639
864.691	18764
864.823	18559
864.954	18566
865.086	18639
865.217	18684
865.349	18544
865.48	18479
865.612	18566
865.743	18730
865.875	18578
866.006	18616
866.137	18570
866.269	18536
866.4	18525
866.531	18616
866.662	18467
866.793	18464
866.924	18555
867.055	18528
867.186	18509
867.317	18433
867.448	18429
867.579	18521
867.71	18391
867.841	18399
867.972	18563
868.103	18513
868.233	18517
868.364	18498
868.495	18635
868.625	18722
868.756	18848
868.886	18642
869.017	18798
869.147	18810
869.278	18867
869.408	18810
869.539	18658
869.669	18833
869.799	18837
869.929	18787
870.06	18795
870.19	19023
870.32	18977
870.45	19031
870.58	19129
870.71	19236
870.84	19190
870.97	19152
871.1	19107
871.23	19293
871.36	19388
871.489	19297
871.619	19259
871.749	19335
871.879	19304
872.008	19285
872.138	19285
872.267	19289
872.397	19175
872.526	19190
872.656	19183
872.785	19107
872.915	19354
873.044	19346
873.173	19327
873.303	19411
873.432	19472
873.561	19449
873.69	19358
873.819	19339
873.948	19415
874.077	19373
874.206	19324
874.335	19232
874.464	19491
874.593	19651
874.722	19590
874.851	19533
874.979	19674
875.108	19769
875.237	19567
875.365	19594
875.494	19582
875.623	19632
875.751	19632
875.88	19746
876.008	19666
876.136	19906
876.265	20065
876.393	20256
876.521	20092
876.65	20153
876.778	20035
876.906	19989
877.034	20115
877.162	19997
877.29	19978
877.418	20084
877.546	20027
877.674	19944
877.802	20035
877.93	19925
878.058	19997
878.185	19970
878.313	20005
878.441	20020
878.568	19845
878.696	20077
878.824	20138
878.951	20069
879.079	20164
879.206	20278
879.333	20332
879.461	20157
879.588	20240
879.715	20244
879.842	20374
879.97	20267
880.097	19841
880.224	19864
880.351	19807
880.478	19887
880.605	19868
880.732	19864
880.859	20233
880.986	19841
881.112	19864
881.239	19795
881.366	19670
881.493	19537
881.619	19533
881.746	19578
881.872	19449
881.999	19472
882.125	19438
882.252	19480
882.378	19472
882.505	19628
882.631	19506
882.757	19247
882.883	19217
883.01	19304
883.136	19255
883.262	19133
883.388	19175
883.514	19190
883.64	19152
883.766	19190
883.892	19141
884.018	19080
884.143	19179
884.269	19339
884.395	18932
884.52	18821
884.646	18924
884.772	18806
884.897	18745
885.023	19046
885.148	18852
885.274	18989
885.399	18958
885.524	18798
885.65	18859
885.775	18958
885.9	18962
886.025	18970
886.15	18882
886.275	18833
886.4	18661
886.525	18844
886.65	18783
886.775	18787
886.9	18962
887.025	19164
887.149	18894
887.274	18719
887.399	18639
887.523	18658
887.648	18669
887.773	18597
887.897	18738
888.021	18616
888.146	18604
888.27	18703
888.395	18730
888.519	18738
888.643	18593
888.767	18715
888.891	18399
889.015	18509
889.139	18559
889.263	18372
889.387	18639
889.511	18669
889.635	18681
889.759	18460
889.883	18517
890.006	18456
890.13	18521
890.254	18437
890.377	18300
890.501	18178
890.624	18209
890.748	18281
890.871	18205
890.995	18034
891.118	18041
891.241	18129
891.364	18114
891.488	18182
891.611	18110
891.734	18026
891.857	18182
891.98	18159
892.103	18182
892.226	18068
892.349	18019
892.471	17889
892.594	17965
892.717	18057
892.839	17996
892.962	18117
893.085	18064
893.207	18068
893.33	18030
893.452	17836
893.575	18019
893.697	17859
893.819	18133
893.941	18209
894.064	18030
894.186	18003
894.308	17866
894.43	18038
894.552	18148
894.674	18205
894.796	17958
894.918	17965
895.04	17965
895.161	18110
895.283	18049
895.405	17969
895.526	18007
895.648	18057
895.769	17927
895.891	18125
896.012	18110
896.134	18155
896.255	18102
896.376	17954
896.498	18140
896.619	18155
896.74	18049
896.861	18224
896.982	18452
897.103	18532
897.224	18327
897.345	18273
897.466	18232
897.587	18292
897.708	18593
897.828	18365
897.949	18292
898.07	18144
898.19	18251
898.311	18361
898.431	18194
898.552	18228
898.672	18330
898.792	18460
898.913	18311
899.033	18015
899.153	18049
899.273	18136
899.393	18133
899.513	18030
899.633	18083
899.753	18121
899.873	18049
899.993	18003
900.113	18026
900.232	18041
900.352	17935
900.472	17764
900.591	17855
900.711	17832
900.83	17874
900.95	17988
901.069	17927
901.189	17824
901.308	17528
901.427	17535
901.546	17474
901.665	17448
901.784	17520
901.904	17376
902.023	17258
902.141	17048
902.26	16984
902.379	17041
902.498	17102
902.617	16999
902.735	16968
902.854	17048
902.973	16923
903.091	16668
903.21	16717
903.328	16683
903.446	16592
903.565	16481
903.683	16558
903.801	16428
903.919	16523
904.038	16531
904.156	16398
904.274	16451
904.392	16356
904.51	16276
904.627	16360
904.745	16375
904.863	16459
904.981	16158
905.098	15861
905.216	15987
905.334	15880
905.451	15869
905.569	15899
905.686	15994
905.803	15884
905.921	15819
906.038	15922
906.155	15713
906.272	15724
906.389	15694
906.506	15561
906.623	15458
906.74	15504
906.857	15450
906.974	15317
907.091	15511
907.208	15724
907.324	15553
907.441	15401
907.557	15256
907.674	15226
907.79	15222
907.907	15097
908.023	15192
908.139	15207
908.256	15161
908.372	15127
908.488	14994
908.604	14880
908.72	14929
908.836	14914
908.952	14823
909.068	14880
909.184	15024
909.3	14838
909.415	14979
909.531	14910
909.647	14655
909.762	14663
909.878	14579
909.993	14648
910.108	14587
910.224	14568
910.339	14545
910.454	14575
910.57	14419
910.685	14423
910.8	14636
910.915	14564
911.03	14396
911.145	14309
911.259	14244
911.374	14240
911.489	14164
911.604	14161
911.718	14073
911.833	13887
911.947	13925
912.062	13982
912.176	13928
912.291	14016
912.405	13974
912.519	14161
912.633	14172
912.748	14016
912.862	14012
912.976	13814
913.09	13670
913.204	13791
913.318	13898
913.431	13906
913.545	13963
913.659	13913
913.772	13761
913.886	13696
914	13715
914.113	13715
914.226	13799
914.34	13791
914.453	13575
914.566	13715
914.68	13521
914.793	13533
914.906	13392
915.019	13335
915.132	13331
915.245	13350
915.358	13259
915.47	13438
915.583	13289
915.696	13285
915.809	13369
915.921	13525
916.034	13232
916.146	13293
916.259	13247
916.371	13339
916.483	13263
916.595	13156
916.708	13133
916.82	13232
916.932	13190
917.044	13126
917.156	13034
917.268	13012
917.38	13072
917.491	12996
917.603	13046
917.715	13099
917.826	13088
917.938	13027
918.049	12916
918.161	13000
918.272	13072
918.384	13149
918.495	13061
918.606	12840
918.717	12844
918.828	12856
918.939	12909
919.05	12798
919.161	12760
919.272	12642
919.383	12734
919.494	12852
919.604	12985
919.715	12783
919.826	12753
919.936	12779
920.047	12863
920.157	12840
920.267	12973
920.378	12768
920.488	12711
920.598	12981
920.708	13057
920.818	12863
920.928	12951
921.038	13076
921.148	13126
921.258	12665
921.368	12669
921.477	12589
921.587	12506
921.697	12452
921.806	12578
921.916	12422
922.025	12235
922.134	12228
922.244	12178
922.353	12251
922.462	12121
922.571	12026
922.68	11874
922.789	11882
922.898	11927
923.007	11794
923.116	11923
923.224	11748
923.333	11745
923.442	11764
923.55	11722
923.659	11726
923.767	11707
923.876	11642
923.984	11767
924.092	11722
924.201	11680
924.309	11646
924.417	11665
924.525	11615
924.633	11646
924.741	12509
924.849	11376
924.956	11577
925.064	11414
925.172	11330
925.279	11410
925.387	11406
925.494	11376
925.602	11505
925.709	11505
925.816	11330
925.924	11326
926.031	11444
926.138	11337
926.245	11345
926.352	11223
926.459	11417
926.566	11444
926.673	11261
926.779	11178
926.886	11124
926.993	10938
927.099	11048
927.206	10938
927.312	10904
927.419	11006
927.525	10949
927.631	11071
927.737	10869
927.843	10862
927.95	10812
928.056	10946
928.162	10805
928.267	10885
928.373	11471
928.479	10900
928.585	10672
928.69	10763
928.796	10809
928.901	10824
929.007	10546
929.112	10717
929.218	10748
929.323	10615
929.428	10592
929.533	10714
929.638	10481
929.743	10558
929.848	10637
929.953	10561
930.058	10478
930.163	10341
930.267	10322
930.372	10455
930.477	10265
930.581	10504
930.685	10386
930.79	10276
930.894	10325
930.998	10246
931.103	10325
931.207	10010
931.311	9949
931.415	9812
931.519	9614
931.623	9732
