Data from test_V78500241_670.txt Node
Date: Fri Mar 25 14:38:23 CST 2022
User: usil
Spectrometer: V785-0024
Trigger mode: 0
Integration Time (sec): 4.000000E-1
Scans to average: 1
Nonlinearity correction enabled: false
Boxcar width: 0
Storing dark spectrum: false
XAxis mode: Wavelengths
Number of Pixels in Spectrum: 1024
>>>>>Begin Spectral Data<<<<<
801.071	28116
801.214	27994
801.356	27850
801.499	27591
801.641	27561
801.783	27488
801.926	27660
802.068	27424
802.211	27359
802.353	27252
802.496	27146
802.638	27123
802.78	27100
802.923	27062
803.065	26918
803.208	26990
803.35	27096
803.492	27074
803.635	27131
803.777	27146
803.919	27184
804.061	27500
804.204	27222
804.346	27127
804.488	27146
804.63	27412
804.773	27283
804.915	27367
805.057	27572
805.199	27477
805.341	27526
805.483	27694
805.626	27793
805.768	27717
805.91	27880
806.052	28010
806.194	28074
806.336	28573
806.478	28344
806.62	28592
806.762	29014
806.904	29364
807.046	29847
807.188	30114
807.33	30627
807.472	31171
807.614	31814
807.756	32708
807.898	33728
808.04	35265
808.182	37217
808.324	39895
808.465	42722
808.607	46021
808.749	48890
808.891	50415
809.033	50743
809.174	49004
809.316	46223
809.458	42810
809.6	39469
809.741	36836
809.883	34729
810.025	33207
810.166	32172
810.308	31468
810.45	30810
810.591	30232
810.733	29611
810.875	29395
811.016	29083
811.158	28839
811.299	28763
811.441	28618
811.582	28588
811.724	28481
811.865	28036
812.007	27979
812.148	27949
812.29	27911
812.431	28097
812.573	28120
812.714	28215
812.855	28192
812.997	28147
813.138	28333
813.279	28131
813.421	28074
813.562	27865
813.703	27686
813.845	27515
813.986	27176
814.127	26967
814.268	26849
814.41	26933
814.551	26891
814.692	26872
814.833	26792
814.974	26769
815.115	26701
815.256	26522
815.397	26476
815.539	26446
815.68	26480
815.821	26358
815.962	26442
816.103	26282
816.244	26020
816.385	25993
816.526	25989
816.666	25837
816.807	25681
816.948	25616
817.089	25769
817.23	25700
817.371	25594
817.512	25613
817.653	25590
817.793	25499
817.934	25499
818.075	25533
818.216	25491
818.356	25521
818.497	25453
818.638	25194
818.778	25346
818.919	25259
819.06	25278
819.2	25392
819.341	25468
819.481	25441
819.622	25575
819.762	25788
819.903	25719
820.043	25537
820.184	25483
820.324	25434
820.465	25537
820.605	25491
820.746	25381
820.886	25293
821.026	25354
821.167	25206
821.307	25350
821.447	25259
821.588	25072
821.728	24871
821.868	24856
822.008	24593
822.149	24703
822.289	24608
822.429	24414
822.569	24346
822.709	24220
822.849	24224
822.99	24140
823.13	24076
823.27	23969
823.41	23946
823.55	23756
823.69	23904
823.83	23904
823.97	23889
824.11	23562
824.25	23604
824.389	23668
824.529	23577
824.669	23585
824.809	23691
824.949	23843
825.089	23676
825.228	23729
825.368	23501
825.508	23421
825.648	23463
825.787	23474
825.927	23512
826.067	23398
826.206	23379
826.346	23402
826.485	23463
826.625	23307
826.765	23421
826.904	23410
827.044	23128
827.183	23094
827.323	23185
827.462	23155
827.601	23071
827.741	23025
827.88	23140
828.02	22900
828.159	23044
828.298	23003
828.437	23102
828.577	22866
828.716	23143
828.855	23044
828.994	22797
829.134	22641
829.273	22889
829.412	22641
829.551	22675
829.69	22607
829.829	22850
829.968	22824
830.107	22664
830.246	22729
830.385	22622
830.524	22626
830.663	22622
830.802	22470
830.941	22207
831.08	22325
831.219	22360
831.357	22367
831.496	22527
831.635	22432
831.774	22352
831.913	22169
832.051	22051
832.19	22093
832.329	22322
832.467	22147
832.606	22234
832.744	22177
832.883	22188
833.022	22249
833.16	22481
833.299	22645
833.437	22603
833.576	22721
833.714	22942
833.852	23178
833.991	23124
834.129	23273
834.267	23212
834.406	23261
834.544	23204
834.682	23025
834.821	22904
834.959	22915
835.097	22622
835.235	22660
835.373	22459
835.511	22428
835.65	22185
835.788	22112
835.926	22025
836.064	21842
836.202	21823
836.34	21983
836.478	22017
836.615	21892
836.753	21876
836.891	21774
837.029	21899
837.167	21827
837.305	21656
837.443	21686
837.58	21724
837.718	21793
837.856	21686
837.993	21713
838.131	21542
838.269	21435
838.406	21488
838.544	21450
838.681	21397
838.819	21268
838.956	21157
839.094	21062
839.231	21036
839.369	21180
839.506	21485
839.643	21355
839.781	21150
839.918	21051
840.055	21146
840.193	21100
840.33	20963
840.467	20925
840.604	21017
840.742	21249
840.879	20830
841.016	20963
841.153	20826
841.29	21138
841.427	20986
841.564	21017
841.701	20918
841.838	21058
841.975	20876
842.112	20971
842.249	20941
842.385	20861
842.522	20986
842.659	20857
842.796	20792
842.933	20902
843.069	20712
843.206	20830
843.343	20971
843.479	20910
843.616	20979
843.752	20739
843.889	20982
844.025	21032
844.162	20963
844.298	21112
844.435	21291
844.571	21397
844.708	21797
844.844	22295
844.98	22599
845.117	23147
845.253	24076
845.389	25970
845.525	29425
845.661	35372
845.798	41817
845.934	46934
846.07	48787
846.206	47459
846.342	42776
846.478	36174
846.614	30213
846.75	26400
846.886	24304
847.022	22972
847.158	22124
847.294	21477
847.429	21226
847.565	20956
847.701	20929
847.837	20419
847.972	20195
848.108	20229
848.244	20065
848.379	20008
848.515	19856
848.65	19940
848.786	19799
848.921	19830
849.057	19837
849.192	19795
849.328	19746
849.463	19689
849.598	19666
849.734	19620
849.869	19464
850.004	19525
850.14	19415
850.275	19308
850.41	19285
850.545	19343
850.68	19411
850.815	19293
850.95	19293
851.085	19567
851.22	19430
851.355	19480
851.49	19388
851.625	19289
851.76	19434
851.895	19263
852.03	19312
852.165	19506
852.299	19388
852.434	19476
852.569	19457
852.703	19514
852.838	19480
852.973	19632
853.107	19639
853.242	19628
853.376	19320
853.511	19350
853.645	19346
853.78	19685
853.914	19575
854.048	19540
854.183	19655
854.317	19693
854.451	19875
854.585	19670
854.72	19620
854.854	19791
854.988	19582
855.122	19529
855.256	19320
855.39	19438
855.524	19396
855.658	19381
855.792	19346
855.926	19308
856.06	19377
856.194	19308
856.327	19316
856.461	19187
856.595	19194
856.729	19076
856.862	19259
856.996	19255
857.13	19293
857.263	19187
857.397	19350
857.53	19221
857.664	19343
857.797	19202
857.931	19209
858.064	19152
858.197	19114
858.331	19012
858.464	19118
858.597	18993
858.731	19107
858.864	19038
858.997	18981
859.13	19042
859.263	19031
859.396	19091
859.529	18935
859.662	19072
859.795	19080
859.928	19110
860.061	19206
860.194	19072
860.327	19008
860.46	18962
860.592	19148
860.725	19080
860.858	19126
860.99	18943
861.123	18958
861.256	19057
861.388	18935
861.521	19559
861.653	18825
861.786	18882
861.918	18916
862.05	18920
862.183	19084
862.315	19050
862.447	19023
862.58	18890
862.712	18734
862.844	18642
862.976	18875
863.108	18821
863.24	19057
863.372	18616
863.504	18684
863.636	18719
863.768	18722
863.9	18798
864.032	18547
864.164	18642
864.296	18776
864.428	18783
864.559	18795
864.691	18665
864.823	18707
864.954	18669
865.086	18677
865.217	18661
865.349	18566
865.48	18486
865.612	18658
865.743	18810
865.875	18646
866.006	18429
866.137	18479
866.269	18612
866.4	18608
866.531	18502
866.662	18547
866.793	18513
866.924	18486
867.055	18547
867.186	18498
867.317	18445
867.448	18494
867.579	18486
867.71	18429
867.841	18517
867.972	18665
868.103	18627
868.233	18479
868.364	18631
868.495	18620
868.625	18802
868.756	18890
868.886	18730
869.017	18798
869.147	19000
869.278	18924
869.408	18810
869.539	18894
869.669	18787
869.799	18817
869.929	19015
870.06	19042
870.19	19190
870.32	19133
870.45	19122
870.58	19209
870.71	19354
870.84	19419
870.97	19308
871.1	19236
871.23	19514
871.36	19426
871.489	19472
871.619	19483
871.749	19483
871.879	19548
872.008	19651
872.138	19632
872.267	19453
872.397	19552
872.526	19327
872.656	19415
872.785	19426
872.915	19639
873.044	19681
873.173	19693
873.303	19769
873.432	19791
873.561	19818
873.69	19936
873.819	19875
873.948	19902
874.077	19921
874.206	19841
874.335	19856
874.464	20119
874.593	20191
874.722	20168
874.851	20278
874.979	20313
875.108	20423
875.237	20324
875.365	20282
875.494	20385
875.623	20446
875.751	20446
875.88	20629
876.008	20701
876.136	20826
876.265	20994
876.393	21199
876.521	21291
876.65	21329
876.778	21306
876.906	21260
877.034	21458
877.162	21420
877.29	21424
877.418	21682
877.546	21591
877.674	21876
877.802	21884
877.93	22078
878.058	22287
878.185	22291
878.313	22664
878.441	23022
878.568	23136
878.696	23897
878.824	24711
878.951	25830
879.079	27447
879.206	29410
879.333	31415
879.461	32940
879.588	34242
879.715	34207
879.842	33287
879.97	31460
880.097	29429
880.224	27686
880.351	26461
880.478	25750
880.605	24962
880.732	24764
880.859	24639
880.986	24369
881.112	24194
881.239	24136
881.366	23931
881.493	23718
881.619	23802
881.746	23897
881.872	23958
881.999	23878
882.125	23642
882.252	23908
882.378	23901
882.505	24228
882.631	23927
882.757	23847
882.883	24038
883.01	23882
883.136	23775
883.262	23699
883.388	23577
883.514	23893
883.64	23786
883.766	23726
883.892	23528
884.018	23630
884.143	23680
884.269	23718
884.395	23604
884.52	23539
884.646	23497
884.772	23402
884.897	23497
885.023	23512
885.148	23482
885.274	23573
885.399	23452
885.524	23159
885.65	23140
885.775	23033
885.9	22911
886.025	22790
886.15	22660
886.275	22462
886.4	22211
886.525	22143
886.65	22070
886.775	21983
886.9	21888
887.025	21964
887.149	21591
887.274	21416
887.399	21340
887.523	21184
887.648	21005
887.773	21047
887.897	20994
888.021	20902
888.146	20838
888.27	20849
888.395	20861
888.519	20667
888.643	20727
888.767	20750
888.891	20541
889.015	20362
889.139	20415
889.263	20214
889.387	20286
889.511	20412
889.635	20267
889.759	20081
889.883	19982
890.006	20130
890.13	20107
890.254	19845
890.377	19906
890.501	19890
890.624	19635
890.748	19734
890.871	19556
890.995	19453
891.118	19331
891.241	19369
891.364	19400
891.488	19438
891.611	19206
891.734	19297
891.857	19297
891.98	19244
892.103	19301
892.226	19171
892.349	19164
892.471	18958
892.594	19171
892.717	18966
892.839	18958
892.962	19004
893.085	18970
893.207	18958
893.33	18882
893.452	18882
893.575	18901
893.697	18825
893.819	18935
893.941	18897
894.064	18932
894.186	18745
894.308	18719
894.43	18719
894.552	18920
894.674	18768
894.796	18544
894.918	18620
895.04	18555
895.161	18703
895.283	18559
895.405	18570
895.526	18479
895.648	18555
895.769	18608
895.891	18467
896.012	18582
896.134	18570
896.255	18460
896.376	18338
896.498	18452
896.619	18502
896.74	18429
896.861	18578
896.982	18817
897.103	18947
897.224	18681
897.345	18700
897.466	18490
897.587	18623
897.708	18837
897.828	18658
897.949	18521
898.07	18429
898.19	18559
898.311	18677
898.431	18669
898.552	18555
898.672	18730
898.792	18642
898.913	18570
899.033	18506
899.153	18403
899.273	18251
899.393	18353
899.513	18403
899.633	18490
899.753	18281
899.873	18292
899.993	18399
900.113	18346
900.232	18486
900.352	18380
900.472	18281
900.591	18186
900.711	18216
900.83	18197
900.95	18220
901.069	18296
901.189	18022
901.308	17783
901.427	17691
901.546	17802
901.665	17756
901.784	17813
901.904	17615
902.023	17452
902.141	17296
902.26	17246
902.379	17265
902.498	17197
902.617	17006
902.735	17250
902.854	17098
902.973	17029
903.091	16877
903.21	16927
903.328	16812
903.446	16713
903.565	16634
903.683	16516
903.801	16577
903.919	16615
904.038	16687
904.156	16310
904.274	16443
904.392	16394
904.51	16398
904.627	16242
904.745	16333
904.863	16333
904.981	16101
905.098	15956
905.216	15956
905.334	16048
905.451	16025
905.569	15964
905.686	16006
905.803	15907
905.921	15797
906.038	15857
906.155	15770
906.272	15686
906.389	15690
906.506	15504
906.623	15576
906.74	15439
906.857	15348
906.974	15408
907.091	15587
907.208	15698
907.324	15523
907.441	15317
907.557	15230
907.674	15241
907.79	15112
907.907	15195
908.023	15154
908.139	15165
908.256	15180
908.372	15146
908.488	15097
908.604	14941
908.72	14967
908.836	14891
908.952	14937
909.068	14956
909.184	14956
909.3	14895
909.415	15017
909.531	14864
909.647	14701
909.762	14587
909.878	14610
909.993	14697
910.108	14648
910.224	14587
910.339	14556
910.454	14511
910.57	14556
910.685	14377
910.8	14587
910.915	14648
911.03	14465
911.145	14301
911.259	14256
911.374	14271
911.489	14107
911.604	14088
911.718	14020
911.833	13940
911.947	13830
912.062	13826
912.176	13989
912.291	13974
912.405	13925
912.519	14126
912.633	14214
912.748	14081
912.862	14054
912.976	13788
913.09	13772
913.204	13772
913.318	13765
913.431	13963
913.545	13928
913.659	13921
913.772	13765
913.886	13632
914	13647
914.113	13738
914.226	13811
914.34	13681
914.453	13674
914.566	13765
914.68	13597
914.793	13464
914.906	13407
915.019	13266
915.132	13316
915.245	13327
915.358	13483
915.47	13415
915.583	13381
915.696	13480
915.809	13514
915.921	13480
916.034	13396
916.146	13343
916.259	13285
916.371	13449
916.483	13403
916.595	13350
916.708	13343
916.82	13384
916.932	13403
917.044	13308
917.156	13346
917.268	13236
917.38	13168
917.491	13118
917.603	13126
917.715	13209
917.826	13126
917.938	13160
918.049	12962
918.161	13084
918.272	13209
918.384	13168
918.495	13015
918.606	13008
918.717	12825
918.828	12989
918.939	12962
919.05	12795
919.161	12821
919.272	12662
919.383	12711
919.494	12795
919.604	13099
919.715	12783
919.826	12787
919.936	12958
920.047	12947
920.157	12878
920.267	13057
920.378	12867
920.488	12878
920.598	12993
920.708	13156
920.818	12970
920.928	12962
921.038	13198
921.148	13061
921.258	12871
921.368	12772
921.477	12707
921.587	12597
921.697	12574
921.806	12597
921.916	12460
922.025	12330
922.134	12266
922.244	12251
922.353	12338
922.462	12117
922.571	12095
922.68	11942
922.789	11889
922.898	11942
923.007	11840
923.116	11965
923.224	11950
923.333	11824
923.442	11832
923.55	11775
923.659	11767
923.767	11863
923.876	11726
923.984	11783
924.092	11665
924.201	11821
924.309	11729
924.417	11760
924.525	11657
924.633	11703
924.741	12517
924.849	11452
924.956	11558
925.064	11528
925.172	11364
925.279	11296
925.387	11448
925.494	11471
925.602	11646
925.709	11516
925.816	11421
925.924	11410
926.031	11490
926.138	11330
926.245	11490
926.352	11311
926.459	11406
926.566	11501
926.673	11284
926.779	11258
926.886	11277
926.993	11147
927.099	11102
927.206	10953
927.312	10991
927.419	11086
927.525	11014
927.631	11045
927.737	10938
927.843	10976
927.95	10812
928.056	10877
928.162	10942
928.267	10991
928.373	11402
928.479	11003
928.585	10740
928.69	10923
928.796	10957
928.901	10805
929.007	10634
929.112	10835
929.218	10717
929.323	10672
929.428	10645
929.533	10771
929.638	10542
929.743	10736
929.848	10683
929.953	10645
930.058	10618
930.163	10443
930.267	10379
930.372	10603
930.477	10443
930.581	10622
930.685	10424
930.79	10253
930.894	10379
930.998	10352
931.103	10371
931.207	10055
931.311	9987
931.415	9842
931.519	9766
931.623	9675
