Data from test_V78500241_2418.txt Node
Date: Fri Mar 25 14:50:32 CST 2022
User: usil
Spectrometer: V785-0024
Trigger mode: 0
Integration Time (sec): 4.000000E-1
Scans to average: 1
Nonlinearity correction enabled: false
Boxcar width: 0
Storing dark spectrum: false
XAxis mode: Wavelengths
Number of Pixels in Spectrum: 1024
>>>>>Begin Spectral Data<<<<<
801.071	22097
801.214	22021
801.356	21785
801.499	21606
801.641	21542
801.783	21447
801.926	21500
802.068	21428
802.211	21332
802.353	21241
802.496	21047
802.638	21043
802.78	20838
802.923	20929
803.065	20800
803.208	20746
803.35	20834
803.492	20834
803.635	20963
803.777	20720
803.919	21009
804.061	21051
804.204	20887
804.346	20724
804.488	20621
804.63	20804
804.773	20727
804.915	20686
805.057	20781
805.199	20750
805.341	20750
805.483	20899
805.626	20823
805.768	20746
805.91	20765
806.052	20796
806.194	20640
806.336	20868
806.478	20705
806.62	20689
806.762	20758
806.904	20845
807.046	21268
807.188	21013
807.33	21036
807.472	21093
807.614	21013
807.756	20933
807.898	20811
808.04	20788
808.182	20785
808.324	20765
808.465	20880
808.607	21047
808.749	21188
808.891	21135
809.033	21291
809.174	21230
809.316	21169
809.458	21142
809.6	21112
809.741	21233
809.883	21146
810.025	21207
810.166	21192
810.308	21325
810.45	21157
810.591	21032
810.733	21058
810.875	20914
811.016	20773
811.158	20838
811.299	20842
811.441	20994
811.582	20960
811.724	20807
811.865	20796
812.007	20899
812.148	20830
812.29	20971
812.431	21043
812.573	21291
812.714	21260
812.855	21435
812.997	21504
813.138	21614
813.279	21481
813.421	21401
813.562	21264
813.703	21081
813.845	20975
813.986	20792
814.127	20537
814.268	20514
814.41	20598
814.551	20446
814.692	20503
814.833	20419
814.974	20434
815.115	20301
815.256	20225
815.397	20332
815.539	20244
815.68	20187
815.821	20153
815.962	20164
816.103	20115
816.244	20039
816.385	19993
816.526	19909
816.666	19582
816.807	19582
816.948	19677
817.089	19651
817.23	19586
817.371	19453
817.512	19544
817.653	19495
817.793	19552
817.934	19468
818.075	19533
818.216	19460
818.356	19571
818.497	19369
818.638	19198
818.778	19209
818.919	19324
819.06	19244
819.2	19373
819.341	19457
819.481	19384
819.622	19480
819.762	19742
819.903	19635
820.043	19738
820.184	19552
820.324	19586
820.465	19624
820.605	19457
820.746	19476
820.886	19324
821.026	19457
821.167	19362
821.307	19548
821.447	19430
821.588	19289
821.728	19270
821.868	19031
822.008	18973
822.149	18989
822.289	18993
822.429	18612
822.569	18589
822.709	18506
822.849	18361
822.99	18494
823.13	18467
823.27	18346
823.41	18327
823.55	18129
823.69	18243
823.83	18251
823.97	18213
824.11	18007
824.25	17946
824.389	17946
824.529	18011
824.669	18003
824.809	18034
824.949	18098
825.089	18148
825.228	18038
825.368	17798
825.508	17737
825.648	17821
825.787	17798
825.927	17882
826.067	17775
826.206	17687
826.346	17718
826.485	17718
826.625	17760
826.765	17813
826.904	17813
827.044	17547
827.183	17463
827.323	17551
827.462	17516
827.601	17516
827.741	17467
827.88	17398
828.02	17322
828.159	17516
828.298	17497
828.437	17532
828.577	17474
828.716	17516
828.855	17391
828.994	17223
829.134	17189
829.273	17284
829.412	17197
829.551	17075
829.69	17204
829.829	17200
829.968	17292
830.107	17231
830.246	17318
830.385	17197
830.524	17136
830.663	17041
830.802	16858
830.941	16843
831.08	16873
831.219	16927
831.357	16934
831.496	17010
831.635	16839
831.774	16782
831.913	16664
832.051	16584
832.19	16637
832.329	16599
832.467	16497
832.606	16421
832.744	16493
832.883	16504
833.022	16367
833.16	16546
833.299	16550
833.437	16497
833.576	16569
833.714	16535
833.852	16596
833.991	16660
834.129	16535
834.267	16622
834.406	16565
834.544	16637
834.682	16626
834.821	16588
834.959	16653
835.097	16656
835.235	16664
835.373	16459
835.511	16508
835.65	16508
835.788	16356
835.926	16413
836.064	16226
836.202	16314
836.34	16516
836.478	16634
836.615	16352
836.753	16485
836.891	16615
837.029	16493
837.167	16440
837.305	16352
837.443	16413
837.58	16424
837.718	16402
837.856	16386
837.993	16295
838.131	16367
838.269	16249
838.406	16215
838.544	16188
838.681	16025
838.819	16006
838.956	15857
839.094	15880
839.231	15907
839.369	16017
839.506	16295
839.643	16090
839.781	15880
839.918	15800
840.055	15869
840.193	15873
840.33	15766
840.467	15793
840.604	15873
840.742	16116
840.879	15747
841.016	15842
841.153	15751
841.29	15991
841.427	15838
841.564	15823
841.701	15888
841.838	15907
841.975	15823
842.112	15770
842.249	15755
842.385	15614
842.522	15842
842.659	15720
842.796	15599
842.933	15637
843.069	15652
843.206	15580
843.343	15797
843.479	15705
843.616	15736
843.752	15485
843.889	15336
844.025	15622
844.162	15359
844.298	15553
844.435	15420
844.571	15424
844.708	15439
844.844	15553
844.98	15572
845.117	15515
845.253	15397
845.389	15386
845.525	15397
845.661	15306
845.798	15313
845.934	15256
846.07	15230
846.206	15291
846.342	15393
846.478	15184
846.614	15039
846.75	14982
846.886	15017
847.022	15081
847.158	15047
847.294	14982
847.429	15074
847.565	14914
847.701	15211
847.837	14754
847.972	14708
848.108	14853
848.244	14773
848.379	14689
848.515	14663
848.65	14404
848.786	14579
848.921	14644
849.057	14697
849.192	14735
849.328	14617
849.463	14610
849.598	14621
849.734	14473
849.869	14514
850.004	14454
850.14	14412
850.275	14450
850.41	14290
850.545	14313
850.68	14317
850.815	14385
850.95	14336
851.085	14469
851.22	14541
851.355	14419
851.49	14336
851.625	14324
851.76	14275
851.895	14305
852.03	14271
852.165	14404
852.299	14423
852.434	14442
852.569	14454
852.703	14336
852.838	14564
852.973	14514
853.107	14484
853.242	14305
853.376	14298
853.511	14183
853.645	14195
853.78	14385
853.914	14244
854.048	14157
854.183	14130
854.317	14259
854.451	14484
854.585	14301
854.72	14259
854.854	14294
854.988	14206
855.122	14187
855.256	14218
855.39	14187
855.524	14282
855.658	14294
855.792	14252
855.926	14263
856.06	14294
856.194	14358
856.327	14313
856.461	14145
856.595	14244
856.729	14202
856.862	14377
856.996	14351
857.13	14244
857.263	14366
857.397	14385
857.53	14275
857.664	14305
857.797	14362
857.931	14381
858.064	14370
858.197	14309
858.331	14225
858.464	14290
858.597	14138
858.731	14183
858.864	14218
858.997	14195
859.13	14199
859.263	14240
859.396	14305
859.529	14214
859.662	14214
859.795	14183
859.928	14172
860.061	14381
860.194	14450
860.327	14298
860.46	14229
860.592	14313
860.725	14370
860.858	14374
860.99	14240
861.123	14123
861.256	14252
861.388	14248
861.521	14925
861.653	14145
861.786	14092
861.918	14149
862.05	14096
862.183	14172
862.315	14210
862.447	14233
862.58	14244
862.712	14050
862.844	13978
862.976	14134
863.108	14058
863.24	14336
863.372	13955
863.504	14134
863.636	13970
863.768	14084
863.9	14058
864.032	13951
864.164	13997
864.296	14016
864.428	14145
864.559	14043
864.691	14149
864.823	14096
864.954	14187
865.086	14031
865.217	14005
865.349	13845
865.48	14020
865.612	14062
865.743	14103
865.875	14012
866.006	14069
866.137	13963
866.269	14012
866.4	14046
866.531	14016
866.662	14039
866.793	13932
866.924	13997
867.055	14058
867.186	14058
867.317	13898
867.448	13932
867.579	13906
867.71	13917
867.841	13951
867.972	14005
868.103	13955
868.233	14191
868.364	13997
868.495	14020
868.625	14172
868.756	14362
868.886	14145
869.017	14320
869.147	14400
869.278	14347
869.408	14229
869.539	14180
869.669	14469
869.799	14336
869.929	14404
870.06	14450
870.19	14583
870.32	14560
870.45	14648
870.58	14602
870.71	14743
870.84	14765
870.97	14640
871.1	14651
871.23	14807
871.36	14864
871.489	14724
871.619	14880
871.749	14872
871.879	14815
872.008	14986
872.138	14819
872.267	14842
872.397	14682
872.526	14762
872.656	14705
872.785	14670
872.915	14838
873.044	14986
873.173	14887
873.303	14830
873.432	15085
873.561	15017
873.69	14899
873.819	14845
873.948	14956
874.077	14921
874.206	14906
874.335	14971
874.464	15138
874.593	15176
874.722	15161
874.851	15291
874.979	15279
875.108	15287
875.237	15260
875.365	15089
875.494	15252
875.623	15325
875.751	15298
875.88	15192
876.008	15485
876.136	15317
876.265	15637
876.393	15804
876.521	15766
876.65	15759
876.778	15736
876.906	15686
877.034	15606
877.162	15584
877.29	15519
877.418	15679
877.546	15656
877.674	15682
877.802	15751
877.93	15675
878.058	15591
878.185	15538
878.313	15633
878.441	15584
878.568	15405
878.696	15686
878.824	15679
878.951	15618
879.079	15819
879.206	15979
879.333	15880
879.461	15717
879.588	15671
879.715	15873
879.842	15857
879.97	15739
880.097	15515
880.224	15443
880.351	15488
880.478	15504
880.605	15405
880.732	15428
880.859	15671
880.986	15515
881.112	15488
881.239	15378
881.366	15241
881.493	15264
881.619	15142
881.746	15085
881.872	15131
881.999	15169
882.125	15142
882.252	15218
882.378	15218
882.505	15264
882.631	15119
882.757	15047
882.883	15047
883.01	14914
883.136	14800
883.262	14857
883.388	14758
883.514	15036
883.64	15047
883.766	14979
883.892	14796
884.018	14819
884.143	14929
884.269	15077
884.395	14739
884.52	14678
884.646	14689
884.772	14613
884.897	14594
885.023	14568
885.148	14708
885.274	14815
885.399	14830
885.524	14678
885.65	14667
885.775	14689
885.9	14610
886.025	14781
886.15	14811
886.275	14678
886.4	14602
886.525	14663
886.65	14617
886.775	14610
886.9	14769
887.025	14864
887.149	14667
887.274	14598
887.399	14484
887.523	14461
887.648	14461
887.773	14404
887.897	14488
888.021	14412
888.146	14412
888.27	14636
888.395	14590
888.519	14598
888.643	14613
888.767	14625
888.891	14431
889.015	14355
889.139	14419
889.263	14313
889.387	14476
889.511	14522
889.635	14507
889.759	14298
889.883	14450
890.006	14339
890.13	14476
890.254	14305
890.377	14286
890.501	14202
890.624	14107
890.748	14180
890.871	14096
890.995	13932
891.118	13997
891.241	14115
891.364	13963
891.488	14149
891.611	14058
891.734	14142
891.857	14024
891.98	14024
892.103	14107
892.226	14096
892.349	14149
892.471	13898
892.594	14088
892.717	14065
892.839	14027
892.962	14153
893.085	14176
893.207	14046
893.33	14054
893.452	13959
893.575	14153
893.697	14027
893.819	14191
893.941	14252
894.064	14199
894.186	14008
894.308	14115
894.43	14237
894.552	14244
894.674	14298
894.796	14107
894.918	14103
895.04	14123
895.161	14199
895.283	14168
895.405	14081
895.526	14176
895.648	14191
895.769	14244
895.891	14233
896.012	14282
896.134	14244
896.255	14183
896.376	14218
896.498	14195
896.619	14278
896.74	14256
896.861	14290
896.982	14644
897.103	14674
897.224	14579
897.345	14552
897.466	14415
897.587	14533
897.708	14636
897.828	14568
897.949	14507
898.07	14377
898.19	14579
898.311	14644
898.431	14514
898.552	14587
898.672	14621
898.792	14739
898.913	14518
899.033	14537
899.153	14434
899.273	14434
899.393	14427
899.513	14423
899.633	14514
899.753	14450
899.873	14514
899.993	14488
900.113	14396
900.232	14503
900.352	14412
900.472	14221
900.591	14309
900.711	14362
900.83	14221
900.95	14374
901.069	14480
901.189	14320
901.308	14077
901.427	14024
901.546	13951
901.665	14043
901.784	14016
901.904	13833
902.023	13807
902.141	13674
902.26	13597
902.379	13601
902.498	13506
902.617	13487
902.735	13582
902.854	13586
902.973	13544
903.091	13278
903.21	13327
903.328	13225
903.446	13179
903.565	13278
903.683	13160
903.801	13122
903.919	13095
904.038	13091
904.156	12913
904.274	13034
904.392	13004
904.51	13034
904.627	12871
904.745	13046
904.863	12935
904.981	12703
905.098	12597
905.216	12642
905.334	12631
905.451	12654
905.569	12623
905.686	12700
905.803	12570
905.921	12498
906.038	12498
906.155	12448
906.272	12418
906.389	12376
906.506	12254
906.623	12247
906.74	12197
906.857	12083
906.974	12079
907.091	12308
907.208	12399
907.324	12330
907.441	12110
907.557	12026
907.674	11984
907.79	11931
907.907	11904
908.023	12026
908.139	12015
908.256	11904
908.372	11878
908.488	11798
908.604	11764
908.72	11729
908.836	11722
908.952	11741
909.068	11756
909.184	11821
909.3	11699
909.415	11775
909.531	11741
909.647	11528
909.762	11551
909.878	11463
909.993	11414
910.108	11471
910.224	11433
910.339	11490
910.454	11410
910.57	11417
910.685	11258
910.8	11676
910.915	11547
911.03	11429
911.145	11242
911.259	11201
911.374	11162
911.489	11136
911.604	11231
911.718	10942
911.833	10984
911.947	10809
912.062	10820
912.176	10976
912.291	11014
912.405	10915
912.519	11155
912.633	11212
912.748	11083
912.862	10968
912.976	10805
913.09	10717
913.204	10774
913.318	10866
913.431	10858
913.545	10919
913.659	10968
913.772	10869
913.886	10729
914	10698
914.113	10839
914.226	10892
914.34	10767
914.453	10641
914.566	10778
914.68	10729
914.793	10656
914.906	10485
915.019	10436
915.132	10436
915.245	10382
915.358	10504
915.47	10474
915.583	10493
915.696	10459
915.809	10565
915.921	10554
916.034	10481
916.146	10436
916.259	10352
916.371	10455
916.483	10531
916.595	10413
916.708	10413
916.82	10375
916.932	10417
917.044	10436
917.156	10318
917.268	10238
917.38	10314
917.491	10344
917.603	10382
917.715	10287
917.826	10493
917.938	10234
918.049	10242
918.161	10356
918.272	10382
918.384	10443
918.495	10303
918.606	10173
918.717	10059
918.828	10207
918.939	10219
919.05	10044
919.161	10219
919.272	9945
919.383	10021
919.494	10211
919.604	10413
919.715	10200
919.826	10109
919.936	10204
920.047	10219
920.157	10215
920.267	10402
920.378	10211
920.488	10200
920.598	10344
920.708	10538
920.818	10348
920.928	10367
921.038	10527
921.148	10508
921.258	10230
921.368	10086
921.477	10120
921.587	10006
921.697	9884
921.806	10131
921.916	9926
922.025	9800
922.134	9827
922.244	9652
922.353	9915
922.462	9667
922.571	9679
922.68	9473
922.789	9447
922.898	9450
923.007	9439
923.116	9458
923.224	9477
923.333	9397
923.442	9275
923.55	9241
923.659	9378
923.767	9389
923.876	9260
923.984	9378
924.092	9268
924.201	9313
924.309	9313
924.417	9306
924.525	9256
924.633	9260
924.741	10006
924.849	9097
924.956	9287
925.064	9085
925.172	9036
925.279	9036
925.387	9085
925.494	9112
925.602	9241
925.709	9138
925.816	9142
925.924	9127
926.031	9131
926.138	9146
926.245	9127
926.352	9047
926.459	9176
926.566	9245
926.673	9043
926.779	8933
926.886	8975
926.993	8895
927.099	8853
927.206	8796
927.312	8769
927.419	8861
927.525	8823
927.631	8815
927.737	8804
927.843	8674
927.95	8716
928.056	8674
928.162	8678
928.267	8785
928.373	9351
928.479	8823
928.585	8549
928.69	8693
928.796	8750
928.901	8617
929.007	8522
929.112	8708
929.218	8602
929.323	8575
929.428	8530
929.533	8705
929.638	8503
929.743	8499
929.848	8533
929.953	8522
930.058	8404
930.163	8332
930.267	8305
930.372	8423
930.477	8267
930.581	8533
930.685	8358
930.79	8172
930.894	8317
930.998	8298
931.103	8385
931.207	8024
931.311	7993
931.415	7852
931.519	7750
931.623	7818
