Data from test_V78500241_3371.txt Node
Date: Fri Mar 25 14:57:11 CST 2022
User: usil
Spectrometer: V785-0024
Trigger mode: 0
Integration Time (sec): 4.000000E-1
Scans to average: 1
Nonlinearity correction enabled: false
Boxcar width: 0
Storing dark spectrum: false
XAxis mode: Wavelengths
Number of Pixels in Spectrum: 1024
>>>>>Begin Spectral Data<<<<<
801.071	21975
801.214	21869
801.356	21625
801.499	21504
801.641	21336
801.783	21340
801.926	21439
802.068	21272
802.211	21184
802.353	21074
802.496	20967
802.638	20792
802.78	20705
802.923	20758
803.065	20492
803.208	20651
803.35	20590
803.492	20613
803.635	20750
803.777	20651
803.919	20674
804.061	20971
804.204	20701
804.346	20629
804.488	20488
804.63	20568
804.773	20556
804.915	20545
805.057	20648
805.199	20431
805.341	20644
805.483	20579
805.626	20617
805.768	20431
805.91	20412
806.052	20530
806.194	20503
806.336	20663
806.478	20549
806.62	20511
806.762	20670
806.904	20815
807.046	20906
807.188	20887
807.33	20921
807.472	20963
807.614	20739
807.756	20823
807.898	20667
808.04	20488
808.182	20590
808.324	20670
808.465	20613
808.607	20731
808.749	20921
808.891	21138
809.033	21017
809.174	20948
809.316	20902
809.458	20925
809.6	20902
809.741	20937
809.883	20902
810.025	20948
810.166	21032
810.308	21032
810.45	21001
810.591	20845
810.733	20750
810.875	20739
811.016	20617
811.158	20454
811.299	20754
811.441	20830
811.582	20785
811.724	20663
811.865	20564
812.007	20621
812.148	20609
812.29	20686
812.431	20902
812.573	20902
812.714	21058
812.855	21085
812.997	21192
813.138	21363
813.279	21252
813.421	21165
813.562	21089
813.703	20937
813.845	20769
813.986	20655
814.127	20366
814.268	20229
814.41	20377
814.551	20122
814.692	20248
814.833	20168
814.974	20157
815.115	20100
815.256	20073
815.397	20001
815.539	20100
815.68	19940
815.821	19833
815.962	19932
816.103	19727
816.244	19799
816.385	19738
816.526	19556
816.666	19499
816.807	19335
816.948	19327
817.089	19464
817.23	19453
817.371	19331
817.512	19312
817.653	19213
817.793	19430
817.934	19228
818.075	19369
818.216	19335
818.356	19228
818.497	19160
818.638	18985
818.778	18920
818.919	18939
819.06	19023
819.2	19179
819.341	19240
819.481	19164
819.622	19411
819.762	19533
819.903	19381
820.043	19255
820.184	19255
820.324	19289
820.465	19343
820.605	19388
820.746	19206
820.886	19103
821.026	19354
821.167	19327
821.307	19373
821.447	19198
821.588	19187
821.728	19031
821.868	18920
822.008	18639
822.149	18688
822.289	18681
822.429	18521
822.569	18471
822.709	18410
822.849	18273
822.99	18273
823.13	18186
823.27	18136
823.41	17935
823.55	18038
823.69	18072
823.83	17980
823.97	17889
824.11	17859
824.25	17646
824.389	17802
824.529	17866
824.669	17733
824.809	17920
824.949	17794
825.089	17863
825.228	17813
825.368	17665
825.508	17627
825.648	17585
825.787	17585
825.927	17691
826.067	17619
826.206	17539
826.346	17589
826.485	17604
826.625	17490
826.765	17543
826.904	17551
827.044	17296
827.183	17379
827.323	17143
827.462	17345
827.601	17151
827.741	17223
827.88	17288
828.02	17193
828.159	17273
828.298	17197
828.437	17326
828.577	17269
828.716	17436
828.855	17178
828.994	17109
829.134	17151
829.273	17090
829.412	16942
829.551	16930
829.69	17022
829.829	17075
829.968	17083
830.107	17200
830.246	17052
830.385	16980
830.524	17006
830.663	16809
830.802	16713
830.941	16607
831.08	16588
831.219	16755
831.357	16656
831.496	16767
831.635	16641
831.774	16596
831.913	16538
832.051	16459
832.19	16440
832.329	16481
832.467	16363
832.606	16344
832.744	16356
832.883	16352
833.022	16284
833.16	16413
833.299	16413
833.437	16493
833.576	16405
833.714	16436
833.852	16462
833.991	16379
834.129	16466
834.267	16409
834.406	16497
834.544	16398
834.682	16428
834.821	16447
834.959	16592
835.097	16333
835.235	16546
835.373	16428
835.511	16424
835.65	16344
835.788	16284
835.926	16135
836.064	16143
836.202	16207
836.34	16249
836.478	16379
836.615	16352
836.753	16341
836.891	16432
837.029	16306
837.167	16287
837.305	16363
837.443	16299
837.58	16116
837.718	16230
837.856	16253
837.993	16181
838.131	16219
838.269	16059
838.406	16048
838.544	16158
838.681	15956
838.819	15975
838.956	15698
839.094	15781
839.231	15842
839.369	15953
839.506	16234
839.643	16032
839.781	15793
839.918	15884
840.055	15804
840.193	15762
840.33	15572
840.467	15686
840.604	15789
840.742	15956
840.879	15667
841.016	15698
841.153	15667
841.29	15880
841.427	15812
841.564	15698
841.701	15831
841.838	15675
841.975	15686
842.112	15587
842.249	15500
842.385	15591
842.522	15663
842.659	15466
842.796	15473
842.933	15568
843.069	15557
843.206	15412
843.343	15580
843.479	15496
843.616	15576
843.752	15256
843.889	15279
844.025	15374
844.162	15298
844.298	15443
844.435	15298
844.571	15287
844.708	15355
844.844	15488
844.98	15462
845.117	15458
845.253	15199
845.389	15211
845.525	15222
845.661	15195
845.798	15211
845.934	15127
846.07	15066
846.206	15249
846.342	15325
846.478	15154
846.614	14895
846.75	14921
846.886	14899
847.022	14925
847.158	14849
847.294	14975
847.429	14941
847.565	14899
847.701	15131
847.837	14606
847.972	14610
848.108	14796
848.244	14788
848.379	14514
848.515	14575
848.65	14450
848.786	14518
848.921	14358
849.057	14629
849.192	14568
849.328	14530
849.463	14545
849.598	14480
849.734	14457
849.869	14332
850.004	14214
850.14	14313
850.275	14298
850.41	14210
850.545	14176
850.68	14202
850.815	14225
850.95	14290
851.085	14355
851.22	14355
851.355	14347
851.49	14298
851.625	14248
851.76	14225
851.895	14107
852.03	14187
852.165	14252
852.299	14259
852.434	14351
852.569	14206
852.703	14309
852.838	14259
852.973	14370
853.107	14446
853.242	14202
853.376	14237
853.511	14043
853.645	14103
853.78	14225
853.914	14202
854.048	14100
854.183	14054
854.317	14202
854.451	14339
854.585	14206
854.72	14100
854.854	14237
854.988	14069
855.122	14153
855.256	14058
855.39	14145
855.524	14278
855.658	14164
855.792	14069
855.926	14157
856.06	14244
856.194	14278
856.327	14088
856.461	14035
856.595	14107
856.729	14103
856.862	14252
856.996	14130
857.13	14237
857.263	14267
857.397	14191
857.53	14187
857.664	14221
857.797	14191
857.931	14237
858.064	14157
858.197	14271
858.331	14142
858.464	14191
858.597	14039
858.731	14195
858.864	14123
858.997	14111
859.13	14161
859.263	14237
859.396	14172
859.529	14119
859.662	14149
859.795	14050
859.928	14115
860.061	14336
860.194	14278
860.327	14107
860.46	14142
860.592	14294
860.725	14164
860.858	14172
860.99	14054
861.123	14008
861.256	14043
861.388	14107
861.521	14937
861.653	13947
861.786	14046
861.918	13944
862.05	14027
862.183	14096
862.315	14119
862.447	14096
862.58	14046
862.712	13902
862.844	13814
862.976	13974
863.108	13967
863.24	14351
863.372	13811
863.504	13913
863.636	13879
863.768	14008
863.9	13871
864.032	13879
864.164	13883
864.296	13944
864.428	14058
864.559	13921
864.691	14103
864.823	13982
864.954	14039
865.086	13921
865.217	13887
865.349	13841
865.48	13833
865.612	13932
865.743	14115
865.875	13982
866.006	13902
866.137	13826
866.269	13811
866.4	13864
866.531	13845
866.662	13917
866.793	13818
866.924	13845
867.055	14039
867.186	13917
867.317	13898
867.448	13849
867.579	13868
867.71	13803
867.841	13856
867.972	13887
868.103	13906
868.233	13917
868.364	13944
868.495	13967
868.625	14138
868.756	14282
868.886	14054
869.017	14183
869.147	14210
869.278	14259
869.408	14195
869.539	14012
869.669	14313
869.799	14256
869.929	14229
870.06	14286
870.19	14480
870.32	14469
870.45	14590
870.58	14518
870.71	14655
870.84	14724
870.97	14606
871.1	14621
871.23	14758
871.36	14727
871.489	14621
871.619	14823
871.749	14762
871.879	14834
872.008	14891
872.138	14804
872.267	14792
872.397	14598
872.526	14511
872.656	14640
872.785	14686
872.915	14800
873.044	14765
873.173	14716
873.303	14826
873.432	14804
873.561	14910
873.69	14746
873.819	14804
873.948	14845
874.077	14785
874.206	14796
874.335	14743
874.464	14998
874.593	15062
874.722	15047
874.851	15085
874.979	15138
875.108	15199
875.237	15138
875.365	15032
875.494	15116
875.623	15188
875.751	15074
875.88	15260
876.008	15256
876.136	15408
876.265	15530
876.393	15667
876.521	15705
876.65	15656
876.778	15523
876.906	15538
877.034	15443
877.162	15561
877.29	15523
877.418	15572
877.546	15538
877.674	15473
877.802	15519
877.93	15557
878.058	15466
878.185	15405
878.313	15488
878.441	15568
878.568	15287
878.696	15428
878.824	15595
878.951	15515
879.079	15637
879.206	15903
879.333	15751
879.461	15603
879.588	15618
879.715	15652
879.842	15781
879.97	15629
880.097	15344
880.224	15268
880.351	15397
880.478	15367
880.605	15348
880.732	15370
880.859	15595
880.986	15416
881.112	15389
881.239	15310
881.366	15275
881.493	15074
881.619	15051
881.746	15024
881.872	15097
881.999	15055
882.125	14906
882.252	15081
882.378	15123
882.505	15157
882.631	15085
882.757	14826
882.883	14887
883.01	14910
883.136	14781
883.262	14845
883.388	14705
883.514	14838
883.64	14902
883.766	14788
883.892	14682
884.018	14712
884.143	14849
884.269	14937
884.395	14613
884.52	14526
884.646	14564
884.772	14545
884.897	14537
885.023	14579
885.148	14674
885.274	14758
885.399	14686
885.524	14663
885.65	14636
885.775	14621
885.9	14560
886.025	14678
886.15	14556
886.275	14568
886.4	14533
886.525	14518
886.65	14469
886.775	14476
886.9	14769
887.025	14777
887.149	14545
887.274	14381
887.399	14431
887.523	14396
887.648	14362
887.773	14317
887.897	14514
888.021	14442
888.146	14324
888.27	14571
888.395	14499
888.519	14480
888.643	14503
888.767	14549
888.891	14358
889.015	14275
889.139	14328
889.263	14214
889.387	14328
889.511	14404
889.635	14434
889.759	14317
889.883	14233
890.006	14324
890.13	14377
890.254	14210
890.377	14256
890.501	14138
890.624	14084
890.748	14115
890.871	14043
890.995	14031
891.118	13864
891.241	13970
891.364	14020
891.488	14092
891.611	13970
891.734	13974
891.857	14035
891.98	13921
892.103	14138
892.226	14065
892.349	14035
892.471	13803
892.594	13940
892.717	13982
892.839	13986
892.962	13868
893.085	14062
893.207	13894
893.33	13883
893.452	13928
893.575	14005
893.697	13982
893.819	14123
893.941	14138
894.064	14157
894.186	14054
894.308	14031
894.43	14027
894.552	14111
894.674	14138
894.796	13928
894.918	14012
895.04	14031
895.161	14069
895.283	14164
895.405	14043
895.526	14176
895.648	14134
895.769	14092
895.891	14035
896.012	14134
896.134	14237
896.255	14183
896.376	14024
896.498	14161
896.619	14187
896.74	14149
896.861	14244
896.982	14503
897.103	14697
897.224	14476
897.345	14313
897.466	14218
897.587	14385
897.708	14469
897.828	14320
897.949	14275
898.07	14298
898.19	14362
898.311	14564
898.431	14583
898.552	14442
898.672	14545
898.792	14625
898.913	14613
899.033	14374
899.153	14313
899.273	14362
899.393	14290
899.513	14415
899.633	14339
899.753	14351
899.873	14343
899.993	14370
900.113	14328
900.232	14347
900.352	14343
900.472	14206
900.591	14168
900.711	14191
900.83	14145
900.95	14240
901.069	14419
901.189	14225
901.308	13925
901.427	13909
901.546	13917
901.665	13909
901.784	13940
901.904	13746
902.023	13712
902.141	13582
902.26	13521
902.379	13491
902.498	13320
902.617	13403
902.735	13525
902.854	13422
902.973	13407
903.091	13179
903.21	13183
903.328	13206
903.446	13164
903.565	13072
903.683	13027
903.801	13015
903.919	13061
904.038	12970
904.156	12894
904.274	12989
904.392	12871
904.51	12753
904.627	12882
904.745	12916
904.863	13008
904.981	12726
905.098	12544
905.216	12692
905.334	12585
905.451	12627
905.569	12623
905.686	12627
905.803	12578
905.921	12365
906.038	12498
906.155	12437
906.272	12266
906.389	12319
906.506	12186
906.623	12220
906.74	12136
906.857	12091
906.974	12095
907.091	12228
907.208	12429
907.324	12220
907.441	12125
907.557	11942
907.674	11969
907.79	11847
907.907	11897
908.023	11897
908.139	11958
908.256	11912
908.372	11847
908.488	11882
908.604	11684
908.72	11581
908.836	11646
908.952	11718
909.068	11733
909.184	11824
909.3	11737
909.415	11748
909.531	11767
909.647	11558
909.762	11459
909.878	11444
909.993	11493
910.108	11425
910.224	11383
910.339	11512
910.454	11372
910.57	11269
910.685	11212
910.8	11592
910.915	11543
911.03	11345
911.145	11147
911.259	11227
911.374	11140
911.489	11083
911.604	11029
911.718	10911
911.833	10938
911.947	10831
912.062	10782
912.176	10885
912.291	10904
912.405	10957
912.519	11124
912.633	11052
912.748	10980
912.862	10976
912.976	10771
913.09	10717
913.204	10767
913.318	10881
913.431	10930
913.545	10885
913.659	10972
913.772	10793
913.886	10736
914	10634
914.113	10790
914.226	10824
914.34	10763
914.453	10588
914.566	10706
914.68	10664
914.793	10653
914.906	10447
915.019	10478
915.132	10322
915.245	10390
915.358	10508
915.47	10462
915.583	10489
915.696	10500
915.809	10615
915.921	10611
916.034	10371
916.146	10371
916.259	10413
916.371	10447
916.483	10470
916.595	10348
916.708	10382
916.82	10318
916.932	10360
917.044	10447
917.156	10352
917.268	10318
917.38	10337
917.491	10242
917.603	10234
917.715	10379
917.826	10287
917.938	10265
918.049	10166
918.161	10367
918.272	10485
918.384	10497
918.495	10280
918.606	10162
918.717	10109
918.828	10185
918.939	10135
919.05	10055
919.161	10116
919.272	9979
919.383	10051
919.494	10173
919.604	10382
919.715	10185
919.826	10097
919.936	10112
920.047	10196
920.157	10215
920.267	10382
920.378	10207
920.488	10162
920.598	10367
920.708	10561
920.818	10322
920.928	10375
921.038	10516
921.148	10466
921.258	10192
921.368	10112
921.477	10078
921.587	9991
921.697	9949
921.806	10013
921.916	9972
922.025	9819
922.134	9766
922.244	9675
922.353	9781
922.462	9606
922.571	9603
922.68	9424
922.789	9389
922.898	9526
923.007	9496
923.116	9435
923.224	9401
923.333	9485
923.442	9313
923.55	9279
923.659	9351
923.767	9374
923.876	9317
923.984	9378
924.092	9214
924.201	9264
924.309	9256
924.417	9321
924.525	9241
924.633	9268
924.741	10166
924.849	9009
924.956	9260
925.064	9089
925.172	8986
925.279	9020
925.387	9058
925.494	9062
925.602	9203
925.709	9192
925.816	9081
925.924	9081
926.031	9108
926.138	9047
926.245	9176
926.352	9036
926.459	9176
926.566	9131
926.673	9066
926.779	8986
926.886	8937
926.993	8853
927.099	8807
927.206	8750
927.312	8800
927.419	8861
927.525	8838
927.631	8902
927.737	8743
927.843	8682
927.95	8640
928.056	8621
928.162	8689
928.267	8731
928.373	9481
928.479	8796
928.585	8610
928.69	8655
928.796	8739
928.901	8594
929.007	8564
929.112	8632
929.218	8579
929.323	8514
929.428	8568
929.533	8651
929.638	8476
929.743	8454
929.848	8507
929.953	8488
930.058	8396
930.163	8290
930.267	8313
930.372	8419
930.477	8313
930.581	8446
930.685	8332
930.79	8210
930.894	8252
930.998	8183
931.103	8305
931.207	8046
931.311	7978
931.415	7989
931.519	7772
931.623	7674
