Data from test_V78500241_3165.txt Node
Date: Fri Mar 25 14:55:45 CST 2022
User: usil
Spectrometer: V785-0024
Trigger mode: 0
Integration Time (sec): 4.000000E-1
Scans to average: 1
Nonlinearity correction enabled: false
Boxcar width: 0
Storing dark spectrum: false
XAxis mode: Wavelengths
Number of Pixels in Spectrum: 1024
>>>>>Begin Spectral Data<<<<<
801.071	22017
801.214	21964
801.356	21694
801.499	21682
801.641	21485
801.783	21435
801.926	21435
802.068	21450
802.211	21287
802.353	21116
802.496	20979
802.638	20948
802.78	20925
802.923	20838
803.065	20769
803.208	20842
803.35	20864
803.492	20842
803.635	21051
803.777	20781
803.919	20868
804.061	21070
804.204	20743
804.346	20735
804.488	20674
804.63	20693
804.773	20636
804.915	20537
805.057	20758
805.199	20625
805.341	20655
805.483	20823
805.626	20689
805.768	20674
805.91	20533
806.052	20590
806.194	20526
806.336	20712
806.478	20640
806.62	20564
806.762	20651
806.904	20830
807.046	20994
807.188	20986
807.33	21005
807.472	20960
807.614	20792
807.756	20758
807.898	20686
808.04	20800
808.182	20708
808.324	20712
808.465	20800
808.607	20933
808.749	21089
808.891	21043
809.033	21245
809.174	21077
809.316	20933
809.458	21077
809.6	20952
809.741	21051
809.883	21241
810.025	21138
810.166	21245
810.308	21161
810.45	21024
810.591	21081
810.733	20872
810.875	20746
811.016	20773
811.158	20712
811.299	20834
811.441	20792
811.582	20956
811.724	20743
811.865	20845
812.007	20781
812.148	20826
812.29	20792
812.431	21116
812.573	21146
812.714	21135
812.855	21321
812.997	21389
813.138	21500
813.279	21393
813.421	21313
813.562	21062
813.703	21017
813.845	20921
813.986	20655
814.127	20583
814.268	20381
814.41	20377
814.551	20263
814.692	20427
814.833	20138
814.974	20320
815.115	20381
815.256	20054
815.397	20237
815.539	20187
815.68	20103
815.821	19974
815.962	19951
816.103	20031
816.244	19864
816.385	19951
816.526	19795
816.666	19689
816.807	19499
816.948	19643
817.089	19578
817.23	19544
817.371	19453
817.512	19537
817.653	19537
817.793	19419
817.934	19392
818.075	19468
818.216	19548
818.356	19335
818.497	19285
818.638	19053
818.778	19251
818.919	19206
819.06	19228
819.2	19331
819.341	19381
819.481	19350
819.622	19464
819.762	19666
819.903	19556
820.043	19491
820.184	19525
820.324	19438
820.465	19476
820.605	19480
820.746	19407
820.886	19377
821.026	19430
821.167	19324
821.307	19407
821.447	19331
821.588	19225
821.728	19126
821.868	19053
822.008	18779
822.149	18821
822.289	18829
822.429	18604
822.569	18540
822.709	18593
822.849	18308
822.99	18194
823.13	18243
823.27	18350
823.41	18163
823.55	18034
823.69	18174
823.83	18068
823.97	18197
824.11	17916
824.25	17912
824.389	17942
824.529	18045
824.669	17889
824.809	18102
824.949	17893
825.089	17916
825.228	17923
825.368	17889
825.508	17752
825.648	17756
825.787	17703
825.927	17676
826.067	17695
826.206	17570
826.346	17672
826.485	17638
826.625	17592
826.765	17741
826.904	17661
827.044	17455
827.183	17459
827.323	17444
827.462	17463
827.601	17467
827.741	17383
827.88	17356
828.02	17292
828.159	17383
828.298	17387
828.437	17402
828.577	17258
828.716	17444
828.855	17204
828.994	17212
829.134	17197
829.273	17170
829.412	17109
829.551	17010
829.69	17033
829.829	17140
829.968	17166
830.107	17098
830.246	17197
830.385	17208
830.524	17067
830.663	16927
830.802	16904
830.941	16729
831.08	16683
831.219	16835
831.357	16892
831.496	16938
831.635	16721
831.774	16698
831.913	16694
832.051	16531
832.19	16459
832.329	16573
832.467	16386
832.606	16356
832.744	16386
832.883	16470
833.022	16299
833.16	16459
833.299	16493
833.437	16409
833.576	16470
833.714	16523
833.852	16493
833.991	16569
834.129	16535
834.267	16588
834.406	16447
834.544	16558
834.682	16561
834.821	16497
834.959	16618
835.097	16382
835.235	16596
835.373	16466
835.511	16390
835.65	16413
835.788	16386
835.926	16272
836.064	16299
836.202	16238
836.34	16341
836.478	16516
836.615	16314
836.753	16478
836.891	16310
837.029	16489
837.167	16291
837.305	16409
837.443	16253
837.58	16265
837.718	16299
837.856	16265
837.993	16200
838.131	16280
838.269	16124
838.406	16131
838.544	16147
838.681	15892
838.819	15876
838.956	15675
839.094	15789
839.231	15892
839.369	16006
839.506	16348
839.643	16116
839.781	15759
839.918	15793
840.055	15743
840.193	15724
840.33	15736
840.467	15812
840.604	15797
840.742	16032
840.879	15587
841.016	15724
841.153	15720
841.29	15816
841.427	15793
841.564	15831
841.701	15838
841.838	15717
841.975	15686
842.112	15785
842.249	15603
842.385	15572
842.522	15766
842.659	15675
842.796	15633
842.933	15618
843.069	15610
843.206	15523
843.343	15591
843.479	15652
843.616	15580
843.752	15443
843.889	15370
844.025	15538
844.162	15336
844.298	15431
844.435	15374
844.571	15447
844.708	15344
844.844	15477
844.98	15572
845.117	15473
845.253	15291
845.389	15317
845.525	15272
845.661	15272
845.798	15089
845.934	15138
846.07	15077
846.206	15146
846.342	15264
846.478	15146
846.614	15009
846.75	14948
846.886	14975
847.022	15066
847.158	14937
847.294	14929
847.429	14952
847.565	15028
847.701	15192
847.837	14724
847.972	14613
848.108	14868
848.244	14724
848.379	14499
848.515	14564
848.65	14541
848.786	14571
848.921	14610
849.057	14583
849.192	14552
849.328	14575
849.463	14583
849.598	14537
849.734	14507
849.869	14446
850.004	14298
850.14	14347
850.275	14309
850.41	14225
850.545	14309
850.68	14320
850.815	14324
850.95	14282
851.085	14545
851.22	14400
851.355	14336
851.49	14221
851.625	14317
851.76	14324
851.895	14183
852.03	14248
852.165	14305
852.299	14275
852.434	14263
852.569	14374
852.703	14294
852.838	14488
852.973	14450
853.107	14442
853.242	14244
853.376	14180
853.511	14073
853.645	14123
853.78	14278
853.914	14126
854.048	14130
854.183	14115
854.317	14134
854.451	14366
854.585	14259
854.72	14126
854.854	14282
854.988	14172
855.122	14187
855.256	14077
855.39	14199
855.524	14336
855.658	14199
855.792	14244
855.926	14244
856.06	14237
856.194	14275
856.327	14267
856.461	14096
856.595	14016
856.729	14096
856.862	14294
856.996	14240
857.13	14210
857.263	14282
857.397	14347
857.53	14123
857.664	14259
857.797	14275
857.931	14286
858.064	14225
858.197	14282
858.331	14221
858.464	14244
858.597	14001
858.731	14172
858.864	14115
858.997	14111
859.13	14134
859.263	14176
859.396	14324
859.529	14100
859.662	14073
859.795	14142
859.928	14161
860.061	14343
860.194	14461
860.327	14206
860.46	14278
860.592	14225
860.725	14294
860.858	14240
860.99	14130
861.123	14100
861.256	14065
861.388	14149
861.521	14864
861.653	14107
861.786	13959
861.918	13974
862.05	14145
862.183	14153
862.315	14134
862.447	14259
862.58	14020
862.712	13845
862.844	13909
862.976	14024
863.108	14054
863.24	14355
863.372	13917
863.504	13947
863.636	13959
863.768	13963
863.9	13955
864.032	13925
864.164	13894
864.296	14043
864.428	14092
864.559	14027
864.691	13974
864.823	13982
864.954	14031
865.086	14012
865.217	13928
865.349	13868
865.48	13997
865.612	13951
865.743	14062
865.875	13936
866.006	13925
866.137	14001
866.269	13963
866.4	13947
866.531	13833
866.662	13856
866.793	13841
866.924	13940
867.055	13921
867.186	13917
867.317	13887
867.448	13909
867.579	13822
867.71	13864
867.841	13852
867.972	13959
868.103	13879
868.233	13993
868.364	14035
868.495	14005
868.625	14092
868.756	14172
868.886	14035
869.017	14218
869.147	14286
869.278	14366
869.408	14267
869.539	14233
869.669	14256
869.799	14145
869.929	14324
870.06	14351
870.19	14492
870.32	14511
870.45	14480
870.58	14617
870.71	14727
870.84	14712
870.97	14640
871.1	14617
871.23	14819
871.36	14804
871.489	14701
871.619	14792
871.749	14746
871.879	14830
872.008	14883
872.138	14807
872.267	14849
872.397	14678
872.526	14537
872.656	14655
872.785	14678
872.915	14788
873.044	14849
873.173	14765
873.303	14952
873.432	14853
873.561	14861
873.69	14883
873.819	14823
873.948	14883
874.077	14815
874.206	14769
874.335	14823
874.464	15009
874.593	15157
874.722	15013
874.851	15165
874.979	15188
875.108	15249
875.237	15127
875.365	14994
875.494	15028
875.623	15264
875.751	15169
875.88	15195
876.008	15294
876.136	15435
876.265	15530
876.393	15698
876.521	15747
876.65	15584
876.778	15629
876.906	15564
877.034	15511
877.162	15542
877.29	15561
877.418	15557
877.546	15545
877.674	15557
877.802	15534
877.93	15625
878.058	15629
878.185	15542
878.313	15629
878.441	15523
878.568	15344
878.696	15485
878.824	15663
878.951	15572
879.079	15778
879.206	15903
879.333	15732
879.461	15652
879.588	15690
879.715	15797
879.842	15869
879.97	15606
880.097	15469
880.224	15443
880.351	15439
880.478	15443
880.605	15435
880.732	15348
880.859	15629
880.986	15431
881.112	15408
881.239	15325
881.366	15226
881.493	15214
881.619	15074
881.746	15081
881.872	14971
881.999	15039
882.125	14944
882.252	15100
882.378	15112
882.505	15218
882.631	15028
882.757	14853
882.883	14975
883.01	14902
883.136	14788
883.262	14705
883.388	14735
883.514	14902
883.64	15020
883.766	14819
883.892	14629
884.018	14804
884.143	14891
884.269	14952
884.395	14648
884.52	14613
884.646	14640
884.772	14549
884.897	14613
885.023	14606
885.148	14667
885.274	14712
885.399	14773
885.524	14693
885.65	14545
885.775	14674
885.9	14621
886.025	14819
886.15	14537
886.275	14549
886.4	14499
886.525	14522
886.65	14503
886.775	14541
886.9	14655
887.025	14861
887.149	14598
887.274	14438
887.399	14393
887.523	14514
887.648	14317
887.773	14282
887.897	14537
888.021	14503
888.146	14412
888.27	14484
888.395	14473
888.519	14457
888.643	14537
888.767	14450
888.891	14320
889.015	14282
889.139	14278
889.263	14259
889.387	14461
889.511	14541
889.635	14431
889.759	14267
889.883	14328
890.006	14305
890.13	14431
890.254	14237
890.377	14267
890.501	14153
890.624	14054
890.748	14237
890.871	14058
890.995	13974
891.118	13967
891.241	13947
891.364	13928
891.488	14084
891.611	14031
891.734	13951
891.857	14081
891.98	14031
892.103	14065
892.226	14046
892.349	14077
892.471	13791
892.594	13982
892.717	14012
892.839	13928
892.962	14012
893.085	14043
893.207	13989
893.33	13940
893.452	13898
893.575	13970
893.697	14054
893.819	14046
893.941	14271
894.064	14142
894.186	13883
894.308	13932
894.43	14103
894.552	14275
894.674	14187
894.796	13932
894.918	14058
895.04	14005
895.161	14145
895.283	14187
895.405	13967
895.526	14054
895.648	14027
895.769	14088
895.891	14126
896.012	14233
896.134	14210
896.255	14195
896.376	14084
896.498	14123
896.619	14199
896.74	14119
896.861	14202
896.982	14484
897.103	14625
897.224	14507
897.345	14408
897.466	14332
897.587	14412
897.708	14670
897.828	14503
897.949	14400
898.07	14347
898.19	14476
898.311	14549
898.431	14419
898.552	14434
898.672	14598
898.792	14568
898.913	14552
899.033	14518
899.153	14347
899.273	14339
899.393	14343
899.513	14495
899.633	14347
899.753	14415
899.873	14396
899.993	14396
900.113	14339
900.232	14381
900.352	14328
900.472	14423
900.591	14259
900.711	14294
900.83	14221
900.95	14324
901.069	14374
901.189	14134
901.308	13963
901.427	13807
901.546	13947
901.665	13917
901.784	13947
901.904	13830
902.023	13727
902.141	13590
902.26	13499
902.379	13628
902.498	13567
902.617	13468
902.735	13544
902.854	13445
902.973	13472
903.091	13270
903.21	13297
903.328	13255
903.446	13156
903.565	13126
903.683	13168
903.801	13107
903.919	13053
904.038	13107
904.156	12867
904.274	13019
904.392	12985
904.51	12981
904.627	12935
904.745	12886
904.863	12932
904.981	12779
905.098	12631
905.216	12692
905.334	12696
905.451	12715
905.569	12536
905.686	12616
905.803	12662
905.921	12395
906.038	12467
906.155	12403
906.272	12414
906.389	12448
906.506	12300
906.623	12266
906.74	12262
906.857	12045
906.974	12224
907.091	12308
907.208	12327
907.324	12247
907.441	12034
907.557	12129
907.674	11954
907.79	11855
907.907	11992
908.023	12030
908.139	11927
908.256	11863
908.372	11923
908.488	11859
908.604	11824
908.72	11710
908.836	11699
908.952	11668
909.068	11748
909.184	11805
909.3	11703
909.415	11718
909.531	11779
909.647	11486
909.762	11505
909.878	11421
909.993	11493
910.108	11444
910.224	11417
910.339	11505
910.454	11280
910.57	11410
910.685	11227
910.8	11585
910.915	11395
911.03	11387
911.145	11185
911.259	11079
911.374	11193
911.489	11121
911.604	11006
911.718	11022
911.833	10949
911.947	10923
912.062	10752
912.176	10866
912.291	10915
912.405	10972
912.519	11117
912.633	11117
912.748	11117
912.862	10987
912.976	10740
913.09	10744
913.204	10782
913.318	10843
913.431	10908
913.545	10965
913.659	10889
913.772	10862
913.886	10694
914	10702
914.113	10771
914.226	10889
914.34	10782
914.453	10611
914.566	10771
914.68	10656
914.793	10634
914.906	10440
915.019	10428
915.132	10390
915.245	10421
915.358	10493
915.47	10424
915.583	10535
915.696	10588
915.809	10573
915.921	10615
916.034	10489
916.146	10398
916.259	10352
916.371	10447
916.483	10474
916.595	10306
916.708	10379
916.82	10379
916.932	10386
917.044	10325
917.156	10344
917.268	10276
917.38	10306
917.491	10272
917.603	10253
917.715	10432
917.826	10352
917.938	10227
918.049	10181
918.161	10322
918.272	10390
918.384	10409
918.495	10272
918.606	10173
918.717	10078
918.828	10249
918.939	10158
919.05	10063
919.161	10124
919.272	9983
919.383	10093
919.494	10215
919.604	10394
919.715	10215
919.826	10112
919.936	10135
920.047	10268
920.157	10230
920.267	10367
920.378	10230
920.488	10185
920.598	10402
920.708	10512
920.818	10363
920.928	10337
921.038	10504
921.148	10554
921.258	10207
921.368	10154
921.477	10109
921.587	10055
921.697	9956
921.806	10112
921.916	9915
922.025	9728
922.134	9755
922.244	9698
922.353	9747
922.462	9698
922.571	9599
922.68	9424
922.789	9340
922.898	9405
923.007	9386
923.116	9443
923.224	9466
923.333	9363
923.442	9317
923.55	9298
923.659	9382
923.767	9389
923.876	9310
923.984	9363
924.092	9275
924.201	9268
924.309	9249
924.417	9291
924.525	9272
924.633	9241
924.741	10185
924.849	9161
924.956	9230
925.064	9074
925.172	9062
925.279	9081
925.387	9150
925.494	9074
925.602	9165
925.709	9195
925.816	9017
925.924	9142
926.031	9165
926.138	9138
926.245	9173
926.352	8944
926.459	9192
926.566	9203
926.673	9100
926.779	8986
926.886	9009
926.993	8864
927.099	8781
927.206	8823
927.312	8811
927.419	8857
927.525	8842
927.631	8887
927.737	8762
927.843	8739
927.95	8629
928.056	8659
928.162	8697
928.267	8788
928.373	9306
928.479	8834
928.585	8629
928.69	8712
928.796	8689
928.901	8682
929.007	8484
929.112	8670
929.218	8598
929.323	8610
929.428	8522
929.533	8617
929.638	8469
929.743	8533
929.848	8537
929.953	8495
930.058	8427
930.163	8279
930.267	8358
930.372	8431
930.477	8294
930.581	8488
930.685	8366
930.79	8263
930.894	8305
930.998	8214
931.103	8415
931.207	8024
931.311	7959
931.415	7944
931.519	7776
931.623	7734
