Data from test_V78500241_1525.txt Node
Date: Fri Mar 25 14:44:20 CST 2022
User: usil
Spectrometer: V785-0024
Trigger mode: 0
Integration Time (sec): 4.000000E-1
Scans to average: 1
Nonlinearity correction enabled: false
Boxcar width: 0
Storing dark spectrum: false
XAxis mode: Wavelengths
Number of Pixels in Spectrum: 1024
>>>>>Begin Spectral Data<<<<<
801.071	22474
801.214	22268
801.356	22082
801.499	22017
801.641	21766
801.783	21778
801.926	21743
802.068	21778
802.211	21610
802.353	21641
802.496	21363
802.638	21344
802.78	21264
802.923	21180
803.065	21039
803.208	20960
803.35	21146
803.492	21188
803.635	21176
803.777	21123
803.919	21230
804.061	21428
804.204	21005
804.346	21074
804.488	21024
804.63	21081
804.773	20963
804.915	21032
805.057	21058
805.199	21055
805.341	21051
805.483	21108
805.626	21123
805.768	20948
805.91	20979
806.052	21100
806.194	21062
806.336	21256
806.478	21066
806.62	21199
806.762	21051
806.904	21138
807.046	21477
807.188	21435
807.33	21386
807.472	21496
807.614	21386
807.756	21450
807.898	21275
808.04	21272
808.182	21249
808.324	21241
808.465	21310
808.607	21485
808.749	21603
808.891	21686
809.033	21698
809.174	21766
809.316	21610
809.458	21610
809.6	21397
809.741	21614
809.883	21591
810.025	21614
810.166	21785
810.308	21629
810.45	21435
810.591	21408
810.733	21332
810.875	21382
811.016	21176
811.158	21146
811.299	21245
811.441	21355
811.582	21294
811.724	21176
811.865	21138
812.007	21306
812.148	21176
812.29	21340
812.431	21408
812.573	21595
812.714	21641
812.855	21663
812.997	21770
813.138	21934
813.279	21804
813.421	21614
813.562	21652
813.703	21397
813.845	21389
813.986	21074
814.127	21036
814.268	20792
814.41	20838
814.551	20720
814.692	20746
814.833	20735
814.974	20678
815.115	20682
815.256	20568
815.397	20583
815.539	20606
815.68	20476
815.821	20454
815.962	20518
816.103	20568
816.244	20336
816.385	20180
816.526	20210
816.666	20077
816.807	19959
816.948	19997
817.089	20043
817.23	20008
817.371	19921
817.512	19871
817.653	19860
817.793	19830
817.934	19818
818.075	19849
818.216	19799
818.356	19700
818.497	19616
818.638	19590
818.778	19624
818.919	19643
819.06	19582
819.2	19632
819.341	19811
819.481	19757
819.622	19959
819.762	20043
819.903	20020
820.043	19936
820.184	19811
820.324	19868
820.465	20062
820.605	19951
820.746	19940
820.886	19784
821.026	19826
821.167	19826
821.307	19913
821.447	19807
821.588	19655
821.728	19521
821.868	19445
822.008	19312
822.149	19362
822.289	19304
822.429	19050
822.569	18951
822.709	19008
822.849	18753
822.99	18871
823.13	18703
823.27	18650
823.41	18585
823.55	18555
823.69	18532
823.83	18513
823.97	18566
824.11	18365
824.25	18353
824.389	18350
824.529	18365
824.669	18266
824.809	18445
824.949	18414
825.089	18391
825.228	18304
825.368	18277
825.508	18121
825.648	18182
825.787	18194
825.927	18174
826.067	18140
826.206	18034
826.346	18163
826.485	18174
826.625	18144
826.765	18194
826.904	18057
827.044	18034
827.183	17874
827.323	17824
827.462	17893
827.601	17779
827.741	17813
827.88	17760
828.02	17642
828.159	17783
828.298	17851
828.437	17851
828.577	17790
828.716	17916
828.855	17779
828.994	17604
829.134	17566
829.273	17619
829.412	17444
829.551	17463
829.69	17528
829.829	17623
829.968	17672
830.107	17646
830.246	17703
830.385	17486
830.524	17444
830.663	17433
830.802	17231
830.941	17166
831.08	17124
831.219	17254
831.357	17193
831.496	17376
831.635	17212
831.774	17067
831.913	17067
832.051	17079
832.19	16980
832.329	17010
832.467	16911
832.606	16877
832.744	16744
832.883	16984
833.022	16774
833.16	16900
833.299	16949
833.437	16858
833.576	16976
833.714	16942
833.852	17041
833.991	16980
834.129	16972
834.267	17018
834.406	16854
834.544	17045
834.682	16866
834.821	16736
834.959	17067
835.097	16862
835.235	16972
835.373	16896
835.511	17003
835.65	16847
835.788	16793
835.926	16759
836.064	16694
836.202	16679
836.34	16850
836.478	16816
836.615	16740
836.753	16786
836.891	16862
837.029	16862
837.167	16816
837.305	16809
837.443	16626
837.58	16580
837.718	16736
837.856	16683
837.993	16546
838.131	16698
838.269	16588
838.406	16573
838.544	16527
838.681	16424
838.819	16322
838.956	16128
839.094	16158
839.231	16291
839.369	16306
839.506	16584
839.643	16462
839.781	16177
839.918	16314
840.055	16162
840.193	16150
840.33	16154
840.467	16192
840.604	16318
840.742	16500
840.879	16025
841.016	16105
841.153	16131
841.29	16333
841.427	16147
841.564	16177
841.701	16348
841.838	16223
841.975	16143
842.112	16078
842.249	16040
842.385	15899
842.522	16200
842.659	16055
842.796	15892
842.933	16048
843.069	16006
843.206	15861
843.343	16059
843.479	15991
843.616	15972
843.752	15804
843.889	15648
844.025	15937
844.162	15759
844.298	15797
844.435	15732
844.571	15759
844.708	15789
844.844	15956
844.98	15884
845.117	15884
845.253	15797
845.389	15660
845.525	15720
845.661	15728
845.798	15759
845.934	15766
846.07	15751
846.206	15800
846.342	15842
846.478	15739
846.614	15397
846.75	15340
846.886	15401
847.022	15340
847.158	15367
847.294	15302
847.429	15370
847.565	15306
847.701	15572
847.837	15100
847.972	14971
848.108	15138
848.244	15123
848.379	15039
848.515	15039
848.65	14952
848.786	14975
848.921	14842
849.057	15013
849.192	15112
849.328	14979
849.463	14864
849.598	15047
849.734	14864
849.869	14834
850.004	14750
850.14	14826
850.275	14670
850.41	14610
850.545	14678
850.68	14629
850.815	14834
850.95	14670
851.085	14876
851.22	14800
851.355	14785
851.49	14678
851.625	14682
851.76	14693
851.895	14598
852.03	14560
852.165	14712
852.299	14758
852.434	14819
852.569	14739
852.703	14819
852.838	14781
852.973	14804
853.107	14834
853.242	14807
853.376	14568
853.511	14461
853.645	14560
853.78	14648
853.914	14610
854.048	14492
854.183	14514
854.317	14579
854.451	14697
854.585	14488
854.72	14613
854.854	14655
854.988	14480
855.122	14583
855.256	14412
855.39	14575
855.524	14556
855.658	14579
855.792	14545
855.926	14629
856.06	14533
856.194	14701
856.327	14621
856.461	14541
856.595	14457
856.729	14492
856.862	14629
856.996	14651
857.13	14575
857.263	14621
857.397	14701
857.53	14590
857.664	14708
857.797	14610
857.931	14640
858.064	14590
858.197	14739
858.331	14545
858.464	14522
858.597	14389
858.731	14549
858.864	14541
858.997	14571
859.13	14549
859.263	14537
859.396	14697
859.529	14590
859.662	14568
859.795	14484
859.928	14579
860.061	14644
860.194	14727
860.327	14636
860.46	14545
860.592	14674
860.725	14724
860.858	14765
860.99	14537
861.123	14545
861.256	14473
861.388	14716
861.521	15123
861.653	14465
861.786	14396
861.918	14495
862.05	14499
862.183	14579
862.315	14590
862.447	14648
862.58	14530
862.712	14328
862.844	14161
862.976	14393
863.108	14358
863.24	14804
863.372	14324
863.504	14347
863.636	14256
863.768	14393
863.9	14377
864.032	14206
864.164	14256
864.296	14389
864.428	14465
864.559	14381
864.691	14476
864.823	14412
864.954	14347
865.086	14343
865.217	14301
865.349	14263
865.48	14317
865.612	14294
865.743	14450
865.875	14381
866.006	14339
866.137	14339
866.269	14298
866.4	14244
866.531	14240
866.662	14168
866.793	14275
866.924	14244
867.055	14305
867.186	14263
867.317	14191
867.448	14202
867.579	14317
867.71	14176
867.841	14233
867.972	14298
868.103	14252
868.233	14282
868.364	14294
868.495	14400
868.625	14503
868.756	14594
868.886	14419
869.017	14522
869.147	14659
869.278	14724
869.408	14484
869.539	14541
869.669	14625
869.799	14549
869.929	14682
870.06	14686
870.19	14925
870.32	14838
870.45	14880
870.58	14883
870.71	15039
870.84	15028
870.97	14986
871.1	14941
871.23	15123
871.36	15104
871.489	15043
871.619	15108
871.749	15237
871.879	15161
872.008	15230
872.138	15245
872.267	15055
872.397	15070
872.526	14937
872.656	14910
872.785	14990
872.915	15180
873.044	15199
873.173	15055
873.303	15291
873.432	15252
873.561	15325
873.69	15165
873.819	15260
873.948	15188
874.077	15199
874.206	15211
874.335	15214
874.464	15370
874.593	15428
874.722	15386
874.851	15450
874.979	15606
875.108	15466
875.237	15428
875.365	15496
875.494	15511
875.623	15629
875.751	15435
875.88	15595
876.008	15804
876.136	15797
876.265	15918
876.393	16097
876.521	15941
876.65	15968
876.778	15994
876.906	15899
877.034	15755
877.162	15979
877.29	15918
877.418	16002
877.546	15873
877.674	16010
877.802	15949
877.93	16006
878.058	15880
878.185	15793
878.313	15949
878.441	15918
878.568	15690
878.696	15987
878.824	16055
878.951	16071
879.079	16048
879.206	16306
879.333	16074
879.461	15991
879.588	16105
879.715	16234
879.842	16234
879.97	16036
880.097	15827
880.224	15865
880.351	15846
880.478	15797
880.605	15770
880.732	15759
880.859	15937
880.986	15842
881.112	15831
881.239	15713
881.366	15591
881.493	15458
881.619	15416
881.746	15477
881.872	15469
881.999	15401
882.125	15389
882.252	15511
882.378	15496
882.505	15572
882.631	15420
882.757	15207
882.883	15325
883.01	15256
883.136	15260
883.262	15154
883.388	15123
883.514	15256
883.64	15287
883.766	15237
883.892	15214
884.018	15142
884.143	15344
884.269	15336
884.395	15005
884.52	14975
884.646	14990
884.772	14853
884.897	14819
885.023	14971
885.148	14971
885.274	15104
885.399	15047
885.524	14982
885.65	15036
885.775	15009
885.9	14944
886.025	15150
886.15	15108
886.275	14902
886.4	14899
886.525	14979
886.65	14937
886.775	14952
886.9	15020
887.025	15176
887.149	14967
887.274	14777
887.399	14754
887.523	14739
887.648	14651
887.773	14769
887.897	14956
888.021	14883
888.146	14792
888.27	14891
888.395	14906
888.519	14845
888.643	14807
888.767	14990
888.891	14724
889.015	14610
889.139	14655
889.263	14686
889.387	14727
889.511	14842
889.635	14845
889.759	14552
889.883	14590
890.006	14758
890.13	14663
890.254	14663
890.377	14560
890.501	14446
890.624	14393
890.748	14465
890.871	14362
890.995	14332
891.118	14244
891.241	14389
891.364	14396
891.488	14400
891.611	14328
891.734	14298
891.857	14385
891.98	14404
892.103	14484
892.226	14431
892.349	14237
892.471	14286
892.594	14278
892.717	14275
892.839	14305
892.962	14377
893.085	14358
893.207	14275
893.33	14206
893.452	14225
893.575	14423
893.697	14191
893.819	14469
893.941	14438
894.064	14503
894.186	14259
894.308	14294
894.43	14518
894.552	14514
894.674	14442
894.796	14294
894.918	14355
895.04	14374
895.161	14423
895.283	14522
895.405	14320
895.526	14366
895.648	14381
895.769	14476
895.891	14461
896.012	14465
896.134	14530
896.255	14457
896.376	14476
896.498	14457
896.619	14530
896.74	14465
896.861	14564
896.982	14861
897.103	15032
897.224	14842
897.345	14750
897.466	14606
897.587	14727
897.708	14849
897.828	14929
897.949	14712
898.07	14670
898.19	14750
898.311	14842
898.431	14800
898.552	14853
898.672	14842
898.792	14868
898.913	14842
899.033	14773
899.153	14746
899.273	14575
899.393	14568
899.513	14701
899.633	14689
899.753	14663
899.873	14674
899.993	14716
900.113	14678
900.232	14720
900.352	14667
900.472	14629
900.591	14598
900.711	14613
900.83	14560
900.95	14640
901.069	14617
901.189	14575
901.308	14229
901.427	14355
901.546	14275
901.665	14309
901.784	14244
901.904	14130
902.023	14016
902.141	13860
902.26	13780
902.379	13856
902.498	13830
902.617	13788
902.735	13807
902.854	13788
902.973	13788
903.091	13441
903.21	13575
903.328	13514
903.446	13430
903.565	13327
903.683	13495
903.801	13164
903.919	13339
904.038	13324
904.156	13164
904.274	13312
904.392	13160
904.51	13088
904.627	13164
904.745	13297
904.863	13316
904.981	12989
905.098	12905
905.216	12916
905.334	13034
905.451	12863
905.569	12798
905.686	12916
905.803	12802
905.921	12719
906.038	12852
906.155	12707
906.272	12601
906.389	12654
906.506	12490
906.623	12445
906.74	12403
906.857	12350
906.974	12338
907.091	12540
907.208	12593
907.324	12506
907.441	12391
907.557	12194
907.674	12194
907.79	12136
907.907	12254
908.023	12277
908.139	12228
908.256	12175
908.372	12102
908.488	12053
908.604	11965
908.72	11870
908.836	11965
908.952	11923
909.068	11992
909.184	12213
909.3	11954
909.415	11878
909.531	11923
909.647	11699
909.762	11615
909.878	11604
909.993	11767
910.108	11714
910.224	11646
910.339	11737
910.454	11596
910.57	11520
910.685	11482
910.8	11779
910.915	11676
911.03	11570
911.145	11318
911.259	11395
911.374	11398
911.489	11334
911.604	11280
911.718	11197
911.833	11170
911.947	11048
912.062	10961
912.176	11140
912.291	11231
912.405	11166
912.519	11341
912.633	11334
912.748	11181
912.862	11212
912.976	10968
913.09	10915
913.204	10961
913.318	11155
913.431	11170
913.545	11166
913.659	11102
913.772	11113
913.886	10908
914	10938
914.113	10980
914.226	11045
914.34	10984
914.453	10824
914.566	11025
914.68	10942
914.793	10877
914.906	10698
915.019	10664
915.132	10596
915.245	10637
915.358	10668
915.47	10607
915.583	10645
915.696	10763
915.809	10858
915.921	10812
916.034	10668
916.146	10618
916.259	10554
916.371	10767
916.483	10729
916.595	10596
916.708	10542
916.82	10565
916.932	10508
917.044	10580
917.156	10500
917.268	10447
917.38	10493
917.491	10470
917.603	10459
917.715	10565
917.826	10550
917.938	10451
918.049	10390
918.161	10558
918.272	10622
918.384	10558
918.495	10535
918.606	10409
918.717	10303
918.828	10367
918.939	10322
919.05	10314
919.161	10291
919.272	10162
919.383	10246
919.494	10402
919.604	10577
919.715	10356
919.826	10291
919.936	10284
920.047	10459
920.157	10451
920.267	10546
920.378	10413
920.488	10344
920.598	10535
920.708	10740
920.818	10546
920.928	10580
921.038	10733
921.148	10729
921.258	10363
921.368	10333
921.477	10242
921.587	10219
921.697	10162
921.806	10253
921.916	10116
922.025	9979
922.134	9934
922.244	9869
922.353	9987
922.462	9819
922.571	9762
922.68	9561
922.789	9591
922.898	9610
923.007	9561
923.116	9606
923.224	9644
923.333	9656
923.442	9458
923.55	9481
923.659	9431
923.767	9568
923.876	9523
923.984	9584
924.092	9485
924.201	9477
924.309	9469
924.417	9424
924.525	9481
924.633	9530
924.741	10348
924.849	9275
924.956	9397
925.064	9256
925.172	9161
925.279	9245
925.387	9298
925.494	9230
925.602	9359
925.709	9370
925.816	9199
925.924	9283
926.031	9348
926.138	9230
926.245	9279
926.352	9184
926.459	9321
926.566	9367
926.673	9218
926.779	9135
926.886	9062
926.993	9013
927.099	8960
927.206	8899
927.312	8899
927.419	8982
927.525	8933
927.631	8998
927.737	8872
927.843	8891
927.95	8754
928.056	8842
928.162	8876
928.267	8952
928.373	9500
928.479	8990
928.585	8682
928.69	8868
928.796	8941
928.901	8800
929.007	8663
929.112	8731
929.218	8693
929.323	8712
929.428	8632
929.533	8792
929.638	8629
929.743	8705
929.848	8678
929.953	8697
930.058	8716
930.163	8415
930.267	8514
930.372	8621
930.477	8415
930.581	8629
930.685	8560
930.79	8343
930.894	8408
930.998	8396
931.103	8602
931.207	8206
931.311	8138
931.415	8077
931.519	7917
931.623	7845
