Data from test_V78500241_2245.txt Node
Date: Fri Mar 25 14:49:20 CST 2022
User: usil
Spectrometer: V785-0024
Trigger mode: 0
Integration Time (sec): 4.000000E-1
Scans to average: 1
Nonlinearity correction enabled: false
Boxcar width: 0
Storing dark spectrum: false
XAxis mode: Wavelengths
Number of Pixels in Spectrum: 1024
>>>>>Begin Spectral Data<<<<<
801.071	22139
801.214	22109
801.356	21736
801.499	21698
801.641	21561
801.783	21458
801.926	21564
802.068	21405
802.211	21412
802.353	21317
802.496	21062
802.638	20990
802.78	20952
802.923	20883
803.065	20899
803.208	20842
803.35	20925
803.492	20994
803.635	21013
803.777	20838
803.919	20952
804.061	21199
804.204	20963
804.346	20773
804.488	20777
804.63	20849
804.773	20811
804.915	20769
805.057	20982
805.199	20762
805.341	20861
805.483	20986
805.626	20933
805.768	20743
805.91	20807
806.052	20815
806.194	20727
806.336	20842
806.478	20746
806.62	20689
806.762	20891
806.904	21043
807.046	21272
807.188	21135
807.33	21081
807.472	21176
807.614	21199
807.756	20975
807.898	21005
808.04	20842
808.182	20925
808.324	20906
808.465	20914
808.607	21180
808.749	21321
808.891	21287
809.033	21466
809.174	21275
809.316	21161
809.458	21230
809.6	20994
809.741	21146
809.883	21218
810.025	21386
810.166	21325
810.308	21355
810.45	21291
810.591	21241
810.733	20982
810.875	21047
811.016	20918
811.158	20891
811.299	20956
811.441	21146
811.582	21188
811.724	21032
811.865	20861
812.007	20887
812.148	20826
812.29	21051
812.431	21116
812.573	21306
812.714	21313
812.855	21469
812.997	21553
813.138	21656
813.279	21618
813.421	21538
813.562	21408
813.703	21199
813.845	21104
813.986	20830
814.127	20678
814.268	20598
814.41	20682
814.551	20393
814.692	20575
814.833	20358
814.974	20431
815.115	20522
815.256	20298
815.397	20282
815.539	20351
815.68	20282
815.821	20244
815.962	20324
816.103	20237
816.244	20039
816.385	20001
816.526	20027
816.666	19852
816.807	19704
816.948	19784
817.089	19898
817.23	19647
817.371	19658
817.512	19734
817.653	19693
817.793	19616
817.934	19681
818.075	19708
818.216	19761
818.356	19677
818.497	19426
818.638	19259
818.778	19251
818.919	19308
819.06	19373
819.2	19445
819.341	19533
819.481	19533
819.622	19632
819.762	19868
819.903	19799
820.043	19666
820.184	19594
820.324	19639
820.465	19723
820.605	19655
820.746	19548
820.886	19487
821.026	19704
821.167	19468
821.307	19582
821.447	19639
821.588	19392
821.728	19293
821.868	19225
822.008	19110
822.149	18973
822.289	19023
822.429	18783
822.569	18749
822.709	18833
822.849	18452
822.99	18429
823.13	18410
823.27	18429
823.41	18376
823.55	18395
823.69	18319
823.83	18372
823.97	18292
824.11	18064
824.25	18053
824.389	18182
824.529	18098
824.669	18095
824.809	18228
824.949	17992
825.089	18235
825.228	18076
825.368	17912
825.508	17874
825.648	17946
825.787	17912
825.927	17958
826.067	17737
826.206	17760
826.346	17916
826.485	17836
826.625	17764
826.765	17965
826.904	17699
827.044	17596
827.183	17649
827.323	17547
827.462	17585
827.601	17512
827.741	17360
827.88	17528
828.02	17376
828.159	17471
828.298	17520
828.437	17619
828.577	17570
828.716	17547
828.855	17440
828.994	17391
829.134	17292
829.273	17284
829.412	17200
829.551	17250
829.69	17258
829.829	17254
829.968	17292
830.107	17242
830.246	17277
830.385	17231
830.524	17204
830.663	17041
830.802	17052
830.941	16908
831.08	16923
831.219	17025
831.357	16957
831.496	16999
831.635	16831
831.774	16790
831.913	16774
832.051	16687
832.19	16626
832.329	16694
832.467	16542
832.606	16493
832.744	16588
832.883	16611
833.022	16531
833.16	16637
833.299	16577
833.437	16675
833.576	16580
833.714	16588
833.852	16611
833.991	16607
834.129	16660
834.267	16683
834.406	16531
834.544	16641
834.682	16759
834.821	16683
834.959	16721
835.097	16493
835.235	16687
835.373	16736
835.511	16656
835.65	16504
835.788	16546
835.926	16436
836.064	16329
836.202	16394
836.34	16599
836.478	16611
836.615	16500
836.753	16550
836.891	16603
837.029	16542
837.167	16516
837.305	16375
837.443	16405
837.58	16337
837.718	16573
837.856	16481
837.993	16344
838.131	16390
838.269	16314
838.406	16196
838.544	16219
838.681	16059
838.819	16090
838.956	15987
839.094	15941
839.231	15945
839.369	16074
839.506	16417
839.643	16143
839.781	16044
839.918	15850
840.055	15918
840.193	15937
840.33	15964
840.467	15979
840.604	15994
840.742	16169
840.879	15739
841.016	15793
841.153	15759
841.29	16029
841.427	15964
841.564	15968
841.701	15915
841.838	15842
841.975	15819
842.112	15800
842.249	15797
842.385	15614
842.522	15899
842.659	15717
842.796	15690
842.933	15755
843.069	15629
843.206	15667
843.343	15739
843.479	15747
843.616	15789
843.752	15511
843.889	15469
844.025	15633
844.162	15401
844.298	15618
844.435	15561
844.571	15389
844.708	15610
844.844	15595
844.98	15572
845.117	15671
845.253	15492
845.389	15405
845.525	15256
845.661	15420
845.798	15310
845.934	15348
846.07	15226
846.206	15325
846.342	15363
846.478	15207
846.614	15195
846.75	15081
846.886	15009
847.022	15211
847.158	15009
847.294	15089
847.429	15119
847.565	15020
847.701	15344
847.837	14834
847.972	14743
848.108	14838
848.244	14868
848.379	14655
848.515	14724
848.65	14613
848.786	14678
848.921	14663
849.057	14765
849.192	14765
849.328	14716
849.463	14705
849.598	14769
849.734	14545
849.869	14442
850.004	14469
850.14	14503
850.275	14438
850.41	14366
850.545	14423
850.68	14434
850.815	14469
850.95	14484
851.085	14674
851.22	14351
851.355	14446
851.49	14339
851.625	14408
851.76	14457
851.895	14400
852.03	14282
852.165	14336
852.299	14381
852.434	14522
852.569	14571
852.703	14560
852.838	14545
852.973	14518
853.107	14545
853.242	14389
853.376	14358
853.511	14202
853.645	14313
853.78	14351
853.914	14267
854.048	14237
854.183	14282
854.317	14393
854.451	14396
854.585	14225
854.72	14221
854.854	14400
854.988	14218
855.122	14267
855.256	14043
855.39	14336
855.524	14400
855.658	14286
855.792	14347
855.926	14324
856.06	14377
856.194	14343
856.327	14351
856.461	14434
856.595	14145
856.729	14324
856.862	14362
856.996	14332
857.13	14408
857.263	14412
857.397	14351
857.53	14244
857.664	14339
857.797	14427
857.931	14503
858.064	14252
858.197	14366
858.331	14336
858.464	14256
858.597	14218
858.731	14229
858.864	14286
858.997	14180
859.13	14320
859.263	14355
859.396	14298
859.529	14214
859.662	14332
859.795	14218
859.928	14355
860.061	14473
860.194	14495
860.327	14347
860.46	14290
860.592	14526
860.725	14431
860.858	14423
860.99	14347
861.123	14240
861.256	14278
861.388	14339
861.521	15001
861.653	14168
861.786	14069
861.918	14191
862.05	14180
862.183	14263
862.315	14305
862.447	14423
862.58	14336
862.712	14119
862.844	13974
862.976	14199
863.108	14218
863.24	14503
863.372	14062
863.504	14096
863.636	14065
863.768	14168
863.9	14164
864.032	13986
864.164	14020
864.296	14046
864.428	14187
864.559	14237
864.691	14145
864.823	14088
864.954	14050
865.086	14107
865.217	14100
865.349	14031
865.48	14046
865.612	13982
865.743	14240
865.875	14088
866.006	14024
866.137	14119
866.269	14054
866.4	14077
866.531	14035
866.662	13932
866.793	14039
866.924	14031
867.055	14035
867.186	13967
867.317	14020
867.448	14016
867.579	13959
867.71	14001
867.841	13936
867.972	14058
868.103	14043
868.233	14081
868.364	14031
868.495	14077
868.625	14225
868.756	14412
868.886	14210
869.017	14294
869.147	14355
869.278	14431
869.408	14267
869.539	14278
869.669	14457
869.799	14271
869.929	14457
870.06	14374
870.19	14636
870.32	14560
870.45	14640
870.58	14689
870.71	14811
870.84	14773
870.97	14701
871.1	14727
871.23	14887
871.36	14880
871.489	14807
871.619	14921
871.749	14899
871.879	14883
872.008	15055
872.138	14941
872.267	14834
872.397	14743
872.526	14720
872.656	14743
872.785	14743
872.915	14876
873.044	15032
873.173	14861
873.303	15047
873.432	15017
873.561	15043
873.69	14982
873.819	14944
873.948	15150
874.077	14937
874.206	14982
874.335	15020
874.464	15199
874.593	15275
874.722	15211
874.851	15306
874.979	15298
875.108	15241
875.237	15142
875.365	15230
875.494	15272
875.623	15386
875.751	15256
875.88	15226
876.008	15374
876.136	15469
876.265	15770
876.393	15895
876.521	15766
876.65	15732
876.778	15648
876.906	15656
877.034	15606
877.162	15705
877.29	15614
877.418	15652
877.546	15717
877.674	15648
877.802	15648
877.93	15614
878.058	15591
878.185	15686
878.313	15679
878.441	15675
878.568	15462
878.696	15812
878.824	15679
878.951	15705
879.079	15918
879.206	16063
879.333	15892
879.461	15778
879.588	15819
879.715	15888
879.842	15945
879.97	15663
880.097	15591
880.224	15515
880.351	15492
880.478	15599
880.605	15454
880.732	15557
880.859	15835
880.986	15614
881.112	15625
881.239	15443
881.366	15310
881.493	15256
881.619	15180
881.746	15241
881.872	15237
881.999	15165
882.125	15097
882.252	15291
882.378	15283
882.505	15298
882.631	15165
882.757	15028
882.883	15032
883.01	14998
883.136	14906
883.262	14918
883.388	14906
883.514	14933
883.64	15055
883.766	14982
883.892	14804
884.018	14891
884.143	15039
884.269	15108
884.395	14769
884.52	14754
884.646	14701
884.772	14750
884.897	14682
885.023	14712
885.148	14788
885.274	14883
885.399	14781
885.524	14739
885.65	14648
885.775	14830
885.9	14697
886.025	14762
886.15	14769
886.275	14682
886.4	14594
886.525	14571
886.65	14587
886.775	14526
886.9	14796
887.025	14842
887.149	14689
887.274	14579
887.399	14537
887.523	14526
887.648	14446
887.773	14499
887.897	14537
888.021	14564
888.146	14465
888.27	14545
888.395	14625
888.519	14514
888.643	14583
888.767	14533
888.891	14511
889.015	14446
889.139	14415
889.263	14309
889.387	14522
889.511	14655
889.635	14442
889.759	14339
889.883	14358
890.006	14446
890.13	14438
890.254	14309
890.377	14248
890.501	14107
890.624	14176
890.748	14385
890.871	14119
890.995	14008
891.118	13963
891.241	14145
891.364	14008
891.488	14221
891.611	14145
891.734	14191
891.857	14168
891.98	14130
892.103	14237
892.226	14157
892.349	14088
892.471	14062
892.594	13997
892.717	14153
892.839	14130
892.962	14149
893.085	14172
893.207	14145
893.33	13932
893.452	14069
893.575	14103
893.697	14073
893.819	14290
893.941	14248
894.064	14218
894.186	14107
894.308	14065
894.43	14259
894.552	14263
894.674	14195
894.796	14084
894.918	14107
895.04	14107
895.161	14244
895.283	14161
895.405	14157
895.526	14157
895.648	14199
895.769	14328
895.891	14271
896.012	14396
896.134	14267
896.255	14317
896.376	14271
896.498	14210
896.619	14393
896.74	14244
896.861	14385
896.982	14518
897.103	14811
897.224	14606
897.345	14492
897.466	14393
897.587	14560
897.708	14682
897.828	14682
897.949	14480
898.07	14351
898.19	14537
898.311	14708
898.431	14655
898.552	14632
898.672	14632
898.792	14724
898.913	14674
899.033	14644
899.153	14522
899.273	14366
899.393	14461
899.513	14454
899.633	14579
899.753	14488
899.873	14343
899.993	14549
900.113	14530
900.232	14549
900.352	14419
900.472	14404
900.591	14301
900.711	14358
900.83	14282
900.95	14446
901.069	14389
901.189	14313
901.308	14107
901.427	14043
901.546	14008
901.665	14031
901.784	14050
901.904	13982
902.023	13830
902.141	13731
902.26	13582
902.379	13616
902.498	13586
902.617	13567
902.735	13666
902.854	13597
902.973	13563
903.091	13438
903.21	13327
903.328	13289
903.446	13297
903.565	13183
903.683	13202
903.801	13225
903.919	13122
904.038	13152
904.156	12989
904.274	13031
904.392	12977
904.51	13012
904.627	12989
904.745	12935
904.863	13141
904.981	12787
905.098	12662
905.216	12688
905.334	12703
905.451	12662
905.569	12620
905.686	12620
905.803	12665
905.921	12521
906.038	12574
906.155	12589
906.272	12342
906.389	12456
906.506	12308
906.623	12243
906.74	12228
906.857	12186
906.974	12201
907.091	12346
907.208	12346
907.324	12292
907.441	12159
907.557	12053
907.674	12045
907.79	11965
907.907	11961
908.023	12026
908.139	11942
908.256	11965
908.372	11908
908.488	11927
908.604	11786
908.72	11851
908.836	11764
908.952	11642
909.068	11729
909.184	11908
909.3	11756
909.415	11783
909.531	11737
909.647	11493
909.762	11562
909.878	11524
909.993	11585
910.108	11448
910.224	11467
910.339	11493
910.454	11417
910.57	11376
910.685	11216
910.8	11688
910.915	11558
911.03	11444
911.145	11227
911.259	11189
911.374	11239
911.489	11083
911.604	11113
911.718	11033
911.833	10972
911.947	10839
912.062	10885
912.176	10938
912.291	10965
912.405	11033
912.519	11189
912.633	11166
912.748	11090
912.862	11003
912.976	10839
913.09	10793
913.204	10801
913.318	10869
913.431	10877
913.545	10984
913.659	10987
913.772	10847
913.886	10763
914	10698
914.113	10831
914.226	10915
914.34	10782
914.453	10691
914.566	10801
914.68	10790
914.793	10683
914.906	10428
915.019	10500
915.132	10440
915.245	10531
915.358	10470
915.47	10455
915.583	10588
915.696	10500
915.809	10592
915.921	10656
916.034	10455
916.146	10436
916.259	10470
916.371	10565
916.483	10565
916.595	10360
916.708	10451
916.82	10409
916.932	10428
917.044	10440
917.156	10443
917.268	10303
917.38	10379
917.491	10272
917.603	10405
917.715	10432
917.826	10493
917.938	10363
918.049	10131
918.161	10341
918.272	10375
918.384	10443
918.495	10371
918.606	10211
918.717	10116
918.828	10192
918.939	10223
919.05	10124
919.161	10143
919.272	10010
919.383	10059
919.494	10287
919.604	10371
919.715	10207
919.826	10166
919.936	10177
920.047	10276
920.157	10261
920.267	10402
920.378	10238
920.488	10192
920.598	10428
920.708	10527
920.818	10436
920.928	10382
921.038	10637
921.148	10565
921.258	10314
921.368	10188
921.477	10078
921.587	10071
921.697	9991
921.806	10116
921.916	9964
922.025	9800
922.134	9793
922.244	9709
922.353	9800
922.462	9667
922.571	9545
922.68	9481
922.789	9507
922.898	9469
923.007	9416
923.116	9473
923.224	9443
923.333	9454
923.442	9378
923.55	9355
923.659	9447
923.767	9458
923.876	9249
923.984	9424
924.092	9272
924.201	9344
924.309	9306
924.417	9374
924.525	9287
924.633	9275
924.741	10173
924.849	9028
924.956	9344
925.064	9131
925.172	9024
925.279	9138
925.387	9089
925.494	9123
925.602	9275
925.709	9237
925.816	9070
925.924	9108
926.031	9199
926.138	9173
926.245	9184
926.352	9074
926.459	9142
926.566	9188
926.673	9135
926.779	9028
926.886	9013
926.993	8819
927.099	8826
927.206	8823
927.312	8842
927.419	8956
927.525	8880
927.631	8914
927.737	8701
927.843	8727
927.95	8594
928.056	8750
928.162	8781
928.267	8777
928.373	9306
928.479	8788
928.585	8625
928.69	8697
928.796	8716
928.901	8663
929.007	8549
929.112	8651
929.218	8583
929.323	8511
929.428	8552
929.533	8689
929.638	8492
929.743	8457
929.848	8636
929.953	8579
930.058	8427
930.163	8290
930.267	8347
930.372	8415
930.477	8301
930.581	8495
930.685	8454
930.79	8263
930.894	8298
930.998	8233
931.103	8381
931.207	8035
931.311	8088
931.415	7936
931.519	7803
931.623	7841
