Data from test_V78500241_2051.txt Node
Date: Fri Mar 25 14:47:59 CST 2022
User: usil
Spectrometer: V785-0024
Trigger mode: 0
Integration Time (sec): 4.000000E-1
Scans to average: 1
Nonlinearity correction enabled: false
Boxcar width: 0
Storing dark spectrum: false
XAxis mode: Wavelengths
Number of Pixels in Spectrum: 1024
>>>>>Begin Spectral Data<<<<<
801.071	22025
801.214	21899
801.356	21701
801.499	21614
801.641	21561
801.783	21412
801.926	21583
802.068	21488
802.211	21321
802.353	21214
802.496	21066
802.638	21017
802.78	20899
802.923	20891
803.065	20773
803.208	20720
803.35	20765
803.492	20933
803.635	20956
803.777	20758
803.919	20914
804.061	21165
804.204	20872
804.346	20781
804.488	20716
804.63	20765
804.773	20724
804.915	20720
805.057	20823
805.199	20724
805.341	20724
805.483	20857
805.626	20902
805.768	20705
805.91	20686
806.052	20785
806.194	20705
806.336	20804
806.478	20823
806.62	20765
806.762	20674
806.904	20925
807.046	21108
807.188	21127
807.33	21001
807.472	21116
807.614	20982
807.756	20956
807.898	20804
808.04	20670
808.182	20925
808.324	20727
808.465	20883
808.607	21108
808.749	21070
808.891	21093
809.033	21252
809.174	21127
809.316	21074
809.458	21089
809.6	20963
809.741	21142
809.883	21195
810.025	21348
810.166	21264
810.308	21260
810.45	21112
810.591	21157
810.733	21028
810.875	20883
811.016	20739
811.158	20758
811.299	20830
811.441	21074
811.582	20929
811.724	20868
811.865	20830
812.007	20815
812.148	20735
812.29	20838
812.431	21108
812.573	21218
812.714	21161
812.855	21374
812.997	21481
813.138	21542
813.279	21504
813.421	21412
813.562	21367
813.703	21100
813.845	20868
813.986	20712
814.127	20644
814.268	20541
814.41	20560
814.551	20442
814.692	20518
814.833	20221
814.974	20332
815.115	20408
815.256	20252
815.397	20240
815.539	20248
815.68	20218
815.821	20046
815.962	20153
816.103	20062
816.244	19909
816.385	19864
816.526	19936
816.666	19681
816.807	19677
816.948	19651
817.089	19712
817.23	19655
817.371	19575
817.512	19552
817.653	19632
817.793	19422
817.934	19521
818.075	19586
818.216	19605
818.356	19582
818.497	19274
818.638	19350
818.778	19312
818.919	19152
819.06	19289
819.2	19350
819.341	19403
819.481	19464
819.622	19708
819.762	19769
819.903	19658
820.043	19658
820.184	19529
820.324	19468
820.465	19559
820.605	19548
820.746	19537
820.886	19422
821.026	19502
821.167	19403
821.307	19563
821.447	19464
821.588	19407
821.728	19190
821.868	19183
822.008	18882
822.149	18951
822.289	18977
822.429	18669
822.569	18620
822.709	18620
822.849	18429
822.99	18414
823.13	18410
823.27	18395
823.41	18353
823.55	18262
823.69	18342
823.83	18247
823.97	18224
824.11	17969
824.25	17984
824.389	17912
824.529	18019
824.669	17958
824.809	18121
824.949	17988
825.089	17980
825.228	17992
825.368	17824
825.508	17882
825.648	17878
825.787	17809
825.927	17904
826.067	17813
826.206	17836
826.346	17760
826.485	17832
826.625	17718
826.765	17931
826.904	17855
827.044	17543
827.183	17532
827.323	17581
827.462	17543
827.601	17501
827.741	17417
827.88	17490
828.02	17463
828.159	17444
828.298	17501
828.437	17589
828.577	17417
828.716	17665
828.855	17391
828.994	17303
829.134	17208
829.273	17280
829.412	17174
829.551	17246
829.69	17242
829.829	17223
829.968	17387
830.107	17254
830.246	17197
830.385	17143
830.524	17071
830.663	17064
830.802	16987
830.941	16831
831.08	16930
831.219	16831
831.357	16904
831.496	17014
831.635	16801
831.774	16710
831.913	16885
832.051	16645
832.19	16607
832.329	16847
832.467	16656
832.606	16493
832.744	16550
832.883	16500
833.022	16592
833.16	16653
833.299	16546
833.437	16615
833.576	16683
833.714	16584
833.852	16584
833.991	16634
834.129	16649
834.267	16687
834.406	16577
834.544	16634
834.682	16622
834.821	16641
834.959	16740
835.097	16573
835.235	16645
835.373	16653
835.511	16519
835.65	16478
835.788	16497
835.926	16295
836.064	16284
836.202	16337
836.34	16508
836.478	16577
836.615	16558
836.753	16531
836.891	16542
837.029	16542
837.167	16481
837.305	16421
837.443	16413
837.58	16394
837.718	16402
837.856	16356
837.993	16424
838.131	16504
838.269	16352
838.406	16192
838.544	16333
838.681	16017
838.819	15991
838.956	15888
839.094	15968
839.231	15949
839.369	15994
839.506	16284
839.643	16177
839.781	15979
839.918	15854
840.055	16029
840.193	15987
840.33	16010
840.467	15983
840.604	16013
840.742	16112
840.879	15861
841.016	15812
841.153	15918
841.29	16067
841.427	15941
841.564	15926
841.701	15876
841.838	15926
841.975	15831
842.112	15842
842.249	15808
842.385	15743
842.522	15918
842.659	15751
842.796	15580
842.933	15701
843.069	15690
843.206	15656
843.343	15736
843.479	15701
843.616	15717
843.752	15466
843.889	15534
844.025	15622
844.162	15549
844.298	15633
844.435	15473
844.571	15572
844.708	15580
844.844	15614
844.98	15629
845.117	15648
845.253	15473
845.389	15401
845.525	15443
845.661	15351
845.798	15173
845.934	15317
846.07	15348
846.206	15450
846.342	15458
846.478	15306
846.614	15173
846.75	15051
846.886	15051
847.022	15146
847.158	14994
847.294	15108
847.429	15108
847.565	15047
847.701	15397
847.837	14864
847.972	14758
848.108	14876
848.244	14891
848.379	14697
848.515	14701
848.65	14659
848.786	14701
848.921	14689
849.057	14743
849.192	14773
849.328	14682
849.463	14708
849.598	14697
849.734	14507
849.869	14488
850.004	14621
850.14	14431
850.275	14476
850.41	14461
850.545	14438
850.68	14465
850.815	14423
850.95	14408
851.085	14636
851.22	14541
851.355	14537
851.49	14427
851.625	14275
851.76	14328
851.895	14301
852.03	14370
852.165	14393
852.299	14454
852.434	14427
852.569	14564
852.703	14503
852.838	14518
852.973	14560
853.107	14571
853.242	14484
853.376	14400
853.511	14259
853.645	14214
853.78	14526
853.914	14301
854.048	14286
854.183	14366
854.317	14427
854.451	14480
854.585	14294
854.72	14400
854.854	14457
854.988	14271
855.122	14328
855.256	14168
855.39	14294
855.524	14336
855.658	14507
855.792	14404
855.926	14438
856.06	14336
856.194	14469
856.327	14396
856.461	14393
856.595	14218
856.729	14339
856.862	14419
856.996	14389
857.13	14484
857.263	14461
857.397	14560
857.53	14332
857.664	14476
857.797	14488
857.931	14549
858.064	14511
858.197	14473
858.331	14412
858.464	14351
858.597	14259
858.731	14332
858.864	14309
858.997	14256
859.13	14362
859.263	14377
859.396	14377
859.529	14320
859.662	14400
859.795	14282
859.928	14396
860.061	14514
860.194	14617
860.327	14461
860.46	14362
860.592	14476
860.725	14404
860.858	14454
860.99	14278
861.123	14332
861.256	14278
861.388	14362
861.521	15108
861.653	14271
861.786	14153
861.918	14275
862.05	14294
862.183	14332
862.315	14320
862.447	14309
862.58	14301
862.712	14084
862.844	14054
862.976	14126
863.108	14126
863.24	14469
863.372	14008
863.504	14111
863.636	14107
863.768	14115
863.9	14096
864.032	14012
864.164	14077
864.296	14138
864.428	14218
864.559	14214
864.691	14221
864.823	14199
864.954	14248
865.086	14195
865.217	14031
865.349	14050
865.48	14065
865.612	14115
865.743	14237
865.875	14187
866.006	14065
866.137	14145
866.269	14130
866.4	14054
866.531	14069
866.662	13917
866.793	14043
866.924	14039
867.055	14096
867.186	14123
867.317	14138
867.448	14001
867.579	14103
867.71	14001
867.841	13925
867.972	14092
868.103	14100
868.233	14058
868.364	14111
868.495	14210
868.625	14320
868.756	14450
868.886	14267
869.017	14313
869.147	14438
869.278	14393
869.408	14438
869.539	14339
869.669	14507
869.799	14488
869.929	14473
870.06	14450
870.19	14731
870.32	14583
870.45	14701
870.58	14800
870.71	14796
870.84	14914
870.97	14670
871.1	14750
871.23	14960
871.36	15028
871.489	14872
871.619	14948
871.749	14929
871.879	14952
872.008	15116
872.138	15009
872.267	14941
872.397	14765
872.526	14674
872.656	14792
872.785	14872
872.915	14960
873.044	15093
873.173	15032
873.303	15009
873.432	15119
873.561	14967
873.69	15043
873.819	15062
873.948	15093
874.077	15043
874.206	15097
874.335	15112
874.464	15154
874.593	15279
874.722	15214
874.851	15230
874.979	15287
875.108	15389
875.237	15272
875.365	15268
875.494	15226
875.623	15336
875.751	15359
875.88	15302
876.008	15485
876.136	15549
876.265	15747
876.393	15808
876.521	15854
876.65	15774
876.778	15895
876.906	15698
877.034	15663
877.162	15724
877.29	15660
877.418	15694
877.546	15812
877.674	15644
877.802	15762
877.93	15648
878.058	15804
878.185	15644
878.313	15717
878.441	15717
878.568	15545
878.696	15720
878.824	15705
878.951	15751
879.079	15941
879.206	16112
879.333	16032
879.461	15850
879.588	15884
879.715	15987
879.842	15998
879.97	15918
880.097	15557
880.224	15641
880.351	15599
880.478	15614
880.605	15553
880.732	15606
880.859	15816
880.986	15610
881.112	15644
881.239	15549
881.366	15393
881.493	15230
881.619	15161
881.746	15332
881.872	15214
881.999	15169
882.125	15207
882.252	15351
882.378	15344
882.505	15359
882.631	15157
882.757	15104
882.883	15058
883.01	15112
883.136	15055
883.262	14960
883.388	14921
883.514	15157
883.64	15013
883.766	15036
883.892	14918
884.018	14872
884.143	14925
884.269	15123
884.395	14785
884.52	14689
884.646	14705
884.772	14701
884.897	14655
885.023	14788
885.148	14849
885.274	14925
885.399	14807
885.524	14811
885.65	14762
885.775	14693
885.9	14655
886.025	14918
886.15	14918
886.275	14739
886.4	14682
886.525	14727
886.65	14678
886.775	14712
886.9	14891
887.025	14971
887.149	14735
887.274	14606
887.399	14606
887.523	14518
887.648	14522
887.773	14526
887.897	14659
888.021	14632
888.146	14522
888.27	14670
888.395	14651
888.519	14682
888.643	14682
888.767	14621
888.891	14552
889.015	14457
889.139	14438
889.263	14450
889.387	14621
889.511	14712
889.635	14640
889.759	14358
889.883	14404
890.006	14450
890.13	14644
890.254	14366
890.377	14366
890.501	14336
890.624	14164
890.748	14385
890.871	14214
890.995	14050
891.118	13986
891.241	14050
891.364	14294
891.488	14278
891.611	14168
891.734	14164
891.857	14221
891.98	14244
892.103	14259
892.226	14157
892.349	14088
892.471	14016
892.594	14157
892.717	14244
892.839	14142
892.962	14225
893.085	14240
893.207	14229
893.33	14039
893.452	14008
893.575	14229
893.697	14115
893.819	14328
893.941	14332
894.064	14355
894.186	14145
894.308	14221
894.43	14324
894.552	14305
894.674	14244
894.796	14111
894.918	14180
895.04	14218
895.161	14256
895.283	14267
895.405	14252
895.526	14199
895.648	14328
895.769	14278
895.891	14336
896.012	14400
896.134	14309
896.255	14393
896.376	14275
896.498	14320
896.619	14301
896.74	14290
896.861	14324
896.982	14674
897.103	14861
897.224	14629
897.345	14621
897.466	14514
897.587	14541
897.708	14697
897.828	14629
897.949	14514
898.07	14434
898.19	14533
898.311	14727
898.431	14640
898.552	14621
898.672	14689
898.792	14765
898.913	14701
899.033	14514
899.153	14549
899.273	14419
899.393	14511
899.513	14526
899.633	14587
899.753	14564
899.873	14438
899.993	14606
900.113	14590
900.232	14530
900.352	14473
900.472	14263
900.591	14347
900.711	14320
900.83	14328
900.95	14450
901.069	14503
901.189	14309
901.308	14187
901.427	14031
901.546	14016
901.665	13970
901.784	14050
901.904	13997
902.023	13902
902.141	13772
902.26	13609
902.379	13719
902.498	13620
902.617	13586
902.735	13571
902.854	13628
902.973	13445
903.091	13266
903.21	13358
903.328	13388
903.446	13354
903.565	13240
903.683	13221
903.801	13065
903.919	13282
904.038	13122
904.156	12962
904.274	13099
904.392	13008
904.51	12981
904.627	12985
904.745	13099
904.863	13015
904.981	12772
905.098	12745
905.216	12688
905.334	12707
905.451	12745
905.569	12673
905.686	12722
905.803	12646
905.921	12593
906.038	12688
906.155	12589
906.272	12410
906.389	12441
906.506	12338
906.623	12323
906.74	12224
906.857	12175
906.974	12190
907.091	12266
907.208	12460
907.324	12247
907.441	12247
907.557	11973
907.674	12049
907.79	11954
907.907	12003
908.023	11992
908.139	12060
908.256	12030
908.372	11973
908.488	11954
908.604	11843
908.72	11779
908.836	11847
908.952	11783
909.068	11973
909.184	11866
909.3	11897
909.415	11798
909.531	11893
909.647	11646
909.762	11592
909.878	11608
909.993	11638
910.108	11604
910.224	11505
910.339	11596
910.454	11505
910.57	11459
910.685	11307
910.8	11566
910.915	11577
911.03	11364
911.145	11284
911.259	11239
911.374	11239
911.489	11231
911.604	11102
911.718	11048
911.833	11033
911.947	10915
912.062	10839
912.176	11048
912.291	11022
912.405	10995
912.519	11185
912.633	11242
912.748	11079
912.862	10976
912.976	10892
913.09	10736
913.204	10881
913.318	10854
913.431	11064
913.545	10919
913.659	11003
913.772	10904
913.886	10839
914	10839
914.113	10835
914.226	10908
914.34	10862
914.453	10698
914.566	10805
914.68	10698
914.793	10729
914.906	10596
915.019	10493
915.132	10481
915.245	10512
915.358	10451
915.47	10535
915.583	10535
915.696	10508
915.809	10603
915.921	10694
916.034	10493
916.146	10481
916.259	10485
916.371	10546
916.483	10485
916.595	10421
916.708	10447
916.82	10394
916.932	10455
917.044	10417
917.156	10379
917.268	10299
917.38	10398
917.491	10348
917.603	10379
917.715	10440
917.826	10485
917.938	10337
918.049	10207
918.161	10382
918.272	10508
918.384	10500
918.495	10382
918.606	10242
918.717	10219
918.828	10322
918.939	10329
919.05	10185
919.161	10150
919.272	10078
919.383	10086
919.494	10310
919.604	10402
919.715	10268
919.826	10246
919.936	10200
920.047	10314
920.157	10257
920.267	10455
920.378	10322
920.488	10280
920.598	10500
920.708	10649
920.818	10481
920.928	10523
921.038	10596
921.148	10603
921.258	10314
921.368	10234
921.477	10131
921.587	10067
921.697	9991
921.806	10147
921.916	10032
922.025	9895
922.134	9842
922.244	9800
922.353	9835
922.462	9755
922.571	9701
922.68	9538
922.789	9469
922.898	9473
923.007	9564
923.116	9595
923.224	9496
923.333	9447
923.442	9389
923.55	9443
923.659	9412
923.767	9526
923.876	9428
923.984	9466
924.092	9329
924.201	9389
924.309	9378
924.417	9435
924.525	9386
924.633	9272
924.741	10276
924.849	9203
924.956	9321
925.064	9184
925.172	9154
925.279	9150
925.387	9211
925.494	9226
925.602	9302
925.709	9264
925.816	9077
925.924	9184
926.031	9241
926.138	9306
926.245	9275
926.352	9066
926.459	9294
926.566	9332
926.673	9157
926.779	9020
926.886	9089
926.993	9005
927.099	8929
927.206	8899
927.312	8895
927.419	8910
927.525	8880
927.631	8918
927.737	8804
927.843	8769
927.95	8617
928.056	8731
928.162	8800
928.267	8826
928.373	9469
928.479	8815
928.585	8610
928.69	8826
928.796	8861
928.901	8621
929.007	8568
929.112	8762
929.218	8731
929.323	8610
929.428	8594
929.533	8754
929.638	8545
929.743	8625
929.848	8632
929.953	8636
930.058	8530
930.163	8343
930.267	8374
930.372	8480
930.477	8324
930.581	8568
930.685	8469
930.79	8317
930.894	8431
930.998	8347
931.103	8438
931.207	8164
931.311	8027
931.415	8001
931.519	7792
931.623	7875
