Data from test_V78500241_2718.txt Node
Date: Fri Mar 25 14:52:38 CST 2022
User: usil
Spectrometer: V785-0024
Trigger mode: 0
Integration Time (sec): 4.000000E-1
Scans to average: 1
Nonlinearity correction enabled: false
Boxcar width: 0
Storing dark spectrum: false
XAxis mode: Wavelengths
Number of Pixels in Spectrum: 1024
>>>>>Begin Spectral Data<<<<<
801.071	22070
801.214	21880
801.356	21679
801.499	21549
801.641	21526
801.783	21378
801.926	21447
802.068	21389
802.211	21268
802.353	21112
802.496	20944
802.638	20883
802.78	20785
802.923	20838
803.065	20613
803.208	20746
803.35	20758
803.492	20849
803.635	20823
803.777	20564
803.919	20746
804.061	21081
804.204	20750
804.346	20590
804.488	20495
804.63	20609
804.773	20556
804.915	20571
805.057	20750
805.199	20552
805.341	20689
805.483	20598
805.626	20606
805.768	20461
805.91	20655
806.052	20613
806.194	20484
806.336	20765
806.478	20636
806.62	20526
806.762	20651
806.904	20819
807.046	21005
807.188	20963
807.33	20944
807.472	21043
807.614	20830
807.756	20933
807.898	20727
808.04	20693
808.182	20613
808.324	20625
808.465	20663
808.607	20937
808.749	21081
808.891	21119
809.033	21104
809.174	21028
809.316	20914
809.458	20982
809.6	20944
809.741	21058
809.883	20944
810.025	21138
810.166	21184
810.308	21184
810.45	20971
810.591	20986
810.733	20823
810.875	20731
811.016	20743
811.158	20613
811.299	20785
811.441	20895
811.582	20785
811.724	20644
811.865	20735
812.007	20716
812.148	20640
812.29	20765
812.431	20883
812.573	21051
812.714	21131
812.855	21203
812.997	21294
813.138	21507
813.279	21283
813.421	21393
813.562	21165
813.703	20956
813.845	20788
813.986	20492
814.127	20404
814.268	20263
814.41	20488
814.551	20309
814.692	20298
814.833	20157
814.974	20183
815.115	20320
815.256	20183
815.397	20172
815.539	20187
815.68	20062
815.821	19982
815.962	20043
816.103	19947
816.244	19864
816.385	19818
816.526	19681
816.666	19491
816.807	19476
816.948	19464
817.089	19594
817.23	19335
817.371	19487
817.512	19411
817.653	19506
817.793	19324
817.934	19346
818.075	19457
818.216	19483
818.356	19445
818.497	19213
818.638	19038
818.778	19160
818.919	19137
819.06	19187
819.2	19384
819.341	19308
819.481	19339
819.622	19556
819.762	19586
819.903	19563
820.043	19502
820.184	19400
820.324	19487
820.465	19483
820.605	19441
820.746	19499
820.886	19244
821.026	19308
821.167	19415
821.307	19358
821.447	19244
821.588	19225
821.728	19194
821.868	18954
822.008	18753
822.149	18890
822.289	18734
822.429	18506
822.569	18395
822.709	18589
822.849	18334
822.99	18289
823.13	18254
823.27	18201
823.41	18015
823.55	18110
823.69	18159
823.83	18144
823.97	18060
824.11	17939
824.25	17794
824.389	17863
824.529	17973
824.669	17996
824.809	18038
824.949	17923
825.089	17870
825.228	17878
825.368	17703
825.508	17733
825.648	17684
825.787	17756
825.927	17722
826.067	17524
826.206	17646
826.346	17748
826.485	17672
826.625	17630
826.765	17802
826.904	17748
827.044	17493
827.183	17486
827.323	17208
827.462	17379
827.601	17417
827.741	17334
827.88	17395
828.02	17258
828.159	17383
828.298	17307
828.437	17486
828.577	17318
828.716	17429
828.855	17273
828.994	17136
829.134	17071
829.273	17064
829.412	16919
829.551	17052
829.69	17102
829.829	17083
829.968	17220
830.107	17174
830.246	17064
830.385	17136
830.524	17094
830.663	16911
830.802	16877
830.941	16710
831.08	16694
831.219	16805
831.357	16847
831.496	17029
831.635	16767
831.774	16691
831.913	16717
832.051	16596
832.19	16489
832.329	16596
832.467	16341
832.606	16386
832.744	16455
832.883	16538
833.022	16459
833.16	16451
833.299	16413
833.437	16470
833.576	16459
833.714	16421
833.852	16455
833.991	16478
834.129	16485
834.267	16558
834.406	16580
834.544	16527
834.682	16516
834.821	16459
834.959	16603
835.097	16466
835.235	16577
835.373	16577
835.511	16535
835.65	16466
835.788	16421
835.926	16207
836.064	16181
836.202	16257
836.34	16519
836.478	16474
836.615	16413
836.753	16466
836.891	16436
837.029	16360
837.167	16409
837.305	16367
837.443	16211
837.58	16306
837.718	16261
837.856	16246
837.993	16196
838.131	16360
838.269	16150
838.406	16246
838.544	16109
838.681	15983
838.819	16059
838.956	15808
839.094	15793
839.231	15827
839.369	15964
839.506	16177
839.643	16029
839.781	15835
839.918	15774
840.055	15861
840.193	15816
840.33	15781
840.467	15861
840.604	15800
840.742	16074
840.879	15701
841.016	15778
841.153	15713
841.29	15854
841.427	15827
841.564	15865
841.701	15819
841.838	15797
841.975	15762
842.112	15766
842.249	15633
842.385	15542
842.522	15762
842.659	15618
842.796	15625
842.933	15625
843.069	15622
843.206	15614
843.343	15686
843.479	15633
843.616	15644
843.752	15405
843.889	15393
844.025	15603
844.162	15351
844.298	15530
844.435	15405
844.571	15340
844.708	15393
844.844	15576
844.98	15526
845.117	15454
845.253	15485
845.389	15245
845.525	15302
845.661	15310
845.798	15252
845.934	15180
846.07	15100
846.206	15173
846.342	15245
846.478	15104
846.614	15009
846.75	14883
846.886	14963
847.022	15116
847.158	14963
847.294	14998
847.429	15013
847.565	14952
847.701	15188
847.837	14788
847.972	14651
848.108	14815
848.244	14758
848.379	14674
848.515	14537
848.65	14427
848.786	14537
848.921	14583
849.057	14667
849.192	14590
849.328	14716
849.463	14545
849.598	14473
849.734	14454
849.869	14492
850.004	14317
850.14	14355
850.275	14351
850.41	14263
850.545	14237
850.68	14252
850.815	14275
850.95	14347
851.085	14602
851.22	14427
851.355	14362
851.49	14278
851.625	14259
851.76	14294
851.895	14218
852.03	14195
852.165	14271
852.299	14347
852.434	14408
852.569	14317
852.703	14362
852.838	14457
852.973	14545
853.107	14412
853.242	14244
853.376	14263
853.511	14092
853.645	14237
853.78	14347
853.914	14271
854.048	14103
854.183	14142
854.317	14358
854.451	14389
854.585	14145
854.72	14187
854.854	14309
854.988	14237
855.122	14180
855.256	14077
855.39	14088
855.524	14263
855.658	14168
855.792	14256
855.926	14210
856.06	14195
856.194	14229
856.327	14229
856.461	14115
856.595	14134
856.729	14225
856.862	14278
856.996	14157
857.13	14404
857.263	14396
857.397	14328
857.53	14202
857.664	14252
857.797	14263
857.931	14427
858.064	14332
858.197	14248
858.331	14256
858.464	14187
858.597	14092
858.731	14172
858.864	14191
858.997	14168
859.13	14290
859.263	14252
859.396	14309
859.529	14233
859.662	14180
859.795	14199
859.928	14309
860.061	14408
860.194	14343
860.327	14233
860.46	14221
860.592	14256
860.725	14320
860.858	14298
860.99	14191
861.123	14138
861.256	14168
861.388	14206
861.521	14830
861.653	14161
861.786	13986
861.918	14100
862.05	14069
862.183	14229
862.315	14126
862.447	14267
862.58	14111
862.712	13936
862.844	13993
862.976	14050
863.108	14050
863.24	14473
863.372	13894
863.504	13959
863.636	13974
863.768	14054
863.9	13947
864.032	13982
864.164	13970
864.296	14069
864.428	14081
864.559	14088
864.691	14016
864.823	14115
864.954	14046
865.086	14012
865.217	13963
865.349	14012
865.48	13982
865.612	13989
865.743	14043
865.875	13932
866.006	13894
866.137	14046
866.269	14027
866.4	14020
866.531	14001
866.662	13967
866.793	13947
866.924	13989
867.055	13982
867.186	14058
867.317	13940
867.448	13837
867.579	13837
867.71	13955
867.841	13959
867.972	14001
868.103	14035
868.233	13974
868.364	13993
868.495	14065
868.625	14206
868.756	14366
868.886	14164
869.017	14305
869.147	14290
869.278	14358
869.408	14225
869.539	14191
869.669	14324
869.799	14339
869.929	14324
870.06	14225
870.19	14617
870.32	14503
870.45	14640
870.58	14659
870.71	14701
870.84	14754
870.97	14678
871.1	14545
871.23	14712
871.36	14902
871.489	14834
871.619	14750
871.749	14849
871.879	14883
872.008	14876
872.138	14819
872.267	14777
872.397	14598
872.526	14693
872.656	14613
872.785	14686
872.915	14880
873.044	14906
873.173	14880
873.303	14876
873.432	14948
873.561	14944
873.69	14868
873.819	14963
873.948	14804
874.077	14944
874.206	14876
874.335	14941
874.464	15028
874.593	15066
874.722	15097
874.851	15188
874.979	15252
875.108	15199
875.237	15154
875.365	15150
875.494	15192
875.623	15306
875.751	15157
875.88	15176
876.008	15412
876.136	15401
876.265	15614
876.393	15732
876.521	15762
876.65	15648
876.778	15637
876.906	15584
877.034	15523
877.162	15545
877.29	15545
877.418	15557
877.546	15637
877.674	15553
877.802	15671
877.93	15652
878.058	15549
878.185	15545
878.313	15507
878.441	15580
878.568	15370
878.696	15526
878.824	15641
878.951	15667
879.079	15759
879.206	15998
879.333	15759
879.461	15622
879.588	15622
879.715	15819
879.842	15991
879.97	15717
880.097	15534
880.224	15462
880.351	15450
880.478	15367
880.605	15507
880.732	15515
880.859	15732
880.986	15507
881.112	15580
881.239	15401
881.366	15199
881.493	15192
881.619	15089
881.746	15123
881.872	15051
881.999	15119
882.125	15024
882.252	15127
882.378	15085
882.505	15188
882.631	14956
882.757	14899
882.883	15142
883.01	14910
883.136	14830
883.262	14807
883.388	14758
883.514	14902
883.64	14883
883.766	14967
883.892	14651
884.018	14712
884.143	14967
884.269	14990
884.395	14781
884.52	14598
884.646	14640
884.772	14575
884.897	14457
885.023	14663
885.148	14811
885.274	14754
885.399	14701
885.524	14526
885.65	14678
885.775	14708
885.9	14583
886.025	14693
886.15	14712
886.275	14632
886.4	14537
886.525	14636
886.65	14450
886.775	14602
886.9	14754
887.025	14800
887.149	14575
887.274	14507
887.399	14457
887.523	14469
887.648	14469
887.773	14431
887.897	14495
888.021	14545
888.146	14511
888.27	14594
888.395	14617
888.519	14492
888.643	14568
888.767	14556
888.891	14362
889.015	14237
889.139	14267
889.263	14374
889.387	14408
889.511	14579
889.635	14427
889.759	14347
889.883	14320
890.006	14457
890.13	14526
890.254	14191
890.377	14370
890.501	14149
890.624	14134
890.748	14172
890.871	14001
890.995	14024
891.118	13932
891.241	14073
891.364	14039
891.488	14149
891.611	14077
891.734	14039
891.857	14039
891.98	14084
892.103	14199
892.226	14100
892.349	14103
892.471	13890
892.594	13989
892.717	13978
892.839	14027
892.962	13932
893.085	14077
893.207	14046
893.33	13856
893.452	13955
893.575	14107
893.697	13986
893.819	14191
893.941	14195
894.064	14145
894.186	14016
894.308	14058
894.43	14233
894.552	14286
894.674	14229
894.796	14027
894.918	14126
895.04	14027
895.161	14153
895.283	14145
895.405	14024
895.526	14172
895.648	14199
895.769	14134
895.891	14145
896.012	14282
896.134	14149
896.255	14157
896.376	14195
896.498	14225
896.619	14248
896.74	14263
896.861	14199
896.982	14495
897.103	14663
897.224	14503
897.345	14465
897.466	14374
897.587	14415
897.708	14625
897.828	14545
897.949	14366
898.07	14415
898.19	14404
898.311	14579
898.431	14522
898.552	14545
898.672	14708
898.792	14632
898.913	14541
899.033	14415
899.153	14431
899.273	14347
899.393	14393
899.513	14446
899.633	14434
899.753	14457
899.873	14355
899.993	14412
900.113	14396
900.232	14469
900.352	14355
900.472	14309
900.591	14164
900.711	14355
900.83	14202
900.95	14332
901.069	14423
901.189	14240
901.308	14054
901.427	14020
901.546	13868
901.665	13955
901.784	14027
901.904	13887
902.023	13712
902.141	13590
902.26	13540
902.379	13651
902.498	13624
902.617	13499
902.735	13601
902.854	13499
902.973	13480
903.091	13202
903.21	13187
903.328	13282
903.446	13168
903.565	13114
903.683	13152
903.801	13095
903.919	13031
904.038	13042
904.156	12840
904.274	12920
904.392	12837
904.51	12966
904.627	12947
904.745	12954
904.863	12996
904.981	12741
905.098	12669
905.216	12574
905.334	12635
905.451	12726
905.569	12502
905.686	12631
905.803	12517
905.921	12445
906.038	12536
906.155	12357
906.272	12391
906.389	12391
906.506	12133
906.623	12144
906.74	12163
906.857	12083
906.974	12129
907.091	12277
907.208	12262
907.324	12243
907.441	12125
907.557	11920
907.674	11942
907.79	11863
907.907	11931
908.023	11969
908.139	11988
908.256	11889
908.372	11870
908.488	11927
908.604	11786
908.72	11665
908.836	11722
908.952	11707
909.068	11722
909.184	11809
909.3	11642
909.415	11737
909.531	11707
909.647	11528
909.762	11467
909.878	11406
909.993	11512
910.108	11512
910.224	11395
910.339	11501
910.454	11402
910.57	11326
910.685	11197
910.8	11623
910.915	11471
911.03	11406
911.145	11113
911.259	11197
911.374	11193
911.489	11052
911.604	11010
911.718	10976
911.833	10972
911.947	10835
912.062	10748
912.176	10919
912.291	10908
912.405	10900
912.519	11242
912.633	11155
912.748	11029
912.862	10953
912.976	10797
913.09	10656
913.204	10831
913.318	10877
913.431	10892
913.545	10904
913.659	10938
913.772	10767
913.886	10733
914	10683
914.113	10790
914.226	10869
914.34	10805
914.453	10675
914.566	10793
914.68	10637
914.793	10668
914.906	10344
915.019	10398
915.132	10325
915.245	10440
915.358	10493
915.47	10497
915.583	10417
915.696	10459
915.809	10550
915.921	10626
916.034	10436
916.146	10405
916.259	10379
916.371	10516
916.483	10478
916.595	10371
916.708	10421
916.82	10314
916.932	10344
917.044	10394
917.156	10333
917.268	10303
917.38	10287
917.491	10249
917.603	10360
917.715	10344
917.826	10352
917.938	10268
918.049	10173
918.161	10230
918.272	10413
918.384	10394
918.495	10291
918.606	10150
918.717	10097
918.828	10135
918.939	10154
919.05	10021
919.161	10082
919.272	9983
919.383	9895
919.494	10287
919.604	10382
919.715	10211
919.826	10063
919.936	10150
920.047	10272
920.157	10135
920.267	10325
920.378	10188
920.488	10177
920.598	10367
920.708	10603
920.818	10337
920.928	10329
921.038	10527
921.148	10577
921.258	10200
921.368	10207
921.477	9998
921.587	10074
921.697	9953
921.806	10101
921.916	9907
922.025	9800
922.134	9755
922.244	9663
922.353	9800
922.462	9656
922.571	9561
922.68	9469
922.789	9382
922.898	9424
923.007	9340
923.116	9473
923.224	9431
923.333	9504
923.442	9443
923.55	9332
923.659	9272
923.767	9363
923.876	9348
923.984	9340
924.092	9173
924.201	9355
924.309	9283
924.417	9363
924.525	9264
924.633	9302
924.741	9918
924.849	9116
924.956	9249
925.064	9005
925.172	9013
925.279	9036
925.387	9127
925.494	9116
925.602	9180
925.709	9161
925.816	9013
925.924	9081
926.031	9176
926.138	9165
926.245	9089
926.352	9024
926.459	9142
926.566	9211
926.673	9036
926.779	8933
926.886	8956
926.993	8842
927.099	8845
927.206	8766
927.312	8811
927.419	8849
927.525	8785
927.631	8868
927.737	8735
927.843	8644
927.95	8560
928.056	8705
928.162	8716
928.267	8823
928.373	9389
928.479	8823
928.585	8583
928.69	8705
928.796	8720
928.901	8640
929.007	8469
929.112	8598
929.218	8625
929.323	8526
929.428	8533
929.533	8629
929.638	8450
929.743	8461
929.848	8648
929.953	8602
930.058	8446
930.163	8244
930.267	8263
930.372	8385
930.477	8256
930.581	8514
930.685	8358
930.79	8187
930.894	8248
930.998	8218
931.103	8381
931.207	8084
931.311	7940
931.415	7928
931.519	7750
931.623	7746
