Data from test_V78500241_3221.txt Node
Date: Fri Mar 25 14:56:08 CST 2022
User: usil
Spectrometer: V785-0024
Trigger mode: 0
Integration Time (sec): 4.000000E-1
Scans to average: 1
Nonlinearity correction enabled: false
Boxcar width: 0
Storing dark spectrum: false
XAxis mode: Wavelengths
Number of Pixels in Spectrum: 1024
>>>>>Begin Spectral Data<<<<<
801.071	22074
801.214	21956
801.356	21595
801.499	21568
801.641	21473
801.783	21329
801.926	21416
802.068	21424
802.211	21161
802.353	21131
802.496	20994
802.638	20906
802.78	20838
802.923	20686
803.065	20689
803.208	20629
803.35	20754
803.492	20796
803.635	20925
803.777	20606
803.919	20746
804.061	21093
804.204	20762
804.346	20594
804.488	20583
804.63	20598
804.773	20575
804.915	20609
805.057	20727
805.199	20568
805.341	20636
805.483	20800
805.626	20644
805.768	20621
805.91	20693
806.052	20648
806.194	20514
806.336	20674
806.478	20686
806.62	20473
806.762	20568
806.904	20800
807.046	21005
807.188	20910
807.33	20788
807.472	20963
807.614	20921
807.756	20834
807.898	20762
808.04	20533
808.182	20644
808.324	20693
808.465	20807
808.607	20807
808.749	20994
808.891	21081
809.033	21135
809.174	21020
809.316	21017
809.458	20963
809.6	20990
809.741	21036
809.883	20967
810.025	21108
810.166	21100
810.308	21074
810.45	21070
810.591	20952
810.733	20963
810.875	20693
811.016	20640
811.158	20701
811.299	20724
811.441	20910
811.582	20849
811.724	20678
811.865	20785
812.007	20815
812.148	20701
812.29	20811
812.431	20887
812.573	21043
812.714	21119
812.855	21165
812.997	21325
813.138	21412
813.279	21435
813.421	21256
813.562	21032
813.703	20986
813.845	20895
813.986	20579
814.127	20427
814.268	20396
814.41	20309
814.551	20172
814.692	20225
814.833	20305
814.974	20176
815.115	20336
815.256	20088
815.397	20134
815.539	20092
815.68	20039
815.821	19898
815.962	19982
816.103	19898
816.244	19833
816.385	19780
816.526	19677
816.666	19666
816.807	19453
816.948	19445
817.089	19556
817.23	19540
817.371	19403
817.512	19373
817.653	19350
817.793	19369
817.934	19403
818.075	19495
818.216	19346
818.356	19373
818.497	19240
818.638	19027
818.778	19053
818.919	19015
819.06	19198
819.2	19202
819.341	19244
819.481	19308
819.622	19400
819.762	19681
819.903	19563
820.043	19377
820.184	19358
820.324	19472
820.465	19445
820.605	19422
820.746	19384
820.886	19247
821.026	19187
821.167	19335
821.307	19312
821.447	19362
821.588	19194
821.728	19076
821.868	18932
822.008	18741
822.149	18749
822.289	18787
822.429	18627
822.569	18494
822.709	18452
822.849	18254
822.99	18201
823.13	18338
823.27	18262
823.41	18087
823.55	17950
823.69	18038
823.83	18007
823.97	18034
824.11	17878
824.25	17863
824.389	17855
824.529	17984
824.669	17901
824.809	17874
824.949	17935
825.089	17908
825.228	17840
825.368	17619
825.508	17638
825.648	17710
825.787	17661
825.927	17722
826.067	17543
826.206	17611
826.346	17627
826.485	17623
826.625	17646
826.765	17745
826.904	17570
827.044	17337
827.183	17429
827.323	17223
827.462	17330
827.601	17277
827.741	17330
827.88	17372
828.02	17216
828.159	17315
828.298	17273
828.437	17280
828.577	17242
828.716	17440
828.855	17299
828.994	17056
829.134	17037
829.273	17181
829.412	17041
829.551	17037
829.69	17037
829.829	17121
829.968	17113
830.107	17132
830.246	17071
830.385	16980
830.524	17006
830.663	16968
830.802	16862
830.941	16771
831.08	16698
831.219	16782
831.357	16797
831.496	16866
831.635	16767
831.774	16649
831.913	16577
832.051	16493
832.19	16462
832.329	16504
832.467	16485
832.606	16379
832.744	16352
832.883	16421
833.022	16287
833.16	16371
833.299	16386
833.437	16424
833.576	16455
833.714	16451
833.852	16497
833.991	16466
834.129	16497
834.267	16432
834.406	16546
834.544	16440
834.682	16390
834.821	16356
834.959	16596
835.097	16424
835.235	16527
835.373	16462
835.511	16424
835.65	16402
835.788	16268
835.926	16169
836.064	16154
836.202	16124
836.34	16329
836.478	16436
836.615	16253
836.753	16344
836.891	16466
837.029	16390
837.167	16318
837.305	16192
837.443	16226
837.58	16211
837.718	16428
837.856	16337
837.993	16177
838.131	16154
838.269	16173
838.406	16230
838.544	16143
838.681	15964
838.819	15922
838.956	15747
839.094	15679
839.231	15827
839.369	15895
839.506	16169
839.643	16017
839.781	15797
839.918	15663
840.055	15686
840.193	15785
840.33	15736
840.467	15709
840.604	15759
840.742	16006
840.879	15584
841.016	15648
841.153	15603
841.29	15873
841.427	15732
841.564	15793
841.701	15778
841.838	15724
841.975	15694
842.112	15728
842.249	15580
842.385	15511
842.522	15698
842.659	15595
842.796	15542
842.933	15561
843.069	15530
843.206	15504
843.343	15698
843.479	15603
843.616	15591
843.752	15264
843.889	15367
844.025	15458
844.162	15439
844.298	15397
844.435	15313
844.571	15252
844.708	15408
844.844	15424
844.98	15454
845.117	15485
845.253	15256
845.389	15138
845.525	15291
845.661	15245
845.798	15089
845.934	15161
846.07	15013
846.206	15180
846.342	15348
846.478	15173
846.614	14994
846.75	14929
846.886	14941
847.022	15036
847.158	14842
847.294	14994
847.429	14910
847.565	14921
847.701	15237
847.837	14648
847.972	14583
848.108	14781
848.244	14686
848.379	14587
848.515	14549
848.65	14438
848.786	14503
848.921	14427
849.057	14552
849.192	14602
849.328	14503
849.463	14454
849.598	14480
849.734	14442
849.869	14374
850.004	14210
850.14	14271
850.275	14332
850.41	14088
850.545	14218
850.68	14237
850.815	14256
850.95	14259
851.085	14476
851.22	14374
851.355	14320
851.49	14324
851.625	14191
851.76	14168
851.895	14134
852.03	14233
852.165	14282
852.299	14328
852.434	14389
852.569	14336
852.703	14248
852.838	14377
852.973	14495
853.107	14434
853.242	14149
853.376	14294
853.511	14065
853.645	14012
853.78	14218
853.914	14168
854.048	14046
854.183	14096
854.317	14126
854.451	14240
854.585	14183
854.72	14149
854.854	14225
854.988	14134
855.122	14100
855.256	14005
855.39	14084
855.524	14164
855.658	14210
855.792	14180
855.926	14168
856.06	14229
856.194	14187
856.327	14183
856.461	14065
856.595	14096
856.729	14027
856.862	14267
856.996	14206
857.13	14172
857.263	14298
857.397	14256
857.53	14237
857.664	14172
857.797	14275
857.931	14259
858.064	14191
858.197	14267
858.331	14172
858.464	14088
858.597	14050
858.731	14142
858.864	14065
858.997	14164
859.13	14161
859.263	14210
859.396	14157
859.529	14199
859.662	14187
859.795	14050
859.928	14164
860.061	14267
860.194	14450
860.327	14229
860.46	14145
860.592	14286
860.725	14256
860.858	14172
860.99	14126
861.123	14012
861.256	14092
861.388	14138
861.521	14944
861.653	13978
861.786	14005
861.918	13928
862.05	14005
862.183	14103
862.315	14157
862.447	14206
862.58	14103
862.712	13890
862.844	13837
862.976	13837
863.108	14027
863.24	14454
863.372	13894
863.504	13913
863.636	13909
863.768	14065
863.9	13909
864.032	13883
864.164	13894
864.296	13959
864.428	14020
864.559	14001
864.691	13955
864.823	14035
864.954	14035
865.086	14008
865.217	13959
865.349	13879
865.48	13852
865.612	13978
865.743	14115
865.875	13963
866.006	13974
866.137	13970
866.269	13925
866.4	13849
866.531	13807
866.662	13909
866.793	13830
866.924	13864
867.055	13963
867.186	13822
867.317	13818
867.448	13791
867.579	13868
867.71	13845
867.841	13837
867.972	13928
868.103	14062
868.233	13898
868.364	13963
868.495	13963
868.625	14088
868.756	14218
868.886	14084
869.017	14164
869.147	14347
869.278	14278
869.408	14256
869.539	14145
869.669	14240
869.799	14195
869.929	14305
870.06	14275
870.19	14541
870.32	14499
870.45	14606
870.58	14514
870.71	14693
870.84	14712
870.97	14602
871.1	14499
871.23	14838
871.36	14739
871.489	14629
871.619	14648
871.749	14811
871.879	14796
872.008	14838
872.138	14765
872.267	14693
872.397	14705
872.526	14621
872.656	14617
872.785	14636
872.915	14838
873.044	14952
873.173	14807
873.303	14819
873.432	14853
873.561	14960
873.69	14758
873.819	14819
873.948	14948
874.077	14800
874.206	14788
874.335	14800
874.464	14880
874.593	15100
874.722	15070
874.851	15195
874.979	15142
875.108	15165
875.237	15173
875.365	15058
875.494	15001
875.623	15157
875.751	15070
875.88	15199
876.008	15275
876.136	15306
876.265	15572
876.393	15739
876.521	15701
876.65	15595
876.778	15599
876.906	15622
877.034	15492
877.162	15443
877.29	15458
877.418	15538
877.546	15534
877.674	15523
877.802	15534
877.93	15557
878.058	15454
878.185	15477
878.313	15584
878.441	15580
878.568	15466
878.696	15485
878.824	15519
878.951	15587
879.079	15747
879.206	15846
879.333	15804
879.461	15584
879.588	15713
879.715	15770
879.842	15903
879.97	15538
880.097	15428
880.224	15348
880.351	15416
880.478	15466
880.605	15397
880.732	15291
880.859	15580
880.986	15530
881.112	15496
881.239	15226
881.366	15176
881.493	15100
881.619	15036
881.746	15077
881.872	15100
881.999	15146
882.125	15047
882.252	15055
882.378	15142
882.505	15264
882.631	15032
882.757	14872
882.883	14979
883.01	14941
883.136	14777
883.262	14746
883.388	14636
883.514	14788
883.64	14960
883.766	14838
883.892	14712
884.018	14659
884.143	14895
884.269	14982
884.395	14697
884.52	14533
884.646	14511
884.772	14583
884.897	14473
885.023	14610
885.148	14705
885.274	14800
885.399	14708
885.524	14610
885.65	14598
885.775	14663
885.9	14587
886.025	14621
886.15	14522
886.275	14587
886.4	14476
886.525	14560
886.65	14571
886.775	14606
886.9	14667
887.025	14743
887.149	14613
887.274	14480
887.399	14377
887.523	14442
887.648	14332
887.773	14271
887.897	14518
888.021	14507
888.146	14366
888.27	14545
888.395	14632
888.519	14385
888.643	14450
888.767	14537
888.891	14313
889.015	14229
889.139	14313
889.263	14206
889.387	14427
889.511	14552
889.635	14450
889.759	14263
889.883	14256
890.006	14370
890.13	14473
890.254	14202
890.377	14320
890.501	14100
890.624	14119
890.748	14157
890.871	14065
890.995	13909
891.118	13955
891.241	14016
891.364	14001
891.488	14119
891.611	13928
891.734	14062
891.857	14073
891.98	14027
892.103	14050
892.226	14069
892.349	14024
892.471	13887
892.594	13894
892.717	14027
892.839	13989
892.962	14001
893.085	14088
893.207	13925
893.33	13955
893.452	13978
893.575	14020
893.697	13967
893.819	14214
893.941	14187
894.064	14134
894.186	13940
894.308	14016
894.43	14088
894.552	14225
894.674	14100
894.796	13997
894.918	14054
895.04	13959
895.161	14161
895.283	14054
895.405	14039
895.526	14054
895.648	14107
895.769	14195
895.891	14164
896.012	14282
896.134	14229
896.255	14138
896.376	14119
896.498	14058
896.619	14176
896.74	14168
896.861	14195
896.982	14533
897.103	14606
897.224	14454
897.345	14461
897.466	14366
897.587	14419
897.708	14579
897.828	14480
897.949	14412
898.07	14214
898.19	14381
898.311	14511
898.431	14442
898.552	14473
898.672	14632
898.792	14560
898.913	14533
899.033	14374
899.153	14370
899.273	14256
899.393	14347
899.513	14328
899.633	14290
899.753	14461
899.873	14396
899.993	14461
900.113	14263
900.232	14396
900.352	14351
900.472	14309
900.591	14267
900.711	14317
900.83	14126
900.95	14305
901.069	14412
901.189	14111
901.308	13993
901.427	13913
901.546	13875
901.665	13982
901.784	13932
901.904	13864
902.023	13776
902.141	13567
902.26	13491
902.379	13620
902.498	13403
902.617	13396
902.735	13529
902.854	13457
902.973	13464
903.091	13213
903.21	13198
903.328	13137
903.446	13107
903.565	12977
903.683	13008
903.801	12943
903.919	12996
904.038	13008
904.156	12859
904.274	13031
904.392	12802
904.51	12909
904.627	12768
904.745	12962
904.863	12886
904.981	12692
905.098	12559
905.216	12479
905.334	12582
905.451	12544
905.569	12506
905.686	12654
905.803	12582
905.921	12380
906.038	12486
906.155	12426
906.272	12281
906.389	12369
906.506	12163
906.623	12125
906.74	12163
906.857	11999
906.974	12076
907.091	12209
907.208	12213
907.324	12235
907.441	12098
907.557	11901
907.674	11901
907.79	11802
907.907	11802
908.023	11916
908.139	11927
908.256	11828
908.372	11840
908.488	11729
908.604	11665
908.72	11661
908.836	11615
908.952	11665
909.068	11638
909.184	11824
909.3	11672
909.415	11676
909.531	11630
909.647	11463
909.762	11501
909.878	11452
909.993	11421
910.108	11379
910.224	11417
910.339	11421
910.454	11296
910.57	11341
910.685	11204
910.8	11501
910.915	11478
911.03	11280
911.145	11151
911.259	11143
911.374	11083
911.489	11159
911.604	11071
911.718	10892
911.833	10946
911.947	10736
912.062	10790
912.176	10946
912.291	10850
912.405	10911
912.519	11083
912.633	11132
912.748	10885
912.862	10927
912.976	10782
913.09	10694
913.204	10767
913.318	10714
913.431	10835
913.545	10869
913.659	10946
913.772	10839
913.886	10668
914	10641
914.113	10729
914.226	10744
914.34	10653
914.453	10588
914.566	10763
914.68	10618
914.793	10550
914.906	10440
915.019	10440
915.132	10242
915.245	10371
915.358	10363
915.47	10371
915.583	10451
915.696	10417
915.809	10531
915.921	10561
916.034	10341
916.146	10440
916.259	10329
916.371	10440
916.483	10409
916.595	10268
916.708	10398
916.82	10291
916.932	10382
917.044	10322
917.156	10318
917.268	10230
917.38	10314
917.491	10211
917.603	10272
917.715	10230
917.826	10329
917.938	10242
918.049	10150
918.161	10211
918.272	10371
918.384	10371
918.495	10276
918.606	10131
918.717	10082
918.828	10147
918.939	10105
919.05	10082
919.161	10055
919.272	9846
919.383	9991
919.494	10215
919.604	10352
919.715	10177
919.826	10101
919.936	10112
920.047	10204
920.157	10097
920.267	10310
920.378	10166
920.488	10147
920.598	10341
920.708	10447
920.818	10268
920.928	10234
921.038	10417
921.148	10459
921.258	10207
921.368	10135
921.477	9975
921.587	9903
921.697	9804
921.806	10006
921.916	9888
922.025	9724
922.134	9724
922.244	9622
922.353	9728
922.462	9637
922.571	9504
922.68	9435
922.789	9386
922.898	9504
923.007	9344
923.116	9450
923.224	9428
923.333	9332
923.442	9294
923.55	9237
923.659	9310
923.767	9245
923.876	9264
923.984	9332
924.092	9214
924.201	9310
924.309	9321
924.417	9374
924.525	9272
924.633	9302
924.741	10143
924.849	9036
924.956	9195
925.064	9123
925.172	8986
925.279	9123
925.387	9108
925.494	9089
925.602	9203
925.709	9154
925.816	9009
925.924	9070
926.031	9100
926.138	9100
926.245	9165
926.352	8998
926.459	9203
926.566	9131
926.673	9081
926.779	8982
926.886	8963
926.993	8766
927.099	8811
927.206	8785
927.312	8777
927.419	8918
927.525	8819
927.631	8849
927.737	8712
927.843	8712
927.95	8659
928.056	8735
928.162	8678
928.267	8769
928.373	9230
928.479	8857
928.585	8541
928.69	8743
928.796	8724
928.901	8670
929.007	8469
929.112	8651
929.218	8625
929.323	8469
929.428	8541
929.533	8682
929.638	8450
929.743	8488
929.848	8617
929.953	8511
930.058	8427
930.163	8294
930.267	8336
930.372	8419
930.477	8328
930.581	8507
930.685	8313
930.79	8168
930.894	8328
930.998	8164
931.103	8400
931.207	8043
931.311	8005
931.415	7875
931.519	7776
931.623	7723
