Data from test_V78500241_1260.txt Node
Date: Fri Mar 25 14:42:29 CST 2022
User: usil
Spectrometer: V785-0024
Trigger mode: 0
Integration Time (sec): 4.000000E-1
Scans to average: 1
Nonlinearity correction enabled: false
Boxcar width: 0
Storing dark spectrum: false
XAxis mode: Wavelengths
Number of Pixels in Spectrum: 1024
>>>>>Begin Spectral Data<<<<<
801.071	22451
801.214	22363
801.356	22051
801.499	21991
801.641	21789
801.783	21732
801.926	21774
802.068	21618
802.211	21606
802.353	21561
802.496	21291
802.638	21146
802.78	21192
802.923	21245
803.065	21077
803.208	21024
803.35	21264
803.492	21249
803.635	21237
803.777	21131
803.919	21146
804.061	21507
804.204	21062
804.346	21066
804.488	20941
804.63	21093
804.773	20906
804.915	21104
805.057	21180
805.199	20994
805.341	21070
805.483	21127
805.626	21028
805.768	20929
805.91	20998
806.052	21062
806.194	20906
806.336	21157
806.478	21119
806.62	20929
806.762	21173
806.904	21291
807.046	21294
807.188	21355
807.33	21374
807.472	21488
807.614	21386
807.756	21420
807.898	21226
808.04	21192
808.182	21116
808.324	21161
808.465	21298
808.607	21386
808.749	21500
808.891	21743
809.033	21644
809.174	21572
809.316	21359
809.458	21553
809.6	21473
809.741	21523
809.883	21545
810.025	21743
810.166	21603
810.308	21405
810.45	21545
810.591	21439
810.733	21351
810.875	21165
811.016	21154
811.158	21165
811.299	21199
811.441	21348
811.582	21348
811.724	21192
811.865	21241
812.007	21119
812.148	21211
812.29	21302
812.431	21374
812.573	21450
812.714	21564
812.855	21561
812.997	21709
813.138	22006
813.279	21831
813.421	21713
813.562	21591
813.703	21382
813.845	21424
813.986	21093
814.127	20971
814.268	20727
814.41	20769
814.551	20758
814.692	20735
814.833	20640
814.974	20712
815.115	20830
815.256	20587
815.397	20659
815.539	20552
815.68	20427
815.821	20438
815.962	20343
816.103	20366
816.244	20324
816.385	20298
816.526	20187
816.666	20138
816.807	19875
816.948	20058
817.089	19993
817.23	20031
817.371	19944
817.512	20012
817.653	19864
817.793	19890
817.934	19860
818.075	19974
818.216	19993
818.356	19681
818.497	19696
818.638	19658
818.778	19635
818.919	19483
819.06	19597
819.2	19639
819.341	19715
819.481	19731
819.622	19887
819.762	20122
819.903	20103
820.043	19883
820.184	19814
820.324	19894
820.465	19837
820.605	20016
820.746	19871
820.886	19784
821.026	19803
821.167	19753
821.307	20008
821.447	19776
821.588	19693
821.728	19559
821.868	19419
822.008	19312
822.149	19206
822.289	19251
822.429	19099
822.569	18977
822.709	18958
822.849	18802
822.99	18856
823.13	18753
823.27	18757
823.41	18506
823.55	18525
823.69	18677
823.83	18593
823.97	18517
824.11	18308
824.25	18346
824.389	18296
824.529	18448
824.669	18403
824.809	18460
824.949	18475
825.089	18395
825.228	18426
825.368	18254
825.508	18311
825.648	18201
825.787	18117
825.927	18148
826.067	18079
826.206	18106
826.346	18076
826.485	18174
826.625	18068
826.765	18285
826.904	18095
827.044	17977
827.183	17942
827.323	17832
827.462	17756
827.601	17760
827.741	17851
827.88	17920
828.02	17684
828.159	17840
828.298	17855
828.437	17741
828.577	17809
828.716	17988
828.855	17882
828.994	17543
829.134	17547
829.273	17676
829.412	17433
829.551	17570
829.69	17589
829.829	17551
829.968	17672
830.107	17699
830.246	17726
830.385	17604
830.524	17391
830.663	17455
830.802	17368
830.941	17303
831.08	17269
831.219	17269
831.357	17299
831.496	17471
831.635	17140
831.774	17292
831.913	17170
832.051	17018
832.19	16987
832.329	16987
832.467	16885
832.606	16889
832.744	16862
832.883	16949
833.022	16915
833.16	16946
833.299	17056
833.437	16953
833.576	16999
833.714	16957
833.852	17003
833.991	16980
834.129	17033
834.267	17033
834.406	16911
834.544	16961
834.682	17014
834.821	17014
834.959	17189
835.097	16923
835.235	16995
835.373	17045
835.511	16946
835.65	16873
835.788	16850
835.926	16759
836.064	16698
836.202	16672
836.34	16957
836.478	16987
836.615	16831
836.753	16877
836.891	17029
837.029	16949
837.167	16782
837.305	16774
837.443	16763
837.58	16733
837.718	16900
837.856	16748
837.993	16645
838.131	16793
838.269	16683
838.406	16717
838.544	16679
838.681	16443
838.819	16421
838.956	16230
839.094	16363
839.231	16356
839.369	16470
839.506	16721
839.643	16584
839.781	16219
839.918	16333
840.055	16303
840.193	16318
840.33	16185
840.467	16295
840.604	16333
840.742	16504
840.879	16135
841.016	16181
841.153	16211
841.29	16363
841.427	16337
841.564	16409
841.701	16272
841.838	16200
841.975	16185
842.112	16204
842.249	16048
842.385	16112
842.522	16265
842.659	16082
842.796	15953
842.933	16112
843.069	16086
843.206	16029
843.343	16211
843.479	16055
843.616	16059
843.752	15793
843.889	15907
844.025	16006
844.162	15770
844.298	16013
844.435	15911
844.571	15755
844.708	15861
844.844	15937
844.98	16017
845.117	15972
845.253	15804
845.389	15819
845.525	15732
845.661	15793
845.798	15728
845.934	15793
846.07	15804
846.206	15808
846.342	15899
846.478	15762
846.614	15618
846.75	15405
846.886	15355
847.022	15599
847.158	15500
847.294	15439
847.429	15500
847.565	15351
847.701	15629
847.837	15192
847.972	15176
848.108	15233
848.244	15135
848.379	15043
848.515	15066
848.65	15055
848.786	15017
848.921	15100
849.057	15119
849.192	15165
849.328	15043
849.463	14975
849.598	14960
849.734	14857
849.869	14845
850.004	14765
850.14	14769
850.275	14830
850.41	14693
850.545	14727
850.68	14781
850.815	14861
850.95	14743
851.085	14921
851.22	14941
851.355	14800
851.49	14769
851.625	14731
851.76	14746
851.895	14689
852.03	14674
852.165	14701
852.299	14807
852.434	14857
852.569	14788
852.703	14906
852.838	14861
852.973	14963
853.107	14925
853.242	14746
853.376	14716
853.511	14682
853.645	14606
853.78	14811
853.914	14659
854.048	14667
854.183	14480
854.317	14712
854.451	14899
854.585	14636
854.72	14708
854.854	14754
854.988	14617
855.122	14625
855.256	14419
855.39	14651
855.524	14712
855.658	14720
855.792	14792
855.926	14750
856.06	14644
856.194	14765
856.327	14682
856.461	14651
856.595	14537
856.729	14644
856.862	14724
856.996	14697
857.13	14708
857.263	14750
857.397	14758
857.53	14617
857.664	14727
857.797	14644
857.931	14788
858.064	14826
858.197	14697
858.331	14625
858.464	14594
858.597	14533
858.731	14651
858.864	14640
858.997	14613
859.13	14739
859.263	14682
859.396	14579
859.529	14682
859.662	14587
859.795	14556
859.928	14663
860.061	14769
860.194	14876
860.327	14727
860.46	14606
860.592	14678
860.725	14754
860.858	14819
860.99	14575
861.123	14549
861.256	14484
861.388	14655
861.521	15351
861.653	14571
861.786	14522
861.918	14465
862.05	14514
862.183	14575
862.315	14590
862.447	14651
862.58	14629
862.712	14480
862.844	14377
862.976	14465
863.108	14457
863.24	14944
863.372	14294
863.504	14484
863.636	14396
863.768	14461
863.9	14438
864.032	14339
864.164	14446
864.296	14362
864.428	14598
864.559	14469
864.691	14545
864.823	14408
864.954	14492
865.086	14427
865.217	14461
865.349	14358
865.48	14415
865.612	14434
865.743	14564
865.875	14442
866.006	14476
866.137	14385
866.269	14377
866.4	14412
866.531	14351
866.662	14355
866.793	14415
866.924	14328
867.055	14336
867.186	14503
867.317	14366
867.448	14278
867.579	14431
867.71	14320
867.841	14343
867.972	14454
868.103	14492
868.233	14347
868.364	14427
868.495	14465
868.625	14598
868.756	14762
868.886	14537
869.017	14568
869.147	14750
869.278	14842
869.408	14617
869.539	14674
869.669	14697
869.799	14693
869.929	14804
870.06	14773
870.19	15024
870.32	14952
870.45	14906
870.58	15077
870.71	15104
870.84	15138
870.97	14990
871.1	15074
871.23	15241
871.36	15230
871.489	15123
871.619	15173
871.749	15260
871.879	15287
872.008	15386
872.138	15245
872.267	15332
872.397	15207
872.526	15112
872.656	15028
872.785	15047
872.915	15218
873.044	15287
873.173	15173
873.303	15447
873.432	15233
873.561	15332
873.69	15332
873.819	15370
873.948	15272
874.077	15359
874.206	15321
874.335	15336
874.464	15477
874.593	15644
874.722	15496
874.851	15538
874.979	15660
875.108	15637
875.237	15599
875.365	15485
875.494	15576
875.623	15766
875.751	15530
875.88	15641
876.008	15743
876.136	15850
876.265	16067
876.393	16109
876.521	16040
876.65	16128
876.778	15979
876.906	15960
877.034	15842
877.162	16116
877.29	15930
877.418	16112
877.546	16131
877.674	15991
877.802	16051
877.93	16097
878.058	16013
878.185	15941
878.313	15964
878.441	15991
878.568	15903
878.696	16006
878.824	16025
878.951	16139
879.079	16226
879.206	16344
879.333	16272
879.461	16105
879.588	16234
879.715	16265
879.842	16272
879.97	16177
880.097	15953
880.224	15899
880.351	15895
880.478	16044
880.605	15808
880.732	15907
880.859	16162
880.986	15876
881.112	15968
881.239	15762
881.366	15690
881.493	15667
881.619	15511
881.746	15572
881.872	15549
881.999	15443
882.125	15526
882.252	15633
882.378	15603
882.505	15633
882.631	15447
882.757	15302
882.883	15462
883.01	15367
883.136	15279
883.262	15211
883.388	15192
883.514	15420
883.64	15408
883.766	15389
883.892	15260
884.018	15203
884.143	15359
884.269	15469
884.395	15157
884.52	15036
884.646	15123
884.772	14899
884.897	14925
885.023	15077
885.148	15233
885.274	15256
885.399	15108
885.524	15108
885.65	15039
885.775	15024
885.9	15097
886.025	15214
886.15	15039
886.275	14971
886.4	14937
886.525	15039
886.65	14998
886.775	14979
886.9	15135
887.025	15272
887.149	15066
887.274	14887
887.399	14906
887.523	14788
887.648	14826
887.773	14750
887.897	14891
888.021	14994
888.146	14815
888.27	15020
888.395	15001
888.519	14952
888.643	14845
888.767	14864
888.891	14769
889.015	14670
889.139	14815
889.263	14800
889.387	14735
889.511	14857
889.635	14815
889.759	14648
889.883	14712
890.006	14785
890.13	14758
890.254	14636
890.377	14758
890.501	14465
890.624	14499
890.748	14469
890.871	14488
890.995	14385
891.118	14374
891.241	14362
891.364	14476
891.488	14549
891.611	14305
891.734	14389
891.857	14503
891.98	14400
892.103	14450
892.226	14393
892.349	14408
892.471	14278
892.594	14370
892.717	14408
892.839	14393
892.962	14412
893.085	14514
893.207	14454
893.33	14271
893.452	14461
893.575	14518
893.697	14442
893.819	14564
893.941	14602
894.064	14587
894.186	14423
894.308	14358
894.43	14503
894.552	14598
894.674	14575
894.796	14339
894.918	14415
895.04	14454
895.161	14587
895.283	14526
895.405	14495
895.526	14473
895.648	14476
895.769	14526
895.891	14552
896.012	14670
896.134	14583
896.255	14492
896.376	14625
896.498	14587
896.619	14575
896.74	14610
896.861	14754
896.982	14960
897.103	15081
897.224	14872
897.345	14906
897.466	14724
897.587	14872
897.708	14902
897.828	14910
897.949	14804
898.07	14769
898.19	14845
898.311	14998
898.431	14830
898.552	14925
898.672	14971
898.792	14994
898.913	14933
899.033	14864
899.153	14918
899.273	14777
899.393	14796
899.513	14758
899.633	14815
899.753	14750
899.873	14845
899.993	14826
900.113	14781
900.232	14758
900.352	14674
900.472	14590
900.591	14606
900.711	14644
900.83	14564
900.95	14708
901.069	14750
901.189	14560
901.308	14294
901.427	14370
901.546	14298
901.665	14389
901.784	14381
901.904	14092
902.023	14050
902.141	13864
902.26	13875
902.379	13940
902.498	13868
902.617	13750
902.735	13967
902.854	13837
902.973	13818
903.091	13556
903.21	13632
903.328	13685
903.446	13514
903.565	13476
903.683	13533
903.801	13331
903.919	13335
904.038	13384
904.156	13194
904.274	13285
904.392	13285
904.51	13278
904.627	13255
904.745	13426
904.863	13263
904.981	13046
905.098	12875
905.216	12970
905.334	12882
905.451	12867
905.569	12867
905.686	13042
905.803	12935
905.921	12783
906.038	12825
906.155	12738
906.272	12639
906.389	12635
906.506	12627
906.623	12475
906.74	12441
906.857	12380
906.974	12357
907.091	12544
907.208	12631
907.324	12502
907.441	12437
907.557	12319
907.674	12228
907.79	12239
907.907	12247
908.023	12232
908.139	12296
908.256	12266
908.372	12239
908.488	12098
908.604	12030
908.72	12038
908.836	12038
908.952	11977
909.068	12102
909.184	12144
909.3	11999
909.415	12087
909.531	12022
909.647	11809
909.762	11767
909.878	11741
909.993	11756
910.108	11771
910.224	11756
910.339	11710
910.454	11775
910.57	11668
910.685	11547
910.8	11817
910.915	11809
911.03	11756
911.145	11467
911.259	11543
911.374	11322
911.489	11448
911.604	11376
911.718	11269
911.833	11216
911.947	11132
912.062	10999
912.176	11193
912.291	11277
912.405	11284
912.519	11429
912.633	11436
912.748	11254
912.862	11193
912.976	11136
913.09	10972
913.204	11003
913.318	11121
913.431	11128
913.545	11193
913.659	11193
913.772	11117
913.886	11022
914	10946
914.113	11060
914.226	11132
914.34	11109
914.453	10896
914.566	11102
914.68	10949
914.793	10976
914.906	10736
915.019	10714
915.132	10645
915.245	10774
915.358	10687
915.47	10740
915.583	10752
915.696	10816
915.809	10957
915.921	10866
916.034	10634
916.146	10702
916.259	10675
916.371	10702
916.483	10710
916.595	10668
916.708	10733
916.82	10664
916.932	10645
917.044	10698
917.156	10580
917.268	10516
917.38	10512
917.491	10523
917.603	10596
917.715	10653
917.826	10683
917.938	10535
918.049	10424
918.161	10516
918.272	10641
918.384	10679
918.495	10626
918.606	10440
918.717	10348
918.828	10481
918.939	10481
919.05	10329
919.161	10402
919.272	10272
919.383	10325
919.494	10466
919.604	10637
919.715	10413
919.826	10379
919.936	10386
920.047	10512
920.157	10554
920.267	10656
920.378	10508
920.488	10493
920.598	10599
920.708	10774
920.818	10653
920.928	10630
921.038	10740
921.148	10683
921.258	10466
921.368	10337
921.477	10375
921.587	10238
921.697	10207
921.806	10341
921.916	10147
922.025	10025
922.134	9945
922.244	9930
922.353	9949
922.462	9842
922.571	9781
922.68	9637
922.789	9633
922.898	9720
923.007	9572
923.116	9705
923.224	9698
923.333	9701
923.442	9603
923.55	9549
923.659	9618
923.767	9675
923.876	9526
923.984	9644
924.092	9477
924.201	9534
924.309	9507
924.417	9572
924.525	9466
924.633	9466
924.741	10246
924.849	9348
924.956	9534
925.064	9241
925.172	9275
925.279	9230
925.387	9272
925.494	9325
925.602	9496
925.709	9355
925.816	9287
925.924	9230
926.031	9340
926.138	9359
926.245	9408
926.352	9260
926.459	9405
926.566	9450
926.673	9310
926.779	9127
926.886	9157
926.993	9074
927.099	9005
927.206	9013
927.312	8963
927.419	9085
927.525	9036
927.631	9070
927.737	8895
927.843	8948
927.95	8766
928.056	8864
928.162	8937
928.267	8998
928.373	9603
928.479	9005
928.585	8792
928.69	8861
928.796	8944
928.901	8823
929.007	8727
929.112	8826
929.218	8773
929.323	8754
929.428	8727
929.533	8895
929.638	8594
929.743	8727
929.848	8731
929.953	8739
930.058	8594
930.163	8530
930.267	8503
930.372	8701
930.477	8476
930.581	8758
930.685	8640
930.79	8480
930.894	8434
930.998	8393
931.103	8564
931.207	8244
931.311	8161
931.415	8065
931.519	7932
931.623	7913
