Data from test_V78500241_2163.txt Node
Date: Fri Mar 25 14:48:46 CST 2022
User: usil
Spectrometer: V785-0024
Trigger mode: 0
Integration Time (sec): 4.000000E-1
Scans to average: 1
Nonlinearity correction enabled: false
Boxcar width: 0
Storing dark spectrum: false
XAxis mode: Wavelengths
Number of Pixels in Spectrum: 1024
>>>>>Begin Spectral Data<<<<<
801.071	22188
801.214	22116
801.356	21747
801.499	21637
801.641	21568
801.783	21504
801.926	21564
802.068	21504
802.211	21401
802.353	21294
802.496	21104
802.638	20986
802.78	21058
802.923	20956
803.065	20857
803.208	20773
803.35	20853
803.492	20975
803.635	20986
803.777	20826
803.919	21005
804.061	21192
804.204	20990
804.346	20864
804.488	20788
804.63	20792
804.773	20716
804.915	20796
805.057	20788
805.199	20758
805.341	20807
805.483	20986
805.626	20819
805.768	20701
805.91	20910
806.052	20868
806.194	20712
806.336	20864
806.478	20838
806.62	20659
806.762	20727
806.904	21028
807.046	21161
807.188	21055
807.33	21096
807.472	21047
807.614	20941
807.756	20876
807.898	20910
808.04	20876
808.182	20830
808.324	20899
808.465	20861
808.607	21104
808.749	21138
808.891	21275
809.033	21351
809.174	21157
809.316	21154
809.458	21176
809.6	21192
809.741	21055
809.883	21249
810.025	21325
810.166	21321
810.308	21336
810.45	21294
810.591	21161
810.733	20914
810.875	20956
811.016	20948
811.158	20883
811.299	20834
811.441	21081
811.582	20998
811.724	20902
811.865	20849
812.007	20944
812.148	20910
812.29	21036
812.431	21055
812.573	21157
812.714	21363
812.855	21386
812.997	21542
813.138	21614
813.279	21568
813.421	21431
813.562	21291
813.703	21249
813.845	21089
813.986	20804
814.127	20712
814.268	20629
814.41	20609
814.551	20579
814.692	20686
814.833	20427
814.974	20476
815.115	20393
815.256	20370
815.397	20309
815.539	20362
815.68	20358
815.821	20157
815.962	20389
816.103	20202
816.244	20077
816.385	19902
816.526	19776
816.666	19811
816.807	19674
816.948	19620
817.089	19651
817.23	19582
817.371	19655
817.512	19616
817.653	19620
817.793	19624
817.934	19613
818.075	19655
818.216	19609
818.356	19506
818.497	19457
818.638	19308
818.778	19335
818.919	19297
819.06	19244
819.2	19499
819.341	19533
819.481	19544
819.622	19639
819.762	19693
819.903	19670
820.043	19582
820.184	19582
820.324	19556
820.465	19590
820.605	19601
820.746	19559
820.886	19441
821.026	19571
821.167	19464
821.307	19666
821.447	19556
821.588	19457
821.728	19316
821.868	19217
822.008	19008
822.149	18970
822.289	18859
822.429	18806
822.569	18612
822.709	18726
822.849	18551
822.99	18486
823.13	18509
823.27	18486
823.41	18334
823.55	18167
823.69	18342
823.83	18304
823.97	18319
824.11	18076
824.25	17904
824.389	18114
824.529	18125
824.669	18045
824.809	18117
824.949	18167
825.089	18129
825.228	18072
825.368	17893
825.508	17843
825.648	17866
825.787	17893
825.927	17855
826.067	17767
826.206	17851
826.346	17847
826.485	17866
826.625	17775
826.765	17916
826.904	17980
827.044	17589
827.183	17585
827.323	17520
827.462	17562
827.601	17448
827.741	17440
827.88	17551
828.02	17303
828.159	17596
828.298	17547
828.437	17581
828.577	17398
828.716	17543
828.855	17448
828.994	17258
829.134	17181
829.273	17277
829.412	17326
829.551	17254
829.69	17356
829.829	17235
829.968	17471
830.107	17189
830.246	17284
830.385	17265
830.524	17064
830.663	17197
830.802	17033
830.941	16915
831.08	16923
831.219	16908
831.357	16949
831.496	17105
831.635	16873
831.774	16790
831.913	16744
832.051	16645
832.19	16641
832.329	16767
832.467	16512
832.606	16527
832.744	16542
832.883	16596
833.022	16622
833.16	16577
833.299	16599
833.437	16698
833.576	16630
833.714	16554
833.852	16710
833.991	16801
834.129	16744
834.267	16698
834.406	16672
834.544	16672
834.682	16679
834.821	16607
834.959	16869
835.097	16637
835.235	16748
835.373	16645
835.511	16641
835.65	16550
835.788	16561
835.926	16337
836.064	16333
836.202	16398
836.34	16535
836.478	16542
836.615	16523
836.753	16584
836.891	16672
837.029	16512
837.167	16500
837.305	16558
837.443	16478
837.58	16462
837.718	16421
837.856	16485
837.993	16405
838.131	16417
838.269	16367
838.406	16268
838.544	16276
838.681	16158
838.819	16040
838.956	16055
839.094	15880
839.231	15945
839.369	16063
839.506	16367
839.643	16166
839.781	15968
839.918	15930
840.055	15964
840.193	15964
840.33	15903
840.467	15949
840.604	15865
840.742	16204
840.879	15888
841.016	15945
841.153	15930
841.29	16013
841.427	15903
841.564	16032
841.701	15884
841.838	15892
841.975	15888
842.112	15884
842.249	15694
842.385	15759
842.522	15865
842.659	15804
842.796	15705
842.933	15789
843.069	15671
843.206	15789
843.343	15762
843.479	15751
843.616	15671
843.752	15519
843.889	15576
844.025	15660
844.162	15549
844.298	15568
844.435	15591
844.571	15511
844.708	15564
844.844	15709
844.98	15698
845.117	15606
845.253	15523
845.389	15428
845.525	15412
845.661	15332
845.798	15332
845.934	15386
846.07	15408
846.206	15405
846.342	15500
846.478	15344
846.614	15131
846.75	15093
846.886	15055
847.022	15142
847.158	15028
847.294	15199
847.429	15024
847.565	15127
847.701	15355
847.837	14880
847.972	14785
848.108	14830
848.244	14891
848.379	14746
848.515	14705
848.65	14686
848.786	14678
848.921	14724
849.057	14830
849.192	14739
849.328	14739
849.463	14758
849.598	14613
849.734	14670
849.869	14514
850.004	14423
850.14	14419
850.275	14514
850.41	14358
850.545	14389
850.68	14343
850.815	14438
850.95	14389
851.085	14629
851.22	14423
851.355	14541
851.49	14412
851.625	14457
851.76	14412
851.895	14309
852.03	14396
852.165	14450
852.299	14484
852.434	14530
852.569	14366
852.703	14533
852.838	14507
852.973	14579
853.107	14594
853.242	14431
853.376	14362
853.511	14320
853.645	14256
853.78	14370
853.914	14396
854.048	14271
854.183	14275
854.317	14309
854.451	14461
854.585	14267
854.72	14237
854.854	14370
854.988	14286
855.122	14286
855.256	14164
855.39	14259
855.524	14393
855.658	14419
855.792	14396
855.926	14415
856.06	14374
856.194	14412
856.327	14332
856.461	14206
856.595	14271
856.729	14271
856.862	14431
856.996	14366
857.13	14488
857.263	14419
857.397	14389
857.53	14313
857.664	14320
857.797	14454
857.931	14400
858.064	14377
858.197	14412
858.331	14317
858.464	14343
858.597	14225
858.731	14225
858.864	14240
858.997	14267
859.13	14362
859.263	14309
859.396	14442
859.529	14320
859.662	14229
859.795	14225
859.928	14301
860.061	14530
860.194	14484
860.327	14370
860.46	14336
860.592	14404
860.725	14343
860.858	14366
860.99	14263
861.123	14195
861.256	14324
861.388	14282
861.521	14880
861.653	14202
861.786	14123
861.918	14237
862.05	14271
862.183	14244
862.315	14256
862.447	14351
862.58	14282
862.712	14134
862.844	14062
862.976	14202
863.108	14130
863.24	14408
863.372	13978
863.504	14183
863.636	14073
863.768	14111
863.9	14024
864.032	14100
864.164	14081
864.296	14103
864.428	14187
864.559	14221
864.691	14218
864.823	14138
864.954	14100
865.086	14130
865.217	14039
865.349	14043
865.48	14096
865.612	14088
865.743	14252
865.875	14043
866.006	14069
866.137	14111
866.269	14046
866.4	14031
866.531	14043
866.662	14073
866.793	14043
866.924	14103
867.055	14142
867.186	14176
867.317	14020
867.448	13997
867.579	13993
867.71	13997
867.841	13917
867.972	14176
868.103	14081
868.233	14142
868.364	14187
868.495	14187
868.625	14298
868.756	14412
868.886	14244
869.017	14256
869.147	14438
869.278	14347
869.408	14324
869.539	14408
869.669	14442
869.799	14374
869.929	14511
870.06	14415
870.19	14598
870.32	14617
870.45	14693
870.58	14670
870.71	14811
870.84	14807
870.97	14716
871.1	14773
871.23	14933
871.36	14883
871.489	14807
871.619	14914
871.749	14986
871.879	15032
872.008	15146
872.138	14979
872.267	14868
872.397	14819
872.526	14735
872.656	14750
872.785	14792
872.915	14994
873.044	15043
873.173	14906
873.303	15070
873.432	14975
873.561	15062
873.69	14944
873.819	15070
873.948	15039
874.077	15024
874.206	14982
874.335	15009
874.464	15093
874.593	15321
874.722	15214
874.851	15359
874.979	15329
875.108	15283
875.237	15279
875.365	15291
875.494	15306
875.623	15283
875.751	15283
875.88	15431
876.008	15405
876.136	15618
876.265	15644
876.393	15857
876.521	15568
876.65	15850
876.778	15789
876.906	15622
877.034	15511
877.162	15690
877.29	15671
877.418	15675
877.546	15720
877.674	15644
877.802	15644
877.93	15781
878.058	15694
878.185	15587
878.313	15652
878.441	15625
878.568	15545
878.696	15671
878.824	15728
878.951	15797
879.079	15816
879.206	15911
879.333	15835
879.461	15660
879.588	15918
879.715	15934
879.842	15918
879.97	15816
880.097	15534
880.224	15545
880.351	15542
880.478	15576
880.605	15599
880.732	15564
880.859	15739
880.986	15504
881.112	15595
881.239	15507
881.366	15294
881.493	15291
881.619	15287
881.746	15222
881.872	15222
881.999	15176
882.125	15146
882.252	15245
882.378	15207
882.505	15443
882.631	15150
882.757	15017
882.883	15036
883.01	14948
883.136	15085
883.262	14853
883.388	14941
883.514	15051
883.64	15119
883.766	14948
883.892	14902
884.018	14933
884.143	14960
884.269	15100
884.395	14754
884.52	14705
884.646	14826
884.772	14731
884.897	14617
885.023	14720
885.148	14868
885.274	14952
885.399	14830
885.524	14689
885.65	14720
885.775	14781
885.9	14765
886.025	14864
886.15	14777
886.275	14743
886.4	14701
886.525	14701
886.65	14610
886.775	14701
886.9	14788
887.025	14998
887.149	14705
887.274	14625
887.399	14655
887.523	14549
887.648	14484
887.773	14473
887.897	14720
888.021	14530
888.146	14454
888.27	14590
888.395	14693
888.519	14575
888.643	14651
888.767	14632
888.891	14339
889.015	14438
889.139	14442
889.263	14366
889.387	14469
889.511	14724
889.635	14488
889.759	14431
889.883	14343
890.006	14404
890.13	14617
890.254	14324
890.377	14419
890.501	14252
890.624	14145
890.748	14328
890.871	14278
890.995	14035
891.118	14039
891.241	14195
891.364	14096
891.488	14271
891.611	14054
891.734	14157
891.857	14145
891.98	14210
892.103	14210
892.226	14199
892.349	14107
892.471	13947
892.594	14142
892.717	14187
892.839	14145
892.962	14065
893.085	14221
893.207	14111
893.33	14027
893.452	14016
893.575	14206
893.697	14134
893.819	14290
893.941	14332
894.064	14259
894.186	14119
894.308	14103
894.43	14195
894.552	14294
894.674	14229
894.796	14084
894.918	14092
895.04	14271
895.161	14317
895.283	14256
895.405	14134
895.526	14180
895.648	14164
895.769	14191
895.891	14324
896.012	14427
896.134	14320
896.255	14298
896.376	14275
896.498	14374
896.619	14339
896.74	14199
896.861	14438
896.982	14712
897.103	14743
897.224	14636
897.345	14552
897.466	14568
897.587	14541
897.708	14651
897.828	14541
897.949	14530
898.07	14484
898.19	14461
898.311	14712
898.431	14473
898.552	14777
898.672	14739
898.792	14617
898.913	14727
899.033	14629
899.153	14560
899.273	14492
899.393	14541
899.513	14492
899.633	14469
899.753	14454
899.873	14549
899.993	14495
900.113	14499
900.232	14530
900.352	14423
900.472	14465
900.591	14290
900.711	14396
900.83	14214
900.95	14469
901.069	14396
901.189	14290
901.308	14024
901.427	13970
901.546	14008
901.665	14062
901.784	14183
901.904	13986
902.023	13841
902.141	13616
902.26	13674
902.379	13723
902.498	13552
902.617	13559
902.735	13571
902.854	13590
902.973	13480
903.091	13396
903.21	13331
903.328	13400
903.446	13202
903.565	13259
903.683	13156
903.801	13027
903.919	13221
904.038	13129
904.156	12913
904.274	13027
904.392	12939
904.51	12875
904.627	13050
904.745	13053
904.863	13084
904.981	12871
905.098	12707
905.216	12753
905.334	12779
905.451	12700
905.569	12654
905.686	12627
905.803	12654
905.921	12528
906.038	12601
906.155	12525
906.272	12410
906.389	12445
906.506	12380
906.623	12365
906.74	12182
906.857	12140
906.974	12216
907.091	12315
907.208	12380
907.324	12350
907.441	12167
907.557	11984
907.674	12019
907.79	11965
907.907	12030
908.023	12171
908.139	12026
908.256	11999
908.372	11935
908.488	11885
908.604	11760
908.72	11733
908.836	11741
908.952	11764
909.068	11786
909.184	11809
909.3	11809
909.415	11813
909.531	11859
909.647	11547
909.762	11577
909.878	11433
909.993	11570
910.108	11562
910.224	11528
910.339	11459
910.454	11444
910.57	11471
910.685	11326
910.8	11646
910.915	11581
911.03	11421
911.145	11250
911.259	11250
911.374	11124
911.489	11204
911.604	11189
911.718	10972
911.833	11083
911.947	10946
912.062	10824
912.176	11014
912.291	11022
912.405	11056
912.519	11204
912.633	11197
912.748	11094
912.862	11060
912.976	10835
913.09	10805
913.204	10843
913.318	10820
913.431	10991
913.545	10873
913.659	11098
913.772	10885
913.886	10767
914	10721
914.113	10881
914.226	10873
914.34	10809
914.453	10714
914.566	10885
914.68	10778
914.793	10752
914.906	10531
915.019	10493
915.132	10428
915.245	10497
915.358	10630
915.47	10500
915.583	10542
915.696	10554
915.809	10702
915.921	10717
916.034	10542
916.146	10489
916.259	10485
916.371	10550
916.483	10554
916.595	10417
916.708	10470
916.82	10516
916.932	10390
917.044	10432
917.156	10405
917.268	10329
917.38	10390
917.491	10295
917.603	10363
917.715	10455
917.826	10436
917.938	10295
918.049	10223
918.161	10333
918.272	10523
918.384	10466
918.495	10341
918.606	10227
918.717	10185
918.828	10230
918.939	10257
919.05	10082
919.161	10215
919.272	10036
919.383	10059
919.494	10325
919.604	10443
919.715	10200
919.826	10162
919.936	10207
920.047	10314
920.157	10299
920.267	10443
920.378	10360
920.488	10291
920.598	10447
920.708	10577
920.818	10417
920.928	10436
921.038	10554
921.148	10569
921.258	10265
921.368	10166
921.477	10074
921.587	10082
921.697	9972
921.806	10169
921.916	9956
922.025	9861
922.134	9816
922.244	9827
922.353	9880
922.462	9690
922.571	9591
922.68	9523
922.789	9504
922.898	9504
923.007	9412
923.116	9538
923.224	9450
923.333	9500
923.442	9412
923.55	9325
923.659	9401
923.767	9439
923.876	9389
923.984	9488
924.092	9233
924.201	9424
924.309	9359
924.417	9279
924.525	9317
924.633	9325
924.741	10120
924.849	9062
924.956	9268
925.064	9127
925.172	9093
925.279	9154
925.387	9100
925.494	9169
925.602	9287
925.709	9165
925.816	9039
925.924	9211
926.031	9287
926.138	9161
926.245	9131
926.352	9043
926.459	9218
926.566	9298
926.673	9043
926.779	8990
926.886	8960
926.993	8838
927.099	8826
927.206	8876
927.312	8762
927.419	8872
927.525	8857
927.631	8883
927.737	8807
927.843	8678
927.95	8594
928.056	8792
928.162	8830
928.267	8834
928.373	9233
928.479	8807
928.585	8530
928.69	8773
928.796	8739
928.901	8674
929.007	8499
929.112	8716
929.218	8651
929.323	8602
929.428	8556
929.533	8773
929.638	8480
929.743	8552
929.848	8610
929.953	8537
930.058	8461
930.163	8324
930.267	8298
930.372	8537
930.477	8336
930.581	8583
930.685	8415
930.79	8320
930.894	8275
930.998	8259
931.103	8431
931.207	8123
931.311	8027
931.415	7940
931.519	7845
931.623	7780
