Data from test_V78500241_959.txt Node
Date: Fri Mar 25 14:40:23 CST 2022
User: usil
Spectrometer: V785-0024
Trigger mode: 0
Integration Time (sec): 4.000000E-1
Scans to average: 1
Nonlinearity correction enabled: false
Boxcar width: 0
Storing dark spectrum: false
XAxis mode: Wavelengths
Number of Pixels in Spectrum: 1024
>>>>>Begin Spectral Data<<<<<
801.071	23486
801.214	23482
801.356	23189
801.499	23098
801.641	22991
801.783	22862
801.926	22847
802.068	22710
802.211	22656
802.353	22630
802.496	22382
802.638	22459
802.78	22390
802.923	22272
803.065	22223
803.208	22219
803.35	22150
803.492	22310
803.635	22268
803.777	22265
803.919	22348
804.061	22523
804.204	22234
804.346	22238
804.488	22063
804.63	22154
804.773	22017
804.915	22169
805.057	22215
805.199	22204
805.341	22280
805.483	22478
805.626	22261
805.768	22173
805.91	22325
806.052	22405
806.194	22070
806.336	22447
806.478	22344
806.62	22325
806.762	22325
806.904	22577
807.046	22713
807.188	22801
807.33	22767
807.472	22904
807.614	22908
807.756	23083
807.898	22930
808.04	22995
808.182	23143
808.324	23459
808.465	23760
808.607	24220
808.749	24536
808.891	24719
809.033	24768
809.174	24521
809.316	24254
809.458	23912
809.6	23539
809.741	23429
809.883	23231
810.025	23239
810.166	23185
810.308	23242
810.45	23090
810.591	22835
810.733	22828
810.875	22645
811.016	22436
811.158	22535
811.299	22546
811.441	22645
811.582	22645
811.724	22481
811.865	22280
812.007	22428
812.148	22481
812.29	22596
812.431	22565
812.573	22721
812.714	22763
812.855	22961
812.997	22999
813.138	22995
813.279	23113
813.421	22946
813.562	22927
813.703	22550
813.845	22733
813.986	22284
814.127	22143
814.268	22029
814.41	22006
814.551	21873
814.692	22059
814.833	21918
814.974	21873
815.115	21793
815.256	21720
815.397	21812
815.539	21808
815.68	21652
815.821	21603
815.962	21770
816.103	21637
816.244	21458
816.385	21412
816.526	21416
816.666	21275
816.807	21112
816.948	21233
817.089	21226
817.23	21184
817.371	21096
817.512	21161
817.653	21116
817.793	20944
817.934	21047
818.075	21017
818.216	21184
818.356	21070
818.497	20952
818.638	20667
818.778	20651
818.919	20724
819.06	20804
819.2	20948
819.341	20982
819.481	20975
819.622	21142
819.762	21195
819.903	21260
820.043	21081
820.184	21032
820.324	20975
820.465	21169
820.605	21146
820.746	20982
820.886	20842
821.026	20986
821.167	20975
821.307	21017
821.447	20921
821.588	20815
821.728	20720
821.868	20469
822.008	20423
822.149	20469
822.289	20427
822.429	20130
822.569	20077
822.709	20092
822.849	19955
822.99	19932
823.13	19814
823.27	19822
823.41	19791
823.55	19548
823.69	19670
823.83	19738
823.97	19609
824.11	19472
824.25	19426
824.389	19483
824.529	19578
824.669	19426
824.809	19506
824.949	19582
825.089	19578
825.228	19430
825.368	19324
825.508	19308
825.648	19232
825.787	19259
825.927	19403
826.067	19129
826.206	19141
826.346	19301
826.485	19213
826.625	19107
826.765	19308
826.904	19247
827.044	18951
827.183	18928
827.323	18840
827.462	18943
827.601	18947
827.741	18943
827.88	18913
828.02	18817
828.159	18829
828.298	18905
828.437	18970
828.577	18833
828.716	18996
828.855	18878
828.994	18719
829.134	18604
829.273	18707
829.412	18635
829.551	18494
829.69	18616
829.829	18623
829.968	18696
830.107	18703
830.246	18612
830.385	18528
830.524	18547
830.663	18490
830.802	18391
830.941	18311
831.08	18266
831.219	18407
831.357	18441
831.496	18490
831.635	18247
831.774	18171
831.913	18129
832.051	18102
832.19	18003
832.329	18102
832.467	17942
832.606	17961
832.744	17946
832.883	17950
833.022	17889
833.16	17988
833.299	18030
833.437	18057
833.576	17954
833.714	18136
833.852	18133
833.991	18155
834.129	18213
834.267	18197
834.406	18155
834.544	18167
834.682	17969
834.821	18015
834.959	18098
835.097	17950
835.235	17973
835.373	18022
835.511	17977
835.65	17901
835.788	17931
835.926	17726
836.064	17653
836.202	17585
836.34	17859
836.478	17878
836.615	17760
836.753	17870
836.891	17988
837.029	17916
837.167	17950
837.305	17832
837.443	17726
837.58	17718
837.718	17843
837.856	17786
837.993	17680
838.131	17707
838.269	17600
838.406	17703
838.544	17509
838.681	17311
838.819	17197
838.956	17223
839.094	17299
839.231	17178
839.369	17383
839.506	17604
839.643	17440
839.781	17288
839.918	17318
840.055	17254
840.193	17193
840.33	17181
840.467	17220
840.604	17239
840.742	17490
840.879	17075
841.016	17193
841.153	17216
841.29	17322
841.427	17208
841.564	17212
841.701	17140
841.838	17143
841.975	17136
842.112	17185
842.249	16987
842.385	16980
842.522	17162
842.659	16889
842.796	16987
842.933	17048
843.069	16862
843.206	16930
843.343	17029
843.479	16915
843.616	17022
843.752	16805
843.889	16653
844.025	16919
844.162	16816
844.298	16904
844.435	16927
844.571	16809
844.708	16835
844.844	17056
844.98	17064
845.117	16999
845.253	17010
845.389	17018
845.525	17440
845.661	17904
845.798	18327
845.934	18844
846.07	19027
846.206	19038
846.342	18749
846.478	17977
846.614	17341
846.75	16889
846.886	16565
847.022	16645
847.158	16417
847.294	16421
847.429	16375
847.565	16375
847.701	16561
847.837	16097
847.972	16082
848.108	16124
848.244	16162
848.379	15941
848.515	15956
848.65	15884
848.786	15915
848.921	15930
849.057	15949
849.192	15930
849.328	15987
849.463	15781
849.598	15876
849.734	15808
849.869	15774
850.004	15641
850.14	15739
850.275	15759
850.41	15660
850.545	15671
850.68	15667
850.815	15679
850.95	15614
851.085	15835
851.22	15736
851.355	15679
851.49	15568
851.625	15656
851.76	15603
851.895	15580
852.03	15530
852.165	15660
852.299	15644
852.434	15789
852.569	15736
852.703	15713
852.838	15739
852.973	15690
853.107	15778
853.242	15599
853.376	15568
853.511	15538
853.645	15523
853.78	15713
853.914	15591
854.048	15492
854.183	15481
854.317	15553
854.451	15705
854.585	15466
854.72	15523
854.854	15694
854.988	15389
855.122	15488
855.256	15382
855.39	15511
855.524	15595
855.658	15648
855.792	15485
855.926	15515
856.06	15568
856.194	15652
856.327	15462
856.461	15412
856.595	15523
856.729	15511
856.862	15610
856.996	15625
857.13	15576
857.263	15542
857.397	15637
857.53	15584
857.664	15572
857.797	15595
857.931	15641
858.064	15595
858.197	15595
858.331	15443
858.464	15473
858.597	15420
858.731	15530
858.864	15530
858.997	15477
859.13	15545
859.263	15477
859.396	15603
859.529	15428
859.662	15439
859.795	15428
859.928	15496
860.061	15580
860.194	15603
860.327	15572
860.46	15507
860.592	15610
860.725	15629
860.858	15709
860.99	15500
861.123	15431
861.256	15477
861.388	15492
861.521	16112
861.653	15416
861.786	15283
861.918	15412
862.05	15374
862.183	15386
862.315	15393
862.447	15561
862.58	15363
862.712	15264
862.844	15230
862.976	15340
863.108	15370
863.24	15701
863.372	15192
863.504	15169
863.636	15279
863.768	15249
863.9	15241
864.032	15097
864.164	15226
864.296	15382
864.428	15367
864.559	15272
864.691	15336
864.823	15241
864.954	15135
865.086	15256
865.217	15272
865.349	15176
865.48	15233
865.612	15268
865.743	15439
865.875	15161
866.006	15131
866.137	15275
866.269	15165
866.4	15192
866.531	15180
866.662	15157
866.793	15047
866.924	15131
867.055	15218
867.186	15260
867.317	15195
867.448	15100
867.579	15211
867.71	15119
867.841	15100
867.972	15188
868.103	15180
868.233	15176
868.364	15214
868.495	15298
868.625	15420
868.756	15549
868.886	15389
869.017	15412
869.147	15576
869.278	15557
869.408	15530
869.539	15481
869.669	15587
869.799	15447
869.929	15572
870.06	15534
870.19	15724
870.32	15736
870.45	15785
870.58	15915
870.71	15983
870.84	15915
870.97	15873
871.1	15854
871.23	16017
871.36	15994
871.489	15945
871.619	15975
871.749	16055
871.879	16105
872.008	16109
872.138	16040
872.267	16040
872.397	15983
872.526	15827
872.656	15823
872.785	15899
872.915	16112
873.044	16234
873.173	16120
873.303	16192
873.432	16169
873.561	16116
873.69	16082
873.819	16074
873.948	16223
874.077	16196
874.206	16105
874.335	16219
874.464	16219
874.593	16398
874.722	16424
874.851	16489
874.979	16519
875.108	16561
875.237	16375
875.365	16409
875.494	16500
875.623	16561
875.751	16432
875.88	16424
876.008	16649
876.136	16618
876.265	16809
876.393	16987
876.521	16984
876.65	16980
876.778	16774
876.906	16805
877.034	16782
877.162	16869
877.29	16854
877.418	16824
877.546	16942
877.674	16900
877.802	16965
877.93	16965
878.058	16904
878.185	16881
878.313	16972
878.441	17022
878.568	16946
878.696	17075
878.824	17254
878.951	17391
879.079	17630
879.206	17798
879.333	17920
879.461	17954
879.588	18190
879.715	18346
879.842	18247
879.97	17843
880.097	17490
880.224	17204
880.351	17204
880.478	17102
880.605	17052
880.732	17045
880.859	17246
880.986	16987
881.112	16991
881.239	16927
881.366	16733
881.493	16759
881.619	16691
881.746	16736
881.872	16596
881.999	16519
882.125	16630
882.252	16801
882.378	16782
882.505	16831
882.631	16596
882.757	16497
882.883	16455
883.01	16413
883.136	16398
883.262	16306
883.388	16314
883.514	16478
883.64	16542
883.766	16443
883.892	16299
884.018	16474
884.143	16466
884.269	16527
884.395	16310
884.52	16150
884.646	16135
884.772	16116
884.897	16086
885.023	16234
885.148	16276
885.274	16310
885.399	16219
885.524	16101
885.65	16177
885.775	16055
885.9	16150
886.025	16185
886.15	16128
886.275	16017
886.4	15975
886.525	15949
886.65	15895
886.775	15850
886.9	16112
887.025	16143
887.149	16059
887.274	15819
887.399	15759
887.523	15850
887.648	15800
887.773	15762
887.897	15846
888.021	15800
888.146	15774
888.27	15861
888.395	15892
888.519	15778
888.643	15732
888.767	15888
888.891	15606
889.015	15614
889.139	15614
889.263	15694
889.387	15842
889.511	15789
889.635	15694
889.759	15690
889.883	15576
890.006	15671
890.13	15648
890.254	15466
890.377	15545
890.501	15389
890.624	15329
890.748	15439
890.871	15207
890.995	15150
891.118	15077
891.241	15325
891.364	15214
891.488	15382
891.611	15256
891.734	15180
891.857	15329
891.98	15310
892.103	15233
892.226	15207
892.349	15214
892.471	14990
892.594	15184
892.717	15222
892.839	15165
892.962	15245
893.085	15325
893.207	15184
893.33	15024
893.452	15089
893.575	15291
893.697	15146
893.819	15233
893.941	15389
894.064	15344
894.186	15169
894.308	15077
894.43	15291
894.552	15439
894.674	15291
894.796	15157
894.918	15199
895.04	15154
895.161	15245
895.283	15374
895.405	15207
895.526	15188
895.648	15260
895.769	15298
895.891	15207
896.012	15287
896.134	15230
896.255	15233
896.376	15233
896.498	15165
896.619	15310
896.74	15275
896.861	15310
896.982	15591
897.103	15728
897.224	15614
897.345	15538
897.466	15549
897.587	15568
897.708	15679
897.828	15629
897.949	15564
898.07	15405
898.19	15458
898.311	15667
898.431	15667
898.552	15656
898.672	15713
898.792	15823
898.913	15736
899.033	15622
899.153	15576
899.273	15466
899.393	15447
899.513	15557
899.633	15431
899.753	15542
899.873	15389
899.993	15488
900.113	15492
900.232	15450
900.352	15447
900.472	15298
900.591	15302
900.711	15397
900.83	15291
900.95	15526
901.069	15469
901.189	15226
901.308	15100
901.427	14918
901.546	15017
901.665	14948
901.784	15028
901.904	14864
902.023	14746
902.141	14640
902.26	14606
902.379	14621
902.498	14476
902.617	14552
902.735	14758
902.854	14526
902.973	14488
903.091	14294
903.21	14229
903.328	14229
903.446	14187
903.565	14092
903.683	14092
903.801	13955
903.919	14103
904.038	14020
904.156	13879
904.274	13989
904.392	13879
904.51	13814
904.627	13928
904.745	13936
904.863	13868
904.981	13776
905.098	13567
905.216	13556
905.334	13586
905.451	13571
905.569	13537
905.686	13548
905.803	13552
905.921	13388
906.038	13445
906.155	13362
906.272	13198
906.389	13282
906.506	13171
906.623	13129
906.74	13031
906.857	13088
906.974	13095
907.091	13160
907.208	13244
907.324	13137
907.441	13076
907.557	12798
907.674	12825
907.79	12776
907.907	12806
908.023	12905
908.139	12806
908.256	12791
908.372	12707
908.488	12768
908.604	12703
908.72	12563
908.836	12616
908.952	12551
909.068	12589
909.184	12692
909.3	12601
909.415	12642
909.531	12692
909.647	12327
909.762	12380
909.878	12273
909.993	12388
910.108	12330
910.224	12323
910.339	12407
910.454	12235
910.57	12178
910.685	12087
910.8	12361
910.915	12327
911.03	12186
911.145	12057
911.259	12057
911.374	12079
911.489	12041
911.604	11923
911.718	11726
911.833	11847
911.947	11707
912.062	11623
912.176	11805
912.291	11642
912.405	11828
912.519	11893
912.633	11885
912.748	11836
912.862	11809
912.976	11668
913.09	11676
913.204	11668
913.318	11672
913.431	11710
913.545	11748
913.659	11756
913.772	11627
913.886	11532
914	11505
914.113	11611
914.226	11699
914.34	11566
914.453	11493
914.566	11585
914.68	11452
914.793	11414
914.906	11227
915.019	11124
915.132	11151
915.245	11242
915.358	11269
915.47	11292
915.583	11258
915.696	11303
915.809	11398
915.921	11379
916.034	11170
916.146	11162
916.259	11189
916.371	11318
916.483	11231
916.595	11147
916.708	11220
916.82	11136
916.932	11159
917.044	11212
917.156	11086
917.268	11025
917.38	10991
917.491	11098
917.603	11037
917.715	11136
917.826	11117
917.938	11025
918.049	10889
918.161	11022
918.272	11258
918.384	11094
918.495	11006
918.606	10968
918.717	10850
918.828	10885
918.939	10896
919.05	10755
919.161	10854
919.272	10675
919.383	10740
919.494	10866
919.604	11094
919.715	10942
919.826	10805
919.936	10828
920.047	10984
920.157	10946
920.267	11090
920.378	10946
920.488	10892
920.598	11086
920.708	11239
920.818	11064
920.928	11102
921.038	11208
921.148	11212
921.258	10953
921.368	10847
921.477	10755
921.587	10664
921.697	10664
921.806	10786
921.916	10691
922.025	10440
922.134	10409
922.244	10432
922.353	10424
922.462	10363
922.571	10299
922.68	10181
922.789	10078
922.898	10158
923.007	10082
923.116	10116
923.224	10131
923.333	10162
923.442	10036
923.55	9949
923.659	9998
923.767	10067
923.876	9930
923.984	10032
924.092	9861
924.201	10013
924.309	9941
924.417	10017
924.525	9899
924.633	9922
924.741	10577
924.849	9671
924.956	9907
925.064	9740
925.172	9603
925.279	9724
925.387	9736
925.494	9770
925.602	9915
925.709	9816
925.816	9690
925.924	9698
926.031	9850
926.138	9724
926.245	9747
926.352	9557
926.459	9751
926.566	9884
926.673	9701
926.779	9610
926.886	9542
926.993	9416
927.099	9469
927.206	9348
927.312	9355
927.419	9416
927.525	9378
927.631	9473
927.737	9351
927.843	9321
927.95	9195
928.056	9298
928.162	9313
928.267	9374
928.373	9911
928.479	9374
928.585	9237
928.69	9348
928.796	9321
928.901	9192
929.007	9138
929.112	9195
929.218	9154
929.323	9108
929.428	9119
929.533	9233
929.638	9070
929.743	9116
929.848	9176
929.953	9039
930.058	9001
930.163	8906
930.267	8861
930.372	8990
930.477	8861
930.581	9055
930.685	9005
930.79	8766
930.894	8921
930.998	8758
931.103	8929
931.207	8552
931.311	8568
931.415	8374
931.519	8347
931.623	8256
