Data from test_V78500241_2815.txt Node
Date: Fri Mar 25 14:53:18 CST 2022
User: usil
Spectrometer: V785-0024
Trigger mode: 0
Integration Time (sec): 4.000000E-1
Scans to average: 1
Nonlinearity correction enabled: false
Boxcar width: 0
Storing dark spectrum: false
XAxis mode: Wavelengths
Number of Pixels in Spectrum: 1024
>>>>>Begin Spectral Data<<<<<
801.071	21994
801.214	21857
801.356	21713
801.499	21530
801.641	21469
801.783	21344
801.926	21401
802.068	21313
802.211	21237
802.353	21157
802.496	21051
802.638	20937
802.78	20956
802.923	20883
803.065	20746
803.208	20731
803.35	20746
803.492	20804
803.635	20967
803.777	20785
803.919	20868
804.061	21039
804.204	20819
804.346	20636
804.488	20545
804.63	20724
804.773	20621
804.915	20682
805.057	20758
805.199	20667
805.341	20644
805.483	20785
805.626	20663
805.768	20667
805.91	20682
806.052	20590
806.194	20556
806.336	20834
806.478	20621
806.62	20568
806.762	20731
806.904	20845
807.046	20998
807.188	21039
807.33	20975
807.472	21123
807.614	20967
807.756	20891
807.898	20800
808.04	20625
808.182	20682
808.324	20697
808.465	20708
808.607	20857
808.749	20941
808.891	21051
809.033	21146
809.174	21013
809.316	20998
809.458	21017
809.6	20967
809.741	21047
809.883	21112
810.025	21169
810.166	21028
810.308	21176
810.45	21131
810.591	21131
810.733	20937
810.875	20800
811.016	20693
811.158	20651
811.299	20834
811.441	20914
811.582	21024
811.724	20781
811.865	20838
812.007	20838
812.148	20629
812.29	20853
812.431	20902
812.573	21100
812.714	21150
812.855	21287
812.997	21313
813.138	21576
813.279	21447
813.421	21355
813.562	21176
813.703	21036
813.845	21047
813.986	20590
814.127	20446
814.268	20381
814.41	20351
814.551	20332
814.692	20415
814.833	20362
814.974	20339
815.115	20278
815.256	20138
815.397	20202
815.539	20271
815.68	20012
815.821	20073
815.962	20058
816.103	20119
816.244	19894
816.385	19864
816.526	19727
816.666	19616
816.807	19472
816.948	19582
817.089	19563
817.23	19510
817.371	19419
817.512	19483
817.653	19392
817.793	19411
817.934	19449
818.075	19464
818.216	19460
818.356	19457
818.497	19293
818.638	19145
818.778	19148
818.919	19244
819.06	19145
819.2	19403
819.341	19270
819.481	19354
819.622	19445
819.762	19662
819.903	19635
820.043	19495
820.184	19426
820.324	19407
820.465	19582
820.605	19472
820.746	19480
820.886	19316
821.026	19388
821.167	19426
821.307	19540
821.447	19312
821.588	19327
821.728	19031
821.868	18970
822.008	18924
822.149	18875
822.289	18730
822.429	18620
822.569	18555
822.709	18661
822.849	18277
822.99	18365
823.13	18281
823.27	18285
823.41	18277
823.55	18186
823.69	18091
823.83	18186
823.97	18060
824.11	17863
824.25	17878
824.389	17893
824.529	17977
824.669	17961
824.809	17988
824.949	18026
825.089	18022
825.228	18015
825.368	17722
825.508	17691
825.648	17589
825.787	17748
825.927	17649
826.067	17543
826.206	17543
826.346	17710
826.485	17672
826.625	17592
826.765	17775
826.904	17836
827.044	17493
827.183	17356
827.323	17417
827.462	17429
827.601	17330
827.741	17307
827.88	17368
828.02	17235
828.159	17376
828.298	17353
828.437	17372
828.577	17440
828.716	17444
828.855	17421
828.994	17140
829.134	17166
829.273	17151
829.412	17128
829.551	17151
829.69	17216
829.829	17197
829.968	17200
830.107	17140
830.246	17094
830.385	17128
830.524	17086
830.663	17052
830.802	16942
830.941	16717
831.08	16702
831.219	16919
831.357	16854
831.496	16934
831.635	16771
831.774	16664
831.913	16634
832.051	16561
832.19	16565
832.329	16535
832.467	16504
832.606	16390
832.744	16375
832.883	16428
833.022	16344
833.16	16462
833.299	16508
833.437	16386
833.576	16542
833.714	16508
833.852	16588
833.991	16558
834.129	16630
834.267	16653
834.406	16497
834.544	16493
834.682	16542
834.821	16432
834.959	16664
835.097	16440
835.235	16519
835.373	16538
835.511	16592
835.65	16398
835.788	16402
835.926	16272
836.064	16173
836.202	16196
836.34	16352
836.478	16478
836.615	16341
836.753	16481
836.891	16466
837.029	16375
837.167	16329
837.305	16299
837.443	16265
837.58	16306
837.718	16249
837.856	16314
837.993	16272
838.131	16306
838.269	16143
838.406	16131
838.544	16139
838.681	15949
838.819	15975
838.956	15850
839.094	15819
839.231	15842
839.369	16029
839.506	16177
839.643	16067
839.781	15876
839.918	15713
840.055	15804
840.193	15770
840.33	15739
840.467	15876
840.604	15903
840.742	16040
840.879	15606
841.016	15766
841.153	15759
841.29	15899
841.427	15823
841.564	15823
841.701	15739
841.838	15759
841.975	15705
842.112	15835
842.249	15679
842.385	15637
842.522	15762
842.659	15660
842.796	15553
842.933	15633
843.069	15553
843.206	15561
843.343	15656
843.479	15553
843.616	15682
843.752	15485
843.889	15428
844.025	15618
844.162	15329
844.298	15534
844.435	15496
844.571	15424
844.708	15393
844.844	15526
844.98	15492
845.117	15458
845.253	15336
845.389	15405
845.525	15405
845.661	15344
845.798	15142
845.934	15298
846.07	15108
846.206	15252
846.342	15237
846.478	15112
846.614	15036
846.75	15001
846.886	14979
847.022	15032
847.158	14925
847.294	15043
847.429	14982
847.565	14963
847.701	15218
847.837	14735
847.972	14621
848.108	14830
848.244	14754
848.379	14549
848.515	14423
848.65	14503
848.786	14594
848.921	14610
849.057	14716
849.192	14705
849.328	14610
849.463	14583
849.598	14522
849.734	14522
849.869	14415
850.004	14412
850.14	14336
850.275	14328
850.41	14252
850.545	14320
850.68	14256
850.815	14309
850.95	14275
851.085	14480
851.22	14400
851.355	14450
851.49	14305
851.625	14237
851.76	14347
851.895	14309
852.03	14229
852.165	14267
852.299	14358
852.434	14305
852.569	14290
852.703	14351
852.838	14400
852.973	14545
853.107	14473
853.242	14339
853.376	14218
853.511	14092
853.645	14134
853.78	14267
853.914	14278
854.048	14157
854.183	14187
854.317	14229
854.451	14393
854.585	14221
854.72	14187
854.854	14202
854.988	14221
855.122	14191
855.256	14031
855.39	14180
855.524	14225
855.658	14172
855.792	14176
855.926	14191
856.06	14305
856.194	14271
856.327	14183
856.461	14225
856.595	14138
856.729	14278
856.862	14355
856.996	14259
857.13	14263
857.263	14206
857.397	14240
857.53	14244
857.664	14298
857.797	14313
857.931	14336
858.064	14225
858.197	14374
858.331	14229
858.464	14130
858.597	14275
858.731	14142
858.864	14248
858.997	14084
859.13	14294
859.263	14218
859.396	14328
859.529	14115
859.662	14145
859.795	14240
859.928	14252
860.061	14446
860.194	14404
860.327	14221
860.46	14191
860.592	14358
860.725	14320
860.858	14343
860.99	14206
861.123	14130
861.256	14123
861.388	14161
861.521	14834
861.653	14096
861.786	14016
861.918	14100
862.05	14183
862.183	14210
862.315	14225
862.447	14092
862.58	14111
862.712	13928
862.844	13982
862.976	14016
863.108	13951
863.24	14442
863.372	13913
863.504	13940
863.636	14039
863.768	14012
863.9	13982
864.032	13928
864.164	13887
864.296	14020
864.428	14107
864.559	14035
864.691	14142
864.823	14050
864.954	14024
865.086	14119
865.217	13909
865.349	13871
865.48	13963
865.612	13989
865.743	14039
865.875	13940
866.006	13902
866.137	13936
866.269	14069
866.4	13917
866.531	13898
866.662	13875
866.793	13856
866.924	13967
867.055	14081
867.186	14058
867.317	13974
867.448	13837
867.579	13925
867.71	13723
867.841	13830
867.972	14024
868.103	13978
868.233	13986
868.364	14027
868.495	13997
868.625	14172
868.756	14355
868.886	14065
869.017	14180
869.147	14355
869.278	14221
869.408	14221
869.539	14202
869.669	14233
869.799	14248
869.929	14286
870.06	14339
870.19	14492
870.32	14450
870.45	14427
870.58	14640
870.71	14708
870.84	14804
870.97	14598
871.1	14613
871.23	14830
871.36	14777
871.489	14743
871.619	14864
871.749	14796
871.879	14796
872.008	14941
872.138	14777
872.267	14804
872.397	14682
872.526	14610
872.656	14560
872.785	14632
872.915	14838
873.044	14941
873.173	14887
873.303	14868
873.432	14826
873.561	14941
873.69	14933
873.819	14842
873.948	14929
874.077	14853
874.206	14872
874.335	14971
874.464	15093
874.593	15135
874.722	15055
874.851	15180
874.979	15287
875.108	15142
875.237	15142
875.365	15104
875.494	15241
875.623	15230
875.751	15184
875.88	15150
876.008	15382
876.136	15397
876.265	15488
876.393	15724
876.521	15694
876.65	15629
876.778	15629
876.906	15595
877.034	15606
877.162	15622
877.29	15580
877.418	15663
877.546	15641
877.674	15606
877.802	15568
877.93	15542
878.058	15591
878.185	15481
878.313	15584
878.441	15534
878.568	15458
878.696	15572
878.824	15698
878.951	15648
879.079	15816
879.206	15816
879.333	15808
879.461	15652
879.588	15762
879.715	15846
879.842	15876
879.97	15690
880.097	15481
880.224	15374
880.351	15557
880.478	15462
880.605	15393
880.732	15507
880.859	15641
880.986	15477
881.112	15469
881.239	15294
881.366	15161
881.493	15195
881.619	15036
881.746	15131
881.872	15199
881.999	15043
882.125	15157
882.252	15237
882.378	15165
882.505	15203
882.631	15135
882.757	14918
882.883	15001
883.01	15017
883.136	14887
883.262	14674
883.388	14853
883.514	14967
883.64	15047
883.766	14937
883.892	14796
884.018	14788
884.143	14948
884.269	15028
884.395	14583
884.52	14610
884.646	14648
884.772	14541
884.897	14556
885.023	14659
885.148	14739
885.274	14857
885.399	14754
885.524	14644
885.65	14621
885.775	14678
885.9	14518
886.025	14762
886.15	14674
886.275	14526
886.4	14507
886.525	14606
886.65	14530
886.775	14579
886.9	14754
887.025	14731
887.149	14560
887.274	14488
887.399	14351
887.523	14454
887.648	14446
887.773	14370
887.897	14511
888.021	14541
888.146	14393
888.27	14590
888.395	14617
888.519	14549
888.643	14598
888.767	14511
888.891	14442
889.015	14328
889.139	14339
889.263	14290
889.387	14393
889.511	14575
889.635	14446
889.759	14271
889.883	14469
890.006	14355
890.13	14473
890.254	14191
890.377	14328
890.501	14081
890.624	14088
890.748	14164
890.871	14043
890.995	13970
891.118	13906
891.241	13986
891.364	13989
891.488	14191
891.611	13993
891.734	13989
891.857	14043
891.98	13917
892.103	14115
892.226	14050
892.349	14031
892.471	13860
892.594	13978
892.717	14039
892.839	14016
892.962	14024
893.085	14202
893.207	14039
893.33	13951
893.452	13856
893.575	14035
893.697	14039
893.819	14180
893.941	14210
894.064	14176
894.186	14054
894.308	13989
894.43	14103
894.552	14282
894.674	14282
894.796	13925
894.918	14031
895.04	14035
895.161	14172
895.283	14164
895.405	14077
895.526	14123
895.648	14252
895.769	14149
895.891	14107
896.012	14153
896.134	14225
896.255	14252
896.376	14115
896.498	14229
896.619	14244
896.74	14180
896.861	14218
896.982	14625
897.103	14712
897.224	14473
897.345	14480
897.466	14415
897.587	14438
897.708	14644
897.828	14454
897.949	14320
898.07	14286
898.19	14404
898.311	14705
898.431	14473
898.552	14541
898.672	14583
898.792	14606
898.913	14617
899.033	14514
899.153	14362
899.273	14374
899.393	14320
899.513	14450
899.633	14419
899.753	14442
899.873	14400
899.993	14446
900.113	14434
900.232	14465
900.352	14457
900.472	14282
900.591	14237
900.711	14290
900.83	14221
900.95	14317
901.069	14431
901.189	14187
901.308	14081
901.427	13902
901.546	13890
901.665	13959
901.784	13951
901.904	13860
902.023	13769
902.141	13563
902.26	13491
902.379	13613
902.498	13556
902.617	13476
902.735	13578
902.854	13468
902.973	13449
903.091	13293
903.21	13266
903.328	13308
903.446	13126
903.565	13122
903.683	13118
903.801	13084
903.919	13023
904.038	13156
904.156	12913
904.274	12966
904.392	12863
904.51	12924
904.627	12939
904.745	12894
904.863	12935
904.981	12833
905.098	12589
905.216	12593
905.334	12578
905.451	12627
905.569	12597
905.686	12578
905.803	12547
905.921	12509
906.038	12589
906.155	12540
906.272	12376
906.389	12369
906.506	12319
906.623	12213
906.74	12194
906.857	12053
906.974	12064
907.091	12266
907.208	12273
907.324	12220
907.441	12136
907.557	11889
907.674	11942
907.79	11866
907.907	11946
908.023	12087
908.139	11984
908.256	11847
908.372	11851
908.488	11813
908.604	11771
908.72	11672
908.836	11741
908.952	11684
909.068	11680
909.184	11809
909.3	11676
909.415	11714
909.531	11680
909.647	11493
909.762	11543
909.878	11577
909.993	11493
910.108	11501
910.224	11452
910.339	11455
910.454	11440
910.57	11334
910.685	11261
910.8	11592
910.915	11452
911.03	11410
911.145	11212
911.259	11143
911.374	11208
911.489	11079
911.604	11010
911.718	10835
911.833	10949
911.947	10858
912.062	10729
912.176	10854
912.291	10946
912.405	10927
912.519	11079
912.633	11147
912.748	11033
912.862	10824
912.976	10873
913.09	10698
913.204	10744
913.318	10869
913.431	10850
913.545	10911
913.659	10881
913.772	10850
913.886	10702
914	10641
914.113	10740
914.226	10782
914.34	10854
914.453	10683
914.566	10771
914.68	10645
914.793	10694
914.906	10481
915.019	10352
915.132	10360
915.245	10417
915.358	10402
915.47	10436
915.583	10443
915.696	10424
915.809	10558
915.921	10596
916.034	10470
916.146	10436
916.259	10424
916.371	10474
916.483	10398
916.595	10413
916.708	10394
916.82	10348
916.932	10356
917.044	10432
917.156	10268
917.268	10192
917.38	10322
917.491	10227
917.603	10303
917.715	10337
917.826	10348
917.938	10257
918.049	10162
918.161	10299
918.272	10409
918.384	10447
918.495	10310
918.606	10112
918.717	10055
918.828	10147
918.939	10246
919.05	10074
919.161	10177
919.272	9930
919.383	10063
919.494	10150
919.604	10295
919.715	10204
919.826	10101
919.936	10173
920.047	10211
920.157	10158
920.267	10325
920.378	10242
920.488	10181
920.598	10344
920.708	10508
920.818	10314
920.928	10394
921.038	10550
921.148	10531
921.258	10128
921.368	10162
921.477	10051
921.587	10040
921.697	9915
921.806	10090
921.916	9926
922.025	9728
922.134	9793
922.244	9637
922.353	9789
922.462	9557
922.571	9610
922.68	9344
922.789	9428
922.898	9424
923.007	9393
923.116	9553
923.224	9473
923.333	9439
923.442	9291
923.55	9348
923.659	9348
923.767	9431
923.876	9176
923.984	9317
924.092	9287
924.201	9294
924.309	9279
924.417	9306
924.525	9264
924.633	9218
924.741	9968
924.849	9119
924.956	9237
925.064	9085
925.172	8956
925.279	9032
925.387	9089
925.494	9070
925.602	9272
925.709	9195
925.816	9036
925.924	9085
926.031	9214
926.138	9097
926.245	9100
926.352	9017
926.459	9085
926.566	9154
926.673	9066
926.779	8948
926.886	8914
926.993	8887
927.099	8830
927.206	8758
927.312	8766
927.419	8762
927.525	8845
927.631	8872
927.737	8682
927.843	8640
927.95	8556
928.056	8636
928.162	8689
928.267	8716
928.373	9233
928.479	8800
928.585	8533
928.69	8621
928.796	8743
928.901	8602
929.007	8457
929.112	8590
929.218	8514
929.323	8556
929.428	8492
929.533	8693
929.638	8499
929.743	8522
929.848	8537
929.953	8495
930.058	8419
930.163	8267
930.267	8298
930.372	8442
930.477	8259
930.581	8556
930.685	8393
930.79	8149
930.894	8221
930.998	8199
931.103	8396
931.207	8020
931.311	8005
931.415	7894
931.519	7723
931.623	7727
