Data from test_V78500241_1330.txt Node
Date: Fri Mar 25 14:42:58 CST 2022
User: usil
Spectrometer: V785-0024
Trigger mode: 0
Integration Time (sec): 4.000000E-1
Scans to average: 1
Nonlinearity correction enabled: false
Boxcar width: 0
Storing dark spectrum: false
XAxis mode: Wavelengths
Number of Pixels in Spectrum: 1024
>>>>>Begin Spectral Data<<<<<
801.071	22470
801.214	22162
801.356	22139
801.499	21934
801.641	21842
801.783	21720
801.926	21827
802.068	21736
802.211	21770
802.353	21492
802.496	21367
802.638	21355
802.78	21279
802.923	21131
803.065	21157
803.208	21077
803.35	21123
803.492	21222
803.635	21211
803.777	21176
803.919	21100
804.061	21485
804.204	21268
804.346	20994
804.488	20937
804.63	21096
804.773	20952
804.915	21104
805.057	21222
805.199	21047
805.341	21135
805.483	21058
805.626	21119
805.768	20914
805.91	21024
806.052	21047
806.194	20914
806.336	21176
806.478	21058
806.62	21036
806.762	21154
806.904	21272
807.046	21504
807.188	21389
807.33	21443
807.472	21458
807.614	21401
807.756	21336
807.898	21256
808.04	21199
808.182	21222
808.324	21332
808.465	21287
808.607	21561
808.749	21622
808.891	21880
809.033	21762
809.174	21644
809.316	21603
809.458	21549
809.6	21591
809.741	21591
809.883	21553
810.025	21709
810.166	21633
810.308	21690
810.45	21500
810.591	21553
810.733	21405
810.875	21252
811.016	21203
811.158	21222
811.299	21237
811.441	21382
811.582	21408
811.724	21226
811.865	21279
812.007	21359
812.148	21275
812.29	21378
812.431	21466
812.573	21587
812.714	21717
812.855	21667
812.997	21705
813.138	21816
813.279	21804
813.421	21637
813.562	21622
813.703	21545
813.845	21325
813.986	21074
814.127	20967
814.268	20712
814.41	20918
814.551	20648
814.692	20933
814.833	20701
814.974	20682
815.115	20796
815.256	20564
815.397	20655
815.539	20693
815.68	20530
815.821	20473
815.962	20579
816.103	20514
816.244	20317
816.385	20103
816.526	20218
816.666	20107
816.807	19944
816.948	20024
817.089	19993
817.23	19997
817.371	19898
817.512	19894
817.653	19883
817.793	20005
817.934	19913
818.075	19928
818.216	20031
818.356	19936
818.497	19742
818.638	19537
818.778	19563
818.919	19655
819.06	19590
819.2	19723
819.341	19727
819.481	19837
819.622	19982
819.762	20096
819.903	20115
820.043	19909
820.184	19944
820.324	19959
820.465	19909
820.605	19807
820.746	19769
820.886	19776
821.026	19852
821.167	19772
821.307	19928
821.447	19791
821.588	19795
821.728	19480
821.868	19544
822.008	19297
822.149	19331
822.289	19339
822.429	19110
822.569	19019
822.709	18951
822.849	18783
822.99	18711
823.13	18749
823.27	18692
823.41	18582
823.55	18464
823.69	18661
823.83	18601
823.97	18426
824.11	18433
824.25	18407
824.389	18414
824.529	18486
824.669	18361
824.809	18479
824.949	18483
825.089	18422
825.228	18311
825.368	18266
825.508	18224
825.648	18209
825.787	18197
825.927	18247
826.067	18117
826.206	18144
826.346	18182
826.485	18140
826.625	18205
826.765	18304
826.904	18209
827.044	17958
827.183	17904
827.323	17863
827.462	17897
827.601	17859
827.741	17802
827.88	17794
828.02	17733
828.159	17687
828.298	17935
828.437	17893
828.577	17927
828.716	17969
828.855	17851
828.994	17535
829.134	17509
829.273	17509
829.412	17687
829.551	17505
829.69	17577
829.829	17596
829.968	17638
830.107	17710
830.246	17714
830.385	17524
830.524	17596
830.663	17421
830.802	17391
830.941	17261
831.08	17132
831.219	17395
831.357	17311
831.496	17478
831.635	17193
831.774	17147
831.913	17140
832.051	16991
832.19	16984
832.329	17056
832.467	16957
832.606	16892
832.744	16946
832.883	16976
833.022	16858
833.16	16866
833.299	16946
833.437	16980
833.576	16946
833.714	16987
833.852	16984
833.991	17056
834.129	17071
834.267	17083
834.406	17014
834.544	17071
834.682	17102
834.821	16934
834.959	17117
835.097	16869
835.235	17056
835.373	17064
835.511	17018
835.65	16828
835.788	16843
835.926	16877
836.064	16607
836.202	16668
836.34	16869
836.478	17003
836.615	16919
836.753	16854
836.891	17025
837.029	16942
837.167	16904
837.305	16881
837.443	16744
837.58	16725
837.718	16869
837.856	16672
837.993	16763
838.131	16824
838.269	16668
838.406	16615
838.544	16626
838.681	16550
838.819	16417
838.956	16265
839.094	16394
839.231	16337
839.369	16459
839.506	16691
839.643	16535
839.781	16303
839.918	16306
840.055	16386
840.193	16242
840.33	16257
840.467	16226
840.604	16367
840.742	16535
840.879	16055
841.016	16230
841.153	16124
841.29	16421
841.427	16295
841.564	16280
841.701	16280
841.838	16436
841.975	16306
842.112	16204
842.249	16093
842.385	16036
842.522	16215
842.659	16048
842.796	16032
842.933	16078
843.069	16055
843.206	16029
843.343	16169
843.479	15968
843.616	16067
843.752	15804
843.889	15827
844.025	16021
844.162	15869
844.298	16090
844.435	15888
844.571	15827
844.708	15899
844.844	16010
844.98	16105
845.117	15937
845.253	15789
845.389	15804
845.525	15850
845.661	15838
845.798	15857
845.934	15968
846.07	15876
846.206	15888
846.342	15987
846.478	15759
846.614	15595
846.75	15488
846.886	15431
847.022	15545
847.158	15462
847.294	15458
847.429	15492
847.565	15424
847.701	15682
847.837	15275
847.972	15146
848.108	15370
848.244	15157
848.379	15062
848.515	14948
848.65	14998
848.786	15043
848.921	15055
849.057	15017
849.192	15058
849.328	15062
849.463	15070
849.598	15017
849.734	14906
849.869	14929
850.004	14724
850.14	14872
850.275	14754
850.41	14754
850.545	14765
850.68	14743
850.815	14750
850.95	14727
851.085	14963
851.22	14921
851.355	14781
851.49	14758
851.625	14674
851.76	14762
851.895	14613
852.03	14640
852.165	14758
852.299	14834
852.434	14872
852.569	14765
852.703	14819
852.838	14853
852.973	14952
853.107	14845
853.242	14792
853.376	14590
853.511	14537
853.645	14636
853.78	14758
853.914	14750
854.048	14579
854.183	14583
854.317	14613
854.451	14849
854.585	14720
854.72	14606
854.854	14739
854.988	14590
855.122	14583
855.256	14492
855.39	14644
855.524	14716
855.658	14663
855.792	14708
855.926	14640
856.06	14632
856.194	14735
856.327	14606
856.461	14583
856.595	14659
856.729	14571
856.862	14769
856.996	14708
857.13	14777
857.263	14777
857.397	14811
857.53	14629
857.664	14762
857.797	14720
857.931	14727
858.064	14667
858.197	14762
858.331	14678
858.464	14568
858.597	14682
858.731	14678
858.864	14640
858.997	14629
859.13	14640
859.263	14697
859.396	14754
859.529	14636
859.662	14693
859.795	14598
859.928	14731
860.061	14785
860.194	14887
860.327	14781
860.46	14636
860.592	14686
860.725	14735
860.858	14727
860.99	14678
861.123	14556
861.256	14625
861.388	14632
861.521	15306
861.653	14556
861.786	14492
861.918	14518
862.05	14602
862.183	14606
862.315	14629
862.447	14488
862.58	14507
862.712	14377
862.844	14358
862.976	14476
863.108	14480
863.24	14834
863.372	14377
863.504	14442
863.636	14305
863.768	14484
863.9	14393
864.032	14385
864.164	14461
864.296	14431
864.428	14465
864.559	14438
864.691	14442
864.823	14442
864.954	14419
865.086	14469
865.217	14412
865.349	14366
865.48	14492
865.612	14408
865.743	14511
865.875	14381
866.006	14343
866.137	14480
866.269	14446
866.4	14476
866.531	14290
866.662	14305
866.793	14294
866.924	14374
867.055	14339
867.186	14404
867.317	14347
867.448	14358
867.579	14286
867.71	14374
867.841	14317
867.972	14339
868.103	14412
868.233	14461
868.364	14313
868.495	14511
868.625	14640
868.756	14701
868.886	14571
869.017	14636
869.147	14693
869.278	14705
869.408	14659
869.539	14575
869.669	14705
869.799	14754
869.929	14777
870.06	14644
870.19	14804
870.32	15009
870.45	15001
870.58	15085
870.71	15070
870.84	15154
870.97	15089
871.1	14990
871.23	15180
871.36	15256
871.489	15108
871.619	15203
871.749	15275
871.879	15218
872.008	15336
872.138	15275
872.267	15135
872.397	15051
872.526	15104
872.656	15093
872.785	15135
872.915	15279
873.044	15302
873.173	15298
873.303	15325
873.432	15367
873.561	15321
873.69	15268
873.819	15272
873.948	15340
874.077	15397
874.206	15116
874.335	15287
874.464	15542
874.593	15439
874.722	15542
874.851	15667
874.979	15724
875.108	15705
875.237	15534
875.365	15443
875.494	15572
875.623	15675
875.751	15553
875.88	15614
876.008	15736
876.136	15838
876.265	16010
876.393	16093
876.521	16124
876.65	16101
876.778	15994
876.906	16002
877.034	15987
877.162	16002
877.29	15907
877.418	15949
877.546	16021
877.674	16040
877.802	15987
877.93	16074
878.058	15964
878.185	15884
878.313	15956
878.441	16055
878.568	15876
878.696	16048
878.824	16105
878.951	16162
879.079	16158
879.206	16398
879.333	16287
879.461	16226
879.588	16230
879.715	16344
879.842	16390
879.97	16204
880.097	15941
880.224	15812
880.351	15873
880.478	15873
880.605	15854
880.732	15876
880.859	16147
880.986	15972
881.112	15956
881.239	15785
881.366	15667
881.493	15568
881.619	15595
881.746	15488
881.872	15507
881.999	15462
882.125	15568
882.252	15603
882.378	15542
882.505	15679
882.631	15439
882.757	15435
882.883	15393
883.01	15313
883.136	15310
883.262	15157
883.388	15203
883.514	15348
883.64	15336
883.766	15382
883.892	15291
884.018	15199
884.143	15393
884.269	15405
884.395	15043
884.52	15055
884.646	15112
884.772	15043
884.897	14933
885.023	15074
885.148	15157
885.274	15245
885.399	15039
885.524	15077
885.65	15055
885.775	15055
885.9	15017
886.025	15138
886.15	15180
886.275	14872
886.4	15005
886.525	14967
886.65	14933
886.775	14941
886.9	15097
887.025	15241
887.149	14979
887.274	14902
887.399	14811
887.523	14895
887.648	14708
887.773	14834
887.897	14887
888.021	14929
888.146	14834
888.27	14960
888.395	14941
888.519	14990
888.643	14998
888.767	14891
888.891	14693
889.015	14606
889.139	14727
889.263	14765
889.387	14830
889.511	14887
889.635	14849
889.759	14735
889.883	14674
890.006	14754
890.13	14731
890.254	14575
890.377	14712
890.501	14465
890.624	14560
890.748	14571
890.871	14511
890.995	14381
891.118	14343
891.241	14469
891.364	14374
891.488	14434
891.611	14484
891.734	14419
891.857	14415
891.98	14526
892.103	14480
892.226	14446
892.349	14461
892.471	14339
892.594	14313
892.717	14381
892.839	14377
892.962	14393
893.085	14552
893.207	14351
893.33	14275
893.452	14362
893.575	14465
893.697	14465
893.819	14594
893.941	14670
894.064	14568
894.186	14294
894.308	14347
894.43	14571
894.552	14587
894.674	14568
894.796	14309
894.918	14503
895.04	14377
895.161	14549
895.283	14602
895.405	14396
895.526	14457
895.648	14450
895.769	14492
895.891	14511
896.012	14617
896.134	14590
896.255	14606
896.376	14518
896.498	14514
896.619	14583
896.74	14606
896.861	14693
896.982	14914
897.103	14960
897.224	14899
897.345	14739
897.466	14724
897.587	14773
897.708	14963
897.828	14914
897.949	14811
898.07	14777
898.19	14788
898.311	14891
898.431	14781
898.552	14937
898.672	15024
898.792	15017
898.913	14861
899.033	14891
899.153	14765
899.273	14632
899.393	14716
899.513	14716
899.633	14720
899.753	14849
899.873	14754
899.993	14849
900.113	14705
900.232	14750
900.352	14670
900.472	14663
900.591	14514
900.711	14533
900.83	14610
900.95	14708
901.069	14746
901.189	14625
901.308	14358
901.427	14313
901.546	14294
901.665	14324
901.784	14343
901.904	14180
902.023	14043
902.141	13868
902.26	13871
902.379	13970
902.498	13852
902.617	13833
902.735	13849
902.854	13738
902.973	13814
903.091	13533
903.21	13582
903.328	13624
903.446	13476
903.565	13422
903.683	13426
903.801	13388
903.919	13400
904.038	13415
904.156	13244
904.274	13282
904.392	13247
904.51	13149
904.627	13213
904.745	13301
904.863	13278
904.981	13046
905.098	12886
905.216	12966
905.334	12875
905.451	12928
905.569	12890
905.686	13004
905.803	12954
905.921	12719
906.038	12802
906.155	12726
906.272	12597
906.389	12722
906.506	12494
906.623	12544
906.74	12547
906.857	12376
906.974	12452
907.091	12547
907.208	12650
907.324	12544
907.441	12471
907.557	12182
907.674	12323
907.79	12205
907.907	12133
908.023	12254
908.139	12216
908.256	12228
908.372	12220
908.488	12159
908.604	12007
908.72	11999
908.836	12034
908.952	11988
909.068	12041
909.184	12121
909.3	12026
909.415	12007
909.531	11999
909.647	11863
909.762	11764
909.878	11699
909.993	11805
910.108	11836
910.224	11726
910.339	11775
910.454	11642
910.57	11608
910.685	11600
910.8	11798
910.915	11710
911.03	11642
911.145	11516
911.259	11455
911.374	11417
911.489	11448
911.604	11296
911.718	11208
911.833	11223
911.947	11178
912.062	11006
912.176	11197
912.291	11197
912.405	11143
912.519	11421
912.633	11360
912.748	11322
912.862	11201
912.976	11010
913.09	11003
913.204	11064
913.318	11109
913.431	11121
913.545	11216
913.659	11201
913.772	11094
913.886	10991
914	10934
914.113	11014
914.226	11045
914.34	11124
914.453	10839
914.566	10968
914.68	11037
914.793	10881
914.906	10714
915.019	10664
915.132	10656
915.245	10717
915.358	10714
915.47	10672
915.583	10702
915.696	10691
915.809	10850
915.921	10900
916.034	10668
916.146	10630
916.259	10641
916.371	10717
916.483	10744
916.595	10683
916.708	10622
916.82	10641
916.932	10611
917.044	10569
917.156	10615
917.268	10466
917.38	10531
917.491	10580
917.603	10516
917.715	10611
917.826	10656
917.938	10523
918.049	10474
918.161	10535
918.272	10607
918.384	10664
918.495	10542
918.606	10432
918.717	10413
918.828	10432
918.939	10455
919.05	10310
919.161	10386
919.272	10219
919.383	10234
919.494	10447
919.604	10664
919.715	10466
919.826	10367
919.936	10348
920.047	10440
920.157	10352
920.267	10588
920.378	10417
920.488	10375
920.598	10607
920.708	10706
920.818	10653
920.928	10588
921.038	10786
921.148	10630
921.258	10466
921.368	10382
921.477	10310
921.587	10280
921.697	10200
921.806	10246
921.916	10196
922.025	9983
922.134	9991
922.244	9907
922.353	10002
922.462	9842
922.571	9808
922.68	9667
922.789	9618
922.898	9660
923.007	9633
923.116	9637
923.224	9610
923.333	9705
923.442	9553
923.55	9443
923.659	9523
923.767	9561
923.876	9530
923.984	9549
924.092	9500
924.201	9439
924.309	9496
924.417	9428
924.525	9450
924.633	9545
924.741	10398
924.849	9332
924.956	9454
925.064	9336
925.172	9188
925.279	9268
925.387	9287
925.494	9321
925.602	9431
925.709	9348
925.816	9275
925.924	9310
926.031	9454
926.138	9306
926.245	9378
926.352	9214
926.459	9374
926.566	9408
926.673	9310
926.779	9135
926.886	9062
926.993	8998
927.099	8994
927.206	8925
927.312	8963
927.419	9032
927.525	8967
927.631	9089
927.737	8937
927.843	8823
927.95	8781
928.056	8864
928.162	8963
928.267	8910
928.373	9511
928.479	9028
928.585	8792
928.69	8758
928.796	8944
928.901	8815
929.007	8693
929.112	8834
929.218	8811
929.323	8746
929.428	8708
929.533	8864
929.638	8693
929.743	8731
929.848	8674
929.953	8693
930.058	8625
930.163	8511
930.267	8499
930.372	8598
930.477	8423
930.581	8766
930.685	8549
930.79	8484
930.894	8465
930.998	8389
931.103	8549
931.207	8195
931.311	8161
931.415	8065
931.519	7967
931.623	7902
