Data from test_V78500241_1607.txt Node
Date: Fri Mar 25 14:44:54 CST 2022
User: usil
Spectrometer: V785-0024
Trigger mode: 0
Integration Time (sec): 4.000000E-1
Scans to average: 1
Nonlinearity correction enabled: false
Boxcar width: 0
Storing dark spectrum: false
XAxis mode: Wavelengths
Number of Pixels in Spectrum: 1024
>>>>>Begin Spectral Data<<<<<
801.071	22322
801.214	22196
801.356	22021
801.499	21907
801.641	21679
801.783	21698
801.926	21587
802.068	21671
802.211	21660
802.353	21367
802.496	21298
802.638	21123
802.78	21138
802.923	21127
803.065	20914
803.208	20956
803.35	20967
803.492	21100
803.635	21214
803.777	21154
803.919	21150
804.061	21447
804.204	21127
804.346	21081
804.488	21074
804.63	20929
804.773	20876
804.915	20880
805.057	21100
805.199	20982
805.341	21017
805.483	21089
805.626	21013
805.768	21009
805.91	20971
806.052	21165
806.194	20842
806.336	21058
806.478	21104
806.62	20921
806.762	20963
806.904	21214
807.046	21359
807.188	21367
807.33	21348
807.472	21401
807.614	21230
807.756	21310
807.898	21043
808.04	20986
808.182	21066
808.324	21138
808.465	21146
808.607	21393
808.749	21515
808.891	21557
809.033	21553
809.174	21595
809.316	21443
809.458	21450
809.6	21401
809.741	21359
809.883	21481
810.025	21583
810.166	21545
810.308	21530
810.45	21500
810.591	21405
810.733	21332
810.875	21154
811.016	21024
811.158	21112
811.299	21249
811.441	21260
811.582	21275
811.724	21154
811.865	21131
812.007	21009
812.148	21230
812.29	21279
812.431	21416
812.573	21477
812.714	21485
812.855	21732
812.997	21736
813.138	21934
813.279	21705
813.421	21633
813.562	21462
813.703	21321
813.845	21363
813.986	21062
814.127	20952
814.268	20811
814.41	20739
814.551	20750
814.692	20754
814.833	20533
814.974	20731
815.115	20720
815.256	20667
815.397	20579
815.539	20545
815.68	20492
815.821	20374
815.962	20427
816.103	20396
816.244	20210
816.385	20229
816.526	20176
816.666	20001
816.807	19917
816.948	19982
817.089	19890
817.23	19909
817.371	19833
817.512	19807
817.653	19841
817.793	19799
817.934	19833
818.075	19890
818.216	19807
818.356	19856
818.497	19578
818.638	19525
818.778	19635
818.919	19552
819.06	19502
819.2	19658
819.341	19715
819.481	19753
819.622	19830
819.762	20043
819.903	20008
820.043	19932
820.184	19822
820.324	19822
820.465	19951
820.605	19689
820.746	19818
820.886	19666
821.026	19811
821.167	19757
821.307	19746
821.447	19769
821.588	19719
821.728	19438
821.868	19419
822.008	19236
822.149	19251
822.289	19126
822.429	19031
822.569	18913
822.709	19004
822.849	18711
822.99	18669
823.13	18616
823.27	18688
823.41	18532
823.55	18513
823.69	18715
823.83	18502
823.97	18467
824.11	18296
824.25	18262
824.389	18338
824.529	18330
824.669	18372
824.809	18407
824.949	18513
825.089	18289
825.228	18213
825.368	18178
825.508	18125
825.648	18129
825.787	18064
825.927	18174
826.067	17908
826.206	18068
826.346	18083
826.485	17977
826.625	18041
826.765	18228
826.904	18110
827.044	17878
827.183	17863
827.323	17783
827.462	17855
827.601	17760
827.741	17752
827.88	17798
828.02	17638
828.159	17771
828.298	17817
828.437	17946
828.577	17592
828.716	17866
828.855	17817
828.994	17322
829.134	17596
829.273	17539
829.412	17429
829.551	17516
829.69	17398
829.829	17535
829.968	17577
830.107	17547
830.246	17547
830.385	17433
830.524	17376
830.663	17258
830.802	17220
830.941	17090
831.08	17056
831.219	17254
831.357	17208
831.496	17303
831.635	17102
831.774	17045
831.913	16980
832.051	16881
832.19	16866
832.329	17033
832.467	16687
832.606	16778
832.744	16767
832.883	16782
833.022	16820
833.16	16812
833.299	16972
833.437	16854
833.576	16778
833.714	16835
833.852	16839
833.991	16790
834.129	16892
834.267	16885
834.406	16934
834.544	16919
834.682	16881
834.821	16873
834.959	16896
835.097	16786
835.235	16919
835.373	16965
835.511	16923
835.65	16691
835.788	16755
835.926	16569
836.064	16554
836.202	16538
836.34	16805
836.478	16889
836.615	16702
836.753	16668
836.891	16809
837.029	16759
837.167	16691
837.305	16641
837.443	16588
837.58	16561
837.718	16725
837.856	16641
837.993	16535
838.131	16615
838.269	16558
838.406	16466
838.544	16440
838.681	16363
838.819	16261
838.956	16139
839.094	16166
839.231	16207
839.369	16337
839.506	16535
839.643	16390
839.781	16192
839.918	16040
840.055	16200
840.193	16177
840.33	16173
840.467	16082
840.604	16219
840.742	16455
840.879	16116
841.016	16109
841.153	16010
841.29	16291
841.427	16051
841.564	16204
841.701	16029
841.838	16120
841.975	15987
842.112	16090
842.249	15831
842.385	15911
842.522	16249
842.659	15983
842.796	15983
842.933	15857
843.069	15808
843.206	15915
843.343	15941
843.479	15911
843.616	15964
843.752	15698
843.889	15641
844.025	15915
844.162	15766
844.298	15709
844.435	15743
844.571	15644
844.708	15717
844.844	15781
844.98	15930
845.117	15865
845.253	15572
845.389	15561
845.525	15660
845.661	15633
845.798	15652
845.934	15591
846.07	15530
846.206	15641
846.342	15789
846.478	15542
846.614	15382
846.75	15214
846.886	15332
847.022	15370
847.158	15313
847.294	15306
847.429	15321
847.565	15230
847.701	15507
847.837	15093
847.972	14956
848.108	15039
848.244	15036
848.379	15001
848.515	14842
848.65	14910
848.786	14830
848.921	14815
849.057	14887
849.192	14899
849.328	14933
849.463	14857
849.598	14876
849.734	14712
849.869	14826
850.004	14769
850.14	14712
850.275	14686
850.41	14549
850.545	14575
850.68	14568
850.815	14648
850.95	14610
851.085	14864
851.22	14758
851.355	14674
851.49	14636
851.625	14621
851.76	14648
851.895	14541
852.03	14549
852.165	14552
852.299	14678
852.434	14686
852.569	14678
852.703	14632
852.838	14735
852.973	14811
853.107	14788
853.242	14594
853.376	14473
853.511	14476
853.645	14438
853.78	14552
853.914	14583
854.048	14571
854.183	14457
854.317	14533
854.451	14617
854.585	14434
854.72	14495
854.854	14530
854.988	14377
855.122	14419
855.256	14225
855.39	14465
855.524	14621
855.658	14598
855.792	14514
855.926	14533
856.06	14568
856.194	14621
856.327	14434
856.461	14404
856.595	14427
856.729	14488
856.862	14613
856.996	14461
857.13	14663
857.263	14621
857.397	14640
857.53	14446
857.664	14549
857.797	14579
857.931	14606
858.064	14606
858.197	14621
858.331	14579
858.464	14476
858.597	14377
858.731	14454
858.864	14396
858.997	14457
859.13	14598
859.263	14571
859.396	14533
859.529	14499
859.662	14476
859.795	14427
859.928	14537
860.061	14556
860.194	14644
860.327	14571
860.46	14499
860.592	14693
860.725	14667
860.858	14659
860.99	14495
861.123	14419
861.256	14419
861.388	14625
861.521	15252
861.653	14389
861.786	14286
861.918	14301
862.05	14431
862.183	14499
862.315	14492
862.447	14461
862.58	14495
862.712	14290
862.844	14298
862.976	14366
863.108	14305
863.24	14746
863.372	14183
863.504	14298
863.636	14180
863.768	14389
863.9	14298
864.032	14161
864.164	14183
864.296	14237
864.428	14412
864.559	14343
864.691	14309
864.823	14313
864.954	14244
865.086	14267
865.217	14225
865.349	14138
865.48	14202
865.612	14313
865.743	14465
865.875	14275
866.006	14210
866.137	14290
866.269	14221
866.4	14259
866.531	14324
866.662	14168
866.793	14263
866.924	14134
867.055	14252
867.186	14290
867.317	14180
867.448	14202
867.579	14214
867.71	14145
867.841	14130
867.972	14199
868.103	14195
868.233	14282
868.364	14187
868.495	14309
868.625	14488
868.756	14613
868.886	14408
869.017	14522
869.147	14587
869.278	14621
869.408	14446
869.539	14412
869.669	14476
869.799	14545
869.929	14667
870.06	14571
870.19	14842
870.32	14800
870.45	14804
870.58	14876
870.71	14948
870.84	15020
870.97	14971
871.1	14910
871.23	15020
871.36	15108
871.489	15089
871.619	15013
871.749	15142
871.879	15176
872.008	15214
872.138	15188
872.267	15093
872.397	14967
872.526	15005
872.656	14872
872.785	14933
872.915	15028
873.044	15173
873.173	15184
873.303	15161
873.432	15085
873.561	15188
873.69	15195
873.819	15157
873.948	15195
874.077	15150
874.206	15051
874.335	15146
874.464	15313
874.593	15492
874.722	15405
874.851	15469
874.979	15450
875.108	15408
875.237	15389
875.365	15412
875.494	15466
875.623	15526
875.751	15363
875.88	15477
876.008	15564
876.136	15694
876.265	15827
876.393	16044
876.521	15926
876.65	16124
876.778	15838
876.906	15850
877.034	15831
877.162	15854
877.29	15717
877.418	15846
877.546	15945
877.674	15835
877.802	15865
877.93	15869
878.058	15876
878.185	15736
878.313	15884
878.441	15869
878.568	15732
878.696	15785
878.824	15903
878.951	15880
879.079	16112
879.206	16284
879.333	16044
879.461	16074
879.588	16105
879.715	16059
879.842	16162
879.97	15960
880.097	15778
880.224	15713
880.351	15785
880.478	15717
880.605	15762
880.732	15671
880.859	15880
880.986	15831
881.112	15827
881.239	15648
881.366	15542
881.493	15481
881.619	15401
881.746	15397
881.872	15351
881.999	15329
882.125	15317
882.252	15412
882.378	15298
882.505	15450
882.631	15313
882.757	15176
882.883	15256
883.01	15165
883.136	15112
883.262	15028
883.388	15013
883.514	15245
883.64	15230
883.766	15070
883.892	14979
884.018	15051
884.143	15142
884.269	15176
884.395	14990
884.52	14937
884.646	14952
884.772	14842
884.897	14785
885.023	14960
885.148	14994
885.274	15066
885.399	14952
885.524	14975
885.65	14868
885.775	15020
885.9	14773
886.025	14971
886.15	14971
886.275	14807
886.4	14807
886.525	14933
886.65	14815
886.775	14735
886.9	14982
887.025	15161
887.149	14937
887.274	14785
887.399	14682
887.523	14640
887.648	14632
887.773	14701
887.897	14708
888.021	14792
888.146	14621
888.27	14853
888.395	14826
888.519	14785
888.643	14754
888.767	14819
888.891	14629
889.015	14571
889.139	14613
889.263	14537
889.387	14796
889.511	14735
889.635	14765
889.759	14507
889.883	14602
890.006	14511
890.13	14693
890.254	14560
890.377	14602
890.501	14347
890.624	14442
890.748	14507
890.871	14404
890.995	14183
891.118	14088
891.241	14301
891.364	14278
891.488	14377
891.611	14206
891.734	14400
891.857	14324
891.98	14336
892.103	14358
892.226	14275
892.349	14305
892.471	14096
892.594	14332
892.717	14377
892.839	14202
892.962	14301
893.085	14355
893.207	14317
893.33	14267
893.452	14218
893.575	14343
893.697	14278
893.819	14408
893.941	14427
894.064	14473
894.186	14286
894.308	14252
894.43	14366
894.552	14514
894.674	14431
894.796	14168
894.918	14267
895.04	14358
895.161	14465
895.283	14355
895.405	14263
895.526	14320
895.648	14294
895.769	14404
895.891	14518
896.012	14549
896.134	14511
896.255	14431
896.376	14362
896.498	14442
896.619	14484
896.74	14461
896.861	14499
896.982	14792
897.103	15005
897.224	14765
897.345	14739
897.466	14575
897.587	14682
897.708	14868
897.828	14678
897.949	14670
898.07	14511
898.19	14667
898.311	14807
898.431	14708
898.552	14750
898.672	14899
898.792	14971
898.913	14845
899.033	14716
899.153	14621
899.273	14579
899.393	14689
899.513	14659
899.633	14636
899.753	14697
899.873	14606
899.993	14712
900.113	14648
900.232	14590
900.352	14621
900.472	14621
900.591	14507
900.711	14583
900.83	14446
900.95	14621
901.069	14568
901.189	14522
901.308	14256
901.427	14199
901.546	14233
901.665	14259
901.784	14256
901.904	14126
902.023	13951
902.141	13837
902.26	13719
902.379	13906
902.498	13791
902.617	13704
902.735	13799
902.854	13689
902.973	13670
903.091	13457
903.21	13510
903.328	13537
903.446	13316
903.565	13350
903.683	13263
903.801	13225
903.919	13293
904.038	13152
904.156	13141
904.274	13137
904.392	13080
904.51	13187
904.627	13110
904.745	13202
904.863	13202
904.981	12905
905.098	12817
905.216	12859
905.334	12894
905.451	12833
905.569	12757
905.686	12764
905.803	12802
905.921	12585
906.038	12772
906.155	12658
906.272	12509
906.389	12585
906.506	12372
906.623	12433
906.74	12407
906.857	12315
906.974	12327
907.091	12479
907.208	12486
907.324	12441
907.441	12289
907.557	12190
907.674	12133
907.79	12064
907.907	12095
908.023	12190
908.139	12110
908.256	12095
908.372	12060
908.488	11977
908.604	11942
908.72	11824
908.836	11805
908.952	11832
909.068	11901
909.184	12015
909.3	11935
909.415	11984
909.531	11950
909.647	11695
909.762	11634
909.878	11619
909.993	11745
910.108	11756
910.224	11649
910.339	11718
910.454	11649
910.57	11459
910.685	11474
910.8	11760
910.915	11733
911.03	11547
911.145	11463
911.259	11337
911.374	11478
911.489	11220
911.604	11227
911.718	11151
911.833	11181
911.947	10953
912.062	10999
912.176	11083
912.291	11121
912.405	11014
912.519	11280
912.633	11299
912.748	11189
912.862	11067
912.976	11014
913.09	10896
913.204	10915
913.318	10991
913.431	11079
913.545	11052
913.659	11166
913.772	11018
913.886	10877
914	10873
914.113	10995
914.226	11029
914.34	10987
914.453	10767
914.566	11037
914.68	10835
914.793	10729
914.906	10656
915.019	10596
915.132	10554
915.245	10687
915.358	10698
915.47	10710
915.583	10656
915.696	10660
915.809	10679
915.921	10889
916.034	10637
916.146	10596
916.259	10485
916.371	10656
916.483	10729
916.595	10527
916.708	10546
916.82	10584
916.932	10519
917.044	10493
917.156	10580
917.268	10394
917.38	10459
917.491	10493
917.603	10558
917.715	10554
917.826	10573
917.938	10519
918.049	10348
918.161	10546
918.272	10527
918.384	10664
918.495	10493
918.606	10371
918.717	10253
918.828	10363
918.939	10394
919.05	10211
919.161	10432
919.272	10177
919.383	10188
919.494	10417
919.604	10637
919.715	10341
919.826	10344
919.936	10390
920.047	10436
920.157	10421
920.267	10584
920.378	10409
920.488	10390
920.598	10542
920.708	10683
920.818	10489
920.928	10584
921.038	10759
921.148	10691
921.258	10424
921.368	10299
921.477	10234
921.587	10192
921.697	10067
921.806	10265
921.916	10131
922.025	9956
922.134	9888
922.244	9941
922.353	9964
922.462	9846
922.571	9759
922.68	9690
922.789	9587
922.898	9698
923.007	9564
923.116	9663
923.224	9614
923.333	9648
923.442	9545
923.55	9488
923.659	9504
923.767	9580
923.876	9450
923.984	9584
924.092	9462
924.201	9530
924.309	9523
924.417	9557
924.525	9485
924.633	9447
924.741	10227
924.849	9294
924.956	9408
925.064	9253
925.172	9161
925.279	9237
925.387	9325
925.494	9275
925.602	9458
925.709	9344
925.816	9256
925.924	9237
926.031	9321
926.138	9241
926.245	9279
926.352	9203
926.459	9237
926.566	9393
926.673	9146
926.779	9161
926.886	9176
926.993	8971
927.099	8944
927.206	8906
927.312	8925
927.419	9032
927.525	8998
927.631	9055
927.737	8956
927.843	8925
927.95	8773
928.056	8872
928.162	8902
928.267	8914
928.373	9431
928.479	8998
928.585	8800
928.69	8861
928.796	8925
928.901	8849
929.007	8674
929.112	8743
929.218	8796
929.323	8731
929.428	8636
929.533	8864
929.638	8636
929.743	8659
929.848	8758
929.953	8655
930.058	8587
930.163	8473
930.267	8484
930.372	8564
930.477	8446
930.581	8655
930.685	8518
930.79	8362
930.894	8358
930.998	8355
931.103	8541
931.207	8180
931.311	8164
931.415	8027
931.519	7917
931.623	7913
