Data from test_V78500241_127.txt Node
Date: Fri Mar 25 14:34:36 CST 2022
User: usil
Spectrometer: V785-0024
Trigger mode: 0
Integration Time (sec): 4.000000E-1
Scans to average: 1
Nonlinearity correction enabled: false
Boxcar width: 0
Storing dark spectrum: false
XAxis mode: Wavelengths
Number of Pixels in Spectrum: 1024
>>>>>Begin Spectral Data<<<<<
801.071	30129
801.214	30034
801.356	29703
801.499	29726
801.641	29448
801.783	29501
801.926	29531
802.068	29501
802.211	29547
802.353	29383
802.496	29318
802.638	29212
802.78	29193
802.923	29052
803.065	29140
803.208	29079
803.35	29296
803.492	29440
803.635	29391
803.777	29383
803.919	29311
804.061	29634
804.204	29463
804.346	29433
804.488	29406
804.63	29448
804.773	29341
804.915	29520
805.057	29653
805.199	29512
805.341	29790
805.483	29859
805.626	29958
805.768	29817
805.91	29855
806.052	30007
806.194	30030
806.336	30521
806.478	30509
806.62	30547
806.762	30635
806.904	31175
807.046	31597
807.188	31845
807.33	32225
807.472	32750
807.614	33051
807.756	33873
807.898	34603
808.04	35627
808.182	37198
808.324	39119
808.465	41375
808.607	44119
808.749	46036
808.891	47417
809.033	47501
809.174	45964
809.316	43906
809.458	41402
809.6	38967
809.741	36856
809.883	35280
810.025	34196
810.166	33405
810.308	32834
810.45	32297
810.591	32035
810.733	31552
810.875	31236
811.016	31000
811.158	30802
811.299	30764
811.441	30741
811.582	30722
811.724	30422
811.865	30399
812.007	30194
812.148	30182
812.29	30102
812.431	30216
812.573	30407
812.714	30464
812.855	30627
812.997	30464
813.138	30563
813.279	30528
813.421	30483
813.562	30178
813.703	30155
813.845	29980
813.986	29608
814.127	29448
814.268	29364
814.41	29292
814.551	29140
814.692	29296
814.833	29109
814.974	29189
815.115	29284
815.256	28946
815.397	28968
815.539	28930
815.68	28828
815.821	28713
815.962	28744
816.103	28691
816.244	28649
816.385	28459
816.526	28443
816.666	28287
816.807	28135
816.948	28051
817.089	28048
817.23	28070
817.371	28067
817.512	27975
817.653	27892
817.793	27949
817.934	27972
818.075	27987
818.216	27949
818.356	27903
818.497	27975
818.638	27701
818.778	27682
818.919	27736
819.06	27797
819.2	27861
819.341	27899
819.481	27956
819.622	28169
819.762	28196
819.903	28051
820.043	28131
820.184	27869
820.324	28017
820.465	27914
820.605	27907
820.746	27789
820.886	27660
821.026	27835
821.167	27694
821.307	27888
821.447	27709
821.588	27553
821.728	27416
821.868	27332
822.008	26998
822.149	27180
822.289	27135
822.429	26956
822.569	26720
822.709	26815
822.849	26568
822.99	26609
823.13	26526
823.27	26434
823.41	26301
823.55	26183
823.69	26389
823.83	26374
823.97	26168
824.11	26202
824.25	25993
824.389	26073
824.529	26275
824.669	26103
824.809	26157
824.949	26229
825.089	26210
825.228	26084
825.368	26024
825.508	25845
825.648	25944
825.787	25883
825.927	25955
826.067	25921
826.206	25788
826.346	25887
826.485	26058
826.625	25966
826.765	26012
826.904	25917
827.044	25708
827.183	25609
827.323	25624
827.462	25609
827.601	25655
827.741	25502
827.88	25544
828.02	25403
828.159	25499
828.298	25533
828.437	25518
828.577	25491
828.716	25594
828.855	25403
828.994	25175
829.134	25240
829.273	25225
829.412	25312
829.551	25088
829.69	25198
829.829	25266
829.968	25179
830.107	25282
830.246	25293
830.385	25160
830.524	25053
830.663	25057
830.802	24962
830.941	24681
831.08	24749
831.219	24837
831.357	24791
831.496	24973
831.635	24802
831.774	24734
831.913	24612
832.051	24525
832.19	24471
832.329	24654
832.467	24646
832.606	24486
832.744	24505
832.883	24540
833.022	24570
833.16	24639
833.299	24829
833.437	24821
833.576	25031
833.714	25148
833.852	25266
833.991	25263
834.129	25392
834.267	25346
834.406	25350
834.544	25343
834.682	25099
834.821	25046
834.959	25263
835.097	24817
835.235	24802
835.373	24741
835.511	24620
835.65	24460
835.788	24422
835.926	24140
836.064	24197
836.202	24041
836.34	24281
836.478	24270
836.615	24144
836.753	24262
836.891	24357
837.029	24098
837.167	24129
837.305	24125
837.443	24068
837.58	23878
837.718	24011
837.856	24053
837.993	24076
838.131	23950
838.269	23855
838.406	24003
838.544	23737
838.681	23630
838.819	23543
838.956	23341
839.094	23444
839.231	23440
839.369	23478
839.506	23623
839.643	23684
839.781	23376
839.918	23330
840.055	23368
840.193	23197
840.33	23345
840.467	23227
840.604	23254
840.742	23630
840.879	22999
841.016	23239
841.153	23136
841.29	23337
841.427	23197
841.564	23311
841.701	23185
841.838	23147
841.975	23132
842.112	23128
842.249	23006
842.385	22995
842.522	23162
842.659	23086
842.796	23124
842.933	23075
843.069	23048
843.206	23060
843.343	23220
843.479	23181
843.616	22995
843.752	22915
843.889	22828
844.025	23178
844.162	23200
844.298	23227
844.435	23303
844.571	23360
844.708	23608
844.844	23935
844.98	24350
845.117	24821
845.253	25384
845.389	26629
845.525	29383
845.661	33644
845.798	38697
845.934	42745
846.07	44069
846.206	43232
846.342	39679
846.478	34542
846.614	30148
846.75	27093
846.886	25544
847.022	24540
847.158	23748
847.294	23292
847.429	22999
847.565	22786
847.701	22904
847.837	22375
847.972	22207
848.108	22367
848.244	22234
848.379	22051
848.515	21903
848.65	21926
848.786	21888
848.921	21842
849.057	21918
849.192	21831
849.328	21797
849.463	21854
849.598	21869
849.734	21808
849.869	21614
850.004	21496
850.14	21606
850.275	21587
850.41	21511
850.545	21397
850.68	21447
850.815	21485
850.95	21511
851.085	21766
851.22	21572
851.355	21599
851.49	21412
851.625	21450
851.76	21507
851.895	21450
852.03	21306
852.165	21507
852.299	21519
852.434	21538
852.569	21580
852.703	21534
852.838	21599
852.973	21603
853.107	21713
853.242	21587
853.376	21450
853.511	21283
853.645	21534
853.78	21564
853.914	21595
854.048	21572
854.183	21473
854.317	21561
854.451	21861
854.585	21622
854.72	21519
854.854	21595
854.988	21405
855.122	21401
855.256	21268
855.39	21397
855.524	21450
855.658	21370
855.792	21568
855.926	21405
856.06	21405
856.194	21351
856.327	21264
856.461	21214
856.595	21310
856.729	21218
856.862	21420
856.996	21294
857.13	21367
857.263	21359
857.397	21279
857.53	21199
857.664	21291
857.797	21329
857.931	21317
858.064	21192
858.197	21332
858.331	21051
858.464	21161
858.597	21024
858.731	21112
858.864	21203
858.997	21077
859.13	21112
859.263	21176
859.396	21192
859.529	21066
859.662	21062
859.795	21074
859.928	21096
860.061	21230
860.194	21211
860.327	21131
860.46	21024
860.592	21173
860.725	21131
860.858	21116
860.99	21214
861.123	21032
861.256	21032
861.388	20998
861.521	21720
861.653	20994
861.786	20960
861.918	21100
862.05	21089
862.183	21116
862.315	21100
862.447	21272
862.58	21192
862.712	20952
862.844	20887
862.976	20971
863.108	20910
863.24	21169
863.372	20678
863.504	20705
863.636	20796
863.768	20853
863.9	20834
864.032	20659
864.164	20777
864.296	20727
864.428	20807
864.559	20834
864.691	20796
864.823	20807
864.954	20796
865.086	20769
865.217	20712
865.349	20625
865.48	20625
865.612	20724
865.743	20781
865.875	20712
866.006	20697
866.137	20590
866.269	20571
866.4	20648
866.531	20663
866.662	20579
866.793	20651
866.924	20556
867.055	20701
867.186	20526
867.317	20492
867.448	20533
867.579	20495
867.71	20530
867.841	20533
867.972	20560
868.103	20511
868.233	20526
868.364	20511
868.495	20648
868.625	20838
868.756	20941
868.886	20697
869.017	20910
869.147	20781
869.278	20857
869.408	20918
869.539	20708
869.669	20883
869.799	21051
869.929	20963
870.06	20876
870.19	21306
870.32	21245
870.45	21188
870.58	21283
870.71	21367
870.84	21355
870.97	21275
871.1	21268
871.23	21332
871.36	21519
871.489	21378
871.619	21469
871.749	21386
871.879	21576
872.008	21618
872.138	21416
872.267	21519
872.397	21389
872.526	21416
872.656	21405
872.785	21534
872.915	21663
873.044	21873
873.173	21629
873.303	21701
873.432	21660
873.561	21819
873.69	21698
873.819	21797
873.948	21918
874.077	21865
874.206	21819
874.335	21751
874.464	21869
874.593	22040
874.722	22040
874.851	22120
874.979	22341
875.108	22181
875.237	22131
875.365	22116
875.494	22291
875.623	22291
875.751	22226
875.88	22367
876.008	22550
876.136	22577
876.265	22911
876.393	23029
876.521	22930
876.65	23052
876.778	23090
876.906	23014
877.034	23029
877.162	23037
877.29	23067
877.418	23181
877.546	23406
877.674	23356
877.802	23334
877.93	23608
878.058	23668
878.185	23710
878.313	24026
878.441	24334
878.568	24388
878.696	24875
878.824	25594
878.951	26465
879.079	27663
879.206	29208
879.333	30791
879.461	31955
879.588	32819
879.715	32746
879.842	32229
879.97	30779
880.097	29014
880.224	27850
880.351	26944
880.478	26233
880.605	25871
880.732	25575
880.859	25594
880.986	25240
881.112	25114
881.239	25023
881.366	24928
881.493	24745
881.619	24795
881.746	24814
881.872	24772
881.999	24734
882.125	24894
882.252	24947
882.378	24901
882.505	25042
882.631	24802
882.757	24665
882.883	24734
883.01	24696
883.136	24681
883.262	24521
883.388	24471
883.514	24707
883.64	24681
883.766	24502
883.892	24608
884.018	24498
884.143	24525
884.269	24703
884.395	24483
884.52	24235
884.646	24471
884.772	24308
884.897	24228
885.023	24395
885.148	24350
885.274	24346
885.399	24232
885.524	23988
885.65	24034
885.775	23904
885.9	23885
886.025	23828
886.15	23558
886.275	23562
886.4	23436
886.525	23292
886.65	23162
886.775	23083
886.9	23235
887.025	23200
887.149	22831
887.274	22603
887.399	22554
887.523	22607
887.648	22440
887.773	22272
887.897	22436
888.021	22226
888.146	22067
888.27	22322
888.395	22204
888.519	22158
888.643	22067
888.767	21994
888.891	22048
889.015	21686
889.139	21850
889.263	21766
889.387	21812
889.511	21888
889.635	21747
889.759	21530
889.883	21625
890.006	21599
890.13	21652
890.254	21401
890.377	21325
890.501	21317
890.624	21203
890.748	21294
890.871	21062
890.995	20994
891.118	20925
891.241	20929
891.364	20952
891.488	20975
891.611	20883
891.734	20815
891.857	20880
891.98	20838
892.103	20842
892.226	20682
892.349	20693
892.471	20488
892.594	20667
892.717	20579
892.839	20518
892.962	20648
893.085	20492
893.207	20530
893.33	20309
893.452	20423
893.575	20511
893.697	20366
893.819	20571
893.941	20606
894.064	20522
894.186	20381
894.308	20244
894.43	20431
894.552	20503
894.674	20290
894.796	20126
894.918	20294
895.04	20263
895.161	20271
895.283	20195
895.405	20062
895.526	20119
895.648	20168
895.769	20240
895.891	20298
896.012	20202
896.134	20221
896.255	20084
896.376	20039
896.498	20024
896.619	20161
896.74	20278
896.861	20142
896.982	20427
897.103	20686
897.224	20381
897.345	20320
897.466	20317
897.587	20271
897.708	20427
897.828	20301
897.949	20187
898.07	20073
898.19	20149
898.311	20206
898.431	20233
898.552	20237
898.672	20343
898.792	20275
898.913	20119
899.033	20107
899.153	20107
899.273	19917
899.393	19879
899.513	19947
899.633	20069
899.753	19974
899.873	19864
899.993	19852
900.113	19887
900.232	19951
900.352	19864
900.472	19658
900.591	19685
900.711	19765
900.83	19765
900.95	19807
901.069	19928
901.189	19586
901.308	19396
901.427	19206
901.546	19331
901.665	19346
901.784	19335
901.904	19209
902.023	18993
902.141	18848
902.26	18856
902.379	18760
902.498	18703
902.617	18620
902.735	18757
902.854	18623
902.973	18578
903.091	18414
903.21	18353
903.328	18361
903.446	18220
903.565	18140
903.683	18140
903.801	17901
903.919	17999
904.038	18110
904.156	17878
904.274	17954
904.392	17764
904.51	17935
904.627	17882
904.745	17874
904.863	17958
904.981	17661
905.098	17623
905.216	17532
905.334	17634
905.451	17589
905.569	17486
905.686	17524
905.803	17448
905.921	17284
906.038	17459
906.155	17383
906.272	17143
906.389	17124
906.506	16911
906.623	16991
906.74	16957
906.857	16938
906.974	16930
907.091	17071
907.208	17048
907.324	17094
907.441	16873
907.557	16797
907.674	16710
907.79	16649
907.907	16649
908.023	16691
908.139	16691
908.256	16637
908.372	16656
908.488	16481
908.604	16432
908.72	16344
908.836	16447
908.952	16436
909.068	16394
909.184	16447
909.3	16367
909.415	16348
909.531	16329
909.647	16078
909.762	16059
909.878	16006
909.993	16131
910.108	15968
910.224	16013
910.339	15998
910.454	15941
910.57	15857
910.685	15797
910.8	16059
910.915	16010
911.03	15861
911.145	15770
911.259	15720
911.374	15648
911.489	15633
911.604	15523
911.718	15370
911.833	15370
911.947	15332
912.062	15233
912.176	15374
912.291	15439
912.405	15351
912.519	15656
912.633	15519
912.748	15374
912.862	15367
912.976	15275
913.09	15058
913.204	15161
913.318	15226
913.431	15233
913.545	15268
913.659	15279
913.772	15169
913.886	15024
914	15112
914.113	15157
914.226	15192
914.34	15108
914.453	14929
914.566	15123
914.68	14864
914.793	14990
914.906	14739
915.019	14731
915.132	14610
915.245	14636
915.358	14693
915.47	14720
915.583	14765
915.696	14689
915.809	14918
915.921	14960
916.034	14640
916.146	14640
916.259	14606
916.371	14720
916.483	14689
916.595	14587
916.708	14613
916.82	14640
916.932	14484
917.044	14621
917.156	14419
917.268	14309
917.38	14431
917.491	14366
917.603	14358
917.715	14507
917.826	14457
917.938	14347
918.049	14191
918.161	14191
918.272	14408
918.384	14454
918.495	14256
918.606	14096
918.717	13955
918.828	14096
918.939	14237
919.05	13986
919.161	14031
919.272	13913
919.383	13818
919.494	14081
919.604	14275
919.715	14024
919.826	13925
919.936	14031
920.047	14054
920.157	14005
920.267	14149
920.378	14081
920.488	13982
920.598	14100
920.708	14275
920.818	14077
920.928	14100
921.038	14298
921.148	14278
921.258	13902
921.368	13822
921.477	13712
921.587	13674
921.697	13575
921.806	13791
921.916	13624
922.025	13491
922.134	13449
922.244	13320
922.353	13426
922.462	13225
922.571	13251
922.68	13027
922.789	13031
922.898	12996
923.007	12943
923.116	13053
923.224	12909
923.333	12970
923.442	12802
923.55	12821
923.659	12840
923.767	12939
923.876	12817
923.984	12863
924.092	12684
924.201	12715
924.309	12722
924.417	12779
924.525	12734
924.633	12631
924.741	13582
924.849	12517
924.956	12646
925.064	12490
925.172	12391
925.279	12414
925.387	12445
925.494	12475
925.602	12578
925.709	12540
925.816	12399
925.924	12380
926.031	12623
926.138	12467
926.245	12555
926.352	12285
926.459	12410
926.566	12403
926.673	12369
926.779	12186
926.886	12167
926.993	12114
927.099	12064
927.206	12019
927.312	11939
927.419	12026
927.525	11999
927.631	12053
927.737	11954
927.843	11882
927.95	11779
928.056	11912
928.162	11847
928.267	11760
928.373	12486
928.479	11863
928.585	11729
928.69	11817
928.796	11775
928.901	11748
929.007	11630
929.112	11623
929.218	11638
929.323	11581
929.428	11608
929.533	11726
929.638	11570
929.743	11577
929.848	11524
929.953	11528
930.058	11440
930.163	11269
930.267	11318
930.372	11395
930.477	11242
930.581	11505
930.685	11334
930.79	11220
930.894	11197
930.998	11189
931.103	11231
931.207	10927
931.311	10786
931.415	10767
931.519	10531
931.623	10546
