Data from test_V78500241_2422.txt Node
Date: Fri Mar 25 14:50:34 CST 2022
User: usil
Spectrometer: V785-0024
Trigger mode: 0
Integration Time (sec): 4.000000E-1
Scans to average: 1
Nonlinearity correction enabled: false
Boxcar width: 0
Storing dark spectrum: false
XAxis mode: Wavelengths
Number of Pixels in Spectrum: 1024
>>>>>Begin Spectral Data<<<<<
801.071	22097
801.214	22044
801.356	21808
801.499	21690
801.641	21572
801.783	21511
801.926	21477
802.068	21500
802.211	21462
802.353	21256
802.496	21142
802.638	21032
802.78	21017
802.923	20986
803.065	20746
803.208	20830
803.35	20792
803.492	20982
803.635	20941
803.777	20948
803.919	20910
804.061	21135
804.204	20994
804.346	20667
804.488	20823
804.63	20807
804.773	20807
804.915	20769
805.057	20918
805.199	20594
805.341	20887
805.483	20785
805.626	20887
805.768	20785
805.91	20788
806.052	20811
806.194	20750
806.336	20933
806.478	20701
806.62	20716
806.762	20815
806.904	20963
807.046	21142
807.188	20979
807.33	20998
807.472	21272
807.614	21032
807.756	20971
807.898	20834
808.04	20941
808.182	20807
808.324	20807
808.465	20895
808.607	21024
808.749	21112
808.891	21230
809.033	21260
809.174	21199
809.316	21112
809.458	21123
809.6	21085
809.741	21085
809.883	21199
810.025	21249
810.166	21230
810.308	21233
810.45	21195
810.591	21009
810.733	20986
810.875	20895
811.016	20781
811.158	20823
811.299	20925
811.441	21062
811.582	21043
811.724	20906
811.865	20918
812.007	20956
812.148	20830
812.29	20971
812.431	21028
812.573	21173
812.714	21344
812.855	21336
812.997	21618
813.138	21622
813.279	21603
813.421	21408
813.562	21272
813.703	21203
813.845	21055
813.986	20727
814.127	20682
814.268	20648
814.41	20564
814.551	20446
814.692	20450
814.833	20298
814.974	20328
815.115	20370
815.256	20374
815.397	20256
815.539	20347
815.68	20103
815.821	20081
815.962	20149
816.103	20172
816.244	19940
816.385	19959
816.526	19864
816.666	19776
816.807	19563
816.948	19559
817.089	19559
817.23	19582
817.371	19578
817.512	19537
817.653	19655
817.793	19491
817.934	19590
818.075	19575
818.216	19647
818.356	19422
818.497	19316
818.638	19194
818.778	19320
818.919	19285
819.06	19308
819.2	19407
819.341	19529
819.481	19335
819.622	19624
819.762	19723
819.903	19742
820.043	19700
820.184	19624
820.324	19525
820.465	19655
820.605	19575
820.746	19476
820.886	19419
821.026	19518
821.167	19529
821.307	19651
821.447	19373
821.588	19206
821.728	19217
821.868	19221
822.008	18916
822.149	18943
822.289	19038
822.429	18669
822.569	18608
822.709	18650
822.849	18369
822.99	18338
823.13	18460
823.27	18422
823.41	18201
823.55	18232
823.69	18216
823.83	18186
823.97	18201
824.11	18041
824.25	17923
824.389	18030
824.529	18110
824.669	17996
824.809	18068
824.949	18064
825.089	18079
825.228	18110
825.368	17847
825.508	17794
825.648	17824
825.787	17821
825.927	17904
826.067	17790
826.206	17813
826.346	17809
826.485	17779
826.625	17729
826.765	17889
826.904	17821
827.044	17596
827.183	17493
827.323	17455
827.462	17532
827.601	17444
827.741	17532
827.88	17452
828.02	17322
828.159	17490
828.298	17433
828.437	17520
828.577	17417
828.716	17482
828.855	17448
828.994	17318
829.134	17128
829.273	17356
829.412	17159
829.551	17094
829.69	17181
829.829	17341
829.968	17387
830.107	17261
830.246	17280
830.385	17273
830.524	17132
830.663	17193
830.802	16930
830.941	16869
831.08	16820
831.219	16831
831.357	16896
831.496	17067
831.635	16949
831.774	16847
831.913	16839
832.051	16679
832.19	16656
832.329	16645
832.467	16508
832.606	16493
832.744	16584
832.883	16519
833.022	16527
833.16	16466
833.299	16588
833.437	16550
833.576	16508
833.714	16615
833.852	16603
833.991	16573
834.129	16698
834.267	16630
834.406	16653
834.544	16645
834.682	16626
834.821	16554
834.959	16767
835.097	16504
835.235	16691
835.373	16611
835.511	16615
835.65	16485
835.788	16459
835.926	16306
836.064	16211
836.202	16268
836.34	16462
836.478	16596
836.615	16398
836.753	16550
836.891	16596
837.029	16478
837.167	16375
837.305	16398
837.443	16459
837.58	16337
837.718	16523
837.856	16344
837.993	16265
838.131	16356
838.269	16246
838.406	16360
838.544	16226
838.681	15987
838.819	16120
838.956	15854
839.094	15804
839.231	15911
839.369	16067
839.506	16287
839.643	16192
839.781	15968
839.918	15827
840.055	15838
840.193	15915
840.33	15884
840.467	16029
840.604	15800
840.742	16177
840.879	15762
841.016	15842
841.153	15698
841.29	15960
841.427	15956
841.564	15953
841.701	15907
841.838	15816
841.975	15671
842.112	15751
842.249	15637
842.385	15568
842.522	15797
842.659	15572
842.796	15690
842.933	15675
843.069	15652
843.206	15561
843.343	15698
843.479	15781
843.616	15694
843.752	15408
843.889	15481
844.025	15542
844.162	15351
844.298	15519
844.435	15450
844.571	15447
844.708	15412
844.844	15545
844.98	15656
845.117	15564
845.253	15439
845.389	15382
845.525	15351
845.661	15291
845.798	15222
845.934	15222
846.07	15157
846.206	15317
846.342	15370
846.478	15287
846.614	15123
846.75	14956
846.886	14975
847.022	15017
847.158	14986
847.294	14952
847.429	15017
847.565	14967
847.701	15264
847.837	14815
847.972	14727
848.108	14902
848.244	14838
848.379	14644
848.515	14610
848.65	14701
848.786	14598
848.921	14594
849.057	14769
849.192	14750
849.328	14674
849.463	14621
849.598	14625
849.734	14594
849.869	14499
850.004	14495
850.14	14503
850.275	14450
850.41	14328
850.545	14278
850.68	14351
850.815	14442
850.95	14423
851.085	14560
851.22	14473
851.355	14442
851.49	14370
851.625	14366
851.76	14457
851.895	14282
852.03	14282
852.165	14396
852.299	14442
852.434	14457
852.569	14450
852.703	14419
852.838	14606
852.973	14579
853.107	14450
853.242	14461
853.376	14248
853.511	14123
853.645	14317
853.78	14317
853.914	14244
854.048	14275
854.183	14259
854.317	14324
854.451	14446
854.585	14286
854.72	14267
854.854	14355
854.988	14210
855.122	14317
855.256	14145
855.39	14256
855.524	14328
855.658	14336
855.792	14229
855.926	14256
856.06	14377
856.194	14457
856.327	14301
856.461	14172
856.595	14290
856.729	14248
856.862	14339
856.996	14286
857.13	14427
857.263	14434
857.397	14408
857.53	14221
857.664	14457
857.797	14362
857.931	14442
858.064	14275
858.197	14385
858.331	14301
858.464	14229
858.597	14069
858.731	14324
858.864	14358
858.997	14252
859.13	14408
859.263	14400
859.396	14408
859.529	14221
859.662	14278
859.795	14176
859.928	14298
860.061	14404
860.194	14526
860.327	14358
860.46	14336
860.592	14370
860.725	14438
860.858	14408
860.99	14336
861.123	14290
861.256	14111
861.388	14320
861.521	14918
861.653	14161
861.786	14107
861.918	14119
862.05	14172
862.183	14206
862.315	14233
862.447	14332
862.58	14256
862.712	14058
862.844	13989
862.976	14005
863.108	14145
863.24	14480
863.372	13944
863.504	13967
863.636	14081
863.768	14119
863.9	14191
864.032	13978
864.164	13978
864.296	14168
864.428	14107
864.559	14206
864.691	14202
864.823	14161
864.954	14092
865.086	14065
865.217	14035
865.349	13906
865.48	14062
865.612	14183
865.743	14244
865.875	14050
866.006	13997
866.137	14088
866.269	14012
866.4	13997
866.531	13963
866.662	13932
866.793	14012
866.924	14043
867.055	14084
867.186	14039
867.317	13986
867.448	13982
867.579	13978
867.71	13921
867.841	14012
867.972	14069
868.103	13951
868.233	14039
868.364	14031
868.495	14153
868.625	14278
868.756	14313
868.886	14309
869.017	14294
869.147	14454
869.278	14415
869.408	14374
869.539	14202
869.669	14339
869.799	14336
869.929	14446
870.06	14419
870.19	14560
870.32	14682
870.45	14701
870.58	14708
870.71	14792
870.84	14785
870.97	14678
871.1	14788
871.23	14891
871.36	14868
871.489	14739
871.619	14887
871.749	14872
871.879	14994
872.008	15036
872.138	15017
872.267	14937
872.397	14792
872.526	14788
872.656	14636
872.785	14765
872.915	14998
873.044	14960
873.173	14929
873.303	14944
873.432	14952
873.561	14944
873.69	14994
873.819	14944
873.948	14979
874.077	14994
874.206	14849
874.335	14937
874.464	15062
874.593	15218
874.722	15161
874.851	15260
874.979	15230
875.108	15268
875.237	15233
875.365	15135
875.494	15306
875.623	15344
875.751	15367
875.88	15226
876.008	15294
876.136	15526
876.265	15701
876.393	15903
876.521	15808
876.65	15789
876.778	15705
876.906	15564
877.034	15587
877.162	15743
877.29	15648
877.418	15633
877.546	15713
877.674	15717
877.802	15660
877.93	15656
878.058	15728
878.185	15561
878.313	15599
878.441	15652
878.568	15648
878.696	15629
878.824	15671
878.951	15778
879.079	15728
879.206	16048
879.333	15762
879.461	15751
879.588	15922
879.715	15854
879.842	15941
879.97	15675
880.097	15526
880.224	15557
880.351	15530
880.478	15580
880.605	15572
880.732	15584
880.859	15808
880.986	15519
881.112	15504
881.239	15355
881.366	15249
881.493	15272
881.619	15131
881.746	15150
881.872	15184
881.999	15211
882.125	15146
882.252	15199
882.378	15214
882.505	15420
882.631	15138
882.757	14971
882.883	15074
883.01	14963
883.136	14944
883.262	14857
883.388	14906
883.514	15047
883.64	14982
883.766	15024
883.892	14811
884.018	14857
884.143	14990
884.269	15112
884.395	14739
884.52	14731
884.646	14674
884.772	14560
884.897	14545
885.023	14804
885.148	14731
885.274	14701
885.399	14708
885.524	14636
885.65	14731
885.775	14743
885.9	14716
886.025	14788
886.15	14838
886.275	14629
886.4	14674
886.525	14648
886.65	14659
886.775	14674
886.9	14804
887.025	14925
887.149	14743
887.274	14526
887.399	14552
887.523	14507
887.648	14385
887.773	14389
887.897	14560
888.021	14571
888.146	14431
888.27	14564
888.395	14610
888.519	14590
888.643	14613
888.767	14598
888.891	14492
889.015	14275
889.139	14457
889.263	14469
889.387	14518
889.511	14537
889.635	14522
889.759	14438
889.883	14381
890.006	14461
890.13	14488
890.254	14256
890.377	14377
890.501	14138
890.624	14180
890.748	14286
890.871	14195
890.995	14130
891.118	14016
891.241	14050
891.364	14081
891.488	14256
891.611	13932
891.734	14142
891.857	14149
891.98	14123
892.103	14240
892.226	14149
892.349	14145
892.471	13967
892.594	14058
892.717	14100
892.839	14138
892.962	14073
893.085	14126
893.207	14054
893.33	13932
893.452	14096
893.575	14126
893.697	14107
893.819	14282
893.941	14237
894.064	14221
894.186	14130
894.308	14062
894.43	14206
894.552	14290
894.674	14210
894.796	14138
894.918	14157
895.04	14142
895.161	14267
895.283	14240
895.405	14161
895.526	14221
895.648	14233
895.769	14259
895.891	14366
896.012	14263
896.134	14252
896.255	14244
896.376	14256
896.498	14233
896.619	14210
896.74	14271
896.861	14427
896.982	14667
897.103	14792
897.224	14587
897.345	14594
897.466	14457
897.587	14530
897.708	14629
897.828	14632
897.949	14488
898.07	14389
898.19	14503
898.311	14667
898.431	14556
898.552	14746
898.672	14693
898.792	14682
898.913	14689
899.033	14663
899.153	14465
899.273	14465
899.393	14393
899.513	14469
899.633	14480
899.753	14549
899.873	14495
899.993	14507
900.113	14522
900.232	14533
900.352	14400
900.472	14412
900.591	14240
900.711	14301
900.83	14286
900.95	14507
901.069	14492
901.189	14347
901.308	14065
901.427	14020
901.546	14096
901.665	14005
901.784	14062
901.904	13909
902.023	13864
902.141	13643
902.26	13556
902.379	13689
902.498	13616
902.617	13582
902.735	13578
902.854	13662
902.973	13510
903.091	13198
903.21	13362
903.328	13365
903.446	13187
903.565	13145
903.683	13103
903.801	13046
903.919	13126
904.038	13107
904.156	12958
904.274	13023
904.392	12947
904.51	12962
904.627	12981
904.745	12962
904.863	13008
904.981	12779
905.098	12665
905.216	12604
905.334	12730
905.451	12700
905.569	12665
905.686	12703
905.803	12662
905.921	12429
906.038	12593
906.155	12475
906.272	12369
906.389	12452
906.506	12311
906.623	12186
906.74	12171
906.857	12068
906.974	12106
907.091	12266
907.208	12353
907.324	12258
907.441	12190
907.557	12030
907.674	11961
907.79	11904
907.907	11908
908.023	12068
908.139	11988
908.256	12060
908.372	11916
908.488	11870
908.604	11760
908.72	11691
908.836	11653
908.952	11703
909.068	11805
909.184	11927
909.3	11722
909.415	11855
909.531	11722
909.647	11547
909.762	11516
909.878	11501
909.993	11528
910.108	11528
910.224	11573
910.339	11532
910.454	11440
910.57	11288
910.685	11288
910.8	11699
910.915	11535
911.03	11402
911.145	11151
911.259	11181
911.374	11212
911.489	11178
911.604	11075
911.718	10938
911.833	11029
911.947	10847
912.062	10771
912.176	10904
912.291	10946
912.405	10961
912.519	11220
912.633	11132
912.748	11029
912.862	10995
912.976	10828
913.09	10736
913.204	10816
913.318	10843
913.431	10908
913.545	10923
913.659	10984
913.772	10847
913.886	10793
914	10656
914.113	10797
914.226	10843
914.34	10858
914.453	10637
914.566	10831
914.68	10672
914.793	10675
914.906	10519
915.019	10478
915.132	10428
915.245	10485
915.358	10459
915.47	10516
915.583	10546
915.696	10432
915.809	10656
915.921	10714
916.034	10455
916.146	10485
916.259	10485
916.371	10516
916.483	10447
916.595	10421
916.708	10542
916.82	10386
916.932	10424
917.044	10341
917.156	10352
917.268	10310
917.38	10375
917.491	10246
917.603	10341
917.715	10459
917.826	10421
917.938	10295
918.049	10196
918.161	10360
918.272	10428
918.384	10451
918.495	10363
918.606	10253
918.717	10101
918.828	10234
918.939	10124
919.05	10124
919.161	10086
919.272	10013
919.383	10120
919.494	10322
919.604	10466
919.715	10341
919.826	10067
919.936	10196
920.047	10280
920.157	10219
920.267	10405
920.378	10310
920.488	10207
920.598	10390
920.708	10455
920.818	10474
920.928	10409
921.038	10512
921.148	10459
921.258	10234
921.368	10246
921.477	9972
921.587	10010
921.697	9953
921.806	10105
921.916	9915
922.025	9842
922.134	9724
922.244	9709
922.353	9819
922.462	9663
922.571	9603
922.68	9519
922.789	9367
922.898	9397
923.007	9485
923.116	9557
923.224	9454
923.333	9500
923.442	9363
923.55	9397
923.659	9306
923.767	9401
923.876	9344
923.984	9473
924.092	9176
924.201	9359
924.309	9306
924.417	9336
924.525	9241
924.633	9336
924.741	10074
924.849	9043
924.956	9245
925.064	9081
925.172	9055
925.279	9108
925.387	9142
925.494	9135
925.602	9195
925.709	9192
925.816	9070
925.924	9131
926.031	9176
926.138	9051
926.245	9230
926.352	9070
926.459	9173
926.566	9298
926.673	9020
926.779	8902
926.886	8967
926.993	8800
927.099	8792
927.206	8796
927.312	8868
927.419	8914
927.525	8804
927.631	8876
927.737	8724
927.843	8724
927.95	8613
928.056	8720
928.162	8731
928.267	8792
928.373	9355
928.479	8815
928.585	8583
928.69	8670
928.796	8754
928.901	8617
929.007	8511
929.112	8651
929.218	8533
929.323	8552
929.428	8518
929.533	8667
929.638	8495
929.743	8526
929.848	8583
929.953	8552
930.058	8427
930.163	8244
930.267	8305
930.372	8457
930.477	8358
930.581	8571
930.685	8351
930.79	8233
930.894	8320
930.998	8233
931.103	8374
931.207	8043
931.311	7932
931.415	7951
931.519	7704
931.623	7719
