Data from test_V78500241_1713.txt Node
Date: Fri Mar 25 14:45:38 CST 2022
User: usil
Spectrometer: V785-0024
Trigger mode: 0
Integration Time (sec): 4.000000E-1
Scans to average: 1
Nonlinearity correction enabled: false
Boxcar width: 0
Storing dark spectrum: false
XAxis mode: Wavelengths
Number of Pixels in Spectrum: 1024
>>>>>Begin Spectral Data<<<<<
801.071	22287
801.214	22188
801.356	21903
801.499	21850
801.641	21625
801.783	21686
801.926	21667
802.068	21587
802.211	21389
802.353	21424
802.496	21184
802.638	21195
802.78	21108
802.923	20994
803.065	20883
803.208	20895
803.35	20887
803.492	21062
803.635	21058
803.777	20918
803.919	21100
804.061	21214
804.204	20979
804.346	20868
804.488	20815
804.63	20842
804.773	20807
804.915	20861
805.057	21001
805.199	20883
805.341	20921
805.483	21089
805.626	20941
805.768	20857
805.91	20895
806.052	20902
806.194	20655
806.336	21013
806.478	20811
806.62	20735
806.762	20956
806.904	21024
807.046	21260
807.188	21302
807.33	21256
807.472	21268
807.614	21119
807.756	21157
807.898	20918
808.04	20963
808.182	21001
808.324	21024
808.465	21062
808.607	21230
808.749	21370
808.891	21367
809.033	21397
809.174	21412
809.316	21214
809.458	21351
809.6	21176
809.741	21313
809.883	21325
810.025	21466
810.166	21488
810.308	21382
810.45	21466
810.591	21233
810.733	21127
810.875	21055
811.016	20998
811.158	21001
811.299	21192
811.441	21165
811.582	21283
811.724	21100
811.865	20982
812.007	21089
812.148	21043
812.29	21062
812.431	21135
812.573	21378
812.714	21526
812.855	21622
812.997	21663
813.138	21785
813.279	21599
813.421	21454
813.562	21332
813.703	21325
813.845	21222
813.986	21024
814.127	20781
814.268	20670
814.41	20629
814.551	20609
814.692	20674
814.833	20518
814.974	20556
815.115	20632
815.256	20454
815.397	20396
815.539	20404
815.68	20370
815.821	20313
815.962	20385
816.103	20393
816.244	20237
816.385	20050
816.526	20081
816.666	19917
816.807	19681
816.948	19833
817.089	19921
817.23	19822
817.371	19898
817.512	19841
817.653	19742
817.793	19700
817.934	19738
818.075	19708
818.216	19628
818.356	19681
818.497	19571
818.638	19255
818.778	19400
818.919	19377
819.06	19491
819.2	19510
819.341	19559
819.481	19681
819.622	19738
819.762	19906
819.903	19871
820.043	19693
820.184	19693
820.324	19662
820.465	19647
820.605	19780
820.746	19750
820.886	19590
821.026	19666
821.167	19681
821.307	19746
821.447	19575
821.588	19491
821.728	19384
821.868	19285
822.008	19110
822.149	19065
822.289	19084
822.429	18852
822.569	18871
822.709	18817
822.849	18578
822.99	18707
823.13	18627
823.27	18566
823.41	18395
823.55	18475
823.69	18456
823.83	18471
823.97	18372
824.11	18186
824.25	18159
824.389	18159
824.529	18194
824.669	18205
824.809	18323
824.949	18304
825.089	18319
825.228	18262
825.368	18022
825.508	17954
825.648	17977
825.787	17908
825.927	17965
826.067	17855
826.206	17809
826.346	17855
826.485	17927
826.625	17969
826.765	18076
826.904	17965
827.044	17687
827.183	17619
827.323	17543
827.462	17764
827.601	17703
827.741	17691
827.88	17623
828.02	17505
828.159	17573
828.298	17703
828.437	17802
828.577	17661
828.716	17783
828.855	17630
828.994	17307
829.134	17417
829.273	17581
829.412	17292
829.551	17353
829.69	17406
829.829	17429
829.968	17573
830.107	17436
830.246	17444
830.385	17372
830.524	17303
830.663	17166
830.802	17098
830.941	17029
831.08	17102
831.219	16938
831.357	17170
831.496	17212
831.635	16961
831.774	16984
831.913	16919
832.051	16782
832.19	16801
832.329	16862
832.467	16740
832.606	16656
832.744	16729
832.883	16763
833.022	16618
833.16	16660
833.299	16839
833.437	16774
833.576	16740
833.714	16675
833.852	16752
833.991	16736
834.129	16812
834.267	16828
834.406	16763
834.544	16786
834.682	16809
834.821	16824
834.959	16965
835.097	16672
835.235	16736
835.373	16744
835.511	16778
835.65	16675
835.788	16588
835.926	16474
836.064	16474
836.202	16519
836.34	16645
836.478	16698
836.615	16637
836.753	16679
836.891	16854
837.029	16645
837.167	16550
837.305	16508
837.443	16443
837.58	16489
837.718	16573
837.856	16478
837.993	16443
838.131	16538
838.269	16394
838.406	16516
838.544	16432
838.681	16329
838.819	16215
838.956	16169
839.094	16150
839.231	16154
839.369	16219
839.506	16504
839.643	16280
839.781	16006
839.918	15983
840.055	16101
840.193	16048
840.33	16048
840.467	16150
840.604	15979
840.742	16287
840.879	15983
841.016	16017
841.153	15975
841.29	16219
841.427	16135
841.564	16101
841.701	16071
841.838	16074
841.975	16025
842.112	15941
842.249	15937
842.385	15835
842.522	16013
842.659	15816
842.796	15785
842.933	15762
843.069	15865
843.206	15736
843.343	15842
843.479	15831
843.616	15945
843.752	15698
843.889	15572
844.025	15808
844.162	15633
844.298	15717
844.435	15675
844.571	15523
844.708	15595
844.844	15854
844.98	15728
845.117	15816
845.253	15641
845.389	15416
845.525	15542
845.661	15507
845.798	15405
845.934	15530
846.07	15477
846.206	15549
846.342	15538
846.478	15538
846.614	15340
846.75	15131
846.886	15123
847.022	15199
847.158	15222
847.294	15195
847.429	15237
847.565	15218
847.701	15439
847.837	15001
847.972	14792
848.108	14975
848.244	14952
848.379	14834
848.515	14727
848.65	14670
848.786	14689
848.921	14796
849.057	14963
849.192	14887
849.328	14849
849.463	14682
849.598	14815
849.734	14739
849.869	14716
850.004	14571
850.14	14720
850.275	14552
850.41	14571
850.545	14431
850.68	14484
850.815	14648
850.95	14564
851.085	14640
851.22	14678
851.355	14545
851.49	14533
851.625	14488
851.76	14526
851.895	14385
852.03	14503
852.165	14583
852.299	14492
852.434	14602
852.569	14606
852.703	14537
852.838	14617
852.973	14724
853.107	14678
853.242	14476
853.376	14499
853.511	14370
853.645	14396
853.78	14434
853.914	14339
854.048	14347
854.183	14339
854.317	14518
854.451	14556
854.585	14514
854.72	14358
854.854	14545
854.988	14374
855.122	14366
855.256	14278
855.39	14385
855.524	14533
855.658	14526
855.792	14351
855.926	14495
856.06	14507
856.194	14469
856.327	14461
856.461	14351
856.595	14339
856.729	14465
856.862	14514
856.996	14446
857.13	14412
857.263	14526
857.397	14663
857.53	14457
857.664	14560
857.797	14499
857.931	14461
858.064	14518
858.197	14495
858.331	14465
858.464	14476
858.597	14317
858.731	14427
858.864	14507
858.997	14408
859.13	14469
859.263	14492
859.396	14579
859.529	14427
859.662	14434
859.795	14358
859.928	14454
860.061	14571
860.194	14640
860.327	14446
860.46	14473
860.592	14461
860.725	14579
860.858	14533
860.99	14400
861.123	14313
861.256	14358
861.388	14492
861.521	14979
861.653	14324
861.786	14233
861.918	14351
862.05	14336
862.183	14389
862.315	14381
862.447	14522
862.58	14309
862.712	14161
862.844	14149
862.976	14153
863.108	14328
863.24	14716
863.372	14081
863.504	14244
863.636	14149
863.768	14237
863.9	14206
864.032	14180
864.164	14244
864.296	14263
864.428	14324
864.559	14336
864.691	14305
864.823	14290
864.954	14233
865.086	14206
865.217	14088
865.349	14123
865.48	14195
865.612	14244
865.743	14450
865.875	14271
866.006	14138
866.137	14286
866.269	14199
866.4	14119
866.531	14199
866.662	14145
866.793	14119
866.924	14180
867.055	14180
867.186	14134
867.317	14050
867.448	14123
867.579	14084
867.71	14084
867.841	14081
867.972	14240
868.103	14145
868.233	14240
868.364	14229
868.495	14298
868.625	14404
868.756	14552
868.886	14313
869.017	14465
869.147	14583
869.278	14446
869.408	14450
869.539	14465
869.669	14492
869.799	14476
869.929	14564
870.06	14549
870.19	14674
870.32	14739
870.45	14788
870.58	14872
870.71	14937
870.84	14933
870.97	14853
871.1	14880
871.23	15047
871.36	15005
871.489	14891
871.619	14918
871.749	14967
871.879	15047
872.008	15214
872.138	15081
872.267	15017
872.397	14830
872.526	14910
872.656	14861
872.785	14952
872.915	15062
873.044	15085
873.173	15036
873.303	15097
873.432	15123
873.561	15272
873.69	14971
873.819	15017
873.948	15188
874.077	14994
874.206	15058
874.335	15058
874.464	15131
874.593	15348
874.722	15386
874.851	15420
874.979	15340
875.108	15378
875.237	15363
875.365	15348
875.494	15355
875.623	15420
875.751	15344
875.88	15458
876.008	15519
876.136	15618
876.265	15831
876.393	16040
876.521	15876
876.65	15850
876.778	15705
876.906	15705
877.034	15766
877.162	15701
877.29	15709
877.418	15778
877.546	15819
877.674	15816
877.802	15728
877.93	15724
878.058	15819
878.185	15698
878.313	15876
878.441	15800
878.568	15660
878.696	15808
878.824	15895
878.951	15850
879.079	16040
879.206	16169
879.333	16097
879.461	15949
879.588	15991
879.715	16078
879.842	16120
879.97	15934
880.097	15637
880.224	15568
880.351	15705
880.478	15682
880.605	15591
880.732	15660
880.859	15880
880.986	15667
881.112	15667
881.239	15538
881.366	15431
881.493	15473
881.619	15310
881.746	15317
881.872	15287
881.999	15256
882.125	15272
882.252	15405
882.378	15351
882.505	15443
882.631	15252
882.757	15074
882.883	15195
883.01	15093
883.136	15051
883.262	15001
883.388	15001
883.514	15150
883.64	15275
883.766	15192
883.892	14941
884.018	14925
884.143	15131
884.269	15211
884.395	14902
884.52	14735
884.646	14998
884.772	14777
884.897	14834
885.023	14796
885.148	14937
885.274	14925
885.399	14979
885.524	14902
885.65	14838
885.775	14838
885.9	14834
886.025	14971
886.15	14872
886.275	14762
886.4	14621
886.525	14659
886.65	14731
886.775	14777
886.9	15009
887.025	14994
887.149	14857
887.274	14556
887.399	14659
887.523	14606
887.648	14560
887.773	14571
887.897	14807
888.021	14651
888.146	14670
888.27	14811
888.395	14864
888.519	14731
888.643	14716
888.767	14697
888.891	14590
889.015	14533
889.139	14613
889.263	14598
889.387	14590
889.511	14815
889.635	14655
889.759	14511
889.883	14507
890.006	14526
890.13	14651
890.254	14446
890.377	14503
890.501	14317
890.624	14332
890.748	14522
890.871	14267
890.995	14130
891.118	14267
891.241	14309
891.364	14252
891.488	14339
891.611	14328
891.734	14256
891.857	14347
891.98	14244
892.103	14347
892.226	14218
892.349	14180
892.471	14107
892.594	14214
892.717	14271
892.839	14130
892.962	14286
893.085	14248
893.207	14256
893.33	14096
893.452	14157
893.575	14168
893.697	14210
893.819	14389
893.941	14442
894.064	14305
894.186	14206
894.308	14202
894.43	14404
894.552	14408
894.674	14389
894.796	14176
894.918	14168
895.04	14275
895.161	14271
895.283	14252
895.405	14233
895.526	14309
895.648	14267
895.769	14362
895.891	14267
896.012	14442
896.134	14404
896.255	14301
896.376	14328
896.498	14366
896.619	14415
896.74	14419
896.861	14438
896.982	14655
897.103	14937
897.224	14640
897.345	14663
897.466	14720
897.587	14758
897.708	14815
897.828	14785
897.949	14587
898.07	14454
898.19	14648
898.311	14777
898.431	14735
898.552	14739
898.672	14731
898.792	14724
898.913	14758
899.033	14632
899.153	14571
899.273	14469
899.393	14522
899.513	14571
899.633	14552
899.753	14598
899.873	14484
899.993	14568
900.113	14598
900.232	14590
900.352	14537
900.472	14442
900.591	14438
900.711	14473
900.83	14347
900.95	14644
901.069	14606
901.189	14377
901.308	14119
901.427	14054
901.546	14126
901.665	14134
901.784	14100
901.904	14016
902.023	13959
902.141	13723
902.26	13696
902.379	13784
902.498	13662
902.617	13647
902.735	13715
902.854	13681
902.973	13632
903.091	13430
903.21	13438
903.328	13407
903.446	13369
903.565	13335
903.683	13278
903.801	13152
903.919	13244
904.038	13259
904.156	13133
904.274	13072
904.392	13061
904.51	13057
904.627	13031
904.745	13168
904.863	13126
904.981	12848
905.098	12700
905.216	12852
905.334	12909
905.451	12700
905.569	12673
905.686	12779
905.803	12768
905.921	12608
906.038	12681
906.155	12650
906.272	12517
906.389	12536
906.506	12296
906.623	12315
906.74	12304
906.857	12167
906.974	12213
907.091	12433
907.208	12422
907.324	12437
907.441	12319
907.557	12110
907.674	12083
907.79	12079
907.907	12117
908.023	12129
908.139	12136
908.256	12068
908.372	12087
908.488	12068
908.604	11897
908.72	11741
908.836	11851
908.952	11805
909.068	11908
909.184	11992
909.3	11851
909.415	11923
909.531	11847
909.647	11600
909.762	11585
909.878	11589
909.993	11623
910.108	11623
910.224	11604
910.339	11554
910.454	11543
910.57	11417
910.685	11440
910.8	11729
910.915	11611
911.03	11566
911.145	11383
911.259	11273
911.374	11265
911.489	11265
911.604	11227
911.718	11060
911.833	11117
911.947	10972
912.062	10885
912.176	11033
912.291	11067
912.405	11075
912.519	11296
912.633	11292
912.748	11178
912.862	11201
912.976	11003
913.09	10866
913.204	10961
913.318	10965
913.431	11025
913.545	11025
913.659	11094
913.772	10968
913.886	10786
914	10767
914.113	10877
914.226	10984
914.34	10862
914.453	10812
914.566	10911
914.68	10793
914.793	10797
914.906	10656
915.019	10546
915.132	10504
915.245	10550
915.358	10599
915.47	10554
915.583	10645
915.696	10630
915.809	10668
915.921	10675
916.034	10512
916.146	10512
916.259	10481
916.371	10626
916.483	10561
916.595	10497
916.708	10535
916.82	10508
916.932	10500
917.044	10558
917.156	10474
917.268	10303
917.38	10470
917.491	10394
917.603	10474
917.715	10531
917.826	10558
917.938	10360
918.049	10287
918.161	10344
918.272	10546
918.384	10550
918.495	10379
918.606	10344
918.717	10253
918.828	10287
918.939	10310
919.05	10223
919.161	10287
919.272	10036
919.383	10215
919.494	10356
919.604	10519
919.715	10337
919.826	10306
919.936	10234
920.047	10382
920.157	10284
920.267	10500
920.378	10386
920.488	10276
920.598	10508
920.708	10656
920.818	10489
920.928	10428
921.038	10653
921.148	10675
921.258	10318
921.368	10223
921.477	10192
921.587	10097
921.697	10029
921.806	10158
921.916	10078
922.025	9888
922.134	9918
922.244	9884
922.353	9857
922.462	9652
922.571	9698
922.68	9595
922.789	9561
922.898	9606
923.007	9542
923.116	9618
923.224	9557
923.333	9542
923.442	9405
923.55	9458
923.659	9424
923.767	9370
923.876	9412
923.984	9488
924.092	9367
924.201	9431
924.309	9370
924.417	9428
924.525	9386
924.633	9340
924.741	10337
924.849	9154
924.956	9283
925.064	9169
925.172	9077
925.279	9138
925.387	9188
925.494	9184
925.602	9389
925.709	9268
925.816	9195
925.924	9230
926.031	9199
926.138	9211
926.245	9222
926.352	9104
926.459	9268
926.566	9348
926.673	9135
926.779	9039
926.886	9062
926.993	8971
927.099	8899
927.206	8925
927.312	8982
927.419	9013
927.525	8960
927.631	8979
927.737	8842
927.843	8834
927.95	8743
928.056	8792
928.162	8785
928.267	8800
928.373	9454
928.479	8918
928.585	8746
928.69	8830
928.796	8864
928.901	8746
929.007	8655
929.112	8785
929.218	8739
929.323	8689
929.428	8682
929.533	8857
929.638	8610
929.743	8613
929.848	8708
929.953	8617
930.058	8552
930.163	8423
930.267	8446
930.372	8552
930.477	8438
930.581	8663
930.685	8488
930.79	8434
930.894	8431
930.998	8358
931.103	8533
931.207	8206
931.311	8130
931.415	7989
931.519	7944
931.623	7902
