Data from test_V78500241_1044.txt Node
Date: Fri Mar 25 14:40:59 CST 2022
User: usil
Spectrometer: V785-0024
Trigger mode: 0
Integration Time (sec): 4.000000E-1
Scans to average: 1
Nonlinearity correction enabled: false
Boxcar width: 0
Storing dark spectrum: false
XAxis mode: Wavelengths
Number of Pixels in Spectrum: 1024
>>>>>Begin Spectral Data<<<<<
801.071	22869
801.214	22790
801.356	22630
801.499	22329
801.641	22204
801.783	22238
801.926	22177
802.068	22162
802.211	21949
802.353	22044
802.496	21800
802.638	21713
802.78	21701
802.923	21656
803.065	21568
803.208	21485
803.35	21656
803.492	21622
803.635	21770
803.777	21553
803.919	21606
804.061	21876
804.204	21564
804.346	21553
804.488	21462
804.63	21580
804.773	21542
804.915	21526
805.057	21648
805.199	21469
805.341	21488
805.483	21553
805.626	21580
805.768	21496
805.91	21443
806.052	21591
806.194	21454
806.336	21660
806.478	21458
806.62	21595
806.762	21515
806.904	21789
807.046	21941
807.188	21937
807.33	21884
807.472	22074
807.614	21831
807.756	22029
807.898	21987
808.04	21876
808.182	21953
808.324	22032
808.465	22090
808.607	22485
808.749	22653
808.891	22698
809.033	22767
809.174	22630
809.316	22554
809.458	22485
809.6	22234
809.741	22287
809.883	22299
810.025	22234
810.166	22257
810.308	22299
810.45	22128
810.591	22116
810.733	21998
810.875	21903
811.016	21800
811.158	21724
811.299	21884
811.441	21865
811.582	21903
811.724	21709
811.865	21686
812.007	21736
812.148	21682
812.29	21873
812.431	21930
812.573	22131
812.714	22124
812.855	22280
812.997	22318
813.138	22371
813.279	22382
813.421	22299
813.562	22120
813.703	21968
813.845	21876
813.986	21660
814.127	21431
814.268	21393
814.41	21382
814.551	21313
814.692	21397
814.833	21226
814.974	21218
815.115	21279
815.256	21043
815.397	21123
815.539	21123
815.68	21131
815.821	20937
815.962	20952
816.103	21039
816.244	20902
816.385	20811
816.526	20743
816.666	20537
816.807	20469
816.948	20522
817.089	20594
817.23	20602
817.371	20594
817.512	20469
817.653	20434
817.793	20347
817.934	20374
818.075	20545
818.216	20438
818.356	20393
818.497	20214
818.638	20043
818.778	20161
818.919	20134
819.06	20134
819.2	20362
819.341	20351
819.481	20248
819.622	20427
819.762	20655
819.903	20518
820.043	20476
820.184	20381
820.324	20431
820.465	20514
820.605	20575
820.746	20362
820.886	20271
821.026	20328
821.167	20305
821.307	20484
821.447	20370
821.588	20237
821.728	20126
821.868	19894
822.008	19970
822.149	19909
822.289	19727
822.429	19628
822.569	19529
822.709	19529
822.849	19457
822.99	19377
823.13	19320
823.27	19327
823.41	19156
823.55	19027
823.69	19019
823.83	19228
823.97	19053
824.11	18871
824.25	18871
824.389	18977
824.529	18935
824.669	18928
824.809	18951
824.949	19019
825.089	18951
825.228	18875
825.368	18707
825.508	18772
825.648	18555
825.787	18677
825.927	18738
826.067	18692
826.206	18639
826.346	18753
826.485	18642
826.625	18608
826.765	18703
826.904	18726
827.044	18414
827.183	18342
827.323	18224
827.462	18410
827.601	18308
827.741	18342
827.88	18388
828.02	18216
828.159	18254
828.298	18319
828.437	18346
828.577	18235
828.716	18380
828.855	18281
828.994	18171
829.134	17992
829.273	18079
829.412	18114
829.551	18003
829.69	18007
829.829	17984
829.968	18129
830.107	18129
830.246	18083
830.385	18030
830.524	17999
830.663	17889
830.802	17893
830.941	17752
831.08	17710
831.219	17836
831.357	17775
831.496	17958
831.635	17756
831.774	17646
831.913	17589
832.051	17566
832.19	17433
832.329	17444
832.467	17391
832.606	17356
832.744	17383
832.883	17452
833.022	17402
833.16	17452
833.299	17440
833.437	17478
833.576	17501
833.714	17459
833.852	17535
833.991	17585
834.129	17577
834.267	17516
834.406	17497
834.544	17512
834.682	17478
834.821	17497
834.959	17657
835.097	17376
835.235	17592
835.373	17459
835.511	17493
835.65	17474
835.788	17421
835.926	17261
836.064	17117
836.202	17204
836.34	17532
836.478	17573
836.615	17383
836.753	17360
836.891	17482
837.029	17356
837.167	17376
837.305	17223
837.443	17197
837.58	17170
837.718	17368
837.856	17216
837.993	17098
838.131	17212
838.269	17185
838.406	17128
838.544	17109
838.681	16915
838.819	17075
838.956	16672
839.094	16626
839.231	16816
839.369	16904
839.506	17064
839.643	17056
839.781	16755
839.918	16596
840.055	16759
840.193	16809
840.33	16679
840.467	16748
840.604	16721
840.742	17064
840.879	16752
841.016	16675
841.153	16649
841.29	16793
841.427	16733
841.564	16752
841.701	16698
841.838	16645
841.975	16565
842.112	16687
842.249	16428
842.385	16584
842.522	16713
842.659	16512
842.796	16447
842.933	16489
843.069	16516
843.206	16466
843.343	16531
843.479	16440
843.616	16577
843.752	16318
843.889	16314
844.025	16459
844.162	16322
844.298	16459
844.435	16284
844.571	16314
844.708	16405
844.844	16478
844.98	16489
845.117	16546
845.253	16356
845.389	16371
845.525	16481
845.661	16596
845.798	16694
845.934	17006
846.07	16934
846.206	16919
846.342	16934
846.478	16679
846.614	16291
846.75	15960
846.886	15941
847.022	16017
847.158	15838
847.294	15827
847.429	15926
847.565	15945
847.701	16101
847.837	15701
847.972	15564
848.108	15720
848.244	15701
848.379	15568
848.515	15450
848.65	15431
848.786	15466
848.921	15534
849.057	15591
849.192	15424
849.328	15511
849.463	15504
849.598	15412
849.734	15458
849.869	15249
850.004	15184
850.14	15389
850.275	15218
850.41	15195
850.545	15146
850.68	15154
850.815	15336
850.95	15211
851.085	15264
851.22	15294
851.355	15237
851.49	15245
851.625	15176
851.76	15203
851.895	15127
852.03	15085
852.165	15199
852.299	15249
852.434	15302
852.569	15256
852.703	15291
852.838	15344
852.973	15412
853.107	15397
853.242	15203
853.376	15146
853.511	15165
853.645	15036
853.78	15195
853.914	15028
854.048	15058
854.183	14956
854.317	15104
854.451	15184
854.585	15066
854.72	15062
854.854	15161
854.988	14937
855.122	15077
855.256	14990
855.39	14994
855.524	15100
855.658	15180
855.792	15081
855.926	15184
856.06	15180
856.194	15252
856.327	15032
856.461	14979
856.595	15081
856.729	15154
856.862	15184
856.996	15135
857.13	15241
857.263	15230
857.397	15294
857.53	15112
857.664	15165
857.797	15123
857.931	15192
858.064	15146
858.197	15184
858.331	15055
858.464	14994
858.597	14952
858.731	15020
858.864	15009
858.997	15131
859.13	15100
859.263	15024
859.396	15180
859.529	15039
859.662	14960
859.795	14979
859.928	15039
860.061	15272
860.194	15260
860.327	15070
860.46	15085
860.592	15112
860.725	15211
860.858	15192
860.99	14963
861.123	15051
861.256	14998
861.388	14982
861.521	15751
861.653	15024
861.786	14868
861.918	14857
862.05	14994
862.183	15028
862.315	14990
862.447	15020
862.58	15047
862.712	14834
862.844	14796
862.976	14868
863.108	14849
863.24	15329
863.372	14819
863.504	14876
863.636	14899
863.768	14864
863.9	14815
864.032	14853
864.164	14777
864.296	14823
864.428	14956
864.559	14944
864.691	14914
864.823	14883
864.954	14819
865.086	14910
865.217	14807
865.349	14765
865.48	14845
865.612	14712
865.743	14990
865.875	14864
866.006	14762
866.137	14880
866.269	14807
866.4	14758
866.531	14712
866.662	14693
866.793	14716
866.924	14765
867.055	14739
867.186	14769
867.317	14800
867.448	14613
867.579	14712
867.71	14636
867.841	14750
867.972	14857
868.103	14788
868.233	14811
868.364	14925
868.495	14834
868.625	15188
868.756	15154
868.886	14948
869.017	15062
869.147	15184
869.278	15165
869.408	15070
869.539	14971
869.669	15119
869.799	15077
869.929	15146
870.06	15214
870.19	15386
870.32	15405
870.45	15424
870.58	15553
870.71	15553
870.84	15599
870.97	15408
871.1	15450
871.23	15595
871.36	15682
871.489	15500
871.619	15622
871.749	15694
871.879	15667
872.008	15701
872.138	15641
872.267	15671
872.397	15534
872.526	15473
872.656	15439
872.785	15606
872.915	15705
873.044	15641
873.173	15679
873.303	15644
873.432	15755
873.561	15739
873.69	15759
873.819	15671
873.948	15827
874.077	15720
874.206	15671
874.335	15728
874.464	15915
874.593	16006
874.722	16029
874.851	15987
874.979	16006
875.108	16078
875.237	15964
875.365	15941
875.494	15994
875.623	16109
875.751	16036
875.88	15994
876.008	16219
876.136	16348
876.265	16417
876.393	16607
876.521	16497
876.65	16588
876.778	16447
876.906	16386
877.034	16421
877.162	16337
877.29	16356
877.418	16421
877.546	16344
877.674	16413
877.802	16379
877.93	16447
878.058	16371
878.185	16344
878.313	16523
878.441	16538
878.568	16234
878.696	16466
878.824	16500
878.951	16607
879.079	16854
879.206	16961
879.333	16995
879.461	16858
879.588	16980
879.715	17041
879.842	17037
879.97	16892
880.097	16519
880.224	16478
880.351	16569
880.478	16455
880.605	16341
880.732	16265
880.859	16641
880.986	16428
881.112	16432
881.239	16173
881.366	16154
881.493	16082
881.619	16063
881.746	16002
881.872	16017
881.999	16029
882.125	16051
882.252	16051
882.378	16025
882.505	16135
882.631	16025
882.757	15842
882.883	16013
883.01	15941
883.136	15778
883.262	15823
883.388	15679
883.514	15857
883.64	15953
883.766	15789
883.892	15701
884.018	15584
884.143	15789
884.269	15945
884.395	15675
884.52	15538
884.646	15568
884.772	15485
884.897	15447
885.023	15667
885.148	15606
885.274	15644
885.399	15717
885.524	15553
885.65	15519
885.775	15523
885.9	15485
886.025	15629
886.15	15576
886.275	15473
886.4	15488
886.525	15572
886.65	15401
886.775	15450
886.9	15519
887.025	15724
887.149	15412
887.274	15374
887.399	15184
887.523	15222
887.648	15214
887.773	15245
887.897	15481
888.021	15374
888.146	15188
888.27	15374
888.395	15401
888.519	15428
888.643	15287
888.767	15458
888.891	15199
889.015	15104
889.139	15123
889.263	15047
889.387	15154
889.511	15222
889.635	15275
889.759	15131
889.883	15055
890.006	15112
890.13	15272
890.254	15066
890.377	15142
890.501	15047
890.624	14948
890.748	14944
890.871	14914
890.995	14819
891.118	14731
891.241	14853
891.364	14781
891.488	14986
891.611	14697
891.734	14845
891.857	14842
891.98	14773
892.103	14864
892.226	14804
892.349	14781
892.471	14621
892.594	14773
892.717	14861
892.839	14788
892.962	14830
893.085	14899
893.207	14788
893.33	14663
893.452	14727
893.575	14861
893.697	14735
893.819	14918
893.941	15043
894.064	14952
894.186	14716
894.308	14708
894.43	14906
894.552	14876
894.674	14845
894.796	14773
894.918	14804
895.04	14743
895.161	14948
895.283	14933
895.405	14758
895.526	14807
895.648	14929
895.769	14944
895.891	14902
896.012	14872
896.134	14982
896.255	14853
896.376	14948
896.498	14872
896.619	14899
896.74	14990
896.861	14895
896.982	15245
897.103	15310
897.224	15302
897.345	15195
897.466	15150
897.587	15116
897.708	15306
897.828	15264
897.949	15207
898.07	15074
898.19	15203
898.311	15363
898.431	15169
898.552	15264
898.672	15416
898.792	15405
898.913	15279
899.033	15275
899.153	15131
899.273	15093
899.393	15074
899.513	15047
899.633	15097
899.753	15154
899.873	15154
899.993	15180
900.113	15013
900.232	15157
900.352	15032
900.472	15051
900.591	14975
900.711	15077
900.83	14933
900.95	14967
901.069	15017
901.189	14834
901.308	14659
901.427	14568
901.546	14621
901.665	14587
901.784	14697
901.904	14552
902.023	14473
902.141	14237
902.26	14164
902.379	14187
902.498	14126
902.617	14111
902.735	14145
902.854	14142
902.973	14100
903.091	13974
903.21	13902
903.328	14008
903.446	13845
903.565	13715
903.683	13723
903.801	13708
903.919	13715
904.038	13674
904.156	13552
904.274	13685
904.392	13518
904.51	13590
904.627	13571
904.745	13563
904.863	13605
904.981	13331
905.098	13221
905.216	13213
905.334	13270
905.451	13384
905.569	13251
905.686	13259
905.803	13221
905.921	13038
906.038	13198
906.155	13023
906.272	13084
906.389	12977
906.506	12875
906.623	12840
906.74	12867
906.857	12738
906.974	12833
907.091	13008
907.208	12954
907.324	12913
907.441	12684
907.557	12601
907.674	12574
907.79	12528
907.907	12547
908.023	12566
908.139	12555
908.256	12540
908.372	12563
908.488	12441
908.604	12380
908.72	12258
908.836	12304
908.952	12342
909.068	12311
909.184	12410
909.3	12361
909.415	12350
909.531	12372
909.647	12034
909.762	12171
909.878	12087
909.993	12148
910.108	12091
910.224	12019
910.339	12091
910.454	12045
910.57	11973
910.685	11809
910.8	12163
910.915	12003
911.03	11969
911.145	11805
911.259	11737
911.374	11710
911.489	11699
911.604	11623
911.718	11493
911.833	11558
911.947	11341
912.062	11345
912.176	11520
912.291	11444
912.405	11444
912.519	11680
912.633	11756
912.748	11611
912.862	11474
912.976	11349
913.09	11318
913.204	11311
913.318	11383
913.431	11505
913.545	11459
913.659	11478
913.772	11356
913.886	11258
914	11239
914.113	11315
914.226	11337
914.34	11334
914.453	11170
914.566	11273
914.68	11204
914.793	11159
914.906	10965
915.019	10961
915.132	10900
915.245	10991
915.358	11064
915.47	11014
915.583	10972
915.696	11071
915.809	11140
915.921	11159
916.034	10911
916.146	10831
916.259	10847
916.371	10991
916.483	11029
916.595	10828
916.708	10957
916.82	10911
916.932	10911
917.044	10923
917.156	10839
917.268	10752
917.38	10812
917.491	10748
917.603	10698
917.715	10866
917.826	10934
917.938	10801
918.049	10729
918.161	10778
918.272	10972
918.384	10889
918.495	10839
918.606	10683
918.717	10599
918.828	10630
918.939	10656
919.05	10599
919.161	10634
919.272	10455
919.383	10584
919.494	10675
919.604	10858
919.715	10668
919.826	10637
919.936	10618
920.047	10714
920.157	10748
920.267	10946
920.378	10744
920.488	10717
920.598	10908
920.708	10999
920.818	10949
920.928	10972
921.038	11102
921.148	10946
921.258	10679
921.368	10599
921.477	10535
921.587	10519
921.697	10390
921.806	10554
921.916	10352
922.025	10253
922.134	10131
922.244	10105
922.353	10265
922.462	10067
922.571	10120
922.68	9892
922.789	9926
922.898	9888
923.007	9899
923.116	9949
923.224	9907
923.333	9869
923.442	9793
923.55	9755
923.659	9854
923.767	9835
923.876	9789
923.984	9778
924.092	9701
924.201	9736
924.309	9789
924.417	9781
924.525	9717
924.633	9740
924.741	10660
924.849	9492
924.956	9656
925.064	9557
925.172	9447
925.279	9466
925.387	9561
925.494	9564
925.602	9698
925.709	9587
925.816	9504
925.924	9549
926.031	9671
926.138	9530
926.245	9606
926.352	9462
926.459	9603
926.566	9641
926.673	9454
926.779	9294
926.886	9416
926.993	9260
927.099	9123
927.206	9112
927.312	9142
927.419	9294
927.525	9272
927.631	9237
927.737	9142
927.843	9119
927.95	9024
928.056	9005
928.162	9142
928.267	9150
928.373	9755
928.479	9184
928.585	8998
928.69	9150
928.796	9074
928.901	8994
929.007	8849
929.112	9020
929.218	8963
929.323	8895
929.428	8910
929.533	9074
929.638	8842
929.743	8872
929.848	8921
929.953	8929
930.058	8853
930.163	8598
930.267	8731
930.372	8849
930.477	8689
930.581	8921
930.685	8762
930.79	8674
930.894	8606
930.998	8602
931.103	8739
931.207	8393
931.311	8343
931.415	8286
931.519	8077
931.623	8138
