Data from test_V78500241_2877.txt Node
Date: Fri Mar 25 14:53:44 CST 2022
User: usil
Spectrometer: V785-0024
Trigger mode: 0
Integration Time (sec): 4.000000E-1
Scans to average: 1
Nonlinearity correction enabled: false
Boxcar width: 0
Storing dark spectrum: false
XAxis mode: Wavelengths
Number of Pixels in Spectrum: 1024
>>>>>Begin Spectral Data<<<<<
801.071	21960
801.214	21972
801.356	21641
801.499	21686
801.641	21523
801.783	21435
801.926	21405
802.068	21500
802.211	21287
802.353	21256
802.496	20986
802.638	21020
802.78	20849
802.923	20804
803.065	20682
803.208	20602
803.35	20819
803.492	20883
803.635	20853
803.777	20777
803.919	20895
804.061	21009
804.204	20857
804.346	20689
804.488	20720
804.63	20727
804.773	20609
804.915	20708
805.057	20773
805.199	20750
805.341	20762
805.483	20800
805.626	20731
805.768	20644
805.91	20670
806.052	20720
806.194	20617
806.336	20811
806.478	20655
806.62	20659
806.762	20807
806.904	20937
807.046	21036
807.188	21039
807.33	21043
807.472	21131
807.614	20914
807.756	20895
807.898	20804
808.04	20697
808.182	20785
808.324	20758
808.465	20849
808.607	21032
808.749	21020
808.891	21211
809.033	21157
809.174	21112
809.316	21066
809.458	21077
809.6	21005
809.741	21058
809.883	21138
810.025	21116
810.166	21096
810.308	21180
810.45	21203
810.591	21020
810.733	21043
810.875	20811
811.016	20750
811.158	20762
811.299	20902
811.441	20986
811.582	20933
811.724	20667
811.865	20792
812.007	20769
812.148	20762
812.29	20868
812.431	20986
812.573	21169
812.714	21252
812.855	21283
812.997	21378
813.138	21435
813.279	21370
813.421	21344
813.562	21218
813.703	21005
813.845	21020
813.986	20701
814.127	20594
814.268	20358
814.41	20450
814.551	20473
814.692	20427
814.833	20347
814.974	20298
815.115	20427
815.256	20134
815.397	20218
815.539	20267
815.68	20103
815.821	20005
815.962	20172
816.103	20088
816.244	20027
816.385	19837
816.526	19715
816.666	19689
816.807	19655
816.948	19704
817.089	19655
817.23	19556
817.371	19468
817.512	19518
817.653	19552
817.793	19445
817.934	19502
818.075	19544
818.216	19651
818.356	19438
818.497	19411
818.638	19175
818.778	19240
818.919	19274
819.06	19129
819.2	19445
819.341	19354
819.481	19350
819.622	19548
819.762	19635
819.903	19567
820.043	19590
820.184	19453
820.324	19563
820.465	19460
820.605	19468
820.746	19499
820.886	19331
821.026	19457
821.167	19487
821.307	19460
821.447	19377
821.588	19301
821.728	19244
821.868	19072
822.008	18859
822.149	18844
822.289	18776
822.429	18593
822.569	18646
822.709	18536
822.849	18388
822.99	18357
823.13	18239
823.27	18456
823.41	18148
823.55	18102
823.69	18117
823.83	18216
823.97	18098
824.11	18022
824.25	18007
824.389	17942
824.529	18003
824.669	17954
824.809	18022
824.949	18030
825.089	17878
825.228	17920
825.368	17767
825.508	17653
825.648	17756
825.787	17824
825.927	17691
826.067	17623
826.206	17695
826.346	17653
826.485	17764
826.625	17707
826.765	17843
826.904	17783
827.044	17459
827.183	17467
827.323	17459
827.462	17516
827.601	17474
827.741	17337
827.88	17395
828.02	17277
828.159	17288
828.298	17486
828.437	17474
828.577	17417
828.716	17471
828.855	17425
828.994	17185
829.134	17193
829.273	17185
829.412	17128
829.551	17189
829.69	17117
829.829	17258
829.968	17288
830.107	17178
830.246	17197
830.385	17140
830.524	17048
830.663	17025
830.802	17018
830.941	16793
831.08	16763
831.219	16854
831.357	16858
831.496	17006
831.635	16793
831.774	16702
831.913	16630
832.051	16607
832.19	16500
832.329	16611
832.467	16352
832.606	16443
832.744	16481
832.883	16466
833.022	16333
833.16	16462
833.299	16554
833.437	16512
833.576	16455
833.714	16542
833.852	16550
833.991	16474
834.129	16645
834.267	16535
834.406	16527
834.544	16565
834.682	16527
834.821	16516
834.959	16702
835.097	16478
835.235	16672
835.373	16519
835.511	16546
835.65	16360
835.788	16417
835.926	16371
836.064	16257
836.202	16223
836.34	16398
836.478	16508
836.615	16436
836.753	16577
836.891	16485
837.029	16386
837.167	16417
837.305	16337
837.443	16352
837.58	16261
837.718	16303
837.856	16265
837.993	16207
838.131	16310
838.269	16211
838.406	16280
838.544	16211
838.681	16063
838.819	15915
838.956	15823
839.094	15755
839.231	15857
839.369	15964
839.506	16150
839.643	16147
839.781	15903
839.918	15854
840.055	15880
840.193	15800
840.33	15930
840.467	15854
840.604	15895
840.742	16105
840.879	15701
841.016	15781
841.153	15739
841.29	15869
841.427	15888
841.564	15842
841.701	15823
841.838	15804
841.975	15781
842.112	15732
842.249	15641
842.385	15564
842.522	15831
842.659	15698
842.796	15526
842.933	15675
843.069	15633
843.206	15572
843.343	15789
843.479	15663
843.616	15671
843.752	15386
843.889	15439
844.025	15435
844.162	15336
844.298	15553
844.435	15408
844.571	15473
844.708	15511
844.844	15545
844.98	15584
845.117	15576
845.253	15317
845.389	15173
845.525	15374
845.661	15283
845.798	15207
845.934	15226
846.07	15165
846.206	15131
846.342	15332
846.478	15157
846.614	15058
846.75	14891
846.886	14941
847.022	15058
847.158	15017
847.294	15028
847.429	14986
847.565	14982
847.701	15150
847.837	14705
847.972	14739
848.108	14807
848.244	14830
848.379	14480
848.515	14598
848.65	14552
848.786	14617
848.921	14537
849.057	14769
849.192	14640
849.328	14560
849.463	14613
849.598	14484
849.734	14488
849.869	14514
850.004	14393
850.14	14404
850.275	14415
850.41	14233
850.545	14278
850.68	14256
850.815	14328
850.95	14290
851.085	14465
851.22	14503
851.355	14438
851.49	14278
851.625	14282
851.76	14294
851.895	14259
852.03	14210
852.165	14355
852.299	14446
852.434	14450
852.569	14377
852.703	14385
852.838	14362
852.973	14450
853.107	14427
853.242	14252
853.376	14252
853.511	14134
853.645	14199
853.78	14347
853.914	14267
854.048	14199
854.183	14043
854.317	14183
854.451	14396
854.585	14180
854.72	14153
854.854	14263
854.988	14145
855.122	14183
855.256	14046
855.39	14153
855.524	14324
855.658	14233
855.792	14218
855.926	14176
856.06	14286
856.194	14309
856.327	14172
856.461	14130
856.595	14069
856.729	14138
856.862	14320
856.996	14263
857.13	14389
857.263	14233
857.397	14374
857.53	14202
857.664	14309
857.797	14206
857.931	14370
858.064	14240
858.197	14313
858.331	14240
858.464	14157
858.597	14058
858.731	14161
858.864	14214
858.997	14142
859.13	14320
859.263	14237
859.396	14343
859.529	14218
859.662	14168
859.795	14069
859.928	14229
860.061	14400
860.194	14484
860.327	14183
860.46	14199
860.592	14313
860.725	14389
860.858	14282
860.99	14263
861.123	14111
861.256	14275
861.388	14256
861.521	14800
861.653	14073
861.786	14050
861.918	14050
862.05	14065
862.183	14123
862.315	14172
862.447	14233
862.58	14206
862.712	14069
862.844	13849
862.976	14001
863.108	14050
863.24	14454
863.372	13951
863.504	13951
863.636	13993
863.768	13986
863.9	14016
864.032	13909
864.164	13932
864.296	13951
864.428	14126
864.559	14096
864.691	13902
864.823	13993
864.954	14031
865.086	13978
865.217	13989
865.349	13955
865.48	13921
865.612	13955
865.743	14107
865.875	14024
866.006	13967
866.137	13986
866.269	14065
866.4	14039
866.531	13959
866.662	13932
866.793	13845
866.924	13940
867.055	14024
867.186	13944
867.317	14016
867.448	13818
867.579	13970
867.71	13917
867.841	13928
867.972	13959
868.103	13970
868.233	14027
868.364	13947
868.495	14046
868.625	14221
868.756	14294
868.886	14168
869.017	14138
869.147	14320
869.278	14328
869.408	14240
869.539	14286
869.669	14259
869.799	14248
869.929	14305
870.06	14244
870.19	14545
870.32	14484
870.45	14454
870.58	14537
870.71	14674
870.84	14708
870.97	14689
871.1	14598
871.23	14788
871.36	14777
871.489	14659
871.619	14785
871.749	14785
871.879	14910
872.008	15001
872.138	14807
872.267	14845
872.397	14659
872.526	14663
872.656	14659
872.785	14663
872.915	14921
873.044	14914
873.173	14769
873.303	14868
873.432	15017
873.561	14967
873.69	14899
873.819	14845
873.948	14899
874.077	14944
874.206	15028
874.335	14921
874.464	14952
874.593	15207
874.722	15123
874.851	15184
874.979	15245
875.108	15195
875.237	15119
875.365	15123
875.494	15135
875.623	15199
875.751	15192
875.88	15211
876.008	15332
876.136	15488
876.265	15648
876.393	15762
876.521	15736
876.65	15743
876.778	15572
876.906	15526
877.034	15564
877.162	15542
877.29	15584
877.418	15606
877.546	15679
877.674	15618
877.802	15545
877.93	15545
878.058	15507
878.185	15466
878.313	15542
878.441	15511
878.568	15397
878.696	15526
878.824	15633
878.951	15675
879.079	15781
879.206	15926
879.333	15701
879.461	15595
879.588	15663
879.715	15823
879.842	15781
879.97	15705
880.097	15298
880.224	15310
880.351	15462
880.478	15367
880.605	15374
880.732	15389
880.859	15713
880.986	15386
881.112	15454
881.239	15348
881.366	15317
881.493	15188
881.619	15108
881.746	15173
881.872	15119
881.999	15104
882.125	15051
882.252	15184
882.378	15176
882.505	15161
882.631	15150
882.757	14864
882.883	14925
883.01	14941
883.136	14815
883.262	14769
883.388	14804
883.514	14963
883.64	15013
883.766	14807
883.892	14743
884.018	14716
884.143	15074
884.269	15104
884.395	14655
884.52	14594
884.646	14564
884.772	14526
884.897	14454
885.023	14552
885.148	14735
885.274	14762
885.399	14735
885.524	14659
885.65	14667
885.775	14697
885.9	14629
886.025	14842
886.15	14743
886.275	14594
886.4	14480
886.525	14537
886.65	14454
886.775	14648
886.9	14792
887.025	14838
887.149	14689
887.274	14442
887.399	14484
887.523	14484
887.648	14400
887.773	14415
887.897	14564
888.021	14476
888.146	14438
888.27	14598
888.395	14537
888.519	14446
888.643	14530
888.767	14530
888.891	14396
889.015	14317
889.139	14366
889.263	14282
889.387	14434
889.511	14431
889.635	14503
889.759	14347
889.883	14290
890.006	14347
890.13	14503
890.254	14290
890.377	14278
890.501	14183
890.624	14069
890.748	14218
890.871	14050
890.995	14111
891.118	13978
891.241	13963
891.364	14073
891.488	14153
891.611	13982
891.734	14115
891.857	14100
891.98	14103
892.103	14263
892.226	14062
892.349	14016
892.471	13932
892.594	13986
892.717	14005
892.839	13974
892.962	14096
893.085	14183
893.207	14031
893.33	13936
893.452	13959
893.575	14111
893.697	14027
893.819	14263
893.941	14278
894.064	14206
894.186	14065
894.308	13917
894.43	14286
894.552	14168
894.674	14176
894.796	14046
894.918	14134
895.04	14062
895.161	14187
895.283	14088
895.405	14134
895.526	14043
895.648	14115
895.769	14202
895.891	14138
896.012	14240
896.134	14275
896.255	14157
896.376	14164
896.498	14187
896.619	14267
896.74	14138
896.861	14221
896.982	14503
897.103	14693
897.224	14488
897.345	14492
897.466	14446
897.587	14465
897.708	14571
897.828	14526
897.949	14423
898.07	14400
898.19	14396
898.311	14617
898.431	14473
898.552	14564
898.672	14632
898.792	14693
898.913	14503
899.033	14606
899.153	14336
899.273	14237
899.393	14454
899.513	14431
899.633	14419
899.753	14355
899.873	14366
899.993	14457
900.113	14412
900.232	14454
900.352	14427
900.472	14286
900.591	14275
900.711	14225
900.83	14259
900.95	14434
901.069	14434
901.189	14267
901.308	14020
901.427	13917
901.546	13925
901.665	13955
901.784	14024
901.904	13852
902.023	13693
902.141	13487
902.26	13521
902.379	13651
902.498	13567
902.617	13502
902.735	13567
902.854	13533
902.973	13483
903.091	13221
903.21	13324
903.328	13274
903.446	13206
903.565	13099
903.683	13209
903.801	12920
903.919	13080
904.038	13160
904.156	12966
904.274	12977
904.392	12867
904.51	12901
904.627	12973
904.745	12973
904.863	12928
904.981	12776
905.098	12528
905.216	12662
905.334	12608
905.451	12540
905.569	12574
905.686	12741
905.803	12631
905.921	12414
906.038	12578
906.155	12441
906.272	12380
906.389	12380
906.506	12300
906.623	12220
906.74	12220
906.857	12026
906.974	12228
907.091	12311
907.208	12304
907.324	12270
907.441	12129
907.557	12060
907.674	11969
907.79	11912
907.907	11961
908.023	11988
908.139	11996
908.256	12007
908.372	11954
908.488	11935
908.604	11741
908.72	11726
908.836	11821
908.952	11760
909.068	11748
909.184	11878
909.3	11646
909.415	11760
909.531	11794
909.647	11516
909.762	11532
909.878	11490
909.993	11512
910.108	11417
910.224	11452
910.339	11509
910.454	11387
910.57	11299
910.685	11303
910.8	11604
910.915	11516
911.03	11448
911.145	11242
911.259	11166
911.374	11216
911.489	11143
911.604	11105
911.718	10957
911.833	10961
911.947	10904
912.062	10733
912.176	10938
912.291	10911
912.405	10976
912.519	11166
912.633	11151
912.748	11102
912.862	11037
912.976	10839
913.09	10759
913.204	10843
913.318	10881
913.431	10892
913.545	11003
913.659	10953
913.772	10896
913.886	10698
914	10683
914.113	10839
914.226	10908
914.34	10873
914.453	10626
914.566	10862
914.68	10653
914.793	10641
914.906	10554
915.019	10470
915.132	10390
915.245	10398
915.358	10421
915.47	10546
915.583	10558
915.696	10432
915.809	10611
915.921	10660
916.034	10485
916.146	10390
916.259	10497
916.371	10573
916.483	10432
916.595	10443
916.708	10318
916.82	10405
916.932	10413
917.044	10352
917.156	10352
917.268	10405
917.38	10314
917.491	10227
917.603	10333
917.715	10459
917.826	10417
917.938	10299
918.049	10219
918.161	10272
918.272	10428
918.384	10424
918.495	10337
918.606	10234
918.717	10147
918.828	10192
918.939	10204
919.05	10162
919.161	10139
919.272	9953
919.383	10036
919.494	10265
919.604	10375
919.715	10265
919.826	10173
919.936	10204
920.047	10344
920.157	10200
920.267	10493
920.378	10291
920.488	10173
920.598	10424
920.708	10558
920.818	10303
920.928	10386
921.038	10527
921.148	10474
921.258	10227
921.368	10181
921.477	10154
921.587	10112
921.697	9907
921.806	10021
921.916	9907
922.025	9747
922.134	9770
922.244	9751
922.353	9793
922.462	9652
922.571	9595
922.68	9485
922.789	9428
922.898	9526
923.007	9348
923.116	9492
923.224	9454
923.333	9466
923.442	9325
923.55	9321
923.659	9336
923.767	9428
923.876	9275
923.984	9355
924.092	9249
924.201	9325
924.309	9294
924.417	9382
924.525	9279
924.633	9310
924.741	10158
924.849	9093
924.956	9287
925.064	9085
925.172	8971
925.279	9116
925.387	9127
925.494	9195
925.602	9321
925.709	9207
925.816	9032
925.924	9131
926.031	9245
926.138	9074
926.245	9161
926.352	9001
926.459	9173
926.566	9180
926.673	9089
926.779	8982
926.886	9020
926.993	8823
927.099	8796
927.206	8762
927.312	8838
927.419	8880
927.525	8883
927.631	8853
927.737	8727
927.843	8708
927.95	8583
928.056	8724
928.162	8735
928.267	8785
928.373	9367
928.479	8830
928.585	8617
928.69	8754
928.796	8785
928.901	8712
929.007	8507
929.112	8594
929.218	8640
929.323	8564
929.428	8522
929.533	8640
929.638	8522
929.743	8568
929.848	8590
929.953	8602
930.058	8461
930.163	8332
930.267	8279
930.372	8396
930.477	8301
930.581	8560
930.685	8374
930.79	8267
930.894	8271
930.998	8256
931.103	8408
931.207	8084
931.311	8005
931.415	7982
931.519	7830
931.623	7795
