Data from test_V78500241_852.txt Node
Date: Fri Mar 25 14:39:39 CST 2022
User: usil
Spectrometer: V785-0024
Trigger mode: 0
Integration Time (sec): 4.000000E-1
Scans to average: 1
Nonlinearity correction enabled: false
Boxcar width: 0
Storing dark spectrum: false
XAxis mode: Wavelengths
Number of Pixels in Spectrum: 1024
>>>>>Begin Spectral Data<<<<<
801.071	25883
801.214	25776
801.356	25616
801.499	25457
801.641	25354
801.783	25225
801.926	25225
802.068	25160
802.211	25034
802.353	24966
802.496	24844
802.638	24753
802.78	24779
802.923	24745
803.065	24684
803.208	24612
803.35	24544
803.492	24776
803.635	24856
803.777	24810
803.919	24852
804.061	24924
804.204	24791
804.346	24730
804.488	24791
804.63	24677
804.773	24616
804.915	24966
805.057	24943
805.199	24848
805.341	25031
805.483	25069
805.626	25027
805.768	24886
805.91	25012
806.052	25091
806.194	25217
806.336	25548
806.478	25434
806.62	25377
806.762	25708
806.904	25909
807.046	26450
807.188	26423
807.33	26606
807.472	27005
807.614	27199
807.756	27876
807.898	28318
808.04	28915
808.182	30053
808.324	31285
808.465	33001
808.607	34801
808.749	36174
808.891	37122
809.033	37069
809.174	36148
809.316	34618
809.458	33085
809.6	31156
809.741	29897
809.883	28809
810.025	28211
810.166	27496
810.308	27176
810.45	26906
810.591	26682
810.733	26138
810.875	25974
811.016	25803
811.158	25635
811.299	25677
811.441	25628
811.582	25552
811.724	25411
811.865	25217
812.007	25270
812.148	25285
812.29	25274
812.431	25396
812.573	25460
812.714	25525
812.855	25563
812.997	25719
813.138	25753
813.279	25704
813.421	25643
813.562	25358
813.703	25274
813.845	25072
813.986	24890
814.127	24688
814.268	24578
814.41	24544
814.551	24475
814.692	24517
814.833	24456
814.974	24311
815.115	24369
815.256	24232
815.397	24239
815.539	24266
815.68	24041
815.821	23980
815.962	24114
816.103	24022
816.244	23836
816.385	23802
816.526	23680
816.666	23619
816.807	23490
816.948	23570
817.089	23493
817.23	23490
817.371	23341
817.512	23379
817.653	23368
817.793	23273
817.934	23326
818.075	23368
818.216	23379
818.356	23379
818.497	23200
818.638	23003
818.778	23048
818.919	23094
819.06	23159
819.2	23166
819.341	23296
819.481	23174
819.622	23444
819.762	23619
819.903	23455
820.043	23448
820.184	23330
820.324	23193
820.465	23398
820.605	23223
820.746	23258
820.886	23029
821.026	23185
821.167	23090
821.307	23277
821.447	23155
821.588	23014
821.728	22915
821.868	22672
822.008	22607
822.149	22561
822.289	22413
822.429	22348
822.569	22238
822.709	22230
822.849	22131
822.99	22059
823.13	21926
823.27	21915
823.41	21808
823.55	21793
823.69	21865
823.83	21831
823.97	21850
824.11	21652
824.25	21511
824.389	21507
824.529	21625
824.669	21572
824.809	21732
824.949	21599
825.089	21747
825.228	21625
825.368	21469
825.508	21424
825.648	21462
825.787	21237
825.927	21523
826.067	21336
826.206	21378
826.346	21428
826.485	21462
826.625	21359
826.765	21317
826.904	21386
827.044	21017
827.183	21104
827.323	21024
827.462	21089
827.601	21077
827.741	21043
827.88	21024
828.02	20876
828.159	20975
828.298	21013
828.437	20902
828.577	20948
828.716	21127
828.855	20979
828.994	20769
829.134	20697
829.273	20758
829.412	20674
829.551	20663
829.69	20743
829.829	20686
829.968	20842
830.107	20621
830.246	20655
830.385	20560
830.524	20560
830.663	20522
830.802	20393
830.941	20336
831.08	20271
831.219	20393
831.357	20229
831.496	20454
831.635	20233
831.774	20221
831.913	20145
832.051	20130
832.19	20081
832.329	20202
832.467	20111
832.606	20027
832.744	20088
832.883	20096
833.022	20081
833.16	20206
833.299	20294
833.437	20191
833.576	20324
833.714	20457
833.852	20571
833.991	20583
834.129	20636
834.267	20663
834.406	20602
834.544	20415
834.682	20663
834.821	20396
834.959	20575
835.097	20301
835.235	20339
835.373	20256
835.511	20191
835.65	19978
835.788	20020
835.926	19723
836.064	19647
836.202	19826
836.34	19833
836.478	19982
836.615	19799
836.753	19791
836.891	19898
837.029	19864
837.167	19696
837.305	19651
837.443	19696
837.58	19731
837.718	19818
837.856	19681
837.993	19620
838.131	19609
838.269	19578
838.406	19586
838.544	19453
838.681	19373
838.819	19282
838.956	19091
839.094	19126
839.231	19168
839.369	19137
839.506	19533
839.643	19381
839.781	19118
839.918	18981
840.055	19160
840.193	19091
840.33	19095
840.467	19042
840.604	19069
840.742	19297
840.879	19050
841.016	18989
841.153	18973
841.29	19293
841.427	19107
841.564	19069
841.701	19027
841.838	18977
841.975	18947
842.112	18913
842.249	18886
842.385	18810
842.522	19129
842.659	18954
842.796	18821
842.933	18825
843.069	18863
843.206	18802
843.343	19023
843.479	18943
843.616	18882
843.752	18745
843.889	18631
844.025	18837
844.162	18837
844.298	18856
844.435	18890
844.571	18985
844.708	19194
844.844	19407
844.98	19719
845.117	19951
845.253	20252
845.389	21157
845.525	22801
845.661	25639
845.798	28915
845.934	31879
846.07	33020
846.206	32446
846.342	30281
846.478	26792
846.614	23634
846.75	21606
846.886	20431
847.022	19769
847.158	19263
847.294	18867
847.429	18665
847.565	18498
847.701	18665
847.837	18220
847.972	18072
848.108	18091
848.244	18102
848.379	17847
848.515	17893
848.65	17764
848.786	17752
848.921	17802
849.057	17859
849.192	17824
849.328	17840
849.463	17726
849.598	17619
849.734	17718
849.869	17657
850.004	17547
850.14	17509
850.275	17520
850.41	17303
850.545	17505
850.68	17429
850.815	17532
850.95	17497
851.085	17604
851.22	17524
851.355	17516
851.49	17345
851.625	17315
851.76	17425
851.895	17337
852.03	17433
852.165	17425
852.299	17497
852.434	17623
852.569	17543
852.703	17429
852.838	17452
852.973	17695
853.107	17745
853.242	17486
853.376	17391
853.511	17391
853.645	17402
853.78	17558
853.914	17509
854.048	17486
854.183	17414
854.317	17436
854.451	17668
854.585	17425
854.72	17448
854.854	17539
854.988	17326
855.122	17471
855.256	17269
855.39	17436
855.524	17429
855.658	17376
855.792	17364
855.926	17383
856.06	17296
856.194	17436
856.327	17349
856.461	17239
856.595	17277
856.729	17239
856.862	17444
856.996	17277
857.13	17414
857.263	17318
857.397	17368
857.53	17204
857.664	17337
857.797	17265
857.931	17402
858.064	17311
858.197	17421
858.331	17227
858.464	17098
858.597	17041
858.731	17159
858.864	17277
858.997	17197
859.13	17227
859.263	17288
859.396	17345
859.529	17151
859.662	17166
859.795	17086
859.928	17200
860.061	17379
860.194	17337
860.327	17299
860.46	17246
860.592	17231
860.725	17349
860.858	17330
860.99	17067
861.123	17079
861.256	17105
861.388	17178
861.521	17699
861.653	17143
861.786	17075
861.918	17048
862.05	17132
862.183	17181
862.315	17102
862.447	17235
862.58	17109
862.712	16911
862.844	16900
862.976	16908
863.108	16972
863.24	17395
863.372	16873
863.504	16927
863.636	16976
863.768	16919
863.9	16946
864.032	16862
864.164	16942
864.296	16991
864.428	16885
864.559	17041
864.691	17014
864.823	16923
864.954	16934
865.086	17025
865.217	16759
865.349	16763
865.48	16850
865.612	16809
865.743	16991
865.875	16919
866.006	16786
866.137	16809
866.269	16835
866.4	16793
866.531	16862
866.662	16786
866.793	16809
866.924	16733
867.055	16755
867.186	16801
867.317	16786
867.448	16630
867.579	16702
867.71	16797
867.841	16698
867.972	16744
868.103	16869
868.233	16862
868.364	16831
868.495	16866
868.625	17105
868.756	17155
868.886	16972
869.017	16965
869.147	17242
869.278	17197
869.408	16938
869.539	17181
869.669	17143
869.799	17006
869.929	17189
870.06	17197
870.19	17459
870.32	17505
870.45	17356
870.58	17414
870.71	17570
870.84	17634
870.97	17467
871.1	17474
871.23	17566
871.36	17767
871.489	17623
871.619	17672
871.749	17661
871.879	17786
872.008	17836
872.138	17756
872.267	17676
872.397	17520
872.526	17493
872.656	17646
872.785	17596
872.915	17809
873.044	17958
873.173	17821
873.303	17733
873.432	17859
873.561	17923
873.69	17946
873.819	17821
873.948	17935
874.077	17889
874.206	17775
874.335	17897
874.464	18079
874.593	18190
874.722	18163
874.851	18220
874.979	18273
875.108	18262
875.237	18292
875.365	18144
875.494	18243
875.623	18464
875.751	18399
875.88	18475
876.008	18563
876.136	18684
876.265	18871
876.393	19103
876.521	18993
876.65	19000
876.778	18928
876.906	18958
877.034	19027
877.162	19072
877.29	19122
877.418	19126
877.546	19213
877.674	19266
877.802	19331
877.93	19487
878.058	19445
878.185	19506
878.313	19719
878.441	19864
878.568	19963
878.696	20298
878.824	20826
878.951	21397
879.079	22124
879.206	23391
879.333	24422
879.461	25350
879.588	25689
879.715	25731
879.842	25487
879.97	24418
880.097	23003
880.224	22253
880.351	21625
880.478	21272
880.605	20811
880.732	20613
880.859	20762
880.986	20415
881.112	20579
881.239	20298
881.366	20199
881.493	20218
881.619	19989
881.746	20081
881.872	20035
881.999	20027
882.125	19967
882.252	20081
882.378	20122
882.505	20153
882.631	20039
882.757	20202
882.883	19970
883.01	20020
883.136	19925
883.262	19795
883.388	19757
883.514	19947
883.64	19932
883.766	19849
883.892	19674
884.018	19655
884.143	19917
884.269	20001
884.395	19700
884.52	19537
884.646	19788
884.772	19453
884.897	19620
885.023	19624
885.148	19609
885.274	19852
885.399	19643
885.524	19438
885.65	19327
885.775	19388
885.9	19213
886.025	19350
886.15	19236
886.275	19137
886.4	18806
886.525	19042
886.65	18764
886.775	18798
886.9	18817
887.025	18996
887.149	18623
887.274	18494
887.399	18350
887.523	18334
887.648	18292
887.773	18201
887.897	18304
888.021	18330
888.146	18171
888.27	18224
888.395	18213
888.519	18136
888.643	18121
888.767	18102
888.891	17939
889.015	17798
889.139	17950
889.263	17851
889.387	17923
889.511	18026
889.635	17916
889.759	17741
889.883	17748
890.006	17630
890.13	17779
890.254	17623
890.377	17676
890.501	17455
890.624	17406
890.748	17551
890.871	17318
890.995	17216
891.118	17178
891.241	17174
891.364	17231
891.488	17299
891.611	17277
891.734	17227
891.857	17181
891.98	17128
892.103	17162
892.226	17124
892.349	17048
892.471	16915
892.594	17064
892.717	17041
892.839	16896
892.962	17033
893.085	17067
893.207	16946
893.33	16946
893.452	16733
893.575	16843
893.697	16847
893.819	16995
893.941	17124
894.064	16957
894.186	16862
894.308	16729
894.43	16999
894.552	17086
894.674	17014
894.796	16771
894.918	16858
895.04	16782
895.161	16767
895.283	16816
895.405	16672
895.526	16850
895.648	16790
895.769	16782
895.891	16839
896.012	16812
896.134	16858
896.255	16752
896.376	16854
896.498	16847
896.619	16908
896.74	16831
896.861	16885
896.982	17162
897.103	17322
897.224	17151
897.345	16987
897.466	16938
897.587	17025
897.708	17162
897.828	17094
897.949	16999
898.07	16911
898.19	17045
898.311	17143
898.431	17083
898.552	17102
898.672	17079
898.792	17140
898.913	17102
899.033	17071
899.153	16885
899.273	16824
899.393	16885
899.513	16820
899.633	16885
899.753	16972
899.873	16862
899.993	16930
900.113	17003
900.232	16869
900.352	16885
900.472	16778
900.591	16797
900.711	16790
900.83	16710
900.95	16889
901.069	16801
901.189	16691
901.308	16367
901.427	16371
901.546	16394
901.665	16299
901.784	16398
901.904	16238
902.023	16112
902.141	15956
902.26	15960
902.379	15926
902.498	15751
902.617	15842
902.735	15793
902.854	15808
902.973	15690
903.091	15469
903.21	15523
903.328	15458
903.446	15412
903.565	15321
903.683	15332
903.801	15203
903.919	15325
904.038	15192
904.156	15039
904.274	15074
904.392	15093
904.51	15032
904.627	15085
904.745	15039
904.863	15093
904.981	14963
905.098	14720
905.216	14765
905.334	14674
905.451	14644
905.569	14651
905.686	14746
905.803	14644
905.921	14533
906.038	14640
906.155	14526
906.272	14434
906.389	14423
906.506	14168
906.623	14199
906.74	14214
906.857	14187
906.974	14142
907.091	14271
907.208	14412
907.324	14324
907.441	14157
907.557	14069
907.674	14062
907.79	13917
907.907	13868
908.023	14027
908.139	13890
908.256	13845
908.372	13860
908.488	13803
908.604	13769
908.72	13666
908.836	13742
908.952	13670
909.068	13731
909.184	13753
909.3	13776
909.415	13769
909.531	13723
909.647	13472
909.762	13430
909.878	13445
909.993	13464
910.108	13430
910.224	13403
910.339	13400
910.454	13346
910.57	13350
910.685	13240
910.8	13468
910.915	13430
911.03	13350
911.145	13183
911.259	13012
911.374	13076
911.489	13038
911.604	12932
911.718	12798
911.833	12935
911.947	12700
912.062	12601
912.176	12852
912.291	12909
912.405	12920
912.519	13034
912.633	13110
912.748	12871
912.862	12821
912.976	12658
913.09	12536
913.204	12593
913.318	12623
913.431	12878
913.545	12791
913.659	12715
913.772	12696
913.886	12566
914	12486
914.113	12517
914.226	12620
914.34	12665
914.453	12460
914.566	12578
914.68	12353
914.793	12418
914.906	12304
915.019	12136
915.132	12186
915.245	12159
915.358	12251
915.47	12296
915.583	12228
915.696	12300
915.809	12365
915.921	12376
916.034	12190
916.146	12201
916.259	12213
916.371	12258
916.483	12224
916.595	12209
916.708	12258
916.82	12136
916.932	12220
917.044	12136
917.156	12125
917.268	12106
917.38	12087
917.491	11988
917.603	12038
917.715	12102
917.826	12091
917.938	11916
918.049	11973
918.161	12003
918.272	12057
918.384	12167
918.495	12038
918.606	11863
918.717	11828
918.828	11893
918.939	11927
919.05	11676
919.161	11840
919.272	11585
919.383	11657
919.494	11817
919.604	11935
919.715	11843
919.826	11737
919.936	11809
920.047	11771
920.157	11813
920.267	12072
920.378	11889
920.488	11779
920.598	12045
920.708	12068
920.818	11931
920.928	11996
921.038	12152
921.148	12060
921.258	11741
921.368	11737
921.477	11581
921.587	11558
921.697	11497
921.806	11581
921.916	11440
922.025	11299
922.134	11296
922.244	11292
922.353	11337
922.462	11159
922.571	11185
922.68	10885
922.789	10896
922.898	10972
923.007	10961
923.116	10972
923.224	10965
923.333	10972
923.442	10839
923.55	10748
923.659	10908
923.767	10904
923.876	10793
923.984	10793
924.092	10660
924.201	10847
924.309	10778
924.417	10763
924.525	10744
924.633	10736
924.741	11623
924.849	10493
924.956	10637
925.064	10538
925.172	10462
925.279	10558
925.387	10565
925.494	10428
925.602	10641
925.709	10527
925.816	10398
925.924	10588
926.031	10561
926.138	10493
926.245	10569
926.352	10447
926.459	10497
926.566	10592
926.673	10405
926.779	10360
926.886	10337
926.993	10207
927.099	10173
927.206	10154
927.312	10090
927.419	10204
927.525	10093
927.631	10238
927.737	10090
927.843	10063
927.95	9895
928.056	10017
928.162	10071
928.267	10131
928.373	10691
928.479	10109
928.585	9918
928.69	9998
928.796	10029
928.901	9930
929.007	9808
929.112	9941
929.218	9953
929.323	9922
929.428	9778
929.533	9937
929.638	9778
929.743	9728
929.848	9793
929.953	9770
930.058	9743
930.163	9545
930.267	9629
930.372	9800
930.477	9515
930.581	9774
930.685	9568
930.79	9466
930.894	9557
930.998	9507
931.103	9656
931.207	9253
931.311	9230
931.415	9112
931.519	8975
931.623	8998
