Data from test_V78500241_1856.txt Node
Date: Fri Mar 25 14:46:38 CST 2022
User: usil
Spectrometer: V785-0024
Trigger mode: 0
Integration Time (sec): 4.000000E-1
Scans to average: 1
Nonlinearity correction enabled: false
Boxcar width: 0
Storing dark spectrum: false
XAxis mode: Wavelengths
Number of Pixels in Spectrum: 1024
>>>>>Begin Spectral Data<<<<<
801.071	22055
801.214	21968
801.356	21873
801.499	21694
801.641	21469
801.783	21534
801.926	21492
802.068	21458
802.211	21378
802.353	21256
802.496	21127
802.638	21020
802.78	21017
802.923	20956
803.065	20727
803.208	20796
803.35	20857
803.492	20937
803.635	20967
803.777	20705
803.919	20880
804.061	21066
804.204	20933
804.346	20895
804.488	20720
804.63	20807
804.773	20636
804.915	20739
805.057	20804
805.199	20773
805.341	20777
805.483	20994
805.626	20921
805.768	20663
805.91	20712
806.052	20815
806.194	20743
806.336	20826
806.478	20788
806.62	20724
806.762	20864
806.904	20815
807.046	21150
807.188	21123
807.33	21028
807.472	21135
807.614	20982
807.756	21017
807.898	20762
808.04	20727
808.182	20724
808.324	20921
808.465	20918
808.607	21131
808.749	20990
808.891	21184
809.033	21294
809.174	21127
809.316	21142
809.458	21173
809.6	21131
809.741	21241
809.883	21218
810.025	21332
810.166	21317
810.308	21222
810.45	21370
810.591	21127
810.733	21028
810.875	21001
811.016	20746
811.158	20796
811.299	20971
811.441	20925
811.582	21005
811.724	20872
811.865	20975
812.007	20982
812.148	20872
812.29	20952
812.431	20963
812.573	21211
812.714	21260
812.855	21401
812.997	21428
813.138	21587
813.279	21462
813.421	21336
813.562	21291
813.703	21192
813.845	21024
813.986	20819
814.127	20655
814.268	20503
814.41	20476
814.551	20404
814.692	20488
814.833	20294
814.974	20431
815.115	20370
815.256	20240
815.397	20301
815.539	20324
815.68	20218
815.821	20142
815.962	20237
816.103	20195
816.244	19925
816.385	19921
816.526	19780
816.666	19750
816.807	19624
816.948	19712
817.089	19757
817.23	19647
817.371	19597
817.512	19567
817.653	19480
817.793	19613
817.934	19582
818.075	19643
818.216	19639
818.356	19540
818.497	19403
818.638	19331
818.778	19266
818.919	19244
819.06	19282
819.2	19369
819.341	19464
819.481	19533
819.622	19635
819.762	19803
819.903	19761
820.043	19643
820.184	19586
820.324	19597
820.465	19704
820.605	19483
820.746	19643
820.886	19373
821.026	19605
821.167	19518
821.307	19556
821.447	19495
821.588	19327
821.728	19304
821.868	19095
822.008	18947
822.149	18817
822.289	18932
822.429	18848
822.569	18532
822.709	18700
822.849	18566
822.99	18407
823.13	18426
823.27	18433
823.41	18228
823.55	18144
823.69	18258
823.83	18262
823.97	18289
824.11	18117
824.25	18007
824.389	17980
824.529	18087
824.669	18186
824.809	18148
824.949	18072
825.089	18072
825.228	18098
825.368	18003
825.508	17863
825.648	17870
825.787	17809
825.927	17954
826.067	17786
826.206	17783
826.346	17802
826.485	17874
826.625	17786
826.765	17897
826.904	17847
827.044	17630
827.183	17551
827.323	17471
827.462	17585
827.601	17463
827.741	17490
827.88	17573
828.02	17398
828.159	17516
828.298	17589
828.437	17497
828.577	17459
828.716	17630
828.855	17509
828.994	17269
829.134	17330
829.273	17254
829.412	17185
829.551	17197
829.69	17216
829.829	17277
829.968	17303
830.107	17292
830.246	17391
830.385	17231
830.524	17166
830.663	17155
830.802	17022
830.941	16869
831.08	16896
831.219	16896
831.357	16934
831.496	17071
831.635	16938
831.774	16809
831.913	16778
832.051	16736
832.19	16637
832.329	16809
832.467	16675
832.606	16573
832.744	16558
832.883	16691
833.022	16481
833.16	16603
833.299	16603
833.437	16573
833.576	16637
833.714	16721
833.852	16713
833.991	16687
834.129	16790
834.267	16733
834.406	16641
834.544	16702
834.682	16748
834.821	16580
834.959	16706
835.097	16618
835.235	16786
835.373	16672
835.511	16694
835.65	16664
835.788	16573
835.926	16535
836.064	16291
836.202	16440
836.34	16592
836.478	16554
836.615	16584
836.753	16546
836.891	16645
837.029	16577
837.167	16443
837.305	16489
837.443	16432
837.58	16352
837.718	16516
837.856	16546
837.993	16291
838.131	16386
838.269	16265
838.406	16363
838.544	16337
838.681	16097
838.819	16109
838.956	15934
839.094	15975
839.231	16036
839.369	16246
839.506	16325
839.643	16287
839.781	16040
839.918	15975
840.055	16002
840.193	16006
840.33	15880
840.467	15934
840.604	16021
840.742	16234
840.879	15819
841.016	15968
841.153	15850
841.29	16112
841.427	15941
841.564	15975
841.701	16010
841.838	15892
841.975	15884
842.112	15873
842.249	15755
842.385	15732
842.522	15865
842.659	15755
842.796	15747
842.933	15781
843.069	15713
843.206	15720
843.343	15888
843.479	15724
843.616	15892
843.752	15496
843.889	15477
844.025	15713
844.162	15450
844.298	15701
844.435	15454
844.571	15412
844.708	15682
844.844	15713
844.98	15739
845.117	15736
845.253	15572
845.389	15374
845.525	15561
845.661	15488
845.798	15329
845.934	15359
846.07	15435
846.206	15287
846.342	15481
846.478	15245
846.614	15108
846.75	15062
846.886	15119
847.022	15131
847.158	15108
847.294	15165
847.429	15142
847.565	15028
847.701	15340
847.837	14838
847.972	14781
848.108	15028
848.244	14853
848.379	14750
848.515	14640
848.65	14689
848.786	14739
848.921	14697
849.057	14826
849.192	14735
849.328	14735
849.463	14724
849.598	14712
849.734	14602
849.869	14613
850.004	14469
850.14	14476
850.275	14450
850.41	14396
850.545	14415
850.68	14396
850.815	14511
850.95	14499
851.085	14606
851.22	14537
851.355	14461
851.49	14461
851.625	14560
851.76	14404
851.895	14385
852.03	14351
852.165	14545
852.299	14568
852.434	14522
852.569	14503
852.703	14533
852.838	14602
852.973	14644
853.107	14720
853.242	14434
853.376	14412
853.511	14218
853.645	14336
853.78	14556
853.914	14469
854.048	14423
854.183	14434
854.317	14282
854.451	14526
854.585	14294
854.72	14351
854.854	14408
854.988	14214
855.122	14210
855.256	14206
855.39	14320
855.524	14396
855.658	14431
855.792	14370
855.926	14431
856.06	14446
856.194	14457
856.327	14313
856.461	14294
856.595	14317
856.729	14336
856.862	14404
856.996	14355
857.13	14419
857.263	14514
857.397	14476
857.53	14339
857.664	14381
857.797	14469
857.931	14488
858.064	14362
858.197	14492
858.331	14339
858.464	14320
858.597	14240
858.731	14301
858.864	14370
858.997	14240
859.13	14358
859.263	14412
859.396	14492
859.529	14298
859.662	14229
859.795	14370
859.928	14385
860.061	14442
860.194	14492
860.327	14366
860.46	14431
860.592	14473
860.725	14427
860.858	14495
860.99	14351
861.123	14324
861.256	14305
861.388	14412
861.521	15017
861.653	14225
861.786	14164
861.918	14313
862.05	14415
862.183	14400
862.315	14324
862.447	14305
862.58	14377
862.712	14206
862.844	14039
862.976	14237
863.108	14119
863.24	14492
863.372	14084
863.504	14214
863.636	14111
863.768	14142
863.9	14115
864.032	14096
864.164	14069
864.296	14259
864.428	14229
864.559	14252
864.691	14149
864.823	14214
864.954	14168
865.086	14164
865.217	14161
865.349	14046
865.48	14096
865.612	14103
865.743	14191
865.875	14176
866.006	14145
866.137	14172
866.269	14164
866.4	14199
866.531	14157
866.662	14058
866.793	14016
866.924	14164
867.055	14142
867.186	14043
867.317	14058
867.448	14058
867.579	14008
867.71	14043
867.841	13959
867.972	14088
868.103	14084
868.233	14130
868.364	14119
868.495	14145
868.625	14362
868.756	14461
868.886	14225
869.017	14309
869.147	14461
869.278	14507
869.408	14374
869.539	14374
869.669	14442
869.799	14480
869.929	14469
870.06	14442
870.19	14712
870.32	14705
870.45	14663
870.58	14792
870.71	14861
870.84	14804
870.97	14705
871.1	14754
871.23	14914
871.36	14902
871.489	14792
871.619	15051
871.749	14975
871.879	14982
872.008	14986
872.138	14937
872.267	14948
872.397	14819
872.526	14899
872.656	14815
872.785	14868
872.915	15020
873.044	15062
873.173	15119
873.303	14952
873.432	15077
873.561	15135
873.69	15028
873.819	14986
873.948	15138
874.077	15039
874.206	14929
874.335	15055
874.464	15161
874.593	15336
874.722	15256
874.851	15321
874.979	15382
875.108	15454
875.237	15207
875.365	15275
875.494	15260
875.623	15443
875.751	15363
875.88	15386
876.008	15519
876.136	15523
876.265	15732
876.393	15880
876.521	15922
876.65	15778
876.778	15743
876.906	15603
877.034	15686
877.162	15816
877.29	15713
877.418	15690
877.546	15755
877.674	15739
877.802	15842
877.93	15774
878.058	15667
878.185	15614
878.313	15686
878.441	15717
878.568	15572
878.696	15584
878.824	15812
878.951	15785
879.079	15941
879.206	16044
879.333	15873
879.461	15838
879.588	15804
879.715	15907
879.842	15979
879.97	15781
880.097	15641
880.224	15587
880.351	15603
880.478	15564
880.605	15572
880.732	15675
880.859	15774
880.986	15564
881.112	15618
881.239	15485
881.366	15382
881.493	15275
881.619	15275
881.746	15226
881.872	15287
881.999	15275
882.125	15241
882.252	15291
882.378	15180
882.505	15416
882.631	15256
882.757	15062
882.883	15127
883.01	15051
883.136	15089
883.262	14853
883.388	14921
883.514	15097
883.64	15157
883.766	14990
883.892	14876
884.018	14929
884.143	15017
884.269	15195
884.395	14739
884.52	14796
884.646	14876
884.772	14735
884.897	14625
885.023	14792
885.148	14857
885.274	14963
885.399	14861
885.524	14788
885.65	14796
885.775	14853
885.9	14678
886.025	14804
886.15	14765
886.275	14655
886.4	14765
886.525	14739
886.65	14590
886.775	14659
886.9	14883
887.025	15001
887.149	14796
887.274	14648
887.399	14590
887.523	14617
887.648	14549
887.773	14492
887.897	14735
888.021	14632
888.146	14537
888.27	14583
888.395	14750
888.519	14659
888.643	14750
888.767	14674
888.891	14530
889.015	14446
889.139	14495
889.263	14301
889.387	14579
889.511	14636
889.635	14507
889.759	14473
889.883	14408
890.006	14651
890.13	14579
890.254	14442
890.377	14396
890.501	14351
890.624	14233
890.748	14393
890.871	14256
890.995	14077
891.118	14138
891.241	14195
891.364	14199
891.488	14278
891.611	14058
891.734	14058
891.857	14347
891.98	14202
892.103	14210
892.226	14233
892.349	14187
892.471	14054
892.594	14134
892.717	14103
892.839	14237
892.962	14180
893.085	14244
893.207	14195
893.33	14027
893.452	13947
893.575	14233
893.697	14031
893.819	14298
893.941	14362
894.064	14313
894.186	14065
894.308	14130
894.43	14286
894.552	14290
894.674	14385
894.796	14081
894.918	14164
895.04	14145
895.161	14366
895.283	14221
895.405	14233
895.526	14187
895.648	14210
895.769	14362
895.891	14244
896.012	14355
896.134	14370
896.255	14309
896.376	14305
896.498	14339
896.619	14263
896.74	14180
896.861	14366
896.982	14651
897.103	14872
897.224	14602
897.345	14564
897.466	14480
897.587	14541
897.708	14617
897.828	14461
897.949	14549
898.07	14484
898.19	14590
898.311	14815
898.431	14621
898.552	14758
898.672	14659
898.792	14594
898.913	14735
899.033	14655
899.153	14526
899.273	14533
899.393	14457
899.513	14564
899.633	14530
899.753	14545
899.873	14469
899.993	14530
900.113	14590
900.232	14564
900.352	14431
900.472	14473
900.591	14290
900.711	14492
900.83	14366
900.95	14446
901.069	14450
901.189	14343
901.308	14145
901.427	13974
901.546	14096
901.665	14046
901.784	14073
901.904	14035
902.023	13795
902.141	13662
902.26	13636
902.379	13655
902.498	13620
902.617	13540
902.735	13655
902.854	13620
902.973	13578
903.091	13293
903.21	13350
903.328	13324
903.446	13346
903.565	13263
903.683	13259
903.801	13057
903.919	13225
904.038	13133
904.156	13012
904.274	13061
904.392	12985
904.51	13046
904.627	13019
904.745	13053
904.863	13103
904.981	12795
905.098	12715
905.216	12677
905.334	12650
905.451	12684
905.569	12620
905.686	12768
905.803	12684
905.921	12494
906.038	12642
906.155	12498
906.272	12353
906.389	12414
906.506	12334
906.623	12357
906.74	12277
906.857	12114
906.974	12213
907.091	12254
907.208	12342
907.324	12346
907.441	12232
907.557	12041
907.674	12095
907.79	11958
907.907	11984
908.023	12072
908.139	12152
908.256	11980
908.372	11973
908.488	11961
908.604	11836
908.72	11836
908.836	11927
908.952	11748
909.068	11840
909.184	11817
909.3	11756
909.415	11805
909.531	11847
909.647	11486
909.762	11573
909.878	11486
909.993	11596
910.108	11493
910.224	11551
910.339	11596
910.454	11505
910.57	11406
910.685	11318
910.8	11608
910.915	11501
911.03	11478
911.145	11273
911.259	11269
911.374	11261
911.489	11242
911.604	11155
911.718	10987
911.833	11041
911.947	10957
912.062	10843
912.176	10972
912.291	11048
912.405	10995
912.519	11204
912.633	11227
912.748	11166
912.862	11064
912.976	10927
913.09	10824
913.204	10812
913.318	10972
913.431	11079
913.545	10980
913.659	10953
913.772	10934
913.886	10801
914	10691
914.113	10881
914.226	10923
914.34	10858
914.453	10687
914.566	10881
914.68	10793
914.793	10675
914.906	10538
915.019	10478
915.132	10424
915.245	10516
915.358	10569
915.47	10550
915.583	10519
915.696	10664
915.809	10668
915.921	10710
916.034	10535
916.146	10470
916.259	10466
916.371	10489
916.483	10481
916.595	10417
916.708	10462
916.82	10489
916.932	10402
917.044	10424
917.156	10371
917.268	10333
917.38	10417
917.491	10360
917.603	10356
917.715	10500
917.826	10409
917.938	10409
918.049	10276
918.161	10371
918.272	10546
918.384	10527
918.495	10379
918.606	10249
918.717	10124
918.828	10253
918.939	10280
919.05	10223
919.161	10200
919.272	10071
919.383	10090
919.494	10242
919.604	10504
919.715	10249
919.826	10169
919.936	10196
920.047	10314
920.157	10280
920.267	10440
920.378	10276
920.488	10284
920.598	10451
920.708	10618
920.818	10436
920.928	10500
921.038	10675
921.148	10603
921.258	10322
921.368	10227
921.477	10150
921.587	10120
921.697	10044
921.806	10211
921.916	9994
922.025	9857
922.134	9846
922.244	9785
922.353	9903
922.462	9686
922.571	9625
922.68	9523
922.789	9428
922.898	9530
923.007	9412
923.116	9511
923.224	9507
923.333	9458
923.442	9428
923.55	9298
923.659	9443
923.767	9416
923.876	9370
923.984	9405
924.092	9332
924.201	9351
924.309	9412
924.417	9344
924.525	9313
924.633	9336
924.741	10238
924.849	9150
924.956	9241
925.064	9127
925.172	9085
925.279	9112
925.387	9142
925.494	9192
925.602	9241
925.709	9260
925.816	9055
925.924	9161
926.031	9233
926.138	9203
926.245	9173
926.352	9142
926.459	9218
926.566	9302
926.673	9173
926.779	9066
926.886	9017
926.993	8929
927.099	8819
927.206	8800
927.312	8861
927.419	8876
927.525	8979
927.631	8925
927.737	8807
927.843	8811
927.95	8682
928.056	8731
928.162	8766
928.267	8815
928.373	9397
928.479	8811
928.585	8613
928.69	8777
928.796	8735
928.901	8663
929.007	8511
929.112	8727
929.218	8651
929.323	8625
929.428	8648
929.533	8693
929.638	8556
929.743	8571
929.848	8594
929.953	8579
930.058	8480
930.163	8286
930.267	8412
930.372	8537
930.477	8332
930.581	8571
930.685	8427
930.79	8271
930.894	8355
930.998	8279
931.103	8415
931.207	8081
931.311	7997
931.415	8005
931.519	7776
931.623	7814
