Data from test_V78500241_619.txt Node
Date: Fri Mar 25 14:38:01 CST 2022
User: usil
Spectrometer: V785-0024
Trigger mode: 0
Integration Time (sec): 4.000000E-1
Scans to average: 1
Nonlinearity correction enabled: false
Boxcar width: 0
Storing dark spectrum: false
XAxis mode: Wavelengths
Number of Pixels in Spectrum: 1024
>>>>>Begin Spectral Data<<<<<
801.071	27880
801.214	27766
801.356	27648
801.499	27420
801.641	27237
801.783	27401
801.926	27321
802.068	27154
802.211	27119
802.353	27062
802.496	26895
802.638	26826
802.78	26823
802.923	26792
803.065	26796
803.208	26800
803.35	26883
803.492	26975
803.635	27104
803.777	26975
803.919	27009
804.061	27268
804.204	27119
804.346	26933
804.488	27001
804.63	27028
804.773	26944
804.915	27074
805.057	27218
805.199	27123
805.341	27355
805.483	27477
805.626	27431
805.768	27355
805.91	27629
806.052	27568
806.194	27538
806.336	28013
806.478	27888
806.62	28048
806.762	28223
806.904	28710
807.046	29212
807.188	29299
807.33	29775
807.472	30038
807.614	30410
807.756	31179
807.898	32020
808.04	33047
808.182	34634
808.324	36665
808.465	38659
808.607	41277
808.749	43419
808.891	44754
809.033	44773
809.174	43388
809.316	41219
809.458	38777
809.6	36273
809.741	34154
809.883	32678
810.025	31666
810.166	30681
810.308	30346
810.45	29821
810.591	29436
810.733	28923
810.875	28653
811.016	28211
811.158	28226
811.299	28154
811.441	28177
811.582	28010
811.724	27907
811.865	27709
812.007	27728
812.148	27625
812.29	27694
812.431	27717
812.573	27755
812.714	27762
812.855	27972
812.997	27816
813.138	28150
813.279	27911
813.421	27751
813.562	27724
813.703	27591
813.845	27367
813.986	26937
814.127	26815
814.268	26838
814.41	26746
814.551	26621
814.692	26686
814.833	26655
814.974	26537
815.115	26552
815.256	26476
815.397	26431
815.539	26347
815.68	26328
815.821	26119
815.962	26320
816.103	26183
816.244	25993
816.385	25928
816.526	25887
816.666	25651
816.807	25590
816.948	25567
817.089	25643
817.23	25445
817.371	25601
817.512	25658
817.653	25537
817.793	25327
817.934	25563
818.075	25426
818.216	25529
818.356	25415
818.497	25247
818.638	25103
818.778	25209
818.919	25118
819.06	25103
819.2	25335
819.341	25373
819.481	25331
819.622	25548
819.762	25719
819.903	25597
820.043	25483
820.184	25438
820.324	25358
820.465	25548
820.605	25400
820.746	25274
820.886	25247
821.026	25324
821.167	25228
821.307	25285
821.447	25133
821.588	25145
821.728	24852
821.868	24673
822.008	24661
822.149	24570
822.289	24650
822.429	24296
822.569	24289
822.709	24361
822.849	24060
822.99	24148
823.13	24018
823.27	23904
823.41	23771
823.55	23710
823.69	23859
823.83	23942
823.97	23847
824.11	23695
824.25	23611
824.389	23554
824.529	23798
824.669	23562
824.809	23615
824.949	23665
825.089	23741
825.228	23512
825.368	23356
825.508	23379
825.648	23288
825.787	23395
825.927	23337
826.067	23414
826.206	23341
826.346	23455
826.485	23448
826.625	23315
826.765	23387
826.904	23315
827.044	23064
827.183	23136
827.323	23010
827.462	23235
827.601	22961
827.741	23056
827.88	23071
828.02	22980
828.159	22885
828.298	23003
828.437	23022
828.577	22858
828.716	23075
828.855	22797
828.994	22713
829.134	22733
829.273	22866
829.412	22733
829.551	22588
829.69	22672
829.829	22740
829.968	22759
830.107	22755
830.246	22607
830.385	22596
830.524	22504
830.663	22455
830.802	22398
830.941	22405
831.08	22265
831.219	22329
831.357	22356
831.496	22641
831.635	22295
831.774	22128
831.913	22192
832.051	22082
832.19	22169
832.329	22169
832.467	21983
832.606	22048
832.744	22063
832.883	22116
833.022	22143
833.16	22276
833.299	22310
833.437	22303
833.576	22527
833.714	22675
833.852	22748
833.991	22839
834.129	22934
834.267	22961
834.406	22904
834.544	22828
834.682	22675
834.821	22672
834.959	22653
835.097	22443
835.235	22493
835.373	22150
835.511	22063
835.65	22112
835.788	21964
835.926	21804
836.064	21816
836.202	21660
836.34	21972
836.478	22002
836.615	21793
836.753	21751
836.891	21762
837.029	21850
837.167	21800
837.305	21698
837.443	21644
837.58	21557
837.718	21732
837.856	21660
837.993	21519
838.131	21580
838.269	21416
838.406	21568
838.544	21481
838.681	21256
838.819	21252
838.956	21135
839.094	20986
839.231	21241
839.369	21207
839.506	21287
839.643	21195
839.781	21089
839.918	21085
840.055	21085
840.193	20933
840.33	20921
840.467	21039
840.604	21013
840.742	21272
840.879	20845
841.016	20819
841.153	20853
841.29	20990
841.427	21017
841.564	21154
841.701	20982
841.838	20979
841.975	20925
842.112	20872
842.249	20769
842.385	20724
842.522	20929
842.659	20758
842.796	20712
842.933	20720
843.069	20750
843.206	20819
843.343	20872
843.479	20868
843.616	20910
843.752	20686
843.889	20769
844.025	20834
844.162	20724
844.298	21024
844.435	20956
844.571	21058
844.708	21310
844.844	21606
844.98	21880
845.117	22447
845.253	23022
845.389	24346
845.525	26990
845.661	31122
845.798	36091
845.934	40147
846.07	41653
846.206	40778
846.342	37316
846.478	32282
846.614	27778
846.75	24924
846.886	23235
847.022	22188
847.158	21477
847.294	21123
847.429	20762
847.565	20594
847.701	20682
847.837	20221
847.972	20008
848.108	19986
848.244	20027
848.379	19868
848.515	19765
848.65	19689
848.786	19784
848.921	19674
849.057	19772
849.192	19597
849.328	19693
849.463	19655
849.598	19582
849.734	19441
849.869	19464
850.004	19434
850.14	19396
850.275	19411
850.41	19240
850.545	19228
850.68	19304
850.815	19282
850.95	19274
851.085	19426
851.22	19400
851.355	19244
851.49	19255
851.625	19304
851.76	19263
851.895	19221
852.03	19194
852.165	19445
852.299	19316
852.434	19354
852.569	19320
852.703	19403
852.838	19480
852.973	19445
853.107	19472
853.242	19270
853.376	19259
853.511	19293
853.645	19244
853.78	19354
853.914	19487
854.048	19346
854.183	19308
854.317	19472
854.451	19540
854.585	19480
854.72	19335
854.854	19495
854.988	19339
855.122	19354
855.256	19217
855.39	19228
855.524	19312
855.658	19263
855.792	19251
855.926	19187
856.06	19278
856.194	19217
856.327	19209
856.461	19031
856.595	19137
856.729	19053
856.862	19179
856.996	19141
857.13	19206
857.263	19088
857.397	19133
857.53	19008
857.664	19175
857.797	19255
857.931	19206
858.064	19069
858.197	19198
858.331	19012
858.464	18932
858.597	18916
858.731	18928
858.864	19031
858.997	18947
859.13	18935
859.263	18970
859.396	19126
859.529	19027
859.662	19015
859.795	18901
859.928	18985
860.061	19168
860.194	19148
860.327	19023
860.46	18932
860.592	19084
860.725	19061
860.858	19080
860.99	18878
861.123	18920
861.256	18806
861.388	18989
861.521	19590
861.653	18802
861.786	18738
861.918	18798
862.05	18932
862.183	18916
862.315	18905
862.447	19053
862.58	18894
862.712	18658
862.844	18677
862.976	18802
863.108	18779
863.24	19053
863.372	18585
863.504	18658
863.636	18631
863.768	18722
863.9	18700
864.032	18665
864.164	18703
864.296	18730
864.428	18749
864.559	18661
864.691	18692
864.823	18601
864.954	18639
865.086	18665
865.217	18654
865.349	18532
865.48	18574
865.612	18661
865.743	18726
865.875	18688
866.006	18464
866.137	18494
866.269	18509
866.4	18532
866.531	18490
866.662	18346
866.793	18639
866.924	18471
867.055	18464
867.186	18456
867.317	18555
867.448	18475
867.579	18391
867.71	18479
867.841	18464
867.972	18566
868.103	18616
868.233	18544
868.364	18441
868.495	18555
868.625	18688
868.756	18848
868.886	18578
869.017	18726
869.147	18863
869.278	18814
869.408	18787
869.539	18817
869.669	18848
869.799	18825
869.929	18920
870.06	18825
870.19	19061
870.32	19088
870.45	19179
870.58	19244
870.71	19225
870.84	19358
870.97	19194
871.1	19217
871.23	19407
871.36	19392
871.489	19266
871.619	19339
871.749	19445
871.879	19571
872.008	19472
872.138	19441
872.267	19495
872.397	19388
872.526	19419
872.656	19392
872.785	19369
872.915	19552
873.044	19643
873.173	19696
873.303	19700
873.432	19670
873.561	19666
873.69	19632
873.819	19750
873.948	19830
874.077	19712
874.206	19693
874.335	19742
874.464	19890
874.593	20058
874.722	19959
874.851	20157
874.979	20069
875.108	20191
875.237	20164
875.365	20164
875.494	20202
875.623	20256
875.751	20282
875.88	20404
876.008	20450
876.136	20648
876.265	20864
876.393	21047
876.521	21039
876.65	21013
876.778	20902
876.906	21036
877.034	20982
877.162	21131
877.29	21055
877.418	21264
877.546	21291
877.674	21393
877.802	21348
877.93	21606
878.058	21549
878.185	21705
878.313	21945
878.441	22344
878.568	22375
878.696	22854
878.824	23592
878.951	24467
879.079	25529
879.206	27116
879.333	28546
879.461	29874
879.588	30696
879.715	30764
879.842	30205
879.97	28748
880.097	26967
880.224	25753
880.351	24924
880.478	24384
880.605	23756
880.732	23509
880.859	23604
880.986	23185
881.112	23261
881.239	22942
881.366	22835
881.493	22763
881.619	22672
881.746	22881
881.872	22717
881.999	22679
882.125	22858
882.252	22850
882.378	22820
882.505	22934
882.631	22892
882.757	22809
882.883	22744
883.01	22744
883.136	22588
883.262	22565
883.388	22512
883.514	22592
883.64	22630
883.766	22557
883.892	22352
884.018	22459
884.143	22508
884.269	22744
884.395	22497
884.52	22234
884.646	22497
884.772	22413
884.897	22196
885.023	22329
885.148	22451
885.274	22405
885.399	22303
885.524	22093
885.65	22048
885.775	22006
885.9	21854
886.025	21956
886.15	21819
886.275	21534
886.4	21405
886.525	21344
886.65	21161
886.775	21184
886.9	21294
887.025	21275
887.149	20880
887.274	20674
887.399	20602
887.523	20541
887.648	20438
887.773	20290
887.897	20476
888.021	20385
888.146	20324
888.27	20355
888.395	20263
888.519	20275
888.643	20183
888.767	20142
888.891	19989
889.015	19826
889.139	19921
889.263	19894
889.387	19902
889.511	19955
889.635	19795
889.759	19693
889.883	19651
890.006	19753
890.13	19727
890.254	19525
890.377	19476
890.501	19343
890.624	19365
890.748	19324
890.871	19198
890.995	19126
891.118	19034
891.241	19088
891.364	19027
891.488	19027
891.611	19069
891.734	18977
891.857	18958
891.98	18947
892.103	18962
892.226	18962
892.349	18924
892.471	18696
892.594	18806
892.717	18810
892.839	18764
892.962	18722
893.085	18764
893.207	18738
893.33	18448
893.452	18612
893.575	18719
893.697	18612
893.819	18741
893.941	18840
894.064	18692
894.186	18502
894.308	18403
894.43	18681
894.552	18745
894.674	18589
894.796	18388
894.918	18494
895.04	18418
895.161	18528
895.283	18486
895.405	18422
895.526	18426
895.648	18361
895.769	18384
895.891	18498
896.012	18544
896.134	18380
896.255	18490
896.376	18350
896.498	18330
896.619	18414
896.74	18319
896.861	18441
896.982	18738
897.103	18776
897.224	18673
897.345	18703
897.466	18585
897.587	18540
897.708	18719
897.828	18631
897.949	18456
898.07	18353
898.19	18525
898.311	18582
898.431	18506
898.552	18604
898.672	18490
898.792	18623
898.913	18547
899.033	18399
899.153	18376
899.273	18410
899.393	18372
899.513	18323
899.633	18357
899.753	18281
899.873	18258
899.993	18353
900.113	18254
900.232	18350
900.352	18304
900.472	18163
900.591	18003
900.711	18083
900.83	18136
900.95	18281
901.069	18197
901.189	17984
901.308	17748
901.427	17684
901.546	17634
901.665	17566
901.784	17684
901.904	17566
902.023	17448
902.141	17311
902.26	17258
902.379	17280
902.498	17227
902.617	17121
902.735	17193
902.854	17162
902.973	17064
903.091	16805
903.21	16885
903.328	16717
903.446	16618
903.565	16622
903.683	16554
903.801	16584
903.919	16508
904.038	16489
904.156	16325
904.274	16409
904.392	16284
904.51	16306
904.627	16402
904.745	16459
904.863	16329
904.981	16112
905.098	16002
905.216	16055
905.334	16021
905.451	15979
905.569	15960
905.686	16059
905.803	16010
905.921	15781
906.038	15884
906.155	15762
906.272	15671
906.389	15724
906.506	15488
906.623	15561
906.74	15591
906.857	15496
906.974	15386
907.091	15511
907.208	15572
907.324	15454
907.441	15359
907.557	15260
907.674	15176
907.79	15123
907.907	15154
908.023	15264
908.139	15199
908.256	15070
908.372	15104
908.488	15112
908.604	14975
908.72	14990
908.836	14979
908.952	14944
909.068	14887
909.184	14979
909.3	14826
909.415	14880
909.531	14902
909.647	14697
909.762	14667
909.878	14602
909.993	14659
910.108	14712
910.224	14667
910.339	14701
910.454	14518
910.57	14442
910.685	14385
910.8	14750
910.915	14579
911.03	14511
911.145	14225
911.259	14210
911.374	14244
911.489	14202
911.604	14199
911.718	14062
911.833	13993
911.947	13978
912.062	13780
912.176	13951
912.291	14031
912.405	14012
912.519	14130
912.633	14244
912.748	14069
912.862	13970
912.976	13890
913.09	13761
913.204	13674
913.318	13833
913.431	13856
913.545	13898
913.659	13940
913.772	13807
913.886	13677
914	13712
914.113	13776
914.226	13799
914.34	13887
914.453	13582
914.566	13609
914.68	13590
914.793	13632
914.906	13556
915.019	13411
915.132	13316
915.245	13400
915.358	13419
915.47	13335
915.583	13396
915.696	13468
915.809	13419
915.921	13445
916.034	13388
916.146	13365
916.259	13335
916.371	13407
916.483	13316
916.595	13327
916.708	13198
916.82	13263
916.932	13251
917.044	13308
917.156	13171
917.268	13110
917.38	13091
917.491	13072
917.603	13190
917.715	13156
917.826	13183
917.938	13103
918.049	12981
918.161	13046
918.272	13107
918.384	13133
918.495	13015
918.606	12909
918.717	12897
918.828	12863
918.939	12935
919.05	12844
919.161	12810
919.272	12635
919.383	12635
919.494	12882
919.604	12977
919.715	12817
919.826	12802
919.936	12749
920.047	12821
920.157	12875
920.267	12973
920.378	12734
920.488	12795
920.598	13027
920.708	13088
920.818	12973
920.928	12939
921.038	13065
921.148	13023
921.258	12798
921.368	12707
921.477	12585
921.587	12589
921.697	12365
921.806	12563
921.916	12464
922.025	12334
922.134	12167
922.244	12186
922.353	12220
922.462	12205
922.571	12041
922.68	11885
922.789	11847
922.898	11809
923.007	11798
923.116	11901
923.224	11874
923.333	11832
923.442	11824
923.55	11729
923.659	11741
923.767	11870
923.876	11642
923.984	11771
924.092	11604
924.201	11691
924.309	11707
924.417	11665
924.525	11630
924.633	11589
924.741	12296
924.849	11501
924.956	11573
925.064	11402
925.172	11334
925.279	11353
925.387	11406
925.494	11395
925.602	11512
925.709	11490
925.816	11296
925.924	11387
926.031	11417
926.138	11372
926.245	11448
926.352	11299
926.459	11417
926.566	11379
926.673	11292
926.779	11189
926.886	11178
926.993	11083
927.099	11060
927.206	10953
927.312	10961
927.419	11117
927.525	11010
927.631	11041
927.737	10961
927.843	10908
927.95	10786
928.056	10820
928.162	10987
928.267	10881
928.373	11417
928.479	10991
928.585	10729
928.69	10843
928.796	10934
928.901	10740
929.007	10653
929.112	10797
929.218	10668
929.323	10702
929.428	10656
929.533	10816
929.638	10592
929.743	10683
929.848	10637
929.953	10542
930.058	10474
930.163	10390
930.267	10432
930.372	10462
930.477	10348
930.581	10577
930.685	10409
930.79	10276
930.894	10268
930.998	10295
931.103	10413
931.207	10025
931.311	9960
931.415	9778
931.519	9663
931.623	9679
