Data from test_V78500241_1562.txt Node
Date: Fri Mar 25 14:44:35 CST 2022
User: usil
Spectrometer: V785-0024
Trigger mode: 0
Integration Time (sec): 4.000000E-1
Scans to average: 1
Nonlinearity correction enabled: false
Boxcar width: 0
Storing dark spectrum: false
XAxis mode: Wavelengths
Number of Pixels in Spectrum: 1024
>>>>>Begin Spectral Data<<<<<
801.071	22405
801.214	22375
801.356	22055
801.499	21888
801.641	21846
801.783	21504
801.926	21793
802.068	21603
802.211	21648
802.353	21473
802.496	21249
802.638	21272
802.78	21165
802.923	21119
803.065	20994
803.208	20921
803.35	21096
803.492	21184
803.635	21222
803.777	21062
803.919	21199
804.061	21325
804.204	21116
804.346	21036
804.488	21043
804.63	21150
804.773	20921
804.915	21093
805.057	20979
805.199	21089
805.341	21123
805.483	21096
805.626	21142
805.768	20921
805.91	21036
806.052	21028
806.194	20921
806.336	21180
806.478	21013
806.62	20967
806.762	21211
806.904	21169
807.046	21469
807.188	21382
807.33	21389
807.472	21420
807.614	21302
807.756	21291
807.898	21138
808.04	21116
808.182	21256
808.324	21180
808.465	21348
808.607	21481
808.749	21572
808.891	21553
809.033	21781
809.174	21656
809.316	21561
809.458	21591
809.6	21363
809.741	21481
809.883	21519
810.025	21644
810.166	21599
810.308	21568
810.45	21553
810.591	21469
810.733	21374
810.875	21313
811.016	21123
811.158	21165
811.299	21203
811.441	21355
811.582	21370
811.724	21207
811.865	21211
812.007	21165
812.148	21161
812.29	21302
812.431	21412
812.573	21576
812.714	21568
812.855	21797
812.997	21831
813.138	21979
813.279	21766
813.421	21747
813.562	21599
813.703	21523
813.845	21386
813.986	21089
814.127	20937
814.268	20842
814.41	20762
814.551	20834
814.692	20769
814.833	20689
814.974	20659
815.115	20765
815.256	20613
815.397	20552
815.539	20503
815.68	20499
815.821	20457
815.962	20415
816.103	20419
816.244	20328
816.385	20305
816.526	20218
816.666	20092
816.807	19917
816.948	20084
817.089	20012
817.23	20005
817.371	19860
817.512	19750
817.653	19803
817.793	19978
817.934	19921
818.075	19932
818.216	19864
818.356	19887
818.497	19708
818.638	19605
818.778	19658
818.919	19552
819.06	19544
819.2	19708
819.341	19696
819.481	19700
819.622	19947
819.762	20050
819.903	19997
820.043	19940
820.184	19780
820.324	19841
820.465	19890
820.605	19925
820.746	19742
820.886	19700
821.026	19852
821.167	19849
821.307	19894
821.447	19776
821.588	19708
821.728	19540
821.868	19407
822.008	19282
822.149	19339
822.289	19259
822.429	18935
822.569	18844
822.709	18783
822.849	18821
822.99	18810
823.13	18719
823.27	18688
823.41	18582
823.55	18479
823.69	18597
823.83	18566
823.97	18566
824.11	18319
824.25	18273
824.389	18311
824.529	18407
824.669	18315
824.809	18540
824.949	18403
825.089	18342
825.228	18422
825.368	18136
825.508	18163
825.648	18121
825.787	18110
825.927	18121
826.067	18167
826.206	18011
826.346	18174
826.485	18057
826.625	18110
826.765	18266
826.904	18205
827.044	17866
827.183	17859
827.323	17874
827.462	17958
827.601	17817
827.741	17840
827.88	17889
828.02	17809
828.159	17642
828.298	17813
828.437	17805
828.577	17779
828.716	17737
828.855	17729
828.994	17512
829.134	17589
829.273	17551
829.412	17467
829.551	17512
829.69	17520
829.829	17532
829.968	17733
830.107	17524
830.246	17509
830.385	17566
830.524	17452
830.663	17337
830.802	17326
830.941	17113
831.08	17220
831.219	17220
831.357	17189
831.496	17258
831.635	17197
831.774	17003
831.913	17094
832.051	16949
832.19	16911
832.329	16984
832.467	17018
832.606	16911
832.744	16862
832.883	16847
833.022	16801
833.16	16885
833.299	16980
833.437	16938
833.576	16877
833.714	16869
833.852	16904
833.991	16900
834.129	16904
834.267	16896
834.406	16942
834.544	16972
834.682	16801
834.821	16835
834.959	16938
835.097	16919
835.235	16900
835.373	16927
835.511	16866
835.65	16767
835.788	16786
835.926	16615
836.064	16542
836.202	16599
836.34	16771
836.478	16854
836.615	16793
836.753	16801
836.891	16752
837.029	16881
837.167	16793
837.305	16698
837.443	16656
837.58	16508
837.718	16645
837.856	16630
837.993	16596
838.131	16706
838.269	16569
838.406	16622
838.544	16561
838.681	16344
838.819	16310
838.956	16200
839.094	16071
839.231	16215
839.369	16314
839.506	16531
839.643	16409
839.781	16196
839.918	16120
840.055	16207
840.193	16082
840.33	16147
840.467	16109
840.604	16188
840.742	16291
840.879	16055
841.016	16147
841.153	16055
841.29	16162
841.427	16261
841.564	16333
841.701	16181
841.838	16090
841.975	16013
842.112	16097
842.249	16036
842.385	15850
842.522	16029
842.659	16021
842.796	15884
842.933	15956
843.069	15975
843.206	15934
843.343	15964
843.479	15972
843.616	15983
843.752	15743
843.889	15823
844.025	15865
844.162	15709
844.298	15861
844.435	15705
844.571	15736
844.708	15789
844.844	15857
844.98	15915
845.117	15854
845.253	15732
845.389	15572
845.525	15762
845.661	15739
845.798	15652
845.934	15717
846.07	15690
846.206	15759
846.342	15926
846.478	15656
846.614	15389
846.75	15344
846.886	15287
847.022	15450
847.158	15393
847.294	15245
847.429	15355
847.565	15298
847.701	15496
847.837	15043
847.972	15097
848.108	15116
848.244	15123
848.379	14883
848.515	14952
848.65	14883
848.786	14963
848.921	14948
849.057	14963
849.192	14906
849.328	14887
849.463	14891
849.598	14800
849.734	14804
849.869	14712
850.004	14701
850.14	14743
850.275	14750
850.41	14659
850.545	14625
850.68	14651
850.815	14663
850.95	14693
851.085	14811
851.22	14720
851.355	14659
851.49	14682
851.625	14682
851.76	14644
851.895	14602
852.03	14514
852.165	14655
852.299	14644
852.434	14720
852.569	14693
852.703	14693
852.838	14743
852.973	14781
853.107	14788
853.242	14670
853.376	14610
853.511	14415
853.645	14571
853.78	14708
853.914	14613
854.048	14484
854.183	14511
854.317	14507
854.451	14651
854.585	14514
854.72	14492
854.854	14617
854.988	14564
855.122	14484
855.256	14400
855.39	14507
855.524	14533
855.658	14594
855.792	14629
855.926	14552
856.06	14663
856.194	14530
856.327	14537
856.461	14442
856.595	14511
856.729	14507
856.862	14571
856.996	14423
857.13	14629
857.263	14674
857.397	14655
857.53	14499
857.664	14552
857.797	14530
857.931	14636
858.064	14556
858.197	14579
858.331	14590
858.464	14564
858.597	14488
858.731	14488
858.864	14469
858.997	14446
859.13	14556
859.263	14541
859.396	14590
859.529	14530
859.662	14518
859.795	14434
859.928	14590
860.061	14686
860.194	14773
860.327	14518
860.46	14469
860.592	14602
860.725	14758
860.858	14636
860.99	14575
861.123	14488
861.256	14389
861.388	14579
861.521	15188
861.653	14412
861.786	14294
861.918	14320
862.05	14442
862.183	14423
862.315	14579
862.447	14644
862.58	14541
862.712	14385
862.844	14233
862.976	14347
863.108	14275
863.24	14845
863.372	14248
863.504	14240
863.636	14271
863.768	14366
863.9	14275
864.032	14199
864.164	14202
864.296	14290
864.428	14362
864.559	14332
864.691	14374
864.823	14385
864.954	14400
865.086	14313
865.217	14317
865.349	14161
865.48	14309
865.612	14362
865.743	14419
865.875	14286
866.006	14252
866.137	14351
866.269	14263
866.4	14214
866.531	14130
866.662	14252
866.793	14206
866.924	14153
867.055	14282
867.186	14267
867.317	14206
867.448	14172
867.579	14206
867.71	14210
867.841	14187
867.972	14263
868.103	14199
868.233	14294
868.364	14244
868.495	14374
868.625	14526
868.756	14587
868.886	14465
869.017	14461
869.147	14686
869.278	14564
869.408	14537
869.539	14514
869.669	14571
869.799	14568
869.929	14724
870.06	14636
870.19	14765
870.32	14781
870.45	14872
870.58	14902
870.71	14990
870.84	15032
870.97	14914
871.1	14880
871.23	15100
871.36	15119
871.489	15009
871.619	15032
871.749	15005
871.879	15199
872.008	15169
872.138	15024
872.267	15081
872.397	15043
872.526	14887
872.656	14887
872.785	15047
872.915	15169
873.044	15237
873.173	15138
873.303	15226
873.432	15260
873.561	15233
873.69	15214
873.819	15226
873.948	15195
874.077	15279
874.206	15123
874.335	15112
874.464	15370
874.593	15492
874.722	15363
874.851	15405
874.979	15591
875.108	15485
875.237	15378
875.365	15340
875.494	15351
875.623	15515
875.751	15431
875.88	15576
876.008	15686
876.136	15720
876.265	15884
876.393	16044
876.521	15884
876.65	15911
876.778	15953
876.906	15861
877.034	15838
877.162	15816
877.29	15808
877.418	15827
877.546	15911
877.674	15819
877.802	15781
877.93	15838
878.058	15918
878.185	15747
878.313	15869
878.441	15865
878.568	15789
878.696	15804
878.824	15915
878.951	15972
879.079	16124
879.206	16234
879.333	16143
879.461	16021
879.588	16078
879.715	16219
879.842	16196
879.97	16048
880.097	15789
880.224	15667
880.351	15797
880.478	15759
880.605	15751
880.732	15903
880.859	15987
880.986	15770
881.112	15827
881.239	15580
881.366	15591
881.493	15450
881.619	15469
881.746	15405
881.872	15412
881.999	15393
882.125	15515
882.252	15397
882.378	15283
882.505	15458
882.631	15306
882.757	15260
882.883	15241
883.01	15199
883.136	15211
883.262	15020
883.388	15066
883.514	15313
883.64	15264
883.766	15195
883.892	15058
884.018	15043
884.143	15157
884.269	15329
884.395	15097
884.52	14880
884.646	14956
884.772	14826
884.897	14872
885.023	14937
885.148	15070
885.274	15146
885.399	14918
885.524	14937
885.65	14975
885.775	15013
885.9	14948
886.025	15119
886.15	14986
886.275	14891
886.4	14872
886.525	14842
886.65	14960
886.775	14849
886.9	15051
887.025	15093
887.149	14876
887.274	14853
887.399	14701
887.523	14796
887.648	14762
887.773	14610
887.897	14781
888.021	14750
888.146	14613
888.27	14781
888.395	14861
888.519	14731
888.643	14960
888.767	14876
888.891	14674
889.015	14655
889.139	14579
889.263	14594
889.387	14667
889.511	14887
889.635	14731
889.759	14613
889.883	14606
890.006	14632
890.13	14765
890.254	14568
890.377	14568
890.501	14408
890.624	14336
890.748	14393
890.871	14377
890.995	14271
891.118	14180
891.241	14298
891.364	14202
891.488	14347
891.611	14157
891.734	14301
891.857	14301
891.98	14328
892.103	14450
892.226	14282
892.349	14301
892.471	14240
892.594	14393
892.717	14309
892.839	14199
892.962	14218
893.085	14355
893.207	14446
893.33	14218
893.452	14229
893.575	14324
893.697	14309
893.819	14408
893.941	14488
894.064	14530
894.186	14229
894.308	14275
894.43	14385
894.552	14404
894.674	14465
894.796	14347
894.918	14415
895.04	14381
895.161	14446
895.283	14400
895.405	14355
895.526	14419
895.648	14427
895.769	14415
895.891	14465
896.012	14442
896.134	14530
896.255	14480
896.376	14328
896.498	14423
896.619	14636
896.74	14541
896.861	14590
896.982	14758
897.103	14979
897.224	14765
897.345	14796
897.466	14613
897.587	14705
897.708	14864
897.828	14762
897.949	14739
898.07	14617
898.19	14678
898.311	14868
898.431	14826
898.552	14785
898.672	14921
898.792	14887
898.913	14864
899.033	14746
899.153	14655
899.273	14590
899.393	14708
899.513	14708
899.633	14648
899.753	14667
899.873	14640
899.993	14781
900.113	14625
900.232	14659
900.352	14712
900.472	14674
900.591	14469
900.711	14602
900.83	14556
900.95	14724
901.069	14697
901.189	14549
901.308	14313
901.427	14233
901.546	14374
901.665	14343
901.784	14320
901.904	14088
902.023	14103
902.141	13788
902.26	13780
902.379	13772
902.498	13822
902.617	13898
902.735	13826
902.854	13814
902.973	13845
903.091	13620
903.21	13514
903.328	13556
903.446	13434
903.565	13343
903.683	13396
903.801	13232
903.919	13266
904.038	13324
904.156	13190
904.274	13247
904.392	13133
904.51	13259
904.627	13266
904.745	13122
904.863	13160
904.981	13061
905.098	12890
905.216	12901
905.334	12951
905.451	12943
905.569	12856
905.686	12951
905.803	12939
905.921	12662
906.038	12837
906.155	12757
906.272	12570
906.389	12601
906.506	12483
906.623	12422
906.74	12528
906.857	12418
906.974	12342
907.091	12608
907.208	12631
907.324	12445
907.441	12346
907.557	12197
907.674	12171
907.79	12175
907.907	12133
908.023	12190
908.139	12190
908.256	12133
908.372	12155
908.488	12125
908.604	12030
908.72	11923
908.836	11992
908.952	11863
909.068	11950
909.184	12106
909.3	11958
909.415	11984
909.531	11977
909.647	11764
909.762	11718
909.878	11680
909.993	11817
910.108	11718
910.224	11710
910.339	11741
910.454	11596
910.57	11611
910.685	11444
910.8	11904
910.915	11767
911.03	11600
911.145	11448
911.259	11353
911.374	11398
911.489	11383
911.604	11288
911.718	11162
911.833	11166
911.947	11102
912.062	10976
912.176	11140
912.291	11109
912.405	11212
912.519	11292
912.633	11322
912.748	11235
912.862	11185
912.976	11003
913.09	10862
913.204	10991
913.318	11045
913.431	11117
913.545	11147
913.659	11223
913.772	11048
913.886	10866
914	10923
914.113	11075
914.226	11045
914.34	11056
914.453	10782
914.566	10980
914.68	10915
914.793	10877
914.906	10691
915.019	10634
915.132	10691
915.245	10714
915.358	10653
915.47	10679
915.583	10774
915.696	10664
915.809	10831
915.921	10843
916.034	10649
916.146	10531
916.259	10504
916.371	10702
916.483	10679
916.595	10489
916.708	10519
916.82	10588
916.932	10679
917.044	10656
917.156	10554
917.268	10428
917.38	10512
917.491	10462
917.603	10573
917.715	10588
917.826	10580
917.938	10459
918.049	10352
918.161	10497
918.272	10569
918.384	10653
918.495	10466
918.606	10447
918.717	10303
918.828	10344
918.939	10424
919.05	10238
919.161	10394
919.272	10204
919.383	10306
919.494	10417
919.604	10580
919.715	10405
919.826	10242
919.936	10337
920.047	10478
920.157	10409
920.267	10580
920.378	10474
920.488	10314
920.598	10630
920.708	10660
920.818	10630
920.928	10569
921.038	10660
921.148	10656
921.258	10371
921.368	10295
921.477	10192
921.587	10242
921.697	10116
921.806	10322
921.916	10173
922.025	9975
922.134	9956
922.244	9800
922.353	9972
922.462	9812
922.571	9774
922.68	9724
922.789	9705
922.898	9641
923.007	9511
923.116	9705
923.224	9564
923.333	9576
923.442	9572
923.55	9511
923.659	9545
923.767	9614
923.876	9538
923.984	9549
924.092	9450
924.201	9526
924.309	9561
924.417	9450
924.525	9405
924.633	9477
924.741	10363
924.849	9298
924.956	9397
925.064	9329
925.172	9131
925.279	9283
925.387	9306
925.494	9291
925.602	9408
925.709	9367
925.816	9237
925.924	9370
926.031	9279
926.138	9329
926.245	9389
926.352	9203
926.459	9325
926.566	9344
926.673	9127
926.779	9138
926.886	9108
926.993	9005
927.099	9104
927.206	8963
927.312	8956
927.419	8990
927.525	9036
927.631	9024
927.737	8883
927.843	8899
927.95	8739
928.056	8834
928.162	8853
928.267	8918
928.373	9435
928.479	8990
928.585	8785
928.69	8887
928.796	8925
928.901	8807
929.007	8610
929.112	8804
929.218	8834
929.323	8731
929.428	8670
929.533	8857
929.638	8617
929.743	8712
929.848	8750
929.953	8659
930.058	8568
930.163	8469
930.267	8511
930.372	8625
930.477	8396
930.581	8724
930.685	8617
930.79	8362
930.894	8419
930.998	8381
931.103	8552
931.207	8218
931.311	8100
931.415	8035
931.519	7799
931.623	7894
