Data from test_V78500241_3622.txt Node
Date: Fri Mar 25 14:58:56 CST 2022
User: usil
Spectrometer: V785-0024
Trigger mode: 0
Integration Time (sec): 4.000000E-1
Scans to average: 1
Nonlinearity correction enabled: false
Boxcar width: 0
Storing dark spectrum: false
XAxis mode: Wavelengths
Number of Pixels in Spectrum: 1024
>>>>>Begin Spectral Data<<<<<
801.071	21907
801.214	21911
801.356	21492
801.499	21469
801.641	21214
801.783	21252
801.926	21272
802.068	21310
802.211	21154
802.353	21169
802.496	20918
802.638	20826
802.78	20735
802.923	20743
803.065	20606
803.208	20587
803.35	20495
803.492	20712
803.635	20659
803.777	20594
803.919	20682
804.061	20910
804.204	20636
804.346	20606
804.488	20503
804.63	20651
804.773	20434
804.915	20518
805.057	20488
805.199	20575
805.341	20499
805.483	20495
805.626	20564
805.768	20590
805.91	20545
806.052	20598
806.194	20419
806.336	20651
806.478	20476
806.62	20571
806.762	20476
806.904	20689
807.046	20910
807.188	20754
807.33	20876
807.472	20849
807.614	20731
807.756	20689
807.898	20613
808.04	20499
808.182	20537
808.324	20492
808.465	20560
808.607	20762
808.749	20853
808.891	21017
809.033	21176
809.174	20910
809.316	20743
809.458	20777
809.6	20750
809.741	20864
809.883	20998
810.025	21001
810.166	20937
810.308	20956
810.45	20944
810.591	20838
810.733	20705
810.875	20678
811.016	20575
811.158	20533
811.299	20609
811.441	20769
811.582	20716
811.724	20659
811.865	20514
812.007	20674
812.148	20609
812.29	20640
812.431	20758
812.573	20899
812.714	21089
812.855	21138
812.997	21192
813.138	21252
813.279	21256
813.421	21176
813.562	21150
813.703	20872
813.845	20762
813.986	20492
814.127	20275
814.268	20240
814.41	20233
814.551	20191
814.692	20115
814.833	20062
814.974	20088
815.115	20073
815.256	20058
815.397	19963
815.539	20130
815.68	20035
815.821	19727
815.962	19955
816.103	19811
816.244	19761
816.385	19738
816.526	19571
816.666	19415
816.807	19259
816.948	19358
817.089	19396
817.23	19343
817.371	19255
817.512	19335
817.653	19316
817.793	19198
817.934	19247
818.075	19255
818.216	19209
818.356	19232
818.497	19213
818.638	18985
818.778	18970
818.919	19034
819.06	18993
819.2	19091
819.341	19118
819.481	19164
819.622	19339
819.762	19582
819.903	19438
820.043	19346
820.184	19304
820.324	19362
820.465	19289
820.605	19255
820.746	19270
820.886	19076
821.026	19240
821.167	19198
821.307	19255
821.447	19232
821.588	18985
821.728	18985
821.868	18738
822.008	18715
822.149	18753
822.289	18654
822.429	18422
822.569	18323
822.709	18346
822.849	18125
822.99	18133
823.13	18106
823.27	18053
823.41	18049
823.55	17980
823.69	17958
823.83	17984
823.97	18003
824.11	17889
824.25	17733
824.389	17737
824.529	17859
824.669	17714
824.809	17866
824.949	17840
825.089	17733
825.228	17653
825.368	17512
825.508	17516
825.648	17524
825.787	17532
825.927	17589
826.067	17547
826.206	17493
826.346	17653
826.485	17592
826.625	17543
826.765	17672
826.904	17646
827.044	17299
827.183	17265
827.323	17197
827.462	17356
827.601	17174
827.741	17231
827.88	17250
828.02	17083
828.159	17121
828.298	17254
828.437	17334
828.577	17067
828.716	17246
828.855	17056
828.994	17045
829.134	16961
829.273	17029
829.412	16911
829.551	16877
829.69	16946
829.829	16984
829.968	17067
830.107	16991
830.246	16995
830.385	16889
830.524	16866
830.663	16740
830.802	16717
830.941	16573
831.08	16599
831.219	16683
831.357	16683
831.496	16824
831.635	16565
831.774	16504
831.913	16527
832.051	16253
832.19	16360
832.329	16462
832.467	16352
832.606	16177
832.744	16238
832.883	16291
833.022	16306
833.16	16223
833.299	16409
833.437	16242
833.576	16352
833.714	16348
833.852	16443
833.991	16352
834.129	16402
834.267	16348
834.406	16234
834.544	16466
834.682	16382
834.821	16409
834.959	16512
835.097	16390
835.235	16462
835.373	16459
835.511	16379
835.65	16204
835.788	16257
835.926	16196
836.064	16059
836.202	16109
836.34	16287
836.478	16303
836.615	16249
836.753	16306
836.891	16268
837.029	16265
837.167	16341
837.305	16135
837.443	16192
837.58	16093
837.718	16287
837.856	16181
837.993	16158
838.131	16154
838.269	16086
838.406	16128
838.544	16078
838.681	15755
838.819	15922
838.956	15743
839.094	15701
839.231	15781
839.369	15873
839.506	16101
839.643	15949
839.781	15732
839.918	15720
840.055	15667
840.193	15671
840.33	15804
840.467	15709
840.604	15690
840.742	15827
840.879	15584
841.016	15504
841.153	15526
841.29	15785
841.427	15812
841.564	15720
841.701	15812
841.838	15553
841.975	15603
842.112	15633
842.249	15523
842.385	15450
842.522	15732
842.659	15492
842.796	15504
842.933	15454
843.069	15447
843.206	15473
843.343	15450
843.479	15580
843.616	15538
843.752	15264
843.889	15146
844.025	15485
844.162	15332
844.298	15313
844.435	15386
844.571	15237
844.708	15287
844.844	15496
844.98	15428
845.117	15370
845.253	15207
845.389	15268
845.525	15135
845.661	15157
845.798	15093
845.934	15119
846.07	14944
846.206	15097
846.342	15283
846.478	15024
846.614	14876
846.75	14834
846.886	14815
847.022	14975
847.158	14830
847.294	14834
847.429	14963
847.565	14815
847.701	15097
847.837	14663
847.972	14659
848.108	14636
848.244	14560
848.379	14560
848.515	14495
848.65	14400
848.786	14366
848.921	14404
849.057	14530
849.192	14495
849.328	14442
849.463	14457
849.598	14469
849.734	14431
849.869	14301
850.004	14305
850.14	14267
850.275	14176
850.41	14153
850.545	14225
850.68	14267
850.815	14168
850.95	14195
851.085	14377
851.22	14309
851.355	14191
851.49	14252
851.625	14161
851.76	14221
851.895	14039
852.03	14088
852.165	14187
852.299	14271
852.434	14309
852.569	14233
852.703	14248
852.838	14271
852.973	14389
853.107	14366
853.242	14199
853.376	14100
853.511	13913
853.645	14062
853.78	14244
853.914	14164
854.048	14142
854.183	14001
854.317	14115
854.451	14244
854.585	14161
854.72	14062
854.854	14183
854.988	14005
855.122	14092
855.256	13947
855.39	14008
855.524	14161
855.658	14130
855.792	14058
855.926	14043
856.06	14142
856.194	14176
856.327	14161
856.461	14020
856.595	14145
856.729	14096
856.862	14161
856.996	14142
857.13	14096
857.263	14199
857.397	14221
857.53	14111
857.664	14111
857.797	14062
857.931	14370
858.064	14111
858.197	14248
858.331	14031
858.464	14130
858.597	13974
858.731	14088
858.864	14103
858.997	14050
859.13	14077
859.263	14191
859.396	14172
859.529	14012
859.662	14119
859.795	14008
859.928	14069
860.061	14294
860.194	14240
860.327	14157
860.46	14142
860.592	14202
860.725	14271
860.858	14123
860.99	14088
861.123	14115
861.256	13997
861.388	14180
861.521	14857
861.653	14001
861.786	13982
861.918	13932
862.05	13955
862.183	14005
862.315	14062
862.447	14031
862.58	14016
862.712	13879
862.844	13791
862.976	13974
863.108	13986
863.24	14180
863.372	13769
863.504	13902
863.636	13928
863.768	13989
863.9	13837
864.032	13837
864.164	13852
864.296	13947
864.428	14008
864.559	13970
864.691	14031
864.823	13997
864.954	13902
865.086	13887
865.217	13925
865.349	13788
865.48	13890
865.612	13898
865.743	13989
865.875	13906
866.006	13814
866.137	13894
866.269	13947
866.4	13826
866.531	13799
866.662	13898
866.793	13826
866.924	13788
867.055	13887
867.186	13830
867.317	13780
867.448	13883
867.579	13784
867.71	13738
867.841	13704
867.972	13791
868.103	13917
868.233	13746
868.364	13932
868.495	13955
868.625	14027
868.756	14248
868.886	13970
869.017	14134
869.147	14225
869.278	14145
869.408	14183
869.539	14164
869.669	14134
869.799	14130
869.929	14214
870.06	14210
870.19	14522
870.32	14317
870.45	14457
870.58	14473
870.71	14632
870.84	14667
870.97	14514
871.1	14488
871.23	14731
871.36	14716
871.489	14590
871.619	14743
871.749	14708
871.879	14750
872.008	14773
872.138	14735
872.267	14724
872.397	14625
872.526	14495
872.656	14575
872.785	14552
872.915	14804
873.044	14815
873.173	14804
873.303	14727
873.432	14762
873.561	14868
873.69	14731
873.819	14785
873.948	14845
874.077	14853
874.206	14697
874.335	14735
874.464	14975
874.593	15104
874.722	14948
874.851	15249
874.979	15195
875.108	15249
875.237	14975
875.365	15047
875.494	14982
875.623	15169
875.751	15184
875.88	15020
876.008	15325
876.136	15310
876.265	15523
876.393	15686
876.521	15553
876.65	15591
876.778	15523
876.906	15492
877.034	15393
877.162	15526
877.29	15378
877.418	15511
877.546	15462
877.674	15523
877.802	15477
877.93	15519
878.058	15488
878.185	15401
878.313	15488
878.441	15545
878.568	15359
878.696	15363
878.824	15485
878.951	15530
879.079	15679
879.206	15816
879.333	15656
879.461	15534
879.588	15648
879.715	15713
879.842	15743
879.97	15587
880.097	15363
880.224	15462
880.351	15332
880.478	15321
880.605	15207
880.732	15393
880.859	15580
880.986	15447
881.112	15408
881.239	15211
881.366	15070
881.493	15024
881.619	15020
881.746	15020
881.872	15047
881.999	15013
882.125	15013
882.252	15123
882.378	15146
882.505	15157
882.631	15001
882.757	14876
882.883	14933
883.01	14769
883.136	14800
883.262	14606
883.388	14644
883.514	14815
883.64	14941
883.766	14796
883.892	14590
884.018	14743
884.143	14720
884.269	14960
884.395	14644
884.52	14545
884.646	14492
884.772	14480
884.897	14590
885.023	14526
885.148	14651
885.274	14659
885.399	14705
885.524	14522
885.65	14503
885.775	14594
885.9	14625
886.025	14667
886.15	14556
886.275	14617
886.4	14415
886.525	14533
886.65	14404
886.775	14617
886.9	14758
887.025	14800
887.149	14598
887.274	14431
887.399	14351
887.523	14286
887.648	14263
887.773	14282
887.897	14499
888.021	14400
888.146	14271
888.27	14461
888.395	14511
888.519	14313
888.643	14438
888.767	14412
888.891	14248
889.015	14259
889.139	14221
889.263	14176
889.387	14339
889.511	14347
889.635	14419
889.759	14195
889.883	14275
890.006	14134
890.13	14282
890.254	14225
890.377	14111
890.501	14062
890.624	14058
890.748	14077
890.871	14050
890.995	13932
891.118	13860
891.241	13982
891.364	13963
891.488	14050
891.611	13951
891.734	14008
891.857	14084
891.98	14005
892.103	14077
892.226	13986
892.349	13871
892.471	13784
892.594	14058
892.717	13898
892.839	13898
892.962	13936
893.085	13986
893.207	13959
893.33	13826
893.452	13837
893.575	13963
893.697	13894
893.819	14115
893.941	14126
894.064	14073
894.186	13898
894.308	13868
894.43	14092
894.552	14145
894.674	13986
894.796	13959
894.918	14005
895.04	13963
895.161	14107
895.283	14084
895.405	13978
895.526	14084
895.648	14134
895.769	14180
895.891	14195
896.012	14164
896.134	14077
896.255	14096
896.376	14088
896.498	14100
896.619	14123
896.74	14218
896.861	14191
896.982	14511
897.103	14556
897.224	14438
897.345	14400
897.466	14370
897.587	14404
897.708	14507
897.828	14434
897.949	14324
898.07	14275
898.19	14343
898.311	14579
898.431	14404
898.552	14545
898.672	14507
898.792	14556
898.913	14484
899.033	14309
899.153	14305
899.273	14309
899.393	14275
899.513	14267
899.633	14393
899.753	14332
899.873	14309
899.993	14336
900.113	14343
900.232	14438
900.352	14324
900.472	14244
900.591	14202
900.711	14206
900.83	14115
900.95	14233
901.069	14336
901.189	14103
901.308	14008
901.427	13795
901.546	13788
901.665	13826
901.784	13936
901.904	13746
902.023	13651
902.141	13430
902.26	13441
902.379	13457
902.498	13453
902.617	13441
902.735	13464
902.854	13483
902.973	13407
903.091	13175
903.21	13194
903.328	13149
903.446	13072
903.565	13050
903.683	13091
903.801	12932
903.919	13050
904.038	13015
904.156	12779
904.274	12840
904.392	12867
904.51	12863
904.627	12791
904.745	12798
904.863	12802
904.981	12703
905.098	12498
905.216	12601
905.334	12509
905.451	12570
905.569	12471
905.686	12517
905.803	12555
905.921	12372
906.038	12403
906.155	12414
906.272	12311
906.389	12270
906.506	12095
906.623	12266
906.74	12182
906.857	11965
906.974	11999
907.091	12144
907.208	12254
907.324	12102
907.441	11942
907.557	11893
907.674	11836
907.79	11824
907.907	11927
908.023	11866
908.139	11969
908.256	11843
908.372	11767
908.488	11821
908.604	11627
908.72	11619
908.836	11611
908.952	11589
909.068	11627
909.184	11756
909.3	11657
909.415	11596
909.531	11653
909.647	11395
909.762	11402
909.878	11330
909.993	11395
910.108	11459
910.224	11315
910.339	11474
910.454	11318
910.57	11265
910.685	11242
910.8	11459
910.915	11440
911.03	11337
911.145	11052
911.259	11064
911.374	11083
911.489	11041
911.604	10999
911.718	10904
911.833	10896
911.947	10805
912.062	10736
912.176	10854
912.291	10904
912.405	10919
912.519	11067
912.633	11083
912.748	10923
912.862	10881
912.976	10767
913.09	10599
913.204	10706
913.318	10710
913.431	10824
913.545	10835
913.659	10850
913.772	10683
913.886	10626
914	10698
914.113	10759
914.226	10835
914.34	10752
914.453	10558
914.566	10691
914.68	10622
914.793	10489
914.906	10371
915.019	10352
915.132	10295
915.245	10367
915.358	10382
915.47	10360
915.583	10432
915.696	10402
915.809	10508
915.921	10474
916.034	10253
916.146	10329
916.259	10268
916.371	10447
916.483	10398
916.595	10303
916.708	10306
916.82	10306
916.932	10329
917.044	10265
917.156	10268
917.268	10211
917.38	10242
917.491	10204
917.603	10139
917.715	10284
917.826	10280
917.938	10185
918.049	10143
918.161	10276
918.272	10409
918.384	10394
918.495	10211
918.606	10101
918.717	10029
918.828	10029
918.939	10124
919.05	10059
919.161	10063
919.272	9895
919.383	9937
919.494	10135
919.604	10272
919.715	10093
919.826	10048
919.936	10059
920.047	10143
920.157	10109
920.267	10303
920.378	10105
920.488	10074
920.598	10367
920.708	10432
920.818	10268
920.928	10344
921.038	10470
921.148	10352
921.258	10112
921.368	10078
921.477	10002
921.587	9945
921.697	9880
921.806	9953
921.916	9861
922.025	9747
922.134	9641
922.244	9713
922.353	9705
922.462	9545
922.571	9526
922.68	9332
922.789	9321
922.898	9359
923.007	9336
923.116	9412
923.224	9370
923.333	9294
923.442	9260
923.55	9188
923.659	9317
923.767	9332
923.876	9100
923.984	9291
924.092	9142
924.201	9249
924.309	9256
924.417	9264
924.525	9241
924.633	9222
924.741	9949
924.849	9005
924.956	9199
925.064	9028
925.172	8933
925.279	8967
925.387	9020
925.494	9074
925.602	9116
925.709	9112
925.816	8960
925.924	9001
926.031	9127
926.138	8941
926.245	9150
926.352	8944
926.459	9074
926.566	9116
926.673	8994
926.779	8868
926.886	8933
926.993	8781
927.099	8792
927.206	8777
927.312	8746
927.419	8731
927.525	8750
927.631	8887
927.737	8697
927.843	8606
927.95	8473
928.056	8606
928.162	8651
928.267	8689
928.373	9199
928.479	8754
928.585	8465
928.69	8697
928.796	8678
928.901	8537
929.007	8461
929.112	8499
929.218	8541
929.323	8480
929.428	8480
929.533	8564
929.638	8423
929.743	8476
929.848	8484
929.953	8400
930.058	8351
930.163	8191
930.267	8225
930.372	8366
930.477	8233
930.581	8476
930.685	8362
930.79	8199
930.894	8221
930.998	8229
931.103	8317
931.207	7967
931.311	7978
931.415	7803
931.519	7700
931.623	7723
