Data from test_V78500241_2230.txt Node
Date: Fri Mar 25 14:49:14 CST 2022
User: usil
Spectrometer: V785-0024
Trigger mode: 0
Integration Time (sec): 4.000000E-1
Scans to average: 1
Nonlinearity correction enabled: false
Boxcar width: 0
Storing dark spectrum: false
XAxis mode: Wavelengths
Number of Pixels in Spectrum: 1024
>>>>>Begin Spectral Data<<<<<
801.071	22097
801.214	21987
801.356	21720
801.499	21797
801.641	21606
801.783	21530
801.926	21557
802.068	21431
802.211	21272
802.353	21294
802.496	21119
802.638	21005
802.78	21043
802.923	20979
803.065	20849
803.208	20880
803.35	20868
803.492	20906
803.635	21047
803.777	20838
803.919	21039
804.061	21237
804.204	20902
804.346	20849
804.488	20838
804.63	20804
804.773	20792
804.915	20807
805.057	20887
805.199	20826
805.341	20887
805.483	20864
805.626	20842
805.768	20891
805.91	20842
806.052	20754
806.194	20819
806.336	21032
806.478	20906
806.62	20712
806.762	20781
806.904	21058
807.046	21249
807.188	21051
807.33	21150
807.472	21184
807.614	20899
807.756	21032
807.898	21024
808.04	20902
808.182	20914
808.324	20880
808.465	20921
808.607	21085
808.749	21123
808.891	21279
809.033	21431
809.174	21169
809.316	21070
809.458	21218
809.6	21169
809.741	21211
809.883	21188
810.025	21355
810.166	21264
810.308	21397
810.45	21287
810.591	21222
810.733	21058
810.875	21070
811.016	20918
811.158	20735
811.299	21032
811.441	21020
811.582	21047
811.724	20933
811.865	20880
812.007	20849
812.148	21074
812.29	20941
812.431	21131
812.573	21272
812.714	21397
812.855	21401
812.997	21625
813.138	21580
813.279	21576
813.421	21405
813.562	21332
813.703	21157
813.845	21150
813.986	20674
814.127	20693
814.268	20598
814.41	20594
814.551	20412
814.692	20518
814.833	20446
814.974	20484
815.115	20476
815.256	20339
815.397	20313
815.539	20457
815.68	20263
815.821	20081
815.962	20240
816.103	20206
816.244	19967
816.385	20065
816.526	19932
816.666	19803
816.807	19567
816.948	19769
817.089	19681
817.23	19620
817.371	19586
817.512	19590
817.653	19628
817.793	19487
817.934	19700
818.075	19533
818.216	19563
818.356	19616
818.497	19464
818.638	19236
818.778	19282
818.919	19304
819.06	19312
819.2	19476
819.341	19460
819.481	19449
819.622	19571
819.762	19791
819.903	19757
820.043	19651
820.184	19609
820.324	19578
820.465	19556
820.605	19605
820.746	19567
820.886	19388
821.026	19643
821.167	19533
821.307	19597
821.447	19582
821.588	19419
821.728	19282
821.868	19259
822.008	18951
822.149	18977
822.289	18958
822.429	18741
822.569	18635
822.709	18681
822.849	18448
822.99	18517
823.13	18380
823.27	18536
823.41	18346
823.55	18258
823.69	18262
823.83	18270
823.97	18182
824.11	18125
824.25	17977
824.389	18011
824.529	18030
824.669	18068
824.809	18125
824.949	18197
825.089	18079
825.228	17927
825.368	17836
825.508	17897
825.648	17859
825.787	17866
825.927	17961
826.067	17798
826.206	17748
826.346	17764
826.485	17828
826.625	17764
826.765	17927
826.904	17897
827.044	17653
827.183	17642
827.323	17452
827.462	17486
827.601	17528
827.741	17596
827.88	17566
828.02	17414
828.159	17448
828.298	17474
828.437	17653
828.577	17505
828.716	17642
828.855	17444
828.994	17231
829.134	17208
829.273	17280
829.412	17151
829.551	17166
829.69	17292
829.829	17349
829.968	17433
830.107	17299
830.246	17299
830.385	17273
830.524	17159
830.663	17147
830.802	17033
830.941	16854
831.08	16908
831.219	16999
831.357	16999
831.496	17094
831.635	16866
831.774	16805
831.913	16812
832.051	16748
832.19	16603
832.329	16748
832.467	16618
832.606	16577
832.744	16516
832.883	16592
833.022	16516
833.16	16554
833.299	16561
833.437	16615
833.576	16645
833.714	16641
833.852	16626
833.991	16668
834.129	16755
834.267	16771
834.406	16561
834.544	16679
834.682	16584
834.821	16474
834.959	16675
835.097	16493
835.235	16675
835.373	16656
835.511	16637
835.65	16512
835.788	16462
835.926	16348
836.064	16226
836.202	16375
836.34	16504
836.478	16519
836.615	16565
836.753	16493
836.891	16531
837.029	16626
837.167	16489
837.305	16459
837.443	16398
837.58	16341
837.718	16413
837.856	16367
837.993	16375
838.131	16348
838.269	16325
838.406	16238
838.544	16192
838.681	16048
838.819	16116
838.956	15964
839.094	15975
839.231	15964
839.369	16093
839.506	16341
839.643	16185
839.781	15953
839.918	15926
840.055	15960
840.193	15960
840.33	15857
840.467	15998
840.604	15949
840.742	16120
840.879	15819
841.016	15778
841.153	15835
841.29	15991
841.427	15835
841.564	15956
841.701	15941
841.838	15831
841.975	15850
842.112	15865
842.249	15675
842.385	15728
842.522	15835
842.659	15808
842.796	15637
842.933	15595
843.069	15542
843.206	15694
843.343	15690
843.479	15774
843.616	15736
843.752	15633
843.889	15496
844.025	15641
844.162	15523
844.298	15591
844.435	15549
844.571	15386
844.708	15622
844.844	15580
844.98	15576
845.117	15584
845.253	15374
845.389	15344
845.525	15412
845.661	15370
845.798	15291
845.934	15355
846.07	15260
846.206	15237
846.342	15355
846.478	15207
846.614	15028
846.75	15013
846.886	15119
847.022	15116
847.158	14998
847.294	15043
847.429	15089
847.565	15100
847.701	15329
847.837	14823
847.972	14731
848.108	14838
848.244	14891
848.379	14617
848.515	14556
848.65	14697
848.786	14674
848.921	14682
849.057	14792
849.192	14845
849.328	14697
849.463	14727
849.598	14594
849.734	14594
849.869	14469
850.004	14526
850.14	14560
850.275	14381
850.41	14370
850.545	14278
850.68	14469
850.815	14423
850.95	14484
851.085	14590
851.22	14514
851.355	14454
851.49	14450
851.625	14415
851.76	14431
851.895	14332
852.03	14313
852.165	14377
852.299	14469
852.434	14457
852.569	14503
852.703	14423
852.838	14530
852.973	14552
853.107	14598
853.242	14412
853.376	14351
853.511	14168
853.645	14259
853.78	14393
853.914	14358
854.048	14248
854.183	14298
854.317	14271
854.451	14469
854.585	14278
854.72	14252
854.854	14309
854.988	14050
855.122	14252
855.256	14138
855.39	14225
855.524	14313
855.658	14381
855.792	14267
855.926	14317
856.06	14290
856.194	14294
856.327	14278
856.461	14134
856.595	14320
856.729	14248
856.862	14351
856.996	14385
857.13	14324
857.263	14396
857.397	14431
857.53	14374
857.664	14434
857.797	14305
857.931	14385
858.064	14324
858.197	14370
858.331	14290
858.464	14229
858.597	14115
858.731	14237
858.864	14176
858.997	14267
859.13	14286
859.263	14362
859.396	14305
859.529	14320
859.662	14210
859.795	14324
859.928	14366
860.061	14476
860.194	14518
860.327	14275
860.46	14301
860.592	14355
860.725	14503
860.858	14336
860.99	14256
861.123	14210
861.256	14328
861.388	14305
861.521	14834
861.653	14240
861.786	14035
861.918	14092
862.05	14248
862.183	14244
862.315	14252
862.447	14298
862.58	14233
862.712	14058
862.844	13967
862.976	14103
863.108	14077
863.24	14454
863.372	13993
863.504	14043
863.636	14027
863.768	14050
863.9	14084
864.032	14027
864.164	14043
864.296	14027
864.428	14180
864.559	14100
864.691	14240
864.823	14145
864.954	14024
865.086	14084
865.217	13993
865.349	14069
865.48	14024
865.612	14096
865.743	14259
865.875	14039
866.006	14096
866.137	14134
866.269	14100
866.4	14039
866.531	14001
866.662	13902
866.793	13993
866.924	14046
867.055	14012
867.186	14069
867.317	14001
867.448	13993
867.579	14024
867.71	13963
867.841	14005
867.972	14050
868.103	14119
868.233	14039
868.364	14058
868.495	14084
868.625	14290
868.756	14495
868.886	14103
869.017	14282
869.147	14389
869.278	14461
869.408	14252
869.539	14324
869.669	14377
869.799	14339
869.929	14518
870.06	14396
870.19	14568
870.32	14507
870.45	14632
870.58	14750
870.71	14804
870.84	14777
870.97	14777
871.1	14743
871.23	14883
871.36	14834
871.489	14701
871.619	14937
871.749	14838
871.879	14910
872.008	14967
872.138	14925
872.267	14826
872.397	14765
872.526	14674
872.656	14754
872.785	14773
872.915	14861
873.044	15081
873.173	14944
873.303	15028
873.432	14952
873.561	15032
873.69	14823
873.819	14895
873.948	14994
874.077	14845
874.206	14918
874.335	15066
874.464	15093
874.593	15252
874.722	15207
874.851	15283
874.979	15268
875.108	15237
875.237	15260
875.365	15233
875.494	15207
875.623	15329
875.751	15195
875.88	15245
876.008	15431
876.136	15496
876.265	15652
876.393	15850
876.521	15816
876.65	15850
876.778	15580
876.906	15572
877.034	15641
877.162	15656
877.29	15572
877.418	15690
877.546	15614
877.674	15667
877.802	15641
877.93	15717
878.058	15633
878.185	15492
878.313	15618
878.441	15667
878.568	15542
878.696	15595
878.824	15701
878.951	15732
879.079	15880
879.206	15987
879.333	15869
879.461	15785
879.588	15785
879.715	15892
879.842	15876
879.97	15728
880.097	15466
880.224	15492
880.351	15488
880.478	15553
880.605	15542
880.732	15545
880.859	15781
880.986	15526
881.112	15614
881.239	15332
881.366	15340
881.493	15119
881.619	15154
881.746	15241
881.872	15180
881.999	15203
882.125	15157
882.252	15252
882.378	15199
882.505	15272
882.631	15100
882.757	15028
882.883	15089
883.01	15100
883.136	14979
883.262	14929
883.388	14868
883.514	14986
883.64	15070
883.766	14925
883.892	14785
884.018	14762
884.143	14929
884.269	15097
884.395	14887
884.52	14750
884.646	14655
884.772	14750
884.897	14602
885.023	14716
885.148	14750
885.274	14857
885.399	14857
885.524	14678
885.65	14693
885.775	14708
885.9	14716
886.025	14811
886.15	14792
886.275	14686
886.4	14606
886.525	14640
886.65	14648
886.775	14701
886.9	14826
887.025	14887
887.149	14746
887.274	14587
887.399	14625
887.523	14427
887.648	14484
887.773	14450
887.897	14663
888.021	14606
888.146	14457
888.27	14670
888.395	14651
888.519	14549
888.643	14594
888.767	14610
888.891	14480
889.015	14324
889.139	14537
889.263	14328
889.387	14495
889.511	14629
889.635	14495
889.759	14419
889.883	14400
890.006	14431
890.13	14514
890.254	14313
890.377	14339
890.501	14233
890.624	14199
890.748	14244
890.871	14206
890.995	14035
891.118	14043
891.241	14107
891.364	14142
891.488	14126
891.611	14134
891.734	14168
891.857	14130
891.98	14069
892.103	14149
892.226	14210
892.349	14069
892.471	13978
892.594	14157
892.717	14176
892.839	14035
892.962	14092
893.085	14119
893.207	14100
893.33	14092
893.452	14008
893.575	14221
893.697	14012
893.819	14237
893.941	14275
894.064	14305
894.186	14096
894.308	13986
894.43	14278
894.552	14324
894.674	14218
894.796	14081
894.918	14164
895.04	14115
895.161	14237
895.283	14233
895.405	14115
895.526	14126
895.648	14157
895.769	14172
895.891	14229
896.012	14309
896.134	14400
896.255	14214
896.376	14313
896.498	14218
896.619	14339
896.74	14275
896.861	14366
896.982	14594
897.103	14693
897.224	14514
897.345	14507
897.466	14484
897.587	14549
897.708	14655
897.828	14571
897.949	14476
898.07	14362
898.19	14454
898.311	14682
898.431	14454
898.552	14659
898.672	14686
898.792	14682
898.913	14602
899.033	14552
899.153	14404
899.273	14457
899.393	14377
899.513	14374
899.633	14511
899.753	14568
899.873	14431
899.993	14537
900.113	14393
900.232	14431
900.352	14507
900.472	14355
900.591	14355
900.711	14366
900.83	14271
900.95	14511
901.069	14476
901.189	14278
901.308	14020
901.427	14084
901.546	13997
901.665	14149
901.784	14073
901.904	14001
902.023	13845
902.141	13727
902.26	13613
902.379	13738
902.498	13658
902.617	13582
902.735	13674
902.854	13616
902.973	13559
903.091	13327
903.21	13247
903.328	13304
903.446	13297
903.565	13141
903.683	13217
903.801	13072
903.919	13080
904.038	13122
904.156	12939
904.274	12985
904.392	12882
904.51	13004
904.627	13023
904.745	13061
904.863	13031
904.981	12757
905.098	12688
905.216	12669
905.334	12707
905.451	12700
905.569	12658
905.686	12681
905.803	12692
905.921	12555
906.038	12593
906.155	12464
906.272	12346
906.389	12429
906.506	12247
906.623	12258
906.74	12163
906.857	12167
906.974	12213
907.091	12414
907.208	12407
907.324	12254
907.441	12178
907.557	12117
907.674	11973
907.79	11897
907.907	11927
908.023	12060
908.139	12003
908.256	11939
908.372	11878
908.488	11889
908.604	11805
908.72	11691
908.836	11767
908.952	11672
909.068	11729
909.184	11859
909.3	11847
909.415	11840
909.531	11798
909.647	11589
909.762	11524
909.878	11512
909.993	11497
910.108	11543
910.224	11497
910.339	11551
910.454	11444
910.57	11429
910.685	11280
910.8	11627
910.915	11490
911.03	11417
911.145	11216
911.259	11208
911.374	11181
911.489	11216
911.604	11056
911.718	10961
911.833	10980
911.947	10923
912.062	10763
912.176	10987
912.291	10991
912.405	10953
912.519	11170
912.633	11227
912.748	10980
912.862	10961
912.976	10953
913.09	10691
913.204	10778
913.318	10850
913.431	10953
913.545	10904
913.659	11022
913.772	10923
913.886	10801
914	10675
914.113	10873
914.226	10854
914.34	10744
914.453	10729
914.566	10786
914.68	10679
914.793	10675
914.906	10504
915.019	10413
915.132	10352
915.245	10481
915.358	10493
915.47	10485
915.583	10474
915.696	10554
915.809	10596
915.921	10645
916.034	10432
916.146	10428
916.259	10478
916.371	10569
916.483	10596
916.595	10344
916.708	10310
916.82	10428
916.932	10470
917.044	10386
917.156	10375
917.268	10268
917.38	10322
917.491	10287
917.603	10379
917.715	10413
917.826	10417
917.938	10242
918.049	10287
918.161	10352
918.272	10447
918.384	10527
918.495	10337
918.606	10181
918.717	10158
918.828	10204
918.939	10227
919.05	10082
919.161	10169
919.272	9964
919.383	10032
919.494	10230
919.604	10462
919.715	10333
919.826	10131
919.936	10295
920.047	10360
920.157	10291
920.267	10424
920.378	10242
920.488	10150
920.598	10451
920.708	10542
920.818	10432
920.928	10322
921.038	10565
921.148	10516
921.258	10253
921.368	10135
921.477	10162
921.587	10090
921.697	9979
921.806	10036
921.916	10067
922.025	9907
922.134	9743
922.244	9736
922.353	9850
922.462	9557
922.571	9595
922.68	9542
922.789	9450
922.898	9485
923.007	9447
923.116	9466
923.224	9454
923.333	9466
923.442	9348
923.55	9340
923.659	9279
923.767	9389
923.876	9367
923.984	9439
924.092	9298
924.201	9332
924.309	9279
924.417	9283
924.525	9249
924.633	9374
924.741	10261
924.849	9142
924.956	9313
925.064	9157
925.172	9028
925.279	9081
925.387	9188
925.494	9123
925.602	9272
925.709	9203
925.816	9127
925.924	9116
926.031	9199
926.138	9131
926.245	9188
926.352	9024
926.459	9199
926.566	9222
926.673	9165
926.779	8967
926.886	8975
926.993	8849
927.099	8880
927.206	8830
927.312	8807
927.419	8902
927.525	8872
927.631	8883
927.737	8815
927.843	8758
927.95	8587
928.056	8705
928.162	8769
928.267	8743
928.373	9393
928.479	8815
928.585	8613
928.69	8701
928.796	8785
928.901	8670
929.007	8450
929.112	8716
929.218	8705
929.323	8571
929.428	8564
929.533	8625
929.638	8507
929.743	8484
929.848	8629
929.953	8530
930.058	8484
930.163	8279
930.267	8298
930.372	8431
930.477	8324
930.581	8545
930.685	8400
930.79	8271
930.894	8202
930.998	8317
931.103	8358
931.207	8123
931.311	7978
931.415	7967
931.519	7811
931.623	7818
