Data from test_V78500241_871.txt Node
Date: Fri Mar 25 14:39:46 CST 2022
User: usil
Spectrometer: V785-0024
Trigger mode: 0
Integration Time (sec): 4.000000E-1
Scans to average: 1
Nonlinearity correction enabled: false
Boxcar width: 0
Storing dark spectrum: false
XAxis mode: Wavelengths
Number of Pixels in Spectrum: 1024
>>>>>Begin Spectral Data<<<<<
801.071	25632
801.214	25533
801.356	25289
801.499	25175
801.641	24992
801.783	24981
801.926	25110
802.068	24951
802.211	24795
802.353	24711
802.496	24422
802.638	24441
802.78	24346
802.923	24456
803.065	24247
803.208	24285
803.35	24350
803.492	24350
803.635	24479
803.777	24532
803.919	24479
804.061	24798
804.204	24467
804.346	24342
804.488	24388
804.63	24418
804.773	24410
804.915	24414
805.057	24597
805.199	24437
805.341	24589
805.483	24642
805.626	24726
805.768	24479
805.91	24673
806.052	24665
806.194	24570
806.336	24954
806.478	24856
806.62	25004
806.762	25114
806.904	25308
807.046	25674
807.188	25822
807.33	25909
807.472	26195
807.614	26339
807.756	26887
807.898	27146
808.04	27629
808.182	28421
808.324	29349
808.465	30540
808.607	31856
808.749	33081
808.891	33762
809.033	33717
809.174	33024
809.316	31940
809.458	30753
809.6	29330
809.741	28333
809.883	27534
810.025	27085
810.166	26750
810.308	26473
810.45	26092
810.591	25856
810.733	25544
810.875	25339
811.016	25270
811.158	25042
811.299	25133
811.441	25160
811.582	25107
811.724	24913
811.865	24943
812.007	24814
812.148	24890
812.29	24856
812.431	25038
812.573	25031
812.714	25145
812.855	25400
812.997	25396
813.138	25384
813.279	25194
813.421	25168
813.562	25202
813.703	24859
813.845	24871
813.986	24502
814.127	24232
814.268	24251
814.41	24155
814.551	24106
814.692	24148
814.833	24106
814.974	24060
815.115	23999
815.256	23843
815.397	23973
815.539	23954
815.68	23798
815.821	23699
815.962	23821
816.103	23767
816.244	23726
816.385	23543
816.526	23471
816.666	23277
816.807	23136
816.948	23273
817.089	23227
817.23	23280
817.371	23117
817.512	23178
817.653	23044
817.793	23075
817.934	23200
818.075	23086
818.216	23109
818.356	23064
818.497	22873
818.638	22850
818.778	22911
818.919	22767
819.06	22839
819.2	22877
819.341	23090
819.481	22930
819.622	23098
819.762	23231
819.903	23273
820.043	23197
820.184	23159
820.324	22965
820.465	23151
820.605	23098
820.746	23041
820.886	22847
821.026	22885
821.167	22869
821.307	22919
821.447	23006
821.588	22778
821.728	22599
821.868	22493
822.008	22394
822.149	22417
822.289	22329
822.429	22059
822.569	21907
822.709	21945
822.849	21888
822.99	21736
823.13	21781
823.27	21808
823.41	21618
823.55	21526
823.69	21591
823.83	21709
823.97	21530
824.11	21386
824.25	21287
824.389	21355
824.529	21466
824.669	21435
824.809	21469
824.949	21428
825.089	21519
825.228	21332
825.368	21252
825.508	21051
825.648	21207
825.787	21226
825.927	21192
826.067	21188
826.206	21043
826.346	21135
826.485	21291
826.625	21100
826.765	21211
826.904	21211
827.044	20899
827.183	20872
827.323	20804
827.462	20864
827.601	20796
827.741	20788
827.88	20845
828.02	20598
828.159	20674
828.298	20750
828.437	20811
828.577	20785
828.716	20902
828.855	20815
828.994	20598
829.134	20511
829.273	20552
829.412	20545
829.551	20476
829.69	20526
829.829	20518
829.968	20507
830.107	20404
830.246	20476
830.385	20400
830.524	20339
830.663	20339
830.802	20218
830.941	20077
831.08	20073
831.219	20202
831.357	20115
831.496	20290
831.635	19944
831.774	20050
831.913	20001
832.051	19997
832.19	19845
832.329	20012
832.467	19731
832.606	19757
832.744	19791
832.883	19757
833.022	19921
833.16	19913
833.299	19890
833.437	19970
833.576	20111
833.714	20043
833.852	20233
833.991	20301
834.129	20313
834.267	20358
834.406	20259
834.544	20282
834.682	20221
834.821	20126
834.959	20176
835.097	19814
835.235	19978
835.373	20001
835.511	19845
835.65	19738
835.788	19696
835.926	19609
836.064	19495
836.202	19529
836.34	19708
836.478	19765
836.615	19552
836.753	19571
836.891	19715
837.029	19643
837.167	19578
837.305	19350
837.443	19430
837.58	19460
837.718	19464
837.856	19502
837.993	19365
838.131	19434
838.269	19263
838.406	19415
838.544	19145
838.681	19133
838.819	19008
838.956	19069
839.094	18882
839.231	19019
839.369	19084
839.506	19285
839.643	19118
839.781	18829
839.918	18776
840.055	18817
840.193	18833
840.33	18875
840.467	18886
840.604	18947
840.742	19065
840.879	18734
841.016	18772
841.153	18810
841.29	18962
841.427	18825
841.564	18894
841.701	18791
841.838	18757
841.975	18768
842.112	18688
842.249	18661
842.385	18509
842.522	18871
842.659	18635
842.796	18620
842.933	18688
843.069	18452
843.206	18597
843.343	18768
843.479	18665
843.616	18646
843.752	18445
843.889	18452
844.025	18646
844.162	18551
844.298	18677
844.435	18711
844.571	18658
844.708	18825
844.844	19156
844.98	19152
845.117	19343
845.253	19590
845.389	20172
845.525	21405
845.661	23417
845.798	26008
845.934	27994
846.07	28904
846.206	28573
846.342	27169
846.478	24460
846.614	22101
846.75	20358
846.886	19563
847.022	19023
847.158	18684
847.294	18498
847.429	18353
847.565	18197
847.701	18388
847.837	17813
847.972	17691
848.108	17840
848.244	17866
848.379	17722
848.515	17585
848.65	17448
848.786	17577
848.921	17570
849.057	17623
849.192	17497
849.328	17547
849.463	17668
849.598	17490
849.734	17345
849.869	17280
850.004	17189
850.14	17288
850.275	17216
850.41	17113
850.545	17162
850.68	17212
850.815	17166
850.95	17178
851.085	17337
851.22	17265
851.355	17307
851.49	17220
851.625	17250
851.76	17143
851.895	17128
852.03	17140
852.165	17132
852.299	17288
852.434	17303
852.569	17273
852.703	17235
852.838	17277
852.973	17414
853.107	17376
853.242	17212
853.376	17067
853.511	16995
853.645	17083
853.78	17280
853.914	17220
854.048	17159
854.183	17227
854.317	17155
854.451	17353
854.585	17204
854.72	17246
854.854	17410
854.988	17052
855.122	17143
855.256	17010
855.39	17113
855.524	17174
855.658	17181
855.792	17098
855.926	17124
856.06	17121
856.194	17250
856.327	17083
856.461	17113
856.595	17018
856.729	17041
856.862	17162
856.996	17193
857.13	17086
857.263	17174
857.397	17162
857.53	17033
857.664	17128
857.797	17067
857.931	17200
858.064	17090
858.197	17261
858.331	17029
858.464	17010
858.597	16850
858.731	16980
858.864	16953
858.997	16904
859.13	17010
859.263	16942
859.396	17048
859.529	16976
859.662	16869
859.795	16927
859.928	17003
860.061	17121
860.194	17223
860.327	17029
860.46	16984
860.592	17037
860.725	17216
860.858	17018
860.99	17086
861.123	16869
861.256	16881
861.388	16930
861.521	17566
861.653	16889
861.786	16858
861.918	16835
862.05	16946
862.183	16961
862.315	16949
862.447	16949
862.58	16919
862.712	16733
862.844	16729
862.976	16771
863.108	16721
863.24	17006
863.372	16679
863.504	16649
863.636	16706
863.768	16706
863.9	16675
864.032	16656
864.164	16740
864.296	16748
864.428	16858
864.559	16843
864.691	16733
864.823	16653
864.954	16694
865.086	16698
865.217	16637
865.349	16554
865.48	16626
865.612	16687
865.743	16824
865.875	16664
866.006	16611
866.137	16691
866.269	16618
866.4	16550
866.531	16550
866.662	16485
866.793	16527
866.924	16713
867.055	16660
867.186	16634
867.317	16615
867.448	16584
867.579	16542
867.71	16493
867.841	16436
867.972	16622
868.103	16603
868.233	16615
868.364	16637
868.495	16755
868.625	16904
868.756	16949
868.886	16854
869.017	16767
869.147	16980
869.278	16934
869.408	16850
869.539	16862
869.669	17010
869.799	16938
869.929	17048
870.06	16949
870.19	17235
870.32	17200
870.45	17132
870.58	17235
870.71	17436
870.84	17349
870.97	17261
871.1	17231
871.23	17471
871.36	17398
871.489	17379
871.619	17398
871.749	17440
871.879	17398
872.008	17581
872.138	17520
872.267	17478
872.397	17372
872.526	17402
872.656	17337
872.785	17402
872.915	17501
873.044	17718
873.173	17505
873.303	17687
873.432	17661
873.561	17741
873.69	17680
873.819	17600
873.948	17748
874.077	17570
874.206	17604
874.335	17581
874.464	17882
874.593	17961
874.722	17828
874.851	18007
874.979	18011
875.108	18053
875.237	18022
875.365	17942
875.494	18015
875.623	18015
875.751	17958
875.88	18155
876.008	18235
876.136	18258
876.265	18525
876.393	18684
876.521	18525
876.65	18635
876.778	18639
876.906	18631
877.034	18650
877.162	18635
877.29	18620
877.418	18665
877.546	18745
877.674	18795
877.802	18734
877.93	18920
878.058	18958
878.185	18844
878.313	19076
878.441	19187
878.568	19308
878.696	19571
878.824	19925
878.951	20419
879.079	21024
879.206	21956
879.333	22618
879.461	23204
879.588	23604
879.715	23642
879.842	23547
879.97	22664
880.097	21568
880.224	20887
880.351	20499
880.478	20183
880.605	19879
880.732	19746
880.859	20054
880.986	19742
881.112	19597
881.239	19521
881.366	19438
881.493	19217
881.619	19255
881.746	19453
881.872	19236
881.999	19236
882.125	19206
882.252	19335
882.378	19327
882.505	19403
882.631	19183
882.757	19148
882.883	19270
883.01	19137
883.136	19114
883.262	19065
883.388	19065
883.514	19076
883.64	18993
883.766	19129
883.892	18920
884.018	18886
884.143	19194
884.269	19084
884.395	18798
884.52	18722
884.646	18863
884.772	18734
884.897	18753
885.023	18829
885.148	18916
885.274	18954
885.399	18833
885.524	18620
885.65	18661
885.775	18544
885.9	18566
886.025	18669
886.15	18563
886.275	18388
886.4	18270
886.525	18270
886.65	18251
886.775	18133
886.9	18213
887.025	18559
887.149	18152
887.274	17946
887.399	17885
887.523	17859
887.648	17764
887.773	17573
887.897	17840
888.021	17748
888.146	17764
888.27	17771
888.395	17874
888.519	17615
888.643	17775
888.767	17722
888.891	17410
889.015	17482
889.139	17528
889.263	17349
889.387	17520
889.511	17486
889.635	17474
889.759	17326
889.883	17246
890.006	17360
890.13	17265
890.254	17318
890.377	17216
890.501	17075
890.624	17033
890.748	17143
890.871	17010
890.995	16790
891.118	16839
891.241	16968
891.364	16809
891.488	17037
891.611	16782
891.734	16858
891.857	16843
891.98	16915
892.103	16877
892.226	16850
892.349	16812
892.471	16531
892.594	16717
892.717	16687
892.839	16721
892.962	16672
893.085	16835
893.207	16717
893.33	16558
893.452	16516
893.575	16664
893.697	16634
893.819	16679
893.941	16809
894.064	16778
894.186	16565
894.308	16637
894.43	16603
894.552	16660
894.674	16554
894.796	16550
894.918	16538
895.04	16535
895.161	16729
895.283	16710
895.405	16565
895.526	16580
895.648	16626
895.769	16584
895.891	16618
896.012	16679
896.134	16675
896.255	16512
896.376	16611
896.498	16656
896.619	16679
896.74	16577
896.861	16790
896.982	16987
897.103	17208
897.224	16816
897.345	16854
897.466	16740
897.587	16786
897.708	16999
897.828	16892
897.949	16790
898.07	16694
898.19	16710
898.311	17010
898.431	16873
898.552	16839
898.672	16957
898.792	17006
898.913	16908
899.033	16771
899.153	16782
899.273	16599
899.393	16729
899.513	16740
899.633	16592
899.753	16759
899.873	16744
899.993	16782
900.113	16748
900.232	16668
900.352	16725
900.472	16668
900.591	16561
900.711	16554
900.83	16504
900.95	16637
901.069	16672
901.189	16508
901.308	16314
901.427	16268
901.546	16196
901.665	16268
901.784	16181
901.904	15994
902.023	16025
902.141	15747
902.26	15709
902.379	15808
902.498	15713
902.617	15671
902.735	15808
902.854	15545
902.973	15561
903.091	15424
903.21	15275
903.328	15374
903.446	15332
903.565	15146
903.683	15188
903.801	15161
903.919	15157
904.038	15138
904.156	14986
904.274	15127
904.392	14853
904.51	14971
904.627	14944
904.745	15013
904.863	14956
904.981	14777
905.098	14617
905.216	14686
905.334	14670
905.451	14598
905.569	14476
905.686	14651
905.803	14571
905.921	14423
906.038	14427
906.155	14328
906.272	14389
906.389	14286
906.506	14172
906.623	14240
906.74	14054
906.857	14008
906.974	14008
907.091	14248
907.208	14218
907.324	14088
907.441	13986
907.557	13871
907.674	13750
907.79	13769
907.907	13833
908.023	13856
908.139	13890
908.256	13837
908.372	13753
908.488	13658
908.604	13548
908.72	13487
908.836	13624
908.952	13487
909.068	13552
909.184	13597
909.3	13563
909.415	13594
909.531	13643
909.647	13312
909.762	13308
909.878	13244
909.993	13278
910.108	13350
910.224	13289
910.339	13247
910.454	13266
910.57	13152
910.685	12989
910.8	13362
910.915	13362
911.03	13057
911.145	12989
911.259	12996
911.374	12958
911.489	12905
911.604	12909
911.718	12719
911.833	12669
911.947	12574
912.062	12566
912.176	12696
912.291	12719
912.405	12783
912.519	12890
912.633	12909
912.748	12722
912.862	12681
912.976	12532
913.09	12407
913.204	12544
913.318	12593
913.431	12642
913.545	12627
913.659	12623
913.772	12582
913.886	12426
914	12342
914.113	12452
914.226	12551
914.34	12490
914.453	12254
914.566	12452
914.68	12365
914.793	12350
914.906	12144
915.019	12098
915.132	12076
915.245	12140
915.358	12133
915.47	12270
915.583	12098
915.696	12152
915.809	12224
915.921	12353
916.034	12175
916.146	12114
916.259	12072
916.371	12197
916.483	12155
916.595	11980
916.708	12114
916.82	12019
916.932	12003
917.044	12019
917.156	11916
917.268	11908
917.38	11927
917.491	11904
917.603	11897
917.715	11980
917.826	11958
917.938	11916
918.049	11790
918.161	11893
918.272	12007
918.384	11897
918.495	11908
918.606	11699
918.717	11653
918.828	11817
918.939	11726
919.05	11585
919.161	11699
919.272	11444
919.383	11657
919.494	11623
919.604	11805
919.715	11722
919.826	11547
919.936	11665
920.047	11783
920.157	11665
920.267	11859
920.378	11752
920.488	11668
920.598	11859
920.708	12053
920.818	11904
920.928	11878
921.038	11988
921.148	11958
921.258	11767
921.368	11566
921.477	11524
921.587	11535
921.697	11345
921.806	11535
921.916	11410
922.025	11250
922.134	11166
922.244	11166
922.353	11178
922.462	11014
922.571	10991
922.68	10934
922.789	10862
922.898	10923
923.007	10771
923.116	10866
923.224	10854
923.333	10809
923.442	10740
923.55	10679
923.659	10660
923.767	10729
923.876	10721
923.984	10752
924.092	10653
924.201	10721
924.309	10683
924.417	10588
924.525	10599
924.633	10508
924.741	11376
924.849	10390
924.956	10546
925.064	10504
925.172	10386
925.279	10299
925.387	10398
925.494	10421
925.602	10596
925.709	10535
925.816	10337
925.924	10409
926.031	10459
926.138	10512
926.245	10481
926.352	10352
926.459	10459
926.566	10489
926.673	10352
926.779	10276
926.886	10196
926.993	10109
927.099	10101
927.206	10071
927.312	10090
927.419	10105
927.525	10025
927.631	10166
927.737	10021
927.843	9975
927.95	9804
928.056	9918
928.162	10055
928.267	10044
928.373	10599
928.479	10017
928.585	9838
928.69	9960
928.796	9972
928.901	9861
929.007	9747
929.112	9895
929.218	9838
929.323	9759
929.428	9717
929.533	9876
929.638	9732
929.743	9682
929.848	9778
929.953	9652
930.058	9671
930.163	9504
930.267	9561
930.372	9606
930.477	9507
930.581	9781
930.685	9526
930.79	9450
930.894	9454
930.998	9477
931.103	9572
931.207	9199
931.311	9169
931.415	9055
931.519	8910
931.623	8815
