Data from test_V78500241_2366.txt Node
Date: Fri Mar 25 14:50:11 CST 2022
User: usil
Spectrometer: V785-0024
Trigger mode: 0
Integration Time (sec): 4.000000E-1
Scans to average: 1
Nonlinearity correction enabled: false
Boxcar width: 0
Storing dark spectrum: false
XAxis mode: Wavelengths
Number of Pixels in Spectrum: 1024
>>>>>Begin Spectral Data<<<<<
801.071	22200
801.214	22067
801.356	21884
801.499	21690
801.641	21660
801.783	21526
801.926	21618
802.068	21515
802.211	21473
802.353	21272
802.496	21055
802.638	20960
802.78	21077
802.923	21039
803.065	20880
803.208	20838
803.35	20807
803.492	20933
803.635	20990
803.777	20891
803.919	20952
804.061	21214
804.204	20883
804.346	20697
804.488	20724
804.63	20891
804.773	20720
804.915	20735
805.057	20861
805.199	20720
805.341	20785
805.483	20944
805.626	20773
805.768	20819
805.91	20792
806.052	20826
806.194	20731
806.336	20792
806.478	20682
806.62	20830
806.762	20918
806.904	20895
807.046	21351
807.188	21256
807.33	21081
807.472	21184
807.614	20990
807.756	21077
807.898	20883
808.04	20849
808.182	20990
808.324	20868
808.465	20883
808.607	21032
808.749	21169
808.891	21279
809.033	21348
809.174	21291
809.316	21039
809.458	21184
809.6	21157
809.741	21256
809.883	21230
810.025	21298
810.166	21226
810.308	21199
810.45	21321
810.591	21074
810.733	21081
810.875	20975
811.016	20842
811.158	20914
811.299	20998
811.441	21013
811.582	21043
811.724	20910
811.865	20891
812.007	20857
812.148	20925
812.29	20937
812.431	21146
812.573	21241
812.714	21420
812.855	21408
812.997	21583
813.138	21610
813.279	21545
813.421	21469
813.562	21462
813.703	21176
813.845	21150
813.986	20750
814.127	20644
814.268	20457
814.41	20545
814.551	20461
814.692	20488
814.833	20404
814.974	20404
815.115	20530
815.256	20313
815.397	20301
815.539	20278
815.68	20248
815.821	20210
815.962	20191
816.103	20180
816.244	20062
816.385	19917
816.526	19894
816.666	19738
816.807	19552
816.948	19811
817.089	19753
817.23	19791
817.371	19537
817.512	19476
817.653	19586
817.793	19464
817.934	19632
818.075	19567
818.216	19693
818.356	19632
818.497	19422
818.638	19320
818.778	19255
818.919	19293
819.06	19304
819.2	19392
819.341	19384
819.481	19460
819.622	19620
819.762	19875
819.903	19670
820.043	19616
820.184	19620
820.324	19620
820.465	19674
820.605	19594
820.746	19594
820.886	19407
821.026	19601
821.167	19594
821.307	19658
821.447	19495
821.588	19392
821.728	19213
821.868	19110
822.008	19072
822.149	19084
822.289	19004
822.429	18604
822.569	18719
822.709	18696
822.849	18433
822.99	18410
823.13	18342
823.27	18437
823.41	18277
823.55	18228
823.69	18277
823.83	18308
823.97	18277
824.11	18068
824.25	18117
824.389	18095
824.529	18174
824.669	18003
824.809	18114
824.949	18159
825.089	18102
825.228	17912
825.368	17859
825.508	17855
825.648	17923
825.787	17847
825.927	17866
826.067	17813
826.206	17809
826.346	17786
826.485	18015
826.625	17866
826.765	17958
826.904	17771
827.044	17722
827.183	17585
827.323	17623
827.462	17623
827.601	17512
827.741	17512
827.88	17452
828.02	17368
828.159	17444
828.298	17554
828.437	17638
828.577	17570
828.716	17608
828.855	17444
828.994	17341
829.134	17239
829.273	17330
829.412	17242
829.551	17159
829.69	17334
829.829	17296
829.968	17364
830.107	17322
830.246	17311
830.385	17258
830.524	17220
830.663	17117
830.802	16980
830.941	16869
831.08	16835
831.219	17041
831.357	16972
831.496	17064
831.635	16786
831.774	16839
831.913	16736
832.051	16645
832.19	16634
832.329	16637
832.467	16573
832.606	16687
832.744	16569
832.883	16592
833.022	16554
833.16	16656
833.299	16577
833.437	16607
833.576	16611
833.714	16470
833.852	16634
833.991	16668
834.129	16645
834.267	16733
834.406	16615
834.544	16706
834.682	16710
834.821	16592
834.959	16702
835.097	16580
835.235	16717
835.373	16554
835.511	16679
835.65	16584
835.788	16462
835.926	16352
836.064	16394
836.202	16405
836.34	16474
836.478	16592
836.615	16531
836.753	16523
836.891	16599
837.029	16535
837.167	16455
837.305	16394
837.443	16500
837.58	16402
837.718	16417
837.856	16284
837.993	16352
838.131	16375
838.269	16322
838.406	16299
838.544	16238
838.681	16158
838.819	16002
838.956	15956
839.094	15964
839.231	16074
839.369	16071
839.506	16306
839.643	16238
839.781	15949
839.918	15968
840.055	15968
840.193	15926
840.33	15949
840.467	15945
840.604	16002
840.742	16211
840.879	15724
841.016	15941
841.153	15846
841.29	15968
841.427	15903
841.564	15979
841.701	15922
841.838	15892
841.975	15880
842.112	15759
842.249	15614
842.385	15663
842.522	15804
842.659	15781
842.796	15705
842.933	15724
843.069	15774
843.206	15625
843.343	15808
843.479	15793
843.616	15724
843.752	15492
843.889	15469
844.025	15595
844.162	15466
844.298	15599
844.435	15405
844.571	15492
844.708	15519
844.844	15595
844.98	15614
845.117	15492
845.253	15424
845.389	15454
845.525	15424
845.661	15329
845.798	15230
845.934	15412
846.07	15252
846.206	15405
846.342	15420
846.478	15310
846.614	15108
846.75	15020
846.886	15001
847.022	15024
847.158	15119
847.294	15116
847.429	15100
847.565	15013
847.701	15313
847.837	14796
847.972	14800
848.108	14891
848.244	14986
848.379	14716
848.515	14705
848.65	14667
848.786	14689
848.921	14686
849.057	14724
849.192	14708
849.328	14571
849.463	14682
849.598	14632
849.734	14571
849.869	14503
850.004	14461
850.14	14492
850.275	14434
850.41	14393
850.545	14434
850.68	14457
850.815	14469
850.95	14400
851.085	14579
851.22	14507
851.355	14438
851.49	14431
851.625	14419
851.76	14454
851.895	14313
852.03	14332
852.165	14457
852.299	14389
852.434	14492
852.569	14476
852.703	14446
852.838	14381
852.973	14667
853.107	14617
853.242	14355
853.376	14328
853.511	14202
853.645	14256
853.78	14351
853.914	14294
854.048	14278
854.183	14199
854.317	14252
854.451	14514
854.585	14282
854.72	14164
854.854	14408
854.988	14309
855.122	14358
855.256	14119
855.39	14298
855.524	14431
855.658	14256
855.792	14339
855.926	14339
856.06	14298
856.194	14351
856.327	14290
856.461	14210
856.595	14271
856.729	14328
856.862	14450
856.996	14343
857.13	14347
857.263	14450
857.397	14514
857.53	14286
857.664	14301
857.797	14309
857.931	14461
858.064	14358
858.197	14419
858.331	14309
858.464	14172
858.597	14134
858.731	14294
858.864	14271
858.997	14339
859.13	14332
859.263	14290
859.396	14427
859.529	14199
859.662	14278
859.795	14294
859.928	14320
860.061	14446
860.194	14564
860.327	14328
860.46	14278
860.592	14511
860.725	14377
860.858	14381
860.99	14336
861.123	14252
861.256	14256
861.388	14294
861.521	14773
861.653	14233
861.786	14115
861.918	14244
862.05	14130
862.183	14214
862.315	14294
862.447	14320
862.58	14172
862.712	14107
862.844	14062
862.976	14058
863.108	14096
863.24	14541
863.372	13947
863.504	14069
863.636	14138
863.768	14050
863.9	14016
864.032	13986
864.164	14031
864.296	14081
864.428	14195
864.559	14115
864.691	14168
864.823	14107
864.954	14130
865.086	14172
865.217	14115
865.349	14001
865.48	14096
865.612	14077
865.743	14221
865.875	14031
866.006	14001
866.137	14142
866.269	14092
866.4	14096
866.531	14043
866.662	13982
866.793	13986
866.924	14043
867.055	14039
867.186	13974
867.317	13978
867.448	13928
867.579	14016
867.71	13970
867.841	13928
867.972	14092
868.103	14077
868.233	14065
868.364	14027
868.495	14183
868.625	14267
868.756	14419
868.886	14161
869.017	14248
869.147	14343
869.278	14377
869.408	14336
869.539	14309
869.669	14381
869.799	14438
869.929	14412
870.06	14366
870.19	14610
870.32	14636
870.45	14644
870.58	14781
870.71	14777
870.84	14819
870.97	14716
871.1	14651
871.23	14804
871.36	14902
871.489	14830
871.619	14861
871.749	14842
871.879	14967
872.008	14990
872.138	14880
872.267	14910
872.397	14811
872.526	14720
872.656	14678
872.785	14785
872.915	14918
873.044	14963
873.173	14960
873.303	14975
873.432	15093
873.561	14971
873.69	14952
873.819	15062
873.948	15009
874.077	14994
874.206	14944
874.335	14967
874.464	15104
874.593	15329
874.722	15135
874.851	15279
874.979	15310
875.108	15363
875.237	15291
875.365	15157
875.494	15260
875.623	15283
875.751	15245
875.88	15302
876.008	15386
876.136	15439
876.265	15633
876.393	15960
876.521	15724
876.65	15876
876.778	15690
876.906	15606
877.034	15633
877.162	15633
877.29	15686
877.418	15755
877.546	15743
877.674	15633
877.802	15584
877.93	15709
878.058	15641
878.185	15637
878.313	15625
878.441	15739
878.568	15469
878.696	15606
878.824	15572
878.951	15781
879.079	15854
879.206	15953
879.333	15747
879.461	15679
879.588	15709
879.715	15819
879.842	15972
879.97	15728
880.097	15580
880.224	15557
880.351	15633
880.478	15553
880.605	15564
880.732	15625
880.859	15759
880.986	15564
881.112	15534
881.239	15511
881.366	15260
881.493	15325
881.619	15161
881.746	15226
881.872	15104
881.999	15188
882.125	15150
882.252	15226
882.378	15173
882.505	15363
882.631	15150
882.757	15032
882.883	15039
883.01	14986
883.136	15020
883.262	14861
883.388	14762
883.514	15058
883.64	15104
883.766	15043
883.892	14781
884.018	14899
884.143	14891
884.269	15116
884.395	14819
884.52	14686
884.646	14689
884.772	14636
884.897	14636
885.023	14762
885.148	14952
885.274	14811
885.399	14826
885.524	14724
885.65	14758
885.775	14667
885.9	14621
886.025	14823
886.15	14792
886.275	14640
886.4	14625
886.525	14739
886.65	14621
886.775	14701
886.9	14781
887.025	14876
887.149	14746
887.274	14522
887.399	14511
887.523	14518
887.648	14446
887.773	14400
887.897	14590
888.021	14682
888.146	14495
888.27	14648
888.395	14583
888.519	14552
888.643	14602
888.767	14590
888.891	14492
889.015	14366
889.139	14442
889.263	14332
889.387	14587
889.511	14651
889.635	14503
889.759	14328
889.883	14396
890.006	14457
890.13	14454
890.254	14252
890.377	14385
890.501	14218
890.624	14176
890.748	14259
890.871	14103
890.995	14088
891.118	14012
891.241	14119
891.364	14115
891.488	14248
891.611	14123
891.734	14172
891.857	14153
891.98	14024
892.103	14176
892.226	14214
892.349	14103
892.471	14016
892.594	14046
892.717	14069
892.839	14123
892.962	14027
893.085	14123
893.207	14065
893.33	13978
893.452	14081
893.575	14115
893.697	14058
893.819	14252
893.941	14366
894.064	14210
894.186	14145
894.308	13959
894.43	14214
894.552	14290
894.674	14320
894.796	14077
894.918	14100
895.04	14142
895.161	14237
895.283	14138
895.405	14103
895.526	14252
895.648	14142
895.769	14161
895.891	14301
896.012	14320
896.134	14320
896.255	14332
896.376	14214
896.498	14161
896.619	14362
896.74	14320
896.861	14358
896.982	14537
897.103	14804
897.224	14556
897.345	14450
897.466	14434
897.587	14526
897.708	14686
897.828	14522
897.949	14568
898.07	14473
898.19	14514
898.311	14724
898.431	14530
898.552	14689
898.672	14708
898.792	14693
898.913	14693
899.033	14533
899.153	14488
899.273	14347
899.393	14442
899.513	14488
899.633	14526
899.753	14530
899.873	14434
899.993	14461
900.113	14480
900.232	14484
900.352	14450
900.472	14442
900.591	14351
900.711	14355
900.83	14412
900.95	14476
901.069	14446
901.189	14370
901.308	14183
901.427	13986
901.546	14077
901.665	14027
901.784	14092
901.904	13909
902.023	13757
902.141	13586
902.26	13567
902.379	13674
902.498	13552
902.617	13506
902.735	13689
902.854	13563
902.973	13518
903.091	13346
903.21	13388
903.328	13213
903.446	13213
903.565	13183
903.683	13206
903.801	13034
903.919	13137
904.038	13095
904.156	13012
904.274	13031
904.392	12920
904.51	12901
904.627	12886
904.745	12989
904.863	13050
904.981	12806
905.098	12745
905.216	12642
905.334	12722
905.451	12623
905.569	12635
905.686	12715
905.803	12684
905.921	12395
906.038	12570
906.155	12555
906.272	12319
906.389	12365
906.506	12338
906.623	12361
906.74	12228
906.857	12133
906.974	12155
907.091	12315
907.208	12426
907.324	12319
907.441	12095
907.557	11958
907.674	12095
907.79	12030
907.907	12011
908.023	12091
908.139	12030
908.256	11901
908.372	11904
908.488	11882
908.604	11790
908.72	11756
908.836	11745
908.952	11847
909.068	11783
909.184	11904
909.3	11733
909.415	11882
909.531	11760
909.647	11543
909.762	11528
909.878	11463
909.993	11585
910.108	11414
910.224	11452
910.339	11543
910.454	11459
910.57	11383
910.685	11398
910.8	11516
910.915	11501
911.03	11395
911.145	11280
911.259	11235
911.374	11216
911.489	11162
911.604	11094
911.718	11018
911.833	11060
911.947	10999
912.062	10812
912.176	10984
912.291	11010
912.405	10984
912.519	11098
912.633	11136
912.748	11128
912.862	10957
912.976	10786
913.09	10714
913.204	10820
913.318	10843
913.431	11014
913.545	10938
913.659	10987
913.772	10934
913.886	10694
914	10782
914.113	10782
914.226	10873
914.34	10797
914.453	10782
914.566	10828
914.68	10622
914.793	10702
914.906	10561
915.019	10462
915.132	10382
915.245	10451
915.358	10481
915.47	10580
915.583	10466
915.696	10462
915.809	10641
915.921	10645
916.034	10516
916.146	10466
916.259	10462
916.371	10527
916.483	10546
916.595	10398
916.708	10485
916.82	10440
916.932	10413
917.044	10462
917.156	10363
917.268	10348
917.38	10379
917.491	10257
917.603	10409
917.715	10398
917.826	10421
917.938	10295
918.049	10215
918.161	10325
918.272	10424
918.384	10497
918.495	10390
918.606	10261
918.717	10177
918.828	10162
918.939	10303
919.05	10097
919.161	10192
919.272	9968
919.383	10078
919.494	10246
919.604	10367
919.715	10166
919.826	10143
919.936	10143
920.047	10341
920.157	10295
920.267	10341
920.378	10242
920.488	10131
920.598	10371
920.708	10523
920.818	10371
920.928	10413
921.038	10565
921.148	10554
921.258	10261
921.368	10143
921.477	10006
921.587	10048
921.697	9941
921.806	10101
921.916	9922
922.025	9850
922.134	9774
922.244	9713
922.353	9812
922.462	9682
922.571	9614
922.68	9526
922.789	9500
922.898	9447
923.007	9523
923.116	9504
923.224	9492
923.333	9500
923.442	9408
923.55	9344
923.659	9367
923.767	9420
923.876	9363
923.984	9317
924.092	9249
924.201	9382
924.309	9302
924.417	9268
924.525	9256
924.633	9302
924.741	10055
924.849	9043
924.956	9256
925.064	9165
925.172	9108
925.279	9097
925.387	9100
925.494	9127
925.602	9230
925.709	9207
925.816	9131
925.924	9188
926.031	9135
926.138	9104
926.245	9207
926.352	9108
926.459	9214
926.566	9184
926.673	9024
926.779	8967
926.886	8994
926.993	8891
927.099	8826
927.206	8796
927.312	8842
927.419	8861
927.525	8796
927.631	8891
927.737	8819
927.843	8686
927.95	8689
928.056	8674
928.162	8746
928.267	8766
928.373	9443
928.479	8887
928.585	8590
928.69	8716
928.796	8785
928.901	8663
929.007	8541
929.112	8659
929.218	8655
929.323	8575
929.428	8598
929.533	8682
929.638	8556
929.743	8533
929.848	8587
929.953	8579
930.058	8431
930.163	8339
930.267	8324
930.372	8522
930.477	8301
930.581	8564
930.685	8419
930.79	8279
930.894	8336
930.998	8294
931.103	8431
931.207	8145
931.311	7982
931.415	7928
931.519	7814
931.623	7811
