Data from test_V78500241_3685.txt Node
Date: Fri Mar 25 14:59:22 CST 2022
User: usil
Spectrometer: V785-0024
Trigger mode: 0
Integration Time (sec): 4.000000E-1
Scans to average: 1
Nonlinearity correction enabled: false
Boxcar width: 0
Storing dark spectrum: false
XAxis mode: Wavelengths
Number of Pixels in Spectrum: 1024
>>>>>Begin Spectral Data<<<<<
801.071	21934
801.214	21785
801.356	21538
801.499	21488
801.641	21317
801.783	21397
801.926	21272
802.068	21184
802.211	21096
802.353	21058
802.496	20804
802.638	20765
802.78	20682
802.923	20720
803.065	20579
803.208	20503
803.35	20746
803.492	20800
803.635	20663
803.777	20617
803.919	20720
804.061	21009
804.204	20769
804.346	20476
804.488	20507
804.63	20556
804.773	20495
804.915	20492
805.057	20686
805.199	20427
805.341	20454
805.483	20594
805.626	20564
805.768	20465
805.91	20609
806.052	20629
806.194	20404
806.336	20670
806.478	20412
806.62	20400
806.762	20583
806.904	20716
807.046	21001
807.188	20842
807.33	20804
807.472	20868
807.614	20712
807.756	20735
807.898	20659
808.04	20575
808.182	20568
808.324	20590
808.465	20533
808.607	20682
808.749	20971
808.891	20933
809.033	20967
809.174	20994
809.316	20880
809.458	20933
809.6	20804
809.741	20811
809.883	20883
810.025	20937
810.166	20960
810.308	20979
810.45	21020
810.591	20845
810.733	20765
810.875	20705
811.016	20545
811.158	20488
811.299	20792
811.441	20651
811.582	20750
811.724	20514
811.865	20499
812.007	20560
812.148	20686
812.29	20712
812.431	20861
812.573	20883
812.714	20979
812.855	21070
812.997	21260
813.138	21363
813.279	21397
813.421	21104
813.562	21058
813.703	20895
813.845	20838
813.986	20602
814.127	20317
814.268	20237
814.41	20305
814.551	20134
814.692	20221
814.833	20039
814.974	20024
815.115	20187
815.256	19940
815.397	19963
815.539	19955
815.68	19864
815.821	19902
815.962	19936
816.103	19757
816.244	19715
816.385	19590
816.526	19674
816.666	19506
816.807	19403
816.948	19396
817.089	19377
817.23	19392
817.371	19293
817.512	19358
817.653	19289
817.793	19236
817.934	19209
818.075	19278
818.216	19301
818.356	19278
818.497	19107
818.638	18954
818.778	18962
818.919	19000
819.06	19114
819.2	19179
819.341	19114
819.481	19213
819.622	19274
819.762	19464
819.903	19297
820.043	19396
820.184	19365
820.324	19247
820.465	19327
820.605	19278
820.746	19324
820.886	19084
821.026	19316
821.167	19278
821.307	19270
821.447	19278
821.588	19095
821.728	19107
821.868	18852
822.008	18623
822.149	18722
822.289	18669
822.429	18395
822.569	18399
822.709	18433
822.849	18167
822.99	18144
823.13	18167
823.27	18140
823.41	18011
823.55	17988
823.69	17961
823.83	18117
823.97	17927
824.11	17764
824.25	17680
824.389	17668
824.529	17863
824.669	17672
824.809	17786
824.949	17809
825.089	17748
825.228	17741
825.368	17566
825.508	17501
825.648	17570
825.787	17547
825.927	17676
826.067	17478
826.206	17444
826.346	17589
826.485	17474
826.625	17497
826.765	17611
826.904	17608
827.044	17303
827.183	17356
827.323	17181
827.462	17383
827.601	17280
827.741	17189
827.88	17162
828.02	17159
828.159	17193
828.298	17239
828.437	17353
828.577	17181
828.716	17299
828.855	17189
828.994	16942
829.134	17071
829.273	16976
829.412	16934
829.551	16843
829.69	16934
829.829	16904
829.968	17189
830.107	17041
830.246	16976
830.385	16987
830.524	16991
830.663	16793
830.802	16729
830.941	16626
831.08	16675
831.219	16744
831.357	16729
831.496	16816
831.635	16626
831.774	16497
831.913	16485
832.051	16436
832.19	16367
832.329	16447
832.467	16303
832.606	16325
832.744	16238
832.883	16344
833.022	16192
833.16	16325
833.299	16303
833.437	16363
833.576	16367
833.714	16268
833.852	16382
833.991	16337
834.129	16440
834.267	16394
834.406	16375
834.544	16386
834.682	16504
834.821	16428
834.959	16538
835.097	16337
835.235	16462
835.373	16466
835.511	16394
835.65	16398
835.788	16310
835.926	16169
836.064	16124
836.202	16131
836.34	16280
836.478	16413
836.615	16234
836.753	16348
836.891	16459
837.029	16344
837.167	16284
837.305	16276
837.443	16188
837.58	16097
837.718	16295
837.856	16188
837.993	16181
838.131	16207
838.269	16188
838.406	16124
838.544	16093
838.681	15854
838.819	15808
838.956	15660
839.094	15751
839.231	15835
839.369	15880
839.506	16078
839.643	16013
839.781	15781
839.918	15709
840.055	15778
840.193	15675
840.33	15686
840.467	15732
840.604	15793
840.742	15956
840.879	15637
841.016	15641
841.153	15572
841.29	15827
841.427	15736
841.564	15739
841.701	15770
841.838	15682
841.975	15526
842.112	15671
842.249	15500
842.385	15458
842.522	15770
842.659	15534
842.796	15511
842.933	15485
843.069	15473
843.206	15488
843.343	15622
843.479	15481
843.616	15485
843.752	15340
843.889	15348
844.025	15477
844.162	15252
844.298	15469
844.435	15321
844.571	15283
844.708	15386
844.844	15416
844.98	15401
845.117	15401
845.253	15332
845.389	15188
845.525	15275
845.661	15161
845.798	15085
845.934	15214
846.07	15142
846.206	15104
846.342	15176
846.478	15081
846.614	14948
846.75	14857
846.886	14826
847.022	15039
847.158	14876
847.294	14788
847.429	14883
847.565	14883
847.701	15074
847.837	14583
847.972	14644
848.108	14807
848.244	14708
848.379	14533
848.515	14518
848.65	14503
848.786	14514
848.921	14518
849.057	14632
849.192	14560
849.328	14446
849.463	14492
849.598	14473
849.734	14366
849.869	14313
850.004	14301
850.14	14298
850.275	14278
850.41	14157
850.545	14176
850.68	14275
850.815	14298
850.95	14233
851.085	14347
851.22	14347
851.355	14267
851.49	14107
851.625	14294
851.76	14103
851.895	14126
852.03	14187
852.165	14202
852.299	14286
852.434	14278
852.569	14282
852.703	14324
852.838	14278
852.973	14393
853.107	14332
853.242	14237
853.376	14107
853.511	13936
853.645	14077
853.78	14252
853.914	14035
854.048	14119
854.183	14005
854.317	14214
854.451	14317
854.585	14237
854.72	14050
854.854	14233
854.988	14084
855.122	14100
855.256	14024
855.39	14138
855.524	14199
855.658	14119
855.792	14123
855.926	14157
856.06	14202
856.194	14206
856.327	14054
856.461	13978
856.595	13974
856.729	14020
856.862	14202
856.996	14103
857.13	14218
857.263	14237
857.397	14149
857.53	14138
857.664	14168
857.797	14164
857.931	14206
858.064	14119
858.197	14161
858.331	14107
858.464	14111
858.597	14058
858.731	14119
858.864	14100
858.997	14126
859.13	14153
859.263	14130
859.396	14248
859.529	14092
859.662	14142
859.795	14134
859.928	14092
860.061	14202
860.194	14259
860.327	14103
860.46	14126
860.592	14161
860.725	14233
860.858	14244
860.99	14168
861.123	14157
861.256	14183
861.388	14149
861.521	14777
861.653	14031
861.786	13909
861.918	13993
862.05	14005
862.183	14100
862.315	14149
862.447	14157
862.58	14069
862.712	13925
862.844	13887
862.976	13864
863.108	13909
863.24	14381
863.372	13830
863.504	13932
863.636	13967
863.768	13902
863.9	13963
864.032	13860
864.164	13860
864.296	13928
864.428	13944
864.559	13989
864.691	14043
864.823	13936
864.954	14073
865.086	13970
865.217	13830
865.349	13776
865.48	13822
865.612	13875
865.743	14043
865.875	13894
866.006	13970
866.137	13791
866.269	13917
866.4	13841
866.531	13883
866.662	13750
866.793	13875
866.924	13841
867.055	13883
867.186	13814
867.317	13852
867.448	13780
867.579	13826
867.71	13837
867.841	13753
867.972	13883
868.103	13890
868.233	13890
868.364	13967
868.495	13906
868.625	14088
868.756	14176
868.886	14039
869.017	14065
869.147	14282
869.278	14199
869.408	14206
869.539	14195
869.669	14240
869.799	14084
869.929	14271
870.06	14195
870.19	14450
870.32	14381
870.45	14545
870.58	14610
870.71	14682
870.84	14629
870.97	14492
871.1	14541
871.23	14670
871.36	14720
871.489	14590
871.619	14670
871.749	14731
871.879	14720
872.008	14845
872.138	14720
872.267	14705
872.397	14610
872.526	14644
872.656	14575
872.785	14629
872.915	14807
873.044	14914
873.173	14861
873.303	14853
873.432	14838
873.561	14883
873.69	14800
873.819	14815
873.948	14857
874.077	14765
874.206	14807
874.335	14811
874.464	14914
874.593	15089
874.722	15032
874.851	15169
874.979	15108
875.108	15138
875.237	15108
875.365	15009
875.494	15062
875.623	15203
875.751	15066
875.88	15184
876.008	15313
876.136	15435
876.265	15469
876.393	15690
876.521	15603
876.65	15561
876.778	15610
876.906	15519
877.034	15473
877.162	15492
877.29	15553
877.418	15496
877.546	15450
877.674	15507
877.802	15428
877.93	15519
878.058	15496
878.185	15401
878.313	15519
878.441	15507
878.568	15420
878.696	15450
878.824	15606
878.951	15564
879.079	15709
879.206	15789
879.333	15698
879.461	15568
879.588	15625
879.715	15682
879.842	15778
879.97	15591
880.097	15477
880.224	15488
880.351	15348
880.478	15386
880.605	15313
880.732	15325
880.859	15720
880.986	15481
881.112	15424
881.239	15272
881.366	15241
881.493	15146
881.619	15089
881.746	15047
881.872	15066
881.999	15017
882.125	14982
882.252	15058
882.378	14990
882.505	15272
882.631	14941
882.757	14773
882.883	14937
883.01	14906
883.136	14781
883.262	14678
883.388	14674
883.514	14891
883.64	14876
883.766	14746
883.892	14708
884.018	14746
884.143	14845
884.269	14937
884.395	14610
884.52	14499
884.646	14526
884.772	14545
884.897	14537
885.023	14571
885.148	14670
885.274	14686
885.399	14701
885.524	14541
885.65	14594
885.775	14648
885.9	14606
886.025	14640
886.15	14617
886.275	14533
886.4	14438
886.525	14473
886.65	14480
886.775	14552
886.9	14682
887.025	14807
887.149	14533
887.274	14393
887.399	14412
887.523	14404
887.648	14294
887.773	14336
887.897	14465
888.021	14389
888.146	14317
888.27	14514
888.395	14503
888.519	14503
888.643	14454
888.767	14339
888.891	14355
889.015	14172
889.139	14275
889.263	14206
889.387	14320
889.511	14415
889.635	14400
889.759	14240
889.883	14218
890.006	14233
890.13	14400
890.254	14195
890.377	14237
890.501	14046
890.624	14073
890.748	14168
890.871	14024
890.995	13947
891.118	13791
891.241	13951
891.364	13986
891.488	14081
891.611	13963
891.734	14027
891.857	14020
891.98	13986
892.103	14039
892.226	14027
892.349	13925
892.471	13822
892.594	13928
892.717	13997
892.839	13963
892.962	13936
893.085	14058
893.207	13967
893.33	13807
893.452	13982
893.575	14062
893.697	13944
893.819	14065
893.941	14221
894.064	14111
894.186	13963
894.308	13879
894.43	14149
894.552	14168
894.674	14062
894.796	14020
894.918	14031
895.04	13875
895.161	14161
895.283	14062
895.405	14031
895.526	14058
895.648	14119
895.769	14058
895.891	14062
896.012	14176
896.134	14233
896.255	14111
896.376	14088
896.498	14096
896.619	14157
896.74	14168
896.861	14180
896.982	14461
897.103	14594
897.224	14442
897.345	14492
897.466	14355
897.587	14362
897.708	14511
897.828	14503
897.949	14427
898.07	14294
898.19	14404
898.311	14503
898.431	14492
898.552	14507
898.672	14564
898.792	14541
898.913	14560
899.033	14469
899.153	14320
899.273	14431
899.393	14301
899.513	14332
899.633	14434
899.753	14336
899.873	14221
899.993	14309
900.113	14317
900.232	14362
900.352	14351
900.472	14206
900.591	14145
900.711	14225
900.83	14161
900.95	14259
901.069	14286
901.189	14157
901.308	13925
901.427	13864
901.546	13883
901.665	13807
901.784	13936
901.904	13795
902.023	13693
902.141	13582
902.26	13430
902.379	13578
902.498	13533
902.617	13453
902.735	13499
902.854	13430
902.973	13339
903.091	13149
903.21	13259
903.328	13206
903.446	13145
903.565	12966
903.683	13034
903.801	12947
903.919	12973
904.038	13015
904.156	12837
904.274	13004
904.392	12954
904.51	12829
904.627	12837
904.745	12856
904.863	12951
904.981	12684
905.098	12570
905.216	12563
905.334	12650
905.451	12544
905.569	12540
905.686	12589
905.803	12570
905.921	12361
906.038	12452
906.155	12407
906.272	12334
906.389	12308
906.506	12163
906.623	12015
906.74	12102
906.857	12045
906.974	12049
907.091	12155
907.208	12292
907.324	12213
907.441	12140
907.557	11965
907.674	11775
907.79	11764
907.907	11821
908.023	11954
908.139	11977
908.256	11828
908.372	11821
908.488	11859
908.604	11688
908.72	11600
908.836	11703
908.952	11543
909.068	11661
909.184	11668
909.3	11608
909.415	11710
909.531	11646
909.647	11395
909.762	11493
909.878	11284
909.993	11353
910.108	11379
910.224	11402
910.339	11395
910.454	11307
910.57	11216
910.685	11162
910.8	11566
910.915	11436
911.03	11250
911.145	11155
911.259	11216
911.374	11140
911.489	10991
911.604	11033
911.718	10889
911.833	10885
911.947	10831
912.062	10683
912.176	10839
912.291	10881
912.405	10862
912.519	11064
912.633	11155
912.748	10949
912.862	10919
912.976	10736
913.09	10668
913.204	10660
913.318	10729
913.431	10862
913.545	10873
913.659	10790
913.772	10793
913.886	10622
914	10565
914.113	10755
914.226	10801
914.34	10683
914.453	10641
914.566	10752
914.68	10596
914.793	10565
914.906	10405
915.019	10299
915.132	10322
915.245	10306
915.358	10405
915.47	10428
915.583	10329
915.696	10474
915.809	10481
915.921	10485
916.034	10402
916.146	10276
916.259	10318
916.371	10504
916.483	10432
916.595	10257
916.708	10341
916.82	10367
916.932	10329
917.044	10325
917.156	10242
917.268	10181
917.38	10284
917.491	10204
917.603	10287
917.715	10310
917.826	10337
917.938	10227
918.049	10063
918.161	10192
918.272	10318
918.384	10356
918.495	10268
918.606	10124
918.717	10059
918.828	10105
918.939	10135
919.05	10078
919.161	10082
919.272	9888
919.383	9949
919.494	10192
919.604	10295
919.715	10223
919.826	10059
919.936	10162
920.047	10158
920.157	10078
920.267	10341
920.378	10219
920.488	10097
920.598	10337
920.708	10485
920.818	10325
920.928	10310
921.038	10523
921.148	10459
921.258	10204
921.368	10086
921.477	10025
921.587	9918
921.697	9869
921.806	9960
921.916	9888
922.025	9755
922.134	9698
922.244	9625
922.353	9740
922.462	9584
922.571	9542
922.68	9393
922.789	9317
922.898	9447
923.007	9302
923.116	9389
923.224	9329
923.333	9348
923.442	9253
923.55	9214
923.659	9279
923.767	9340
923.876	9283
923.984	9298
924.092	9188
924.201	9195
924.309	9260
924.417	9317
924.525	9211
924.633	9192
924.741	9979
924.849	8998
924.956	9173
925.064	9047
925.172	8941
925.279	9017
925.387	9039
925.494	9005
925.602	9157
925.709	9127
925.816	8986
925.924	9097
926.031	9192
926.138	9055
926.245	9036
926.352	8971
926.459	9135
926.566	9199
926.673	8952
926.779	8876
926.886	8826
926.993	8811
927.099	8674
927.206	8686
927.312	8670
927.419	8834
927.525	8739
927.631	8807
927.737	8648
927.843	8693
927.95	8583
928.056	8689
928.162	8644
928.267	8750
928.373	9222
928.479	8716
928.585	8442
928.69	8663
928.796	8659
928.901	8590
929.007	8465
929.112	8625
929.218	8541
929.323	8454
929.428	8415
929.533	8610
929.638	8461
929.743	8526
929.848	8518
929.953	8454
930.058	8374
930.163	8206
930.267	8271
930.372	8400
930.477	8180
930.581	8476
930.685	8381
930.79	8153
930.894	8229
930.998	8145
931.103	8324
931.207	7955
931.311	7860
931.415	7860
931.519	7727
931.623	7685
