Data from test_V78500241_2606.txt Node
Date: Fri Mar 25 14:51:51 CST 2022
User: usil
Spectrometer: V785-0024
Trigger mode: 0
Integration Time (sec): 4.000000E-1
Scans to average: 1
Nonlinearity correction enabled: false
Boxcar width: 0
Storing dark spectrum: false
XAxis mode: Wavelengths
Number of Pixels in Spectrum: 1024
>>>>>Begin Spectral Data<<<<<
801.071	22013
801.214	21857
801.356	21610
801.499	21587
801.641	21469
801.783	21496
801.926	21466
802.068	21340
802.211	21306
802.353	21119
802.496	21017
802.638	20785
802.78	20788
802.923	20678
803.065	20712
803.208	20689
803.35	20720
803.492	20811
803.635	20830
803.777	20724
803.919	20864
804.061	20937
804.204	20845
804.346	20594
804.488	20613
804.63	20705
804.773	20560
804.915	20583
805.057	20750
805.199	20594
805.341	20724
805.483	20823
805.626	20731
805.768	20655
805.91	20621
806.052	20594
806.194	20423
806.336	20834
806.478	20606
806.62	20533
806.762	20632
806.904	20762
807.046	20998
807.188	20914
807.33	20925
807.472	21028
807.614	20781
807.756	20891
807.898	20834
808.04	20663
808.182	20693
808.324	20537
808.465	20769
808.607	20910
808.749	20994
808.891	21093
809.033	21211
809.174	21241
809.316	21001
809.458	21001
809.6	20925
809.741	21096
809.883	21165
810.025	21222
810.166	21161
810.308	21222
810.45	21062
810.591	20941
810.733	20883
810.875	20773
811.016	20686
811.158	20556
811.299	20857
811.441	20895
811.582	20910
811.724	20720
811.865	20731
812.007	20819
812.148	20705
812.29	20724
812.431	20899
812.573	21127
812.714	21226
812.855	21351
812.997	21405
813.138	21553
813.279	21325
813.421	21176
813.562	21146
813.703	20967
813.845	20918
813.986	20651
814.127	20434
814.268	20275
814.41	20355
814.551	20278
814.692	20286
814.833	20259
814.974	20240
815.115	20244
815.256	20221
815.397	20119
815.539	19997
815.68	20031
815.821	20073
815.962	20096
816.103	20039
816.244	19818
816.385	19864
816.526	19799
816.666	19487
816.807	19411
816.948	19521
817.089	19445
817.23	19632
817.371	19457
817.512	19533
817.653	19495
817.793	19331
817.934	19453
818.075	19457
818.216	19419
818.356	19499
818.497	19301
818.638	19156
818.778	19133
818.919	19084
819.06	19263
819.2	19213
819.341	19381
819.481	19388
819.622	19483
819.762	19700
819.903	19605
820.043	19480
820.184	19407
820.324	19537
820.465	19552
820.605	19407
820.746	19187
820.886	19194
821.026	19369
821.167	19362
821.307	19506
821.447	19407
821.588	19213
821.728	19122
821.868	19042
822.008	18886
822.149	18700
822.289	18764
822.429	18555
822.569	18528
822.709	18506
822.849	18243
822.99	18235
823.13	18251
823.27	18296
823.41	18049
823.55	18136
823.69	18194
823.83	18064
823.97	18041
824.11	17939
824.25	17832
824.389	17851
824.529	18022
824.669	17832
824.809	18026
824.949	17874
825.089	18011
825.228	17897
825.368	17661
825.508	17745
825.648	17809
825.787	17695
825.927	17745
826.067	17615
826.206	17581
826.346	17707
826.485	17726
826.625	17684
826.765	17741
826.904	17748
827.044	17417
827.183	17433
827.323	17349
827.462	17356
827.601	17406
827.741	17315
827.88	17345
828.02	17318
828.159	17307
828.298	17410
828.437	17414
828.577	17280
828.716	17509
828.855	17254
828.994	17265
829.134	17140
829.273	17094
829.412	17048
829.551	17010
829.69	17216
829.829	17170
829.968	17299
830.107	17143
830.246	17189
830.385	17048
830.524	17060
830.663	16984
830.802	16904
830.941	16740
831.08	16679
831.219	16763
831.357	16816
831.496	16995
831.635	16683
831.774	16812
831.913	16675
832.051	16546
832.19	16592
832.329	16577
832.467	16504
832.606	16481
832.744	16394
832.883	16481
833.022	16371
833.16	16481
833.299	16443
833.437	16394
833.576	16459
833.714	16462
833.852	16615
833.991	16558
834.129	16599
834.267	16497
834.406	16531
834.544	16561
834.682	16481
834.821	16546
834.959	16778
835.097	16413
835.235	16592
835.373	16558
835.511	16417
835.65	16497
835.788	16382
835.926	16287
836.064	16219
836.202	16211
836.34	16413
836.478	16481
836.615	16299
836.753	16504
836.891	16478
837.029	16474
837.167	16375
837.305	16246
837.443	16280
837.58	16337
837.718	16348
837.856	16344
837.993	16181
838.131	16344
838.269	16238
838.406	16268
838.544	16268
838.681	16131
838.819	15975
838.956	15819
839.094	15846
839.231	15857
839.369	15972
839.506	16188
839.643	16105
839.781	15892
839.918	15861
840.055	15880
840.193	15895
840.33	15827
840.467	15895
840.604	15945
840.742	16120
840.879	15720
841.016	15755
841.153	15690
841.29	15968
841.427	15823
841.564	15816
841.701	15808
841.838	15800
841.975	15751
842.112	15797
842.249	15686
842.385	15564
842.522	15808
842.659	15770
842.796	15690
842.933	15618
843.069	15534
843.206	15553
843.343	15827
843.479	15800
843.616	15679
843.752	15481
843.889	15401
844.025	15549
844.162	15458
844.298	15504
844.435	15386
844.571	15401
844.708	15462
844.844	15637
844.98	15545
845.117	15469
845.253	15378
845.389	15260
845.525	15382
845.661	15378
845.798	15195
845.934	15218
846.07	15161
846.206	15237
846.342	15344
846.478	15207
846.614	15047
846.75	15013
846.886	14971
847.022	15123
847.158	14998
847.294	15074
847.429	15001
847.565	14941
847.701	15123
847.837	14754
847.972	14788
848.108	14876
848.244	14800
848.379	14602
848.515	14689
848.65	14556
848.786	14613
848.921	14511
849.057	14777
849.192	14697
849.328	14606
849.463	14575
849.598	14473
849.734	14530
849.869	14476
850.004	14423
850.14	14385
850.275	14396
850.41	14298
850.545	14339
850.68	14317
850.815	14332
850.95	14377
851.085	14545
851.22	14503
851.355	14469
851.49	14294
851.625	14355
851.76	14317
851.895	14161
852.03	14202
852.165	14431
852.299	14370
852.434	14427
852.569	14419
852.703	14385
852.838	14415
852.973	14541
853.107	14549
853.242	14332
853.376	14221
853.511	14043
853.645	14176
853.78	14256
853.914	14191
854.048	14225
854.183	14172
854.317	14210
854.451	14351
854.585	14244
854.72	14176
854.854	14256
854.988	14149
855.122	14202
855.256	14092
855.39	14267
855.524	14229
855.658	14244
855.792	14263
855.926	14377
856.06	14298
856.194	14271
856.327	14237
856.461	14168
856.595	14214
856.729	14199
856.862	14267
856.996	14290
857.13	14282
857.263	14339
857.397	14309
857.53	14256
857.664	14351
857.797	14377
857.931	14282
858.064	14324
858.197	14324
858.331	14278
858.464	14282
858.597	14107
858.731	14202
858.864	14229
858.997	14237
859.13	14309
859.263	14313
859.396	14275
859.529	14168
859.662	14138
859.795	14282
859.928	14142
860.061	14396
860.194	14434
860.327	14225
860.46	14199
860.592	14301
860.725	14347
860.858	14305
860.99	14183
861.123	14187
861.256	14237
861.388	14271
861.521	14773
861.653	14081
861.786	14062
861.918	14039
862.05	14161
862.183	14206
862.315	14084
862.447	14259
862.58	14168
862.712	14081
862.844	14005
862.976	14092
863.108	14084
863.24	14465
863.372	13868
863.504	13902
863.636	14027
863.768	14100
863.9	14016
864.032	13898
864.164	13917
864.296	14012
864.428	14134
864.559	14058
864.691	14073
864.823	14077
864.954	13993
865.086	14107
865.217	14031
865.349	14065
865.48	13982
865.612	13982
865.743	14084
865.875	13955
866.006	13947
866.137	14024
866.269	14031
866.4	14008
866.531	13978
866.662	13947
866.793	13894
866.924	13989
867.055	13967
867.186	13955
867.317	13940
867.448	13841
867.579	13932
867.71	13811
867.841	14008
867.972	13947
868.103	14039
868.233	14065
868.364	14027
868.495	14138
868.625	14237
868.756	14301
868.886	14214
869.017	14271
869.147	14278
869.278	14290
869.408	14206
869.539	14313
869.669	14275
869.799	14301
869.929	14294
870.06	14366
870.19	14594
870.32	14495
870.45	14530
870.58	14629
870.71	14769
870.84	14781
870.97	14705
871.1	14644
871.23	14849
871.36	14941
871.489	14682
871.619	14735
871.749	14807
871.879	14929
872.008	14925
872.138	14872
872.267	14834
872.397	14705
872.526	14629
872.656	14651
872.785	14640
872.915	14895
873.044	15020
873.173	14883
873.303	14914
873.432	14967
873.561	15055
873.69	14872
873.819	14811
873.948	15039
874.077	14845
874.206	14914
874.335	14910
874.464	15119
874.593	15127
874.722	15138
874.851	15241
874.979	15184
875.108	15176
875.237	15135
875.365	15070
875.494	15142
875.623	15264
875.751	15146
875.88	15192
876.008	15374
876.136	15488
876.265	15732
876.393	15831
876.521	15728
876.65	15610
876.778	15610
876.906	15610
877.034	15511
877.162	15652
877.29	15515
877.418	15610
877.546	15724
877.674	15606
877.802	15705
877.93	15648
878.058	15580
878.185	15538
878.313	15644
878.441	15580
878.568	15462
878.696	15580
878.824	15663
878.951	15739
879.079	15789
879.206	16067
879.333	15835
879.461	15618
879.588	15705
879.715	15759
879.842	15899
879.97	15705
880.097	15542
880.224	15511
880.351	15534
880.478	15561
880.605	15420
880.732	15492
880.859	15724
880.986	15553
881.112	15568
881.239	15511
881.366	15268
881.493	15211
881.619	15173
881.746	15119
881.872	15203
881.999	15135
882.125	15180
882.252	15291
882.378	15146
882.505	15351
882.631	15074
882.757	14986
882.883	15017
883.01	14990
883.136	14948
883.262	14914
883.388	14899
883.514	14921
883.64	15066
883.766	14967
883.892	14842
884.018	14830
884.143	14963
884.269	14941
884.395	14743
884.52	14644
884.646	14724
884.772	14636
884.897	14651
885.023	14689
885.148	14762
885.274	14811
885.399	14868
885.524	14705
885.65	14743
885.775	14754
885.9	14769
886.025	14788
886.15	14743
886.275	14568
886.4	14625
886.525	14739
886.65	14598
886.775	14590
886.9	14788
887.025	14861
887.149	14663
887.274	14473
887.399	14522
887.523	14419
887.648	14461
887.773	14492
887.897	14606
888.021	14530
888.146	14457
888.27	14613
888.395	14621
888.519	14473
888.643	14587
888.767	14530
888.891	14450
889.015	14446
889.139	14366
889.263	14393
889.387	14499
889.511	14530
889.635	14560
889.759	14385
889.883	14275
890.006	14442
890.13	14526
890.254	14377
890.377	14374
890.501	14145
890.624	14164
890.748	14142
890.871	14077
890.995	14065
891.118	14001
891.241	14111
891.364	14134
891.488	14195
891.611	14069
891.734	14020
891.857	14126
891.98	14073
892.103	14248
892.226	14130
892.349	14050
892.471	13921
892.594	14046
892.717	14164
892.839	14046
892.962	14149
893.085	14180
893.207	14062
893.33	13997
893.452	13997
893.575	14130
893.697	14050
893.819	14290
893.941	14267
894.064	14275
894.186	14149
894.308	14031
894.43	14142
894.552	14229
894.674	14240
894.796	14016
894.918	14138
895.04	14077
895.161	14214
895.283	14157
895.405	14149
895.526	14138
895.648	14229
895.769	14214
895.891	14206
896.012	14294
896.134	14320
896.255	14214
896.376	14313
896.498	14225
896.619	14309
896.74	14199
896.861	14358
896.982	14648
897.103	14731
897.224	14503
897.345	14465
897.466	14431
897.587	14602
897.708	14629
897.828	14678
897.949	14492
898.07	14294
898.19	14457
898.311	14701
898.431	14511
898.552	14514
898.672	14705
898.792	14708
898.913	14670
899.033	14507
899.153	14495
899.273	14423
899.393	14404
899.513	14442
899.633	14358
899.753	14408
899.873	14355
899.993	14533
900.113	14446
900.232	14473
900.352	14415
900.472	14339
900.591	14218
900.711	14377
900.83	14252
900.95	14370
901.069	14427
901.189	14298
901.308	14088
901.427	13890
901.546	13982
901.665	13951
901.784	13986
901.904	13864
902.023	13811
902.141	13670
902.26	13616
902.379	13636
902.498	13510
902.617	13518
902.735	13597
902.854	13586
902.973	13540
903.091	13225
903.21	13327
903.328	13263
903.446	13225
903.565	13065
903.683	13202
903.801	13103
903.919	13133
904.038	13076
904.156	12928
904.274	12981
904.392	12932
904.51	12935
904.627	12901
904.745	12985
904.863	13107
904.981	12772
905.098	12692
905.216	12612
905.334	12658
905.451	12601
905.569	12578
905.686	12700
905.803	12681
905.921	12426
906.038	12475
906.155	12456
906.272	12342
906.389	12311
906.506	12239
906.623	12239
906.74	12289
906.857	12114
906.974	12235
907.091	12289
907.208	12407
907.324	12330
907.441	12224
907.557	11969
907.674	11980
907.79	11851
907.907	11988
908.023	12026
908.139	11999
908.256	11893
908.372	11927
908.488	11828
908.604	11722
908.72	11752
908.836	11699
908.952	11710
909.068	11703
909.184	11855
909.3	11817
909.415	11828
909.531	11695
909.647	11547
909.762	11486
909.878	11524
909.993	11440
910.108	11535
910.224	11482
910.339	11471
910.454	11410
910.57	11383
910.685	11231
910.8	11596
910.915	11425
911.03	11334
911.145	11231
911.259	11246
911.374	11193
911.489	11174
911.604	11037
911.718	10957
911.833	11006
911.947	10862
912.062	10820
912.176	11010
912.291	10987
912.405	10991
912.519	11105
912.633	11136
912.748	11010
912.862	10980
912.976	10812
913.09	10729
913.204	10831
913.318	10793
913.431	10930
913.545	10919
913.659	10949
913.772	10809
913.886	10748
914	10694
914.113	10831
914.226	10900
914.34	10763
914.453	10714
914.566	10847
914.68	10694
914.793	10634
914.906	10504
915.019	10432
915.132	10390
915.245	10481
915.358	10474
915.47	10474
915.583	10489
915.696	10523
915.809	10698
915.921	10698
916.034	10432
916.146	10474
916.259	10443
916.371	10550
916.483	10508
916.595	10356
916.708	10428
916.82	10379
916.932	10413
917.044	10390
917.156	10462
917.268	10348
917.38	10352
917.491	10303
917.603	10371
917.715	10428
917.826	10394
917.938	10242
918.049	10101
918.161	10341
918.272	10428
918.384	10390
918.495	10299
918.606	10219
918.717	10124
918.828	10261
918.939	10238
919.05	10074
919.161	10169
919.272	9930
919.383	10048
919.494	10280
919.604	10451
919.715	10215
919.826	10086
919.936	10188
920.047	10299
920.157	10207
920.267	10459
920.378	10192
920.488	10223
920.598	10462
920.708	10497
920.818	10440
920.928	10413
921.038	10577
921.148	10558
921.258	10253
921.368	10169
921.477	10101
921.587	10017
921.697	9972
921.806	10059
921.916	9949
922.025	9819
922.134	9698
922.244	9755
922.353	9797
922.462	9690
922.571	9599
922.68	9469
922.789	9481
922.898	9447
923.007	9351
923.116	9466
923.224	9488
923.333	9382
923.442	9332
923.55	9253
923.659	9393
923.767	9389
923.876	9260
923.984	9374
924.092	9260
924.201	9325
924.309	9310
924.417	9374
924.525	9291
924.633	9294
924.741	10090
924.849	9093
924.956	9283
925.064	9077
925.172	9077
925.279	9032
925.387	9055
925.494	9127
925.602	9180
925.709	9142
925.816	9051
925.924	9047
926.031	9207
926.138	9157
926.245	9104
926.352	9005
926.459	9218
926.566	9256
926.673	9089
926.779	8941
926.886	8971
926.993	8845
927.099	8880
927.206	8781
927.312	8815
927.419	8910
927.525	8853
927.631	8842
927.737	8750
927.843	8750
927.95	8640
928.056	8689
928.162	8689
928.267	8826
928.373	9431
928.479	8826
928.585	8606
928.69	8777
928.796	8686
928.901	8632
929.007	8514
929.112	8655
929.218	8568
929.323	8590
929.428	8492
929.533	8731
929.638	8514
929.743	8450
929.848	8564
929.953	8488
930.058	8438
930.163	8309
930.267	8282
930.372	8476
930.477	8233
930.581	8514
930.685	8351
930.79	8225
930.894	8240
930.998	8313
931.103	8454
931.207	8012
931.311	7993
931.415	7913
931.519	7792
931.623	7769
