Data from test_V78500241_2560.txt Node
Date: Fri Mar 25 14:51:32 CST 2022
User: usil
Spectrometer: V785-0024
Trigger mode: 0
Integration Time (sec): 4.000000E-1
Scans to average: 1
Nonlinearity correction enabled: false
Boxcar width: 0
Storing dark spectrum: false
XAxis mode: Wavelengths
Number of Pixels in Spectrum: 1024
>>>>>Begin Spectral Data<<<<<
801.071	21960
801.214	21903
801.356	21622
801.499	21625
801.641	21325
801.783	21405
801.926	21466
802.068	21268
802.211	21340
802.353	21245
802.496	21001
802.638	20952
802.78	20883
802.923	20788
803.065	20651
803.208	20693
803.35	20727
803.492	20796
803.635	20887
803.777	20746
803.919	20800
804.061	21199
804.204	20743
804.346	20807
804.488	20549
804.63	20651
804.773	20522
804.915	20602
805.057	20788
805.199	20659
805.341	20697
805.483	20743
805.626	20853
805.768	20663
805.91	20743
806.052	20674
806.194	20590
806.336	20811
806.478	20644
806.62	20594
806.762	20689
806.904	20880
807.046	21081
807.188	20994
807.33	21001
807.472	21039
807.614	20823
807.756	20796
807.898	20743
808.04	20750
808.182	20693
808.324	20716
808.465	20743
808.607	20937
808.749	21005
808.891	21154
809.033	21161
809.174	21142
809.316	20956
809.458	21009
809.6	21028
809.741	21024
809.883	21089
810.025	21100
810.166	21154
810.308	21066
810.45	20994
810.591	20918
810.733	20906
810.875	20804
811.016	20720
811.158	20613
811.299	20906
811.441	20804
811.582	20773
811.724	20762
811.865	20629
812.007	20705
812.148	20689
812.29	20792
812.431	20960
812.573	21180
812.714	21161
812.855	21233
812.997	21416
813.138	21504
813.279	21378
813.421	21226
813.562	21211
813.703	21039
813.845	20838
813.986	20625
814.127	20438
814.268	20427
814.41	20332
814.551	20324
814.692	20381
814.833	20305
814.974	20324
815.115	20278
815.256	20172
815.397	20214
815.539	20294
815.68	20027
815.821	19936
815.962	19982
816.103	20046
816.244	19890
816.385	19670
816.526	19594
816.666	19712
816.807	19472
816.948	19582
817.089	19632
817.23	19476
817.371	19529
817.512	19441
817.653	19392
817.793	19434
817.934	19434
818.075	19548
818.216	19491
818.356	19339
818.497	19339
818.638	19072
818.778	19118
818.919	19240
819.06	19217
819.2	19206
819.341	19213
819.481	19312
819.622	19407
819.762	19624
819.903	19453
820.043	19426
820.184	19518
820.324	19419
820.465	19403
820.605	19430
820.746	19430
820.886	19217
821.026	19441
821.167	19377
821.307	19419
821.447	19362
821.588	19278
821.728	19057
821.868	19008
822.008	18867
822.149	18856
822.289	18730
822.429	18566
822.569	18559
822.709	18426
822.849	18395
822.99	18285
823.13	18311
823.27	18254
823.41	18011
823.55	18182
823.69	18171
823.83	18152
823.97	18057
824.11	18026
824.25	17992
824.389	17855
824.529	17958
824.669	17901
824.809	18083
824.949	18136
825.089	17904
825.228	17927
825.368	17741
825.508	17752
825.648	17684
825.787	17608
825.927	17638
826.067	17672
826.206	17657
826.346	17775
826.485	17684
826.625	17707
826.765	17745
826.904	17687
827.044	17505
827.183	17417
827.323	17402
827.462	17410
827.601	17440
827.741	17387
827.88	17406
828.02	17269
828.159	17349
828.298	17402
828.437	17417
828.577	17337
828.716	17490
828.855	17311
828.994	17117
829.134	17170
829.273	17223
829.412	17162
829.551	16999
829.69	17090
829.829	17056
829.968	17121
830.107	17075
830.246	17242
830.385	17052
830.524	17014
830.663	16968
830.802	16755
830.941	16782
831.08	16740
831.219	16793
831.357	16748
831.496	16965
831.635	16767
831.774	16615
831.913	16729
832.051	16596
832.19	16531
832.329	16485
832.467	16550
832.606	16348
832.744	16538
832.883	16485
833.022	16432
833.16	16497
833.299	16409
833.437	16523
833.576	16512
833.714	16531
833.852	16432
833.991	16569
834.129	16615
834.267	16588
834.406	16466
834.544	16618
834.682	16436
834.821	16447
834.959	16653
835.097	16516
835.235	16592
835.373	16592
835.511	16565
835.65	16337
835.788	16360
835.926	16211
836.064	16200
836.202	16234
836.34	16382
836.478	16493
836.615	16348
836.753	16421
836.891	16592
837.029	16413
837.167	16371
837.305	16341
837.443	16299
837.58	16238
837.718	16352
837.856	16333
837.993	16200
838.131	16268
838.269	16230
838.406	16341
838.544	16116
838.681	15945
838.819	15972
838.956	15846
839.094	15831
839.231	15968
839.369	16048
839.506	16185
839.643	16082
839.781	15934
839.918	15724
840.055	15876
840.193	15831
840.33	15918
840.467	15861
840.604	15915
840.742	16097
840.879	15720
841.016	15747
841.153	15713
841.29	16055
841.427	15911
841.564	15869
841.701	15800
841.838	15854
841.975	15800
842.112	15720
842.249	15644
842.385	15663
842.522	15846
842.659	15622
842.796	15599
842.933	15629
843.069	15610
843.206	15580
843.343	15648
843.479	15747
843.616	15644
843.752	15473
843.889	15294
844.025	15587
844.162	15405
844.298	15504
844.435	15386
844.571	15420
844.708	15523
844.844	15576
844.98	15542
845.117	15519
845.253	15363
845.389	15355
845.525	15370
845.661	15317
845.798	15112
845.934	15195
846.07	15192
846.206	15241
846.342	15389
846.478	15161
846.614	15051
846.75	14857
846.886	14986
847.022	15070
847.158	14963
847.294	15009
847.429	14918
847.565	14933
847.701	15275
847.837	14735
847.972	14697
848.108	14899
848.244	14857
848.379	14670
848.515	14511
848.65	14541
848.786	14503
848.921	14598
849.057	14739
849.192	14701
849.328	14674
849.463	14701
849.598	14549
849.734	14522
849.869	14533
850.004	14374
850.14	14495
850.275	14393
850.41	14290
850.545	14358
850.68	14339
850.815	14317
850.95	14343
851.085	14541
851.22	14446
851.355	14362
851.49	14396
851.625	14286
851.76	14278
851.895	14282
852.03	14134
852.165	14362
852.299	14412
852.434	14427
852.569	14362
852.703	14248
852.838	14434
852.973	14393
853.107	14419
853.242	14355
853.376	14229
853.511	14096
853.645	14187
853.78	14339
853.914	14305
854.048	14229
854.183	14180
854.317	14252
854.451	14385
854.585	14248
854.72	14180
854.854	14263
854.988	14191
855.122	14126
855.256	14031
855.39	14180
855.524	14309
855.658	14336
855.792	14301
855.926	14317
856.06	14229
856.194	14400
856.327	14210
856.461	14172
856.595	14058
856.729	14225
856.862	14358
856.996	14183
857.13	14252
857.263	14309
857.397	14358
857.53	14183
857.664	14161
857.797	14355
857.931	14347
858.064	14240
858.197	14370
858.331	14176
858.464	14123
858.597	14142
858.731	14221
858.864	14164
858.997	14180
859.13	14221
859.263	14248
859.396	14271
859.529	14168
859.662	14286
859.795	14153
859.928	14278
860.061	14328
860.194	14366
860.327	14263
860.46	14275
860.592	14317
860.725	14377
860.858	14404
860.99	14263
861.123	14115
861.256	14221
861.388	14214
861.521	14899
861.653	14130
861.786	14084
861.918	14088
862.05	14244
862.183	14145
862.315	14195
862.447	14252
862.58	14168
862.712	13944
862.844	13967
862.976	14069
863.108	14058
863.24	14473
863.372	13925
863.504	13944
863.636	14016
863.768	14073
863.9	14035
864.032	13932
864.164	14012
864.296	14050
864.428	14134
864.559	14130
864.691	14043
864.823	14168
864.954	14115
865.086	14168
865.217	13974
865.349	13921
865.48	13925
865.612	14016
865.743	14107
865.875	13925
866.006	13982
866.137	13955
866.269	14005
866.4	13932
866.531	13989
866.662	13932
866.793	14069
866.924	13955
867.055	13940
867.186	13989
867.317	13970
867.448	13932
867.579	14012
867.71	13947
867.841	13898
867.972	13944
868.103	14016
868.233	13993
868.364	14008
868.495	14088
868.625	14313
868.756	14324
868.886	14176
869.017	14164
869.147	14317
869.278	14332
869.408	14286
869.539	14221
869.669	14225
869.799	14271
869.929	14358
870.06	14438
870.19	14518
870.32	14507
870.45	14583
870.58	14674
870.71	14720
870.84	14785
870.97	14712
871.1	14621
871.23	14804
871.36	14842
871.489	14659
871.619	14811
871.749	14845
871.879	14891
872.008	14952
872.138	14819
872.267	14941
872.397	14739
872.526	14712
872.656	14594
872.785	14712
872.915	14826
873.044	14967
873.173	14830
873.303	14944
873.432	14990
873.561	14880
873.69	14918
873.819	14910
873.948	14979
874.077	14838
874.206	14910
874.335	14967
874.464	15070
874.593	15123
874.722	15135
874.851	15249
874.979	15180
875.108	15218
875.237	15199
875.365	15062
875.494	15233
875.623	15287
875.751	15184
875.88	15176
876.008	15359
876.136	15466
876.265	15580
876.393	15774
876.521	15690
876.65	15641
876.778	15686
876.906	15701
877.034	15622
877.162	15595
877.29	15542
877.418	15610
877.546	15644
877.674	15625
877.802	15660
877.93	15698
878.058	15557
878.185	15515
878.313	15580
878.441	15580
878.568	15485
878.696	15492
878.824	15622
878.951	15732
879.079	15694
879.206	16013
879.333	15717
879.461	15671
879.588	15770
879.715	15774
879.842	15842
879.97	15561
880.097	15561
880.224	15412
880.351	15507
880.478	15523
880.605	15447
880.732	15386
880.859	15591
880.986	15511
881.112	15519
881.239	15393
881.366	15332
881.493	15161
881.619	15112
881.746	15161
881.872	15085
881.999	14990
882.125	15161
882.252	15207
882.378	15138
882.505	15283
882.631	15169
882.757	14975
882.883	14979
883.01	14982
883.136	14899
883.262	14834
883.388	14754
883.514	14963
883.64	15074
883.766	14895
883.892	14842
884.018	14708
884.143	14952
884.269	15074
884.395	14724
884.52	14701
884.646	14663
884.772	14590
884.897	14484
885.023	14594
885.148	14815
885.274	14834
885.399	14796
885.524	14644
885.65	14716
885.775	14632
885.9	14724
886.025	14773
886.15	14819
886.275	14663
886.4	14621
886.525	14674
886.65	14632
886.775	14651
886.9	14712
887.025	14842
887.149	14568
887.274	14412
887.399	14412
887.523	14381
887.648	14438
887.773	14454
887.897	14522
888.021	14549
888.146	14385
888.27	14568
888.395	14606
888.519	14640
888.643	14541
888.767	14575
888.891	14366
889.015	14374
889.139	14465
889.263	14248
889.387	14393
889.511	14568
889.635	14415
889.759	14328
889.883	14229
890.006	14393
890.13	14442
890.254	14214
890.377	14214
890.501	14164
890.624	14157
890.748	14199
890.871	14138
890.995	13978
891.118	13856
891.241	14065
891.364	14035
891.488	14123
891.611	14039
891.734	14043
891.857	14065
891.98	14081
892.103	14149
892.226	14123
892.349	14081
892.471	13906
892.594	14020
892.717	13993
892.839	14134
892.962	14050
893.085	14115
893.207	14024
893.33	13986
893.452	14005
893.575	14100
893.697	14016
893.819	14225
893.941	14317
894.064	14210
894.186	14062
894.308	14001
894.43	14164
894.552	14278
894.674	14172
894.796	13913
894.918	14161
895.04	13925
895.161	14210
895.283	14218
895.405	14035
895.526	14221
895.648	14244
895.769	14240
895.891	14259
896.012	14244
896.134	14229
896.255	14229
896.376	14244
896.498	14199
896.619	14332
896.74	14183
896.861	14229
896.982	14530
897.103	14716
897.224	14590
897.345	14476
897.466	14389
897.587	14465
897.708	14545
897.828	14526
897.949	14442
898.07	14427
898.19	14488
898.311	14701
898.431	14598
898.552	14549
898.672	14640
898.792	14621
898.913	14499
899.033	14568
899.153	14377
899.273	14317
899.393	14408
899.513	14454
899.633	14412
899.753	14484
899.873	14351
899.993	14514
900.113	14431
900.232	14396
900.352	14362
900.472	14271
900.591	14305
900.711	14240
900.83	14313
900.95	14431
901.069	14339
901.189	14237
901.308	14126
901.427	13970
901.546	13986
901.665	14016
901.784	14046
901.904	13769
902.023	13757
902.141	13636
902.26	13529
902.379	13605
902.498	13563
902.617	13495
902.735	13556
902.854	13552
902.973	13483
903.091	13289
903.21	13278
903.328	13293
903.446	13225
903.565	13175
903.683	13110
903.801	13088
903.919	13046
904.038	12970
904.156	12935
904.274	13004
904.392	12947
904.51	12962
904.627	12894
904.745	13000
904.863	12943
904.981	12738
905.098	12601
905.216	12623
905.334	12677
905.451	12597
905.569	12570
905.686	12703
905.803	12551
905.921	12372
906.038	12559
906.155	12445
906.272	12300
906.389	12426
906.506	12167
906.623	12243
906.74	12216
906.857	12045
906.974	12175
907.091	12369
907.208	12254
907.324	12270
907.441	12121
907.557	12041
907.674	11935
907.79	11958
907.907	11988
908.023	11927
908.139	12003
908.256	11980
908.372	11851
908.488	11817
908.604	11714
908.72	11714
908.836	11737
908.952	11661
909.068	11813
909.184	11832
909.3	11786
909.415	11771
909.531	11714
909.647	11505
909.762	11509
909.878	11573
909.993	11455
910.108	11421
910.224	11436
910.339	11520
910.454	11372
910.57	11277
910.685	11265
910.8	11623
910.915	11585
911.03	11387
911.145	11250
911.259	11212
911.374	11220
911.489	11197
911.604	11048
911.718	10961
911.833	10923
911.947	10908
912.062	10748
912.176	10915
912.291	10930
912.405	10877
912.519	11159
912.633	11121
912.748	11029
912.862	10938
912.976	10866
913.09	10664
913.204	10801
913.318	10831
913.431	10911
913.545	10889
913.659	10934
913.772	10824
913.886	10736
914	10634
914.113	10873
914.226	10858
914.34	10675
914.453	10626
914.566	10759
914.68	10675
914.793	10596
914.906	10527
915.019	10413
915.132	10314
915.245	10500
915.358	10485
915.47	10462
915.583	10470
915.696	10470
915.809	10588
915.921	10626
916.034	10371
916.146	10375
916.259	10367
916.371	10489
916.483	10455
916.595	10310
916.708	10356
916.82	10402
916.932	10394
917.044	10352
917.156	10329
917.268	10314
917.38	10223
917.491	10253
917.603	10310
917.715	10379
917.826	10379
917.938	10253
918.049	10257
918.161	10318
918.272	10421
918.384	10428
918.495	10318
918.606	10223
918.717	10150
918.828	10215
918.939	10265
919.05	10067
919.161	10173
919.272	9968
919.383	9979
919.494	10234
919.604	10382
919.715	10238
919.826	10074
919.936	10074
920.047	10257
920.157	10200
920.267	10398
920.378	10272
920.488	10230
920.598	10443
920.708	10485
920.818	10367
920.928	10314
921.038	10531
921.148	10519
921.258	10192
921.368	10150
921.477	10040
921.587	10002
921.697	9895
921.806	10025
921.916	9930
922.025	9789
922.134	9705
922.244	9667
922.353	9812
922.462	9682
922.571	9587
922.68	9424
922.789	9473
922.898	9412
923.007	9348
923.116	9466
923.224	9473
923.333	9378
923.442	9294
923.55	9260
923.659	9313
923.767	9370
923.876	9325
923.984	9389
924.092	9249
924.201	9222
924.309	9302
924.417	9329
924.525	9237
924.633	9256
924.741	10090
924.849	9058
924.956	9165
925.064	9093
925.172	9005
925.279	9119
925.387	9089
925.494	9020
925.602	9256
925.709	9127
925.816	9039
925.924	9077
926.031	9233
926.138	9074
926.245	9173
926.352	9001
926.459	9135
926.566	9157
926.673	9024
926.779	8986
926.886	8952
926.993	8864
927.099	8838
927.206	8785
927.312	8750
927.419	8880
927.525	8807
927.631	8830
927.737	8697
927.843	8785
927.95	8606
928.056	8708
928.162	8754
928.267	8727
928.373	9397
928.479	8788
928.585	8522
928.69	8697
928.796	8724
928.901	8674
929.007	8476
929.112	8644
929.218	8507
929.323	8511
929.428	8526
929.533	8663
929.638	8499
929.743	8564
929.848	8636
929.953	8511
930.058	8427
930.163	8366
930.267	8328
930.372	8438
930.477	8252
930.581	8514
930.685	8347
930.79	8225
930.894	8259
930.998	8214
931.103	8374
931.207	8008
931.311	8008
931.415	7845
931.519	7849
931.623	7822
