Data from test_V78500241_2246.txt Node
Date: Fri Mar 25 14:49:21 CST 2022
User: usil
Spectrometer: V785-0024
Trigger mode: 0
Integration Time (sec): 4.000000E-1
Scans to average: 1
Nonlinearity correction enabled: false
Boxcar width: 0
Storing dark spectrum: false
XAxis mode: Wavelengths
Number of Pixels in Spectrum: 1024
>>>>>Begin Spectral Data<<<<<
801.071	22086
801.214	22051
801.356	21884
801.499	21739
801.641	21488
801.783	21625
801.926	21625
802.068	21439
802.211	21408
802.353	21325
802.496	21188
802.638	21112
802.78	21074
802.923	21024
803.065	20830
803.208	20868
803.35	20944
803.492	20876
803.635	21116
803.777	20731
803.919	21036
804.061	21192
804.204	20921
804.346	20883
804.488	20724
804.63	20948
804.773	20705
804.915	20781
805.057	20845
805.199	20773
805.341	20872
805.483	20937
805.626	20777
805.768	20750
805.91	20823
806.052	20838
806.194	20773
806.336	20925
806.478	20746
806.62	20788
806.762	20842
806.904	21001
807.046	21157
807.188	21074
807.33	21203
807.472	21230
807.614	21043
807.756	21020
807.898	20773
808.04	20800
808.182	20845
808.324	20887
808.465	20781
808.607	21131
808.749	21154
808.891	21256
809.033	21306
809.174	21203
809.316	21207
809.458	21306
809.6	21199
809.741	21207
809.883	21146
810.025	21378
810.166	21454
810.308	21306
810.45	21260
810.591	21298
810.733	21142
810.875	21024
811.016	20796
811.158	20914
811.299	20979
811.441	21093
811.582	21096
811.724	20956
811.865	20994
812.007	20868
812.148	20963
812.29	21089
812.431	21142
812.573	21340
812.714	21405
812.855	21443
812.997	21618
813.138	21625
813.279	21599
813.421	21618
813.562	21469
813.703	21359
813.845	21150
813.986	20796
814.127	20678
814.268	20587
814.41	20446
814.551	20499
814.692	20518
814.833	20492
814.974	20552
815.115	20488
815.256	20400
815.397	20324
815.539	20385
815.68	20275
815.821	20252
815.962	20381
816.103	20237
816.244	20138
816.385	20054
816.526	19917
816.666	19670
816.807	19750
816.948	19811
817.089	19765
817.23	19731
817.371	19689
817.512	19506
817.653	19514
817.793	19495
817.934	19571
818.075	19704
818.216	19723
818.356	19533
818.497	19365
818.638	19255
818.778	19289
818.919	19255
819.06	19308
819.2	19377
819.341	19430
819.481	19476
819.622	19677
819.762	19734
819.903	19791
820.043	19723
820.184	19738
820.324	19609
820.465	19674
820.605	19616
820.746	19643
820.886	19407
821.026	19639
821.167	19533
821.307	19666
821.447	19651
821.588	19430
821.728	19289
821.868	19301
822.008	19061
822.149	18981
822.289	19034
822.429	18783
822.569	18677
822.709	18749
822.849	18566
822.99	18521
823.13	18498
823.27	18528
823.41	18266
823.55	18285
823.69	18327
823.83	18319
823.97	18194
824.11	18171
824.25	17996
824.389	18144
824.529	18190
824.669	18121
824.809	18285
824.949	18171
825.089	18098
825.228	18136
825.368	17984
825.508	17863
825.648	17954
825.787	17855
825.927	17942
826.067	17718
826.206	17798
826.346	17885
826.485	17942
826.625	17847
826.765	17843
826.904	17836
827.044	17592
827.183	17619
827.323	17505
827.462	17596
827.601	17547
827.741	17547
827.88	17532
828.02	17436
828.159	17478
828.298	17516
828.437	17687
828.577	17570
828.716	17653
828.855	17482
828.994	17360
829.134	17360
829.273	17250
829.412	17197
829.551	17277
829.69	17242
829.829	17242
829.968	17322
830.107	17356
830.246	17170
830.385	17376
830.524	17265
830.663	17128
830.802	16968
830.941	16904
831.08	16930
831.219	17037
831.357	17037
831.496	17037
831.635	16869
831.774	16759
831.913	16816
832.051	16740
832.19	16649
832.329	16748
832.467	16531
832.606	16672
832.744	16645
832.883	16580
833.022	16569
833.16	16759
833.299	16645
833.437	16702
833.576	16649
833.714	16645
833.852	16748
833.991	16565
834.129	16698
834.267	16706
834.406	16710
834.544	16729
834.682	16626
834.821	16645
834.959	16816
835.097	16592
835.235	16763
835.373	16626
835.511	16683
835.65	16497
835.788	16413
835.926	16394
836.064	16398
836.202	16455
836.34	16493
836.478	16630
836.615	16542
836.753	16592
836.891	16634
837.029	16573
837.167	16527
837.305	16500
837.443	16428
837.58	16402
837.718	16455
837.856	16432
837.993	16363
838.131	16405
838.269	16443
838.406	16310
838.544	16200
838.681	16124
838.819	16128
838.956	15930
839.094	15899
839.231	15979
839.369	16055
839.506	16428
839.643	16143
839.781	16017
839.918	15907
840.055	15903
840.193	15918
840.33	15926
840.467	15945
840.604	15960
840.742	16242
840.879	15831
841.016	15838
841.153	15846
841.29	16017
841.427	15861
841.564	15873
841.701	15960
841.838	15880
841.975	15838
842.112	15781
842.249	15743
842.385	15736
842.522	15892
842.659	15743
842.796	15724
842.933	15698
843.069	15667
843.206	15709
843.343	15835
843.479	15679
843.616	15701
843.752	15477
843.889	15553
844.025	15667
844.162	15310
844.298	15599
844.435	15504
844.571	15428
844.708	15500
844.844	15644
844.98	15633
845.117	15599
845.253	15386
845.389	15370
845.525	15473
845.661	15412
845.798	15321
845.934	15321
846.07	15241
846.206	15310
846.342	15386
846.478	15256
846.614	15001
846.75	15142
846.886	15119
847.022	15116
847.158	15089
847.294	15066
847.429	15051
847.565	15108
847.701	15348
847.837	14811
847.972	14746
848.108	14864
848.244	14956
848.379	14731
848.515	14724
848.65	14648
848.786	14655
848.921	14678
849.057	14811
849.192	14743
849.328	14765
849.463	14708
849.598	14686
849.734	14610
849.869	14549
850.004	14400
850.14	14446
850.275	14427
850.41	14206
850.545	14362
850.68	14377
850.815	14412
850.95	14526
851.085	14640
851.22	14507
851.355	14495
851.49	14473
851.625	14336
851.76	14412
851.895	14320
852.03	14320
852.165	14381
852.299	14377
852.434	14454
852.569	14438
852.703	14499
852.838	14484
852.973	14507
853.107	14507
853.242	14377
853.376	14320
853.511	14214
853.645	14317
853.78	14507
853.914	14309
854.048	14320
854.183	14256
854.317	14309
854.451	14594
854.585	14263
854.72	14298
854.854	14385
854.988	14134
855.122	14282
855.256	14168
855.39	14233
855.524	14313
855.658	14434
855.792	14347
855.926	14290
856.06	14347
856.194	14381
856.327	14278
856.461	14244
856.595	14275
856.729	14351
856.862	14385
856.996	14339
857.13	14343
857.263	14457
857.397	14450
857.53	14339
857.664	14423
857.797	14377
857.931	14389
858.064	14320
858.197	14400
858.331	14161
858.464	14229
858.597	14225
858.731	14286
858.864	14259
858.997	14328
859.13	14301
859.263	14256
859.396	14366
859.529	14317
859.662	14221
859.795	14195
859.928	14366
860.061	14526
860.194	14461
860.327	14374
860.46	14263
860.592	14415
860.725	14419
860.858	14358
860.99	14259
861.123	14305
861.256	14233
861.388	14278
861.521	14864
861.653	14130
861.786	14176
861.918	14157
862.05	14195
862.183	14202
862.315	14351
862.447	14298
862.58	14130
862.712	14111
862.844	13993
862.976	14130
863.108	14130
863.24	14351
863.372	13978
863.504	14012
863.636	14054
863.768	14172
863.9	14054
864.032	14084
864.164	14073
864.296	14157
864.428	14225
864.559	14187
864.691	14305
864.823	14168
864.954	14123
865.086	14103
865.217	14218
865.349	13993
865.48	14142
865.612	14119
865.743	14214
865.875	14115
866.006	13974
866.137	14088
866.269	14054
866.4	14077
866.531	14001
866.662	14039
866.793	14016
866.924	14008
867.055	14031
867.186	14115
867.317	14012
867.448	13913
867.579	13974
867.71	13928
867.841	13955
867.972	14050
868.103	14046
868.233	14073
868.364	14016
868.495	14126
868.625	14278
868.756	14377
868.886	14199
869.017	14199
869.147	14343
869.278	14518
869.408	14256
869.539	14343
869.669	14358
869.799	14366
869.929	14358
870.06	14450
870.19	14625
870.32	14648
870.45	14655
870.58	14663
870.71	14823
870.84	14861
870.97	14781
871.1	14716
871.23	14872
871.36	14925
871.489	14838
871.619	14868
871.749	14876
871.879	14960
872.008	14967
872.138	14891
872.267	14864
872.397	14686
872.526	14758
872.656	14629
872.785	14773
872.915	14864
873.044	15039
873.173	14963
873.303	14956
873.432	14929
873.561	15013
873.69	15047
873.819	15028
873.948	15039
874.077	14986
874.206	14845
874.335	14925
874.464	15165
874.593	15165
874.722	15199
874.851	15351
874.979	15329
875.108	15329
875.237	15226
875.365	15135
875.494	15287
875.623	15344
875.751	15222
875.88	15336
876.008	15496
876.136	15412
876.265	15804
876.393	15895
876.521	15751
876.65	15838
876.778	15660
876.906	15564
877.034	15660
877.162	15667
877.29	15587
877.418	15800
877.546	15637
877.674	15755
877.802	15637
877.93	15660
878.058	15660
878.185	15580
878.313	15614
878.441	15576
878.568	15591
878.696	15587
878.824	15667
878.951	15793
879.079	15808
879.206	15869
879.333	15819
879.461	15800
879.588	15705
879.715	15808
879.842	15975
879.97	15736
880.097	15458
880.224	15515
880.351	15595
880.478	15667
880.605	15576
880.732	15504
880.859	15846
880.986	15644
881.112	15526
881.239	15298
881.366	15275
881.493	15237
881.619	15176
881.746	15195
881.872	15161
881.999	15138
882.125	15131
882.252	15294
882.378	15173
882.505	15249
882.631	15184
882.757	15020
882.883	14982
883.01	14971
883.136	14807
883.262	14872
883.388	14929
883.514	15051
883.64	15058
883.766	14899
883.892	14758
884.018	14906
884.143	14990
884.269	15138
884.395	14701
884.52	14743
884.646	14670
884.772	14762
884.897	14549
885.023	14731
885.148	14792
885.274	14838
885.399	14819
885.524	14682
885.65	14724
885.775	14762
885.9	14739
886.025	14861
886.15	14849
886.275	14712
886.4	14701
886.525	14754
886.65	14587
886.775	14670
886.9	14849
887.025	14868
887.149	14712
887.274	14476
887.399	14552
887.523	14552
887.648	14514
887.773	14457
887.897	14621
888.021	14545
888.146	14480
888.27	14632
888.395	14655
888.519	14689
888.643	14583
888.767	14655
888.891	14488
889.015	14336
889.139	14465
889.263	14400
889.387	14507
889.511	14682
889.635	14450
889.759	14336
889.883	14336
890.006	14427
890.13	14457
890.254	14362
890.377	14305
890.501	14221
890.624	14187
890.748	14256
890.871	14046
890.995	14073
891.118	14054
891.241	14016
891.364	14202
891.488	14187
891.611	14020
891.734	14138
891.857	14157
891.98	14164
892.103	14187
892.226	14172
892.349	14100
892.471	13906
892.594	14096
892.717	14172
892.839	14058
892.962	14065
893.085	14115
893.207	14058
893.33	13871
893.452	14046
893.575	14195
893.697	14092
893.819	14252
893.941	14377
894.064	14233
894.186	14100
894.308	14073
894.43	14313
894.552	14278
894.674	14248
894.796	14084
894.918	14210
895.04	14191
895.161	14180
895.283	14248
895.405	14172
895.526	14183
895.648	14138
895.769	14202
895.891	14317
896.012	14271
896.134	14374
896.255	14267
896.376	14153
896.498	14278
896.619	14377
896.74	14324
896.861	14309
896.982	14678
897.103	14769
897.224	14640
897.345	14518
897.466	14549
897.587	14526
897.708	14625
897.828	14640
897.949	14522
898.07	14526
898.19	14541
898.311	14545
898.431	14579
898.552	14674
898.672	14743
898.792	14743
898.913	14663
899.033	14579
899.153	14503
899.273	14396
899.393	14503
899.513	14503
899.633	14461
899.753	14537
899.873	14450
899.993	14560
900.113	14594
900.232	14602
900.352	14427
900.472	14366
900.591	14381
900.711	14366
900.83	14290
900.95	14385
901.069	14514
901.189	14282
901.308	14088
901.427	13959
901.546	14062
901.665	14005
901.784	14035
901.904	13883
902.023	13860
902.141	13639
902.26	13681
902.379	13681
902.498	13620
902.617	13506
902.735	13689
902.854	13601
902.973	13552
903.091	13392
903.21	13339
903.328	13388
903.446	13285
903.565	13206
903.683	13206
903.801	13152
903.919	13198
904.038	13168
904.156	13126
904.274	13023
904.392	12970
904.51	12981
904.627	12958
904.745	13103
904.863	12913
904.981	12787
905.098	12700
905.216	12646
905.334	12707
905.451	12711
905.569	12631
905.686	12749
905.803	12730
905.921	12494
906.038	12730
906.155	12555
906.272	12380
906.389	12460
906.506	12247
906.623	12281
906.74	12266
906.857	12220
906.974	12201
907.091	12388
907.208	12448
907.324	12437
907.441	12140
907.557	12068
907.674	12072
907.79	11999
907.907	12060
908.023	12095
908.139	12064
908.256	11950
908.372	11920
908.488	11950
908.604	11855
908.72	11794
908.836	11832
908.952	11847
909.068	11752
909.184	11893
909.3	11741
909.415	11923
909.531	11817
909.647	11535
909.762	11668
909.878	11619
909.993	11646
910.108	11589
910.224	11490
910.339	11562
910.454	11444
910.57	11467
910.685	11292
910.8	11691
910.915	11551
911.03	11627
911.145	11265
911.259	11296
911.374	11330
911.489	11140
911.604	11155
911.718	11006
911.833	11098
911.947	10942
912.062	10828
912.176	11067
912.291	10968
912.405	10984
912.519	11201
912.633	11216
912.748	11147
912.862	11029
912.976	10908
913.09	10797
913.204	10873
913.318	10908
913.431	10984
913.545	11022
913.659	11025
913.772	10896
913.886	10862
914	10698
914.113	10938
914.226	10877
914.34	10934
914.453	10714
914.566	10805
914.68	10710
914.793	10752
914.906	10550
915.019	10508
915.132	10428
915.245	10500
915.358	10504
915.47	10535
915.583	10561
915.696	10668
915.809	10698
915.921	10637
916.034	10569
916.146	10508
916.259	10394
916.371	10630
916.483	10588
916.595	10470
916.708	10462
916.82	10474
916.932	10462
917.044	10402
917.156	10360
917.268	10329
917.38	10413
917.491	10291
917.603	10405
917.715	10447
917.826	10493
917.938	10417
918.049	10196
918.161	10303
918.272	10538
918.384	10466
918.495	10382
918.606	10227
918.717	10166
918.828	10295
918.939	10276
919.05	10116
919.161	10185
919.272	10086
919.383	10166
919.494	10299
919.604	10413
919.715	10261
919.826	10143
919.936	10105
920.047	10379
920.157	10299
920.267	10546
920.378	10318
920.488	10246
920.598	10462
920.708	10561
920.818	10436
920.928	10432
921.038	10672
921.148	10641
921.258	10291
921.368	10223
921.477	10112
921.587	10105
921.697	9979
921.806	10181
921.916	10044
922.025	9831
922.134	9819
922.244	9770
922.353	9838
922.462	9709
922.571	9618
922.68	9496
922.789	9500
922.898	9507
923.007	9389
923.116	9507
923.224	9584
923.333	9523
923.442	9408
923.55	9367
923.659	9458
923.767	9428
923.876	9313
923.984	9420
924.092	9325
924.201	9382
924.309	9428
924.417	9340
924.525	9283
924.633	9363
924.741	10348
924.849	9211
924.956	9245
925.064	9150
925.172	9055
925.279	9077
925.387	9112
925.494	9176
925.602	9340
925.709	9237
925.816	9066
925.924	9131
926.031	9173
926.138	9157
926.245	9226
926.352	9081
926.459	9150
926.566	9279
926.673	9154
926.779	9024
926.886	9017
926.993	8902
927.099	8807
927.206	8845
927.312	8804
927.419	8918
927.525	8883
927.631	8937
927.737	8845
927.843	8754
927.95	8640
928.056	8739
928.162	8781
928.267	8887
928.373	9458
928.479	8853
928.585	8644
928.69	8762
928.796	8766
928.901	8613
929.007	8476
929.112	8655
929.218	8739
929.323	8651
929.428	8629
929.533	8750
929.638	8503
929.743	8541
929.848	8625
929.953	8564
930.058	8400
930.163	8358
930.267	8343
930.372	8511
930.477	8355
930.581	8537
930.685	8415
930.79	8374
930.894	8377
930.998	8252
931.103	8419
931.207	8096
931.311	7997
931.415	7909
931.519	7803
931.623	7849
