Data from test_V78500241_3533.txt Node
Date: Fri Mar 25 14:58:19 CST 2022
User: usil
Spectrometer: V785-0024
Trigger mode: 0
Integration Time (sec): 4.000000E-1
Scans to average: 1
Nonlinearity correction enabled: false
Boxcar width: 0
Storing dark spectrum: false
XAxis mode: Wavelengths
Number of Pixels in Spectrum: 1024
>>>>>Begin Spectral Data<<<<<
801.071	21930
801.214	21671
801.356	21583
801.499	21523
801.641	21329
801.783	21321
801.926	21272
802.068	21150
802.211	21135
802.353	21009
802.496	20826
802.638	20842
802.78	20750
802.923	20689
803.065	20442
803.208	20476
803.35	20674
803.492	20765
803.635	20708
803.777	20492
803.919	20667
804.061	20933
804.204	20648
804.346	20564
804.488	20579
804.63	20625
804.773	20541
804.915	20621
805.057	20670
805.199	20431
805.341	20530
805.483	20594
805.626	20503
805.768	20545
805.91	20537
806.052	20648
806.194	20503
806.336	20488
806.478	20427
806.62	20362
806.762	20507
806.904	20781
807.046	20971
807.188	20883
807.33	20746
807.472	20914
807.614	20815
807.756	20792
807.898	20575
808.04	20492
808.182	20556
808.324	20587
808.465	20598
808.607	20739
808.749	20849
808.891	20990
809.033	20944
809.174	20845
809.316	20727
809.458	20895
809.6	20815
809.741	20792
809.883	20895
810.025	21142
810.166	20982
810.308	20979
810.45	21005
810.591	20842
810.733	20811
810.875	20655
811.016	20492
811.158	20507
811.299	20731
811.441	20689
811.582	20746
811.724	20686
811.865	20522
812.007	20606
812.148	20564
812.29	20739
812.431	20819
812.573	20899
812.714	21085
812.855	21146
812.997	21077
813.138	21344
813.279	21329
813.421	21089
813.562	21165
813.703	20842
813.845	20621
813.986	20476
814.127	20301
814.268	20164
814.41	20229
814.551	20176
814.692	20149
814.833	20035
814.974	20145
815.115	20119
815.256	20001
815.397	19963
815.539	20001
815.68	19921
815.821	19742
815.962	20084
816.103	19818
816.244	19769
816.385	19525
816.526	19708
816.666	19540
816.807	19263
816.948	19350
817.089	19415
817.23	19373
817.371	19293
817.512	19236
817.653	19350
817.793	19285
817.934	19369
818.075	19297
818.216	19209
818.356	19232
818.497	19164
818.638	18985
818.778	18970
818.919	18875
819.06	18970
819.2	19042
819.341	19274
819.481	19228
819.622	19327
819.762	19499
819.903	19373
820.043	19289
820.184	19266
820.324	19168
820.465	19289
820.605	19316
820.746	19213
820.886	19126
821.026	19160
821.167	19148
821.307	19244
821.447	19206
821.588	19080
821.728	18977
821.868	18852
822.008	18684
822.149	18635
822.289	18669
822.429	18593
822.569	18330
822.709	18460
822.849	18117
822.99	18197
823.13	18194
823.27	18148
823.41	18034
823.55	17889
823.69	17965
823.83	18022
823.97	17897
824.11	17695
824.25	17775
824.389	17710
824.529	17802
824.669	17748
824.809	17794
824.949	17809
825.089	17748
825.228	17775
825.368	17589
825.508	17486
825.648	17524
825.787	17577
825.927	17539
826.067	17512
826.206	17532
826.346	17592
826.485	17562
826.625	17486
826.765	17532
826.904	17512
827.044	17269
827.183	17311
827.323	17227
827.462	17235
827.601	17307
827.741	17189
827.88	17258
828.02	17178
828.159	17162
828.298	17261
828.437	17292
828.577	17155
828.716	17265
828.855	17162
828.994	17018
829.134	17025
829.273	17056
829.412	17003
829.551	16942
829.69	16919
829.829	17098
829.968	17067
830.107	17140
830.246	17006
830.385	16877
830.524	16835
830.663	16649
830.802	16774
830.941	16611
831.08	16519
831.219	16744
831.357	16710
831.496	16824
831.635	16584
831.774	16489
831.913	16508
832.051	16428
832.19	16306
832.329	16375
832.467	16344
832.606	16261
832.744	16276
832.883	16284
833.022	16249
833.16	16306
833.299	16318
833.437	16325
833.576	16367
833.714	16363
833.852	16417
833.991	16470
834.129	16417
834.267	16386
834.406	16367
834.544	16428
834.682	16402
834.821	16402
834.959	16519
835.097	16360
835.235	16402
835.373	16367
835.511	16436
835.65	16299
835.788	16363
835.926	16105
836.064	16128
836.202	16139
836.34	16291
836.478	16371
836.615	16105
836.753	16291
836.891	16417
837.029	16382
837.167	16249
837.305	16280
837.443	16135
837.58	16166
837.718	16230
837.856	16169
837.993	16120
838.131	16181
838.269	16036
838.406	16067
838.544	16055
838.681	15850
838.819	15854
838.956	15732
839.094	15698
839.231	15816
839.369	15838
839.506	16147
839.643	15998
839.781	15793
839.918	15679
840.055	15759
840.193	15755
840.33	15545
840.467	15747
840.604	15785
840.742	15975
840.879	15618
841.016	15500
841.153	15717
841.29	15835
841.427	15698
841.564	15819
841.701	15709
841.838	15652
841.975	15587
842.112	15679
842.249	15576
842.385	15450
842.522	15652
842.659	15401
842.796	15507
842.933	15580
843.069	15412
843.206	15526
843.343	15549
843.479	15534
843.616	15511
843.752	15363
843.889	15264
844.025	15545
844.162	15332
844.298	15424
844.435	15367
844.571	15233
844.708	15363
844.844	15523
844.98	15443
845.117	15466
845.253	15222
845.389	15119
845.525	15233
845.661	15157
845.798	15051
845.934	15233
846.07	15017
846.206	15146
846.342	15188
846.478	15100
846.614	14880
846.75	14800
846.886	14845
847.022	14895
847.158	14952
847.294	14815
847.429	14963
847.565	14758
847.701	15047
847.837	14571
847.972	14587
848.108	14746
848.244	14686
848.379	14469
848.515	14514
848.65	14438
848.786	14461
848.921	14522
849.057	14602
849.192	14507
849.328	14446
849.463	14457
849.598	14393
849.734	14385
849.869	14290
850.004	14229
850.14	14320
850.275	14267
850.41	14103
850.545	14199
850.68	14202
850.815	14278
850.95	14164
851.085	14343
851.22	14290
851.355	14263
851.49	14221
851.625	14233
851.76	14172
851.895	14073
852.03	14077
852.165	14180
852.299	14195
852.434	14278
852.569	14218
852.703	14275
852.838	14252
852.973	14370
853.107	14412
853.242	14199
853.376	14065
853.511	14096
853.645	14046
853.78	14115
853.914	14202
854.048	14084
854.183	14069
854.317	14161
854.451	14244
854.585	14081
854.72	14115
854.854	14214
854.988	14039
855.122	14050
855.256	13978
855.39	14062
855.524	14138
855.658	14221
855.792	14233
855.926	14191
856.06	14214
856.194	14157
856.327	14187
856.461	14062
856.595	14107
856.729	14039
856.862	14244
856.996	14145
857.13	14237
857.263	14180
857.397	14149
857.53	14088
857.664	14225
857.797	14218
857.931	14256
858.064	14119
858.197	14142
858.331	14126
858.464	13978
858.597	14027
858.731	14027
858.864	13963
858.997	14100
859.13	14100
859.263	14172
859.396	14138
859.529	14054
859.662	14081
859.795	14050
859.928	14058
860.061	14221
860.194	14275
860.327	14187
860.46	14115
860.592	14229
860.725	14259
860.858	14282
860.99	14134
861.123	13986
861.256	14062
861.388	14111
861.521	14849
861.653	14039
861.786	13894
861.918	13947
862.05	14043
862.183	14035
862.315	14058
862.447	14039
862.58	14031
862.712	13947
862.844	13750
862.976	14001
863.108	13986
863.24	14248
863.372	13906
863.504	13928
863.636	13875
863.768	14050
863.9	13894
864.032	13890
864.164	13928
864.296	13921
864.428	13967
864.559	13993
864.691	13951
864.823	13868
864.954	13883
865.086	13913
865.217	13875
865.349	13765
865.48	13883
865.612	13913
865.743	14016
865.875	13944
866.006	13814
866.137	13852
866.269	13811
866.4	13750
866.531	13875
866.662	13784
866.793	13814
866.924	13856
867.055	13788
867.186	13788
867.317	13852
867.448	13833
867.579	13883
867.71	13803
867.841	13860
867.972	13864
868.103	13917
868.233	13906
868.364	13902
868.495	13917
868.625	14081
868.756	14225
868.886	14088
869.017	14111
869.147	14252
869.278	14202
869.408	14176
869.539	14164
869.669	14149
869.799	14210
869.929	14298
870.06	14218
870.19	14522
870.32	14415
870.45	14488
870.58	14511
870.71	14575
870.84	14587
870.97	14518
871.1	14579
871.23	14750
871.36	14670
871.489	14583
871.619	14716
871.749	14705
871.879	14796
872.008	14781
872.138	14807
872.267	14629
872.397	14583
872.526	14571
872.656	14583
872.785	14537
872.915	14807
873.044	14800
873.173	14834
873.303	14731
873.432	14811
873.561	14937
873.69	14785
873.819	14777
873.948	14838
874.077	14853
874.206	14724
874.335	14758
874.464	14876
874.593	15089
874.722	15024
874.851	15089
874.979	15119
875.108	15188
875.237	15036
875.365	15017
875.494	15074
875.623	15154
875.751	15058
875.88	15226
876.008	15256
876.136	15367
876.265	15496
876.393	15694
876.521	15481
876.65	15580
876.778	15641
876.906	15420
877.034	15469
877.162	15504
877.29	15488
877.418	15526
877.546	15553
877.674	15431
877.802	15439
877.93	15549
878.058	15492
878.185	15378
878.313	15488
878.441	15408
878.568	15382
878.696	15424
878.824	15641
878.951	15523
879.079	15762
879.206	15876
879.333	15633
879.461	15618
879.588	15755
879.715	15629
879.842	15838
879.97	15576
880.097	15458
880.224	15378
880.351	15481
880.478	15408
880.605	15355
880.732	15443
880.859	15633
880.986	15329
881.112	15378
881.239	15272
881.366	15252
881.493	15070
881.619	15036
881.746	15043
881.872	15074
881.999	15100
882.125	14990
882.252	15100
882.378	15112
882.505	15199
882.631	14979
882.757	14887
882.883	14861
883.01	14861
883.136	14758
883.262	14629
883.388	14629
883.514	14811
883.64	14864
883.766	14777
883.892	14701
884.018	14659
884.143	14895
884.269	14948
884.395	14663
884.52	14549
884.646	14530
884.772	14518
884.897	14423
885.023	14530
885.148	14492
885.274	14724
885.399	14674
885.524	14541
885.65	14514
885.775	14716
885.9	14590
886.025	14693
886.15	14575
886.275	14560
886.4	14454
886.525	14537
886.65	14495
886.775	14541
886.9	14697
887.025	14765
887.149	14583
887.274	14457
887.399	14351
887.523	14362
887.648	14240
887.773	14218
887.897	14488
888.021	14377
888.146	14438
888.27	14564
888.395	14446
888.519	14450
888.643	14415
888.767	14461
888.891	14275
889.015	14134
889.139	14305
889.263	14214
889.387	14389
889.511	14419
889.635	14393
889.759	14278
889.883	14248
890.006	14240
890.13	14320
890.254	14187
890.377	14263
890.501	14100
890.624	13967
890.748	14103
890.871	13974
890.995	13974
891.118	13811
891.241	13951
891.364	13902
891.488	14092
891.611	13997
891.734	13963
891.857	13989
891.98	13989
892.103	14062
892.226	14088
892.349	13883
892.471	13921
892.594	13826
892.717	13947
892.839	13951
892.962	13928
893.085	14039
893.207	13989
893.33	13788
893.452	13955
893.575	14012
893.697	13879
893.819	14115
893.941	14195
894.064	14172
894.186	13982
894.308	13947
894.43	14092
894.552	14195
894.674	14123
894.796	13959
894.918	13982
895.04	14058
895.161	14096
895.283	14012
895.405	14020
895.526	14073
895.648	14103
895.769	14119
895.891	14168
896.012	14225
896.134	14126
896.255	14153
896.376	14115
896.498	14229
896.619	14130
896.74	14161
896.861	14183
896.982	14461
897.103	14598
897.224	14465
897.345	14324
897.466	14286
897.587	14461
897.708	14568
897.828	14522
897.949	14358
898.07	14290
898.19	14438
898.311	14469
898.431	14438
898.552	14492
898.672	14621
898.792	14511
898.913	14590
899.033	14446
899.153	14332
899.273	14290
899.393	14301
899.513	14366
899.633	14385
899.753	14309
899.873	14301
899.993	14358
900.113	14396
900.232	14434
900.352	14298
900.472	14157
900.591	14199
900.711	14210
900.83	14225
900.95	14237
901.069	14286
901.189	14126
901.308	13925
901.427	13883
901.546	13883
901.665	13879
901.784	13875
901.904	13788
902.023	13712
902.141	13506
902.26	13468
902.379	13575
902.498	13438
902.617	13449
902.735	13529
902.854	13434
902.973	13403
903.091	13141
903.21	13183
903.328	13213
903.446	13031
903.565	12985
903.683	12993
903.801	12943
903.919	13015
904.038	12973
904.156	12875
904.274	12947
904.392	12897
904.51	12802
904.627	12833
904.745	12848
904.863	12916
904.981	12673
905.098	12570
905.216	12486
905.334	12460
905.451	12547
905.569	12464
905.686	12593
905.803	12574
905.921	12414
906.038	12372
906.155	12388
906.272	12266
906.389	12342
906.506	12076
906.623	12239
906.74	12087
906.857	12038
906.974	12060
907.091	12220
907.208	12239
907.324	12091
907.441	12152
907.557	11870
907.674	11912
907.79	11794
907.907	11843
908.023	11946
908.139	11832
908.256	11805
908.372	11745
908.488	11832
908.604	11684
908.72	11623
908.836	11688
908.952	11600
909.068	11657
909.184	11794
909.3	11627
909.415	11665
909.531	11646
909.647	11551
909.762	11353
909.878	11421
909.993	11444
910.108	11406
910.224	11387
910.339	11410
910.454	11280
910.57	11246
910.685	11166
910.8	11471
910.915	11486
911.03	11197
911.145	11071
911.259	11166
911.374	11109
911.489	10995
911.604	11010
911.718	10877
911.833	10911
911.947	10710
912.062	10752
912.176	10839
912.291	10873
912.405	10866
912.519	11079
912.633	11003
912.748	10949
912.862	10805
912.976	10831
913.09	10649
913.204	10656
913.318	10805
913.431	10968
913.545	10782
913.659	10885
913.772	10812
913.886	10626
914	10634
914.113	10767
914.226	10744
914.34	10672
914.453	10622
914.566	10687
914.68	10542
914.793	10580
914.906	10382
915.019	10303
915.132	10306
915.245	10371
915.358	10394
915.47	10451
915.583	10481
915.696	10519
915.809	10531
915.921	10542
916.034	10356
916.146	10314
916.259	10291
916.371	10432
916.483	10413
916.595	10287
916.708	10333
916.82	10287
916.932	10291
917.044	10272
917.156	10344
917.268	10120
917.38	10253
917.491	10109
917.603	10227
917.715	10265
917.826	10356
917.938	10234
918.049	10063
918.161	10291
918.272	10371
918.384	10481
918.495	10261
918.606	10112
918.717	10025
918.828	10074
918.939	10131
919.05	10021
919.161	10109
919.272	9865
919.383	9956
919.494	10181
919.604	10325
919.715	10188
919.826	10086
919.936	10074
920.047	10192
920.157	10150
920.267	10295
920.378	10162
920.488	10150
920.598	10344
920.708	10478
920.818	10360
920.928	10295
921.038	10508
921.148	10459
921.258	10078
921.368	10097
921.477	10006
921.587	9918
921.697	9838
921.806	9983
921.916	9930
922.025	9736
922.134	9690
922.244	9644
922.353	9762
922.462	9599
922.571	9561
922.68	9454
922.789	9435
922.898	9340
923.007	9321
923.116	9443
923.224	9439
923.333	9370
923.442	9283
923.55	9214
923.659	9283
923.767	9370
923.876	9249
923.984	9336
924.092	9127
924.201	9184
924.309	9180
924.417	9226
924.525	9180
924.633	9226
924.741	10010
924.849	9055
924.956	9100
925.064	9013
925.172	8868
925.279	8982
925.387	9066
925.494	9089
925.602	9138
925.709	9097
925.816	8948
925.924	9055
926.031	9184
926.138	9123
926.245	9127
926.352	8982
926.459	9104
926.566	9188
926.673	8963
926.779	8918
926.886	8918
926.993	8796
927.099	8743
927.206	8705
927.312	8689
927.419	8773
927.525	8826
927.631	8830
927.737	8655
927.843	8655
927.95	8587
928.056	8651
928.162	8655
928.267	8743
928.373	9291
928.479	8739
928.585	8526
928.69	8670
928.796	8727
928.901	8541
929.007	8446
929.112	8533
929.218	8530
929.323	8454
929.428	8469
929.533	8606
929.638	8434
929.743	8484
929.848	8522
929.953	8522
930.058	8362
930.163	8206
930.267	8320
930.372	8446
930.477	8275
930.581	8438
930.685	8305
930.79	8248
930.894	8164
930.998	8164
931.103	8313
931.207	7989
931.311	7917
931.415	7784
931.519	7666
931.623	7727
