Data from test_V78500241_3187.txt Node
Date: Fri Mar 25 14:55:54 CST 2022
User: usil
Spectrometer: V785-0024
Trigger mode: 0
Integration Time (sec): 4.000000E-1
Scans to average: 1
Nonlinearity correction enabled: false
Boxcar width: 0
Storing dark spectrum: false
XAxis mode: Wavelengths
Number of Pixels in Spectrum: 1024
>>>>>Begin Spectral Data<<<<<
801.071	22013
801.214	21930
801.356	21656
801.499	21705
801.641	21553
801.783	21359
801.926	21344
802.068	21348
802.211	21325
802.353	21188
802.496	20952
802.638	20891
802.78	20876
802.923	20830
803.065	20735
803.208	20678
803.35	20804
803.492	20804
803.635	20937
803.777	20746
803.919	20765
804.061	21142
804.204	20815
804.346	20697
804.488	20590
804.63	20727
804.773	20701
804.915	20727
805.057	20891
805.199	20659
805.341	20716
805.483	20720
805.626	20697
805.768	20670
805.91	20598
806.052	20693
806.194	20571
806.336	20754
806.478	20663
806.62	20625
806.762	20788
806.904	20902
807.046	20990
807.188	20807
807.33	20979
807.472	21005
807.614	20853
807.756	20864
807.898	20773
808.04	20659
808.182	20731
808.324	20727
808.465	20781
808.607	20925
808.749	21039
808.891	21074
809.033	21154
809.174	21077
809.316	20887
809.458	21058
809.6	20990
809.741	21058
809.883	21127
810.025	21112
810.166	20990
810.308	21188
810.45	21207
810.591	20975
810.733	20883
810.875	20834
811.016	20674
811.158	20716
811.299	20815
811.441	20960
811.582	20853
811.724	20861
811.865	20724
812.007	20632
812.148	20743
812.29	20880
812.431	20891
812.573	21093
812.714	21176
812.855	21317
812.997	21321
813.138	21553
813.279	21355
813.421	21199
813.562	21142
813.703	21039
813.845	20956
813.986	20625
814.127	20537
814.268	20221
814.41	20381
814.551	20225
814.692	20309
814.833	20195
814.974	20317
815.115	20210
815.256	20103
815.397	20237
815.539	20077
815.68	20088
815.821	19852
815.962	20069
816.103	20031
816.244	19944
816.385	19772
816.526	19746
816.666	19666
816.807	19518
816.948	19537
817.089	19476
817.23	19639
817.371	19365
817.512	19457
817.653	19460
817.793	19362
817.934	19419
818.075	19468
818.216	19460
818.356	19373
818.497	19339
818.638	19031
818.778	19221
818.919	19126
819.06	19156
819.2	19377
819.341	19270
819.481	19289
819.622	19502
819.762	19784
819.903	19491
820.043	19457
820.184	19434
820.324	19285
820.465	19457
820.605	19464
820.746	19282
820.886	19221
821.026	19339
821.167	19304
821.307	19426
821.447	19388
821.588	19225
821.728	19129
821.868	19050
822.008	18798
822.149	18871
822.289	18848
822.429	18574
822.569	18490
822.709	18506
822.849	18319
822.99	18247
823.13	18315
823.27	18270
823.41	18216
823.55	18068
823.69	18117
823.83	18144
823.97	18045
824.11	17889
824.25	17882
824.389	17817
824.529	17863
824.669	17843
824.809	17973
824.949	17904
825.089	17798
825.228	17920
825.368	17665
825.508	17748
825.648	17646
825.787	17805
825.927	17752
826.067	17657
826.206	17657
826.346	17684
826.485	17764
826.625	17646
826.765	17760
826.904	17668
827.044	17387
827.183	17353
827.323	17406
827.462	17425
827.601	17429
827.741	17364
827.88	17322
828.02	17239
828.159	17284
828.298	17315
828.437	17368
828.577	17303
828.716	17433
828.855	17414
828.994	17178
829.134	17105
829.273	17204
829.412	17151
829.551	17060
829.69	17128
829.829	17128
829.968	17204
830.107	17181
830.246	17181
830.385	17064
830.524	17006
830.663	16980
830.802	16927
830.941	16706
831.08	16736
831.219	16801
831.357	16854
831.496	16999
831.635	16790
831.774	16675
831.913	16645
832.051	16679
832.19	16622
832.329	16500
832.467	16497
832.606	16299
832.744	16360
832.883	16508
833.022	16455
833.16	16447
833.299	16626
833.437	16596
833.576	16508
833.714	16584
833.852	16455
833.991	16527
834.129	16660
834.267	16459
834.406	16546
834.544	16413
834.682	16569
834.821	16504
834.959	16653
835.097	16455
835.235	16531
835.373	16565
835.511	16436
835.65	16367
835.788	16462
835.926	16337
836.064	16230
836.202	16120
836.34	16371
836.478	16523
836.615	16413
836.753	16531
836.891	16508
837.029	16424
837.167	16413
837.305	16280
837.443	16261
837.58	16344
837.718	16432
837.856	16276
837.993	16268
838.131	16333
838.269	16253
838.406	16158
838.544	16143
838.681	16063
838.819	15987
838.956	15812
839.094	15861
839.231	15812
839.369	16017
839.506	16280
839.643	16051
839.781	15918
839.918	15827
840.055	15846
840.193	15876
840.33	15778
840.467	15835
840.604	15808
840.742	16010
840.879	15682
841.016	15720
841.153	15739
841.29	15865
841.427	15804
841.564	15911
841.701	15869
841.838	15701
841.975	15663
842.112	15770
842.249	15637
842.385	15481
842.522	15743
842.659	15671
842.796	15564
842.933	15644
843.069	15587
843.206	15686
843.343	15686
843.479	15599
843.616	15599
843.752	15355
843.889	15447
844.025	15477
844.162	15317
844.298	15564
844.435	15397
844.571	15401
844.708	15466
844.844	15504
844.98	15492
845.117	15553
845.253	15332
845.389	15272
845.525	15264
845.661	15355
845.798	15157
845.934	15131
846.07	15089
846.206	15268
846.342	15310
846.478	15184
846.614	15028
846.75	14944
846.886	14982
847.022	15051
847.158	14952
847.294	14906
847.429	14982
847.565	14929
847.701	15176
847.837	14727
847.972	14697
848.108	14834
848.244	14785
848.379	14613
848.515	14579
848.65	14480
848.786	14549
848.921	14682
849.057	14663
849.192	14655
849.328	14606
849.463	14625
849.598	14621
849.734	14587
849.869	14404
850.004	14389
850.14	14423
850.275	14476
850.41	14298
850.545	14374
850.68	14457
850.815	14320
850.95	14332
851.085	14499
851.22	14408
851.355	14282
851.49	14183
851.625	14218
851.76	14328
851.895	14168
852.03	14202
852.165	14317
852.299	14476
852.434	14400
852.569	14347
852.703	14343
852.838	14408
852.973	14476
853.107	14427
853.242	14286
853.376	14168
853.511	14115
853.645	14172
853.78	14252
853.914	14145
854.048	14214
854.183	14153
854.317	14233
854.451	14374
854.585	14119
854.72	14138
854.854	14206
854.988	14168
855.122	14149
855.256	14157
855.39	14161
855.524	14313
855.658	14328
855.792	14237
855.926	14153
856.06	14290
856.194	14328
856.327	14259
856.461	14191
856.595	14142
856.729	14130
856.862	14240
856.996	14290
857.13	14355
857.263	14362
857.397	14328
857.53	14138
857.664	14332
857.797	14248
857.931	14347
858.064	14252
858.197	14313
858.331	14202
858.464	14149
858.597	14149
858.731	14256
858.864	14221
858.997	14107
859.13	14275
859.263	14252
859.396	14343
859.529	14134
859.662	14168
859.795	14046
859.928	14187
860.061	14381
860.194	14446
860.327	14267
860.46	14259
860.592	14294
860.725	14328
860.858	14396
860.99	14237
861.123	14126
861.256	14130
861.388	14210
861.521	14918
861.653	14119
861.786	14046
861.918	14069
862.05	14130
862.183	14187
862.315	14176
862.447	14214
862.58	14111
862.712	14005
862.844	13963
862.976	14069
863.108	14065
863.24	14374
863.372	13887
863.504	13982
863.636	13986
863.768	13982
863.9	13982
864.032	13932
864.164	13917
864.296	14069
864.428	14001
864.559	14092
864.691	14058
864.823	13989
864.954	14012
865.086	14012
865.217	14027
865.349	13902
865.48	14043
865.612	13993
865.743	14115
865.875	13982
866.006	13898
866.137	13906
866.269	13947
866.4	14001
866.531	13917
866.662	13879
866.793	13803
866.924	13894
867.055	14077
867.186	13898
867.317	14020
867.448	13887
867.579	13894
867.71	13928
867.841	13898
867.972	13986
868.103	13932
868.233	13917
868.364	14050
868.495	13925
868.625	14153
868.756	14298
868.886	14138
869.017	14183
869.147	14336
869.278	14419
869.408	14313
869.539	14183
869.669	14328
869.799	14263
869.929	14423
870.06	14263
870.19	14568
870.32	14480
870.45	14556
870.58	14689
870.71	14750
870.84	14678
870.97	14533
871.1	14552
871.23	14792
871.36	14781
871.489	14815
871.619	14872
871.749	14800
871.879	14773
872.008	14971
872.138	14819
872.267	14762
872.397	14708
872.526	14602
872.656	14629
872.785	14731
872.915	14845
873.044	14975
873.173	14857
873.303	14857
873.432	14937
873.561	14918
873.69	14880
873.819	14861
873.948	14994
874.077	14872
874.206	14796
874.335	14883
874.464	14944
874.593	15108
874.722	15066
874.851	15214
874.979	15203
875.108	15272
875.237	15081
875.365	15108
875.494	15275
875.623	15222
875.751	15138
875.88	15123
876.008	15329
876.136	15408
876.265	15606
876.393	15797
876.521	15804
876.65	15656
876.778	15530
876.906	15534
877.034	15492
877.162	15504
877.29	15481
877.418	15637
877.546	15622
877.674	15603
877.802	15656
877.93	15549
878.058	15511
878.185	15496
878.313	15606
878.441	15511
878.568	15507
878.696	15534
878.824	15663
878.951	15660
879.079	15835
879.206	15888
879.333	15778
879.461	15690
879.588	15778
879.715	15743
879.842	15869
879.97	15629
880.097	15458
880.224	15443
880.351	15515
880.478	15500
880.605	15363
880.732	15523
880.859	15701
880.986	15488
881.112	15454
881.239	15401
881.366	15283
881.493	15218
881.619	15070
881.746	15127
881.872	15180
881.999	15058
882.125	15055
882.252	15207
882.378	15203
882.505	15230
882.631	15131
882.757	14899
882.883	15001
883.01	15070
883.136	14880
883.262	14720
883.388	14800
883.514	15013
883.64	14956
883.766	14876
883.892	14735
884.018	14708
884.143	14929
884.269	14948
884.395	14697
884.52	14663
884.646	14594
884.772	14560
884.897	14579
885.023	14705
885.148	14701
885.274	14754
885.399	14705
885.524	14575
885.65	14571
885.775	14689
885.9	14579
886.025	14773
886.15	14731
886.275	14613
886.4	14480
886.525	14598
886.65	14545
886.775	14583
886.9	14754
887.025	14819
887.149	14629
887.274	14484
887.399	14431
887.523	14374
887.648	14396
887.773	14431
887.897	14621
888.021	14541
888.146	14499
888.27	14587
888.395	14655
888.519	14549
888.643	14541
888.767	14560
888.891	14351
889.015	14377
889.139	14427
889.263	14282
889.387	14442
889.511	14560
889.635	14431
889.759	14298
889.883	14320
890.006	14358
890.13	14412
890.254	14267
890.377	14240
890.501	14077
890.624	14123
890.748	14126
890.871	14183
890.995	13947
891.118	13890
891.241	14062
891.364	13947
891.488	14259
891.611	13967
891.734	13982
891.857	14107
891.98	13951
892.103	14134
892.226	14096
892.349	14005
892.471	13947
892.594	13959
892.717	14008
892.839	13921
892.962	14005
893.085	14016
893.207	13955
893.33	13928
893.452	13963
893.575	14077
893.697	13936
893.819	14149
893.941	14187
894.064	14168
894.186	14130
894.308	14031
894.43	14145
894.552	14237
894.674	14138
894.796	13963
894.918	14031
895.04	14142
895.161	14195
895.283	14206
895.405	14069
895.526	14123
895.648	14126
895.769	14168
895.891	14157
896.012	14221
896.134	14180
896.255	14183
896.376	14123
896.498	14240
896.619	14244
896.74	14233
896.861	14199
896.982	14613
897.103	14746
897.224	14556
897.345	14400
897.466	14355
897.587	14522
897.708	14632
897.828	14511
897.949	14480
898.07	14237
898.19	14480
898.311	14640
898.431	14583
898.552	14610
898.672	14621
898.792	14541
898.913	14568
899.033	14541
899.153	14385
899.273	14282
899.393	14408
899.513	14427
899.633	14381
899.753	14495
899.873	14408
899.993	14511
900.113	14533
900.232	14446
900.352	14415
900.472	14294
900.591	14225
900.711	14377
900.83	14229
900.95	14438
901.069	14385
901.189	14294
901.308	13936
901.427	13902
901.546	13944
901.665	14005
901.784	14035
901.904	13746
902.023	13788
902.141	13495
902.26	13499
902.379	13628
902.498	13533
902.617	13556
902.735	13609
902.854	13499
902.973	13464
903.091	13213
903.21	13263
903.328	13343
903.446	13164
903.565	13118
903.683	13099
903.801	13042
903.919	13061
904.038	13034
904.156	12814
904.274	12981
904.392	12909
904.51	13000
904.627	12852
904.745	12958
904.863	13034
904.981	12669
905.098	12536
905.216	12563
905.334	12555
905.451	12604
905.569	12616
905.686	12620
905.803	12574
905.921	12304
906.038	12544
906.155	12441
906.272	12334
906.389	12323
906.506	12243
906.623	12281
906.74	12239
906.857	12110
906.974	12129
907.091	12254
907.208	12266
907.324	12292
907.441	12076
907.557	11999
907.674	11893
907.79	11878
907.907	11855
908.023	12026
908.139	11851
908.256	11942
908.372	11843
908.488	11764
908.604	11764
908.72	11653
908.836	11638
908.952	11589
909.068	11634
909.184	11805
909.3	11672
909.415	11714
909.531	11722
909.647	11444
909.762	11455
909.878	11318
909.993	11467
910.108	11421
910.224	11467
910.339	11505
910.454	11444
910.57	11334
910.685	11246
910.8	11532
910.915	11474
911.03	11364
911.145	11166
911.259	11136
911.374	11204
911.489	11109
911.604	11056
911.718	10938
911.833	10942
911.947	10850
912.062	10733
912.176	10934
912.291	10805
912.405	10984
912.519	11083
912.633	11079
912.748	11090
912.862	10949
912.976	10786
913.09	10691
913.204	10771
913.318	10763
913.431	10873
913.545	10869
913.659	10991
913.772	10877
913.886	10725
914	10683
914.113	10805
914.226	10831
914.34	10793
914.453	10641
914.566	10752
914.68	10656
914.793	10664
914.906	10466
915.019	10394
915.132	10348
915.245	10379
915.358	10432
915.47	10386
915.583	10413
915.696	10493
915.809	10603
915.921	10588
916.034	10398
916.146	10447
916.259	10344
916.371	10459
916.483	10455
916.595	10310
916.708	10390
916.82	10329
916.932	10287
917.044	10348
917.156	10386
917.268	10177
917.38	10242
917.491	10310
917.603	10265
917.715	10394
917.826	10379
917.938	10287
918.049	10021
918.161	10284
918.272	10405
918.384	10394
918.495	10329
918.606	10227
918.717	10105
918.828	10230
918.939	10173
919.05	10074
919.161	10074
919.272	9998
919.383	10010
919.494	10154
919.604	10352
919.715	10143
919.826	10067
919.936	10169
920.047	10207
920.157	10128
920.267	10344
920.378	10227
920.488	10173
920.598	10432
920.708	10500
920.818	10417
920.928	10402
921.038	10500
921.148	10474
921.258	10166
921.368	10093
921.477	10059
921.587	9968
921.697	9941
921.806	10010
921.916	9876
922.025	9759
922.134	9736
922.244	9629
922.353	9732
922.462	9644
922.571	9576
922.68	9355
922.789	9382
922.898	9458
923.007	9336
923.116	9462
923.224	9435
923.333	9435
923.442	9329
923.55	9291
923.659	9287
923.767	9329
923.876	9230
923.984	9397
924.092	9294
924.201	9294
924.309	9298
924.417	9359
924.525	9275
924.633	9275
924.741	10215
924.849	9108
924.956	9241
925.064	9039
925.172	9028
925.279	9108
925.387	9070
925.494	9066
925.602	9169
925.709	9192
925.816	8979
925.924	9074
926.031	9119
926.138	9013
926.245	9093
926.352	9020
926.459	9127
926.566	9146
926.673	9058
926.779	8902
926.886	8918
926.993	8842
927.099	8842
927.206	8701
927.312	8785
927.419	8781
927.525	8815
927.631	8826
927.737	8682
927.843	8636
927.95	8579
928.056	8590
928.162	8750
928.267	8838
928.373	9283
928.479	8811
928.585	8507
928.69	8708
928.796	8735
928.901	8617
929.007	8434
929.112	8606
929.218	8541
929.323	8495
929.428	8480
929.533	8651
929.638	8450
929.743	8476
929.848	8583
929.953	8545
930.058	8427
930.163	8301
930.267	8301
930.372	8434
930.477	8214
930.581	8511
930.685	8324
930.79	8180
930.894	8267
930.998	8221
931.103	8381
931.207	8020
931.311	7993
931.415	7894
931.519	7715
931.623	7769
