Data from test_V78500241_1093.txt Node
Date: Fri Mar 25 14:41:19 CST 2022
User: usil
Spectrometer: V785-0024
Trigger mode: 0
Integration Time (sec): 4.000000E-1
Scans to average: 1
Nonlinearity correction enabled: false
Boxcar width: 0
Storing dark spectrum: false
XAxis mode: Wavelengths
Number of Pixels in Spectrum: 1024
>>>>>Begin Spectral Data<<<<<
801.071	22748
801.214	22607
801.356	22432
801.499	22382
801.641	22040
801.783	22002
801.926	22131
802.068	21972
802.211	21926
802.353	21918
802.496	21614
802.638	21519
802.78	21492
802.923	21511
803.065	21348
803.208	21370
803.35	21408
803.492	21663
803.635	21530
803.777	21443
803.919	21515
804.061	21831
804.204	21511
804.346	21397
804.488	21363
804.63	21211
804.773	21252
804.915	21233
805.057	21488
805.199	21359
805.341	21397
805.483	21477
805.626	21287
805.768	21298
805.91	21405
806.052	21405
806.194	21260
806.336	21462
806.478	21294
806.62	21332
806.762	21485
806.904	21583
807.046	21671
807.188	21686
807.33	21698
807.472	21759
807.614	21610
807.756	21846
807.898	21606
808.04	21583
808.182	21701
808.324	21747
808.465	21804
808.607	21949
808.749	22124
808.891	22211
809.033	22341
809.174	22211
809.316	22166
809.458	22074
809.6	21983
809.741	21895
809.883	22002
810.025	22013
810.166	22044
810.308	22051
810.45	21964
810.591	21880
810.733	21717
810.875	21717
811.016	21466
811.158	21564
811.299	21675
811.441	21751
811.582	21686
811.724	21561
811.865	21477
812.007	21564
812.148	21553
812.29	21580
812.431	21720
812.573	21819
812.714	21953
812.855	22063
812.997	22169
813.138	22265
813.279	22109
813.421	22067
813.562	22006
813.703	21873
813.845	21709
813.986	21492
814.127	21275
814.268	21127
814.41	21173
814.551	21009
814.692	21184
814.833	21017
814.974	20952
815.115	21116
815.256	20956
815.397	20956
815.539	20906
815.68	20849
815.821	20826
815.962	20857
816.103	20785
816.244	20815
816.385	20579
816.526	20492
816.666	20351
816.807	20309
816.948	20294
817.089	20389
817.23	20286
817.371	20294
817.512	20168
817.653	20275
817.793	20001
817.934	20271
818.075	20286
818.216	20294
818.356	20073
818.497	20046
818.638	19822
818.778	19959
818.919	19967
819.06	20008
819.2	20031
819.341	20157
819.481	20039
819.622	20263
819.762	20423
819.903	20385
820.043	20393
820.184	20199
820.324	20191
820.465	20343
820.605	20138
820.746	20259
820.886	20062
821.026	20077
821.167	20145
821.307	20214
821.447	20122
821.588	20088
821.728	19864
821.868	19746
822.008	19662
822.149	19674
822.289	19571
822.429	19400
822.569	19350
822.709	19316
822.849	19168
822.99	19065
823.13	19042
823.27	19088
823.41	18970
823.55	18890
823.69	18981
823.83	18928
823.97	18802
824.11	18772
824.25	18700
824.389	18768
824.529	18783
824.669	18692
824.809	18856
824.949	18604
825.089	18757
825.228	18715
825.368	18547
825.508	18582
825.648	18490
825.787	18521
825.927	18578
826.067	18429
826.206	18506
826.346	18483
826.485	18544
826.625	18494
826.765	18582
826.904	18426
827.044	18277
827.183	18254
827.323	18102
827.462	18140
827.601	18228
827.741	18155
827.88	18209
828.02	17973
828.159	18167
828.298	18224
828.437	18330
828.577	18102
828.716	18319
828.855	18072
828.994	17893
829.134	17889
829.273	18011
829.412	17897
829.551	17863
829.69	17946
829.829	17931
829.968	17958
830.107	17958
830.246	18019
830.385	17889
830.524	17859
830.663	17657
830.802	17722
830.941	17543
831.08	17497
831.219	17592
831.357	17562
831.496	17703
831.635	17520
831.774	17417
831.913	17356
832.051	17505
832.19	17322
832.329	17448
832.467	17330
832.606	17178
832.744	17223
832.883	17140
833.022	17235
833.16	17402
833.299	17208
833.437	17307
833.576	17239
833.714	17239
833.852	17292
833.991	17322
834.129	17356
834.267	17368
834.406	17311
834.544	17410
834.682	17330
834.821	17318
834.959	17482
835.097	17258
835.235	17315
835.373	17246
835.511	17284
835.65	17155
835.788	17121
835.926	17071
836.064	17075
836.202	16930
836.34	17231
836.478	17212
836.615	17208
836.753	17189
836.891	17231
837.029	17261
837.167	17094
837.305	17098
837.443	17121
837.58	16987
837.718	17132
837.856	17208
837.993	16991
838.131	17041
838.269	16968
838.406	16915
838.544	16892
838.681	16713
838.819	16626
838.956	16668
839.094	16645
839.231	16630
839.369	16816
839.506	16980
839.643	16736
839.781	16664
839.918	16599
840.055	16717
840.193	16516
840.33	16626
840.467	16489
840.604	16660
840.742	16847
840.879	16459
841.016	16455
841.153	16523
841.29	16710
841.427	16641
841.564	16603
841.701	16538
841.838	16554
841.975	16531
842.112	16500
842.249	16375
842.385	16341
842.522	16607
842.659	16531
842.796	16265
842.933	16440
843.069	16428
843.206	16360
843.343	16466
843.479	16306
843.616	16310
843.752	16181
843.889	16249
844.025	16344
844.162	16097
844.298	16226
844.435	16139
844.571	16116
844.708	16230
844.844	16261
844.98	16268
845.117	16322
845.253	16173
845.389	16109
845.525	16238
845.661	16314
845.798	16268
845.934	16417
846.07	16421
846.206	16489
846.342	16459
846.478	16162
846.614	15937
846.75	15854
846.886	15747
847.022	15793
847.158	15686
847.294	15751
847.429	15827
847.565	15682
847.701	16006
847.837	15500
847.972	15492
848.108	15492
848.244	15504
848.379	15310
848.515	15287
848.65	15264
848.786	15363
848.921	15389
849.057	15355
849.192	15389
849.328	15393
849.463	15279
849.598	15146
849.734	15203
849.869	15119
850.004	15150
850.14	15233
850.275	15150
850.41	14986
850.545	15024
850.68	15009
850.815	15108
850.95	15142
851.085	15294
851.22	15142
851.355	15154
851.49	15017
851.625	15127
851.76	14967
851.895	14979
852.03	14967
852.165	15043
852.299	15104
852.434	15203
852.569	15100
852.703	15093
852.838	15108
852.973	15135
853.107	15245
853.242	15024
853.376	14910
853.511	14807
853.645	14914
853.78	15062
853.914	15024
854.048	14887
854.183	14967
854.317	14990
854.451	15058
854.585	15013
854.72	14906
854.854	15009
854.988	14857
855.122	14914
855.256	14811
855.39	14872
855.524	14982
855.658	14910
855.792	14902
855.926	15009
856.06	15009
856.194	15055
856.327	14944
856.461	14910
856.595	14944
856.729	14899
856.862	15013
856.996	15009
857.13	14975
857.263	15024
857.397	15089
857.53	15013
857.664	15028
857.797	15028
857.931	15043
858.064	14971
858.197	15074
858.331	14937
858.464	14785
858.597	14891
858.731	14887
858.864	14872
858.997	15005
859.13	14906
859.263	14986
859.396	14963
859.529	14906
859.662	14960
859.795	14880
859.928	14975
860.061	15077
860.194	15085
860.327	14861
860.46	14914
860.592	15058
860.725	15108
860.858	15161
860.99	14937
861.123	14853
861.256	14792
861.388	14963
861.521	15534
861.653	14792
861.786	14735
861.918	14705
862.05	14842
862.183	14921
862.315	14861
862.447	15047
862.58	14941
862.712	14712
862.844	14602
862.976	14785
863.108	14823
863.24	15161
863.372	14640
863.504	14686
863.636	14667
863.768	14708
863.9	14712
864.032	14678
864.164	14594
864.296	14743
864.428	14826
864.559	14811
864.691	14796
864.823	14769
864.954	14758
865.086	14720
865.217	14674
865.349	14613
865.48	14693
865.612	14674
865.743	14819
865.875	14735
866.006	14674
866.137	14758
866.269	14697
866.4	14689
866.531	14640
866.662	14454
866.793	14655
866.924	14617
867.055	14659
867.186	14648
867.317	14575
867.448	14659
867.579	14663
867.71	14590
867.841	14613
867.972	14648
868.103	14636
868.233	14670
868.364	14648
868.495	14754
868.625	14864
868.756	15001
868.886	14899
869.017	14891
869.147	15123
869.278	15032
869.408	14933
869.539	14883
869.669	14982
869.799	14918
869.929	15028
870.06	15108
870.19	15264
870.32	15195
870.45	15207
870.58	15389
870.71	15386
870.84	15416
870.97	15268
871.1	15329
871.23	15435
871.36	15507
871.489	15424
871.619	15428
871.749	15557
871.879	15504
872.008	15576
872.138	15523
872.267	15473
872.397	15408
872.526	15321
872.656	15408
872.785	15393
872.915	15488
873.044	15557
873.173	15450
873.303	15538
873.432	15629
873.561	15629
873.69	15591
873.819	15557
873.948	15618
874.077	15584
874.206	15641
874.335	15591
874.464	15781
874.593	15823
874.722	15743
874.851	15819
874.979	15827
875.108	15945
875.237	15926
875.365	15804
875.494	15816
875.623	15960
875.751	15789
875.88	15937
876.008	15983
876.136	16109
876.265	16303
876.393	16421
876.521	16360
876.65	16500
876.778	16303
876.906	16211
877.034	16207
877.162	16344
877.29	16154
877.418	16219
877.546	16303
877.674	16306
877.802	16219
877.93	16314
878.058	16196
878.185	16196
878.313	16356
878.441	16318
878.568	16196
878.696	16367
878.824	16246
878.951	16459
879.079	16493
879.206	16622
879.333	16588
879.461	16546
879.588	16664
879.715	16774
879.842	16778
879.97	16554
880.097	16299
880.224	16291
880.351	16265
880.478	16253
880.605	16238
880.732	16177
880.859	16352
880.986	16109
881.112	16230
881.239	16093
881.366	16025
881.493	15903
881.619	15892
881.746	15850
881.872	15793
881.999	15823
882.125	15770
882.252	15842
882.378	15953
882.505	15922
882.631	15751
882.757	15690
882.883	15747
883.01	15720
883.136	15557
883.262	15599
883.388	15496
883.514	15762
883.64	15671
883.766	15603
883.892	15431
884.018	15542
884.143	15580
884.269	15698
884.395	15431
884.52	15329
884.646	15408
884.772	15218
884.897	15207
885.023	15355
885.148	15454
885.274	15466
885.399	15545
885.524	15306
885.65	15298
885.775	15359
885.9	15298
886.025	15504
886.15	15424
886.275	15233
886.4	15287
886.525	15435
886.65	15207
886.775	15355
886.9	15374
887.025	15572
887.149	15355
887.274	15188
887.399	15127
887.523	15070
887.648	15184
887.773	15074
887.897	15218
888.021	15283
888.146	15154
888.27	15222
888.395	15237
888.519	15192
888.643	15192
888.767	15252
888.891	15017
889.015	14921
889.139	15032
889.263	14944
889.387	15108
889.511	15161
889.635	15154
889.759	15028
889.883	14948
890.006	14918
890.13	15028
890.254	14925
890.377	14948
890.501	14716
890.624	14712
890.748	14811
890.871	14678
890.995	14549
891.118	14583
891.241	14712
891.364	14705
891.488	14811
891.611	14689
891.734	14667
891.857	14800
891.98	14712
892.103	14830
892.226	14651
892.349	14663
892.471	14549
892.594	14617
892.717	14537
892.839	14674
892.962	14610
893.085	14655
893.207	14655
893.33	14632
893.452	14590
893.575	14678
893.697	14686
893.819	14804
893.941	14849
894.064	14804
894.186	14651
894.308	14610
894.43	14743
894.552	14861
894.674	14807
894.796	14545
894.918	14682
895.04	14682
895.161	14857
895.283	14754
895.405	14541
895.526	14682
895.648	14773
895.769	14735
895.891	14777
896.012	14804
896.134	14868
896.255	14708
896.376	14705
896.498	14765
896.619	14819
896.74	14762
896.861	14887
896.982	15173
897.103	15214
897.224	15070
897.345	15024
897.466	15005
897.587	15081
897.708	15218
897.828	15024
897.949	15100
898.07	14960
898.19	14975
898.311	15272
898.431	15028
898.552	15180
898.672	15321
898.792	15169
898.913	15241
899.033	15070
899.153	15043
899.273	14807
899.393	14963
899.513	15112
899.633	15020
899.753	14998
899.873	15074
899.993	15070
900.113	14960
900.232	14941
900.352	14963
900.472	14937
900.591	14838
900.711	14910
900.83	14800
900.95	14941
901.069	14998
901.189	14777
901.308	14613
901.427	14465
901.546	14503
901.665	14522
901.784	14537
901.904	14366
902.023	14377
902.141	14111
902.26	14084
902.379	14206
902.498	14043
902.617	13898
902.735	14149
902.854	14077
902.973	14054
903.091	13864
903.21	13780
903.328	13917
903.446	13704
903.565	13647
903.683	13616
903.801	13476
903.919	13632
904.038	13575
904.156	13464
904.274	13563
904.392	13480
904.51	13441
904.627	13472
904.745	13525
904.863	13495
904.981	13202
905.098	13050
905.216	13149
905.334	13122
905.451	13126
905.569	13114
905.686	13179
905.803	13137
905.921	12935
906.038	13057
906.155	12951
906.272	12852
906.389	12954
906.506	12802
906.623	12719
906.74	12696
906.857	12642
906.974	12589
907.091	12787
907.208	12844
907.324	12741
907.441	12662
907.557	12536
907.674	12502
907.79	12330
907.907	12437
908.023	12540
908.139	12422
908.256	12418
908.372	12433
908.488	12479
908.604	12216
908.72	12209
908.836	12148
908.952	12152
909.068	12232
909.184	12338
909.3	12148
909.415	12330
909.531	12220
909.647	12060
909.762	11980
909.878	12003
909.993	11992
910.108	12022
910.224	11961
910.339	11939
910.454	11885
910.57	11790
910.685	11855
910.8	11984
910.915	11920
911.03	11809
911.145	11653
911.259	11722
911.374	11657
911.489	11657
911.604	11558
911.718	11376
911.833	11425
911.947	11307
912.062	11227
912.176	11356
912.291	11490
912.405	11391
912.519	11516
912.633	11653
912.748	11501
912.862	11436
912.976	11204
913.09	11147
913.204	11208
913.318	11345
913.431	11425
913.545	11345
913.659	11364
913.772	11235
913.886	11071
914	11147
914.113	11242
914.226	11315
914.34	11204
914.453	11052
914.566	11239
914.68	11128
914.793	11003
914.906	10908
915.019	10847
915.132	10812
915.245	10869
915.358	10885
915.47	10877
915.583	10957
915.696	10949
915.809	11010
915.921	11162
916.034	10892
916.146	10877
916.259	10873
916.371	10942
916.483	10816
916.595	10839
916.708	10843
916.82	10801
916.932	10786
917.044	10778
917.156	10771
917.268	10714
917.38	10679
917.491	10649
917.603	10755
917.715	10774
917.826	10797
917.938	10691
918.049	10649
918.161	10668
918.272	10816
918.384	10862
918.495	10645
918.606	10615
918.717	10538
918.828	10603
918.939	10603
919.05	10527
919.161	10523
919.272	10421
919.383	10440
919.494	10615
919.604	10873
919.715	10630
919.826	10542
919.936	10561
920.047	10698
920.157	10626
920.267	10782
920.378	10626
920.488	10573
920.598	10835
920.708	10915
920.818	10725
920.928	10694
921.038	10949
921.148	10934
921.258	10603
921.368	10478
921.477	10500
921.587	10421
921.697	10314
921.806	10489
921.916	10318
922.025	10181
922.134	10120
922.244	10112
922.353	10143
922.462	9979
922.571	9953
922.68	9812
922.789	9812
922.898	9854
923.007	9812
923.116	9797
923.224	9857
923.333	9800
923.442	9690
923.55	9705
923.659	9743
923.767	9816
923.876	9671
923.984	9698
924.092	9561
924.201	9629
924.309	9599
924.417	9740
924.525	9622
924.633	9603
924.741	10500
924.849	9515
924.956	9606
925.064	9507
925.172	9386
925.279	9477
925.387	9401
925.494	9473
925.602	9538
925.709	9507
925.816	9420
925.924	9450
926.031	9526
926.138	9485
926.245	9454
926.352	9378
926.459	9553
926.566	9526
926.673	9348
926.779	9359
926.886	9310
926.993	9173
927.099	9116
927.206	9123
927.312	9077
927.419	9154
927.525	9214
927.631	9207
927.737	9070
927.843	9028
927.95	9020
928.056	8941
928.162	9066
928.267	9169
928.373	9720
928.479	9093
928.585	8868
928.69	9039
928.796	9062
928.901	8944
929.007	8876
929.112	8948
929.218	8963
929.323	8910
929.428	8902
929.533	8998
929.638	8823
929.743	8838
929.848	8918
929.953	8857
930.058	8788
930.163	8594
930.267	8686
930.372	8735
930.477	8598
930.581	8849
930.685	8674
930.79	8583
930.894	8575
930.998	8511
931.103	8735
931.207	8389
931.311	8210
931.415	8259
931.519	8027
931.623	8096
