Data from test_V78500241_145.txt Node
Date: Fri Mar 25 14:34:44 CST 2022
User: usil
Spectrometer: V785-0024
Trigger mode: 0
Integration Time (sec): 4.000000E-1
Scans to average: 1
Nonlinearity correction enabled: false
Boxcar width: 0
Storing dark spectrum: false
XAxis mode: Wavelengths
Number of Pixels in Spectrum: 1024
>>>>>Begin Spectral Data<<<<<
801.071	29258
801.214	29341
801.356	29147
801.499	29018
801.641	28892
801.783	28866
801.926	28980
802.068	28717
802.211	28778
802.353	28793
802.496	28611
802.638	28603
802.78	28554
802.923	28592
803.065	28596
803.208	28466
803.35	28569
803.492	28634
803.635	28786
803.777	28527
803.919	28866
804.061	29022
804.204	28744
804.346	28694
804.488	28698
804.63	28706
804.773	28580
804.915	28782
805.057	28938
805.199	28793
805.341	28987
805.483	29067
805.626	28968
805.768	29052
805.91	28995
806.052	29098
806.194	29170
806.336	29528
806.478	29326
806.62	29360
806.762	29611
806.904	29767
807.046	30049
807.188	30186
807.33	30376
807.472	30848
807.614	30875
807.756	31362
807.898	31727
808.04	32412
808.182	33176
808.324	34299
808.465	35554
808.607	36817
808.749	38206
808.891	38891
809.033	38640
809.174	37963
809.316	36973
809.458	35440
809.6	33922
809.741	33096
809.883	32248
810.025	31742
810.166	31225
810.308	30928
810.45	30563
810.591	30338
810.733	30190
810.875	29965
811.016	29665
811.158	29684
811.299	29920
811.441	29870
811.582	29718
811.724	29581
811.865	29531
812.007	29459
812.148	29414
812.29	29421
812.431	29474
812.573	29608
812.714	29699
812.855	29783
812.997	29722
813.138	29996
813.279	29897
813.421	29695
813.562	29611
813.703	29402
813.845	29261
813.986	29052
814.127	28858
814.268	28759
814.41	28786
814.551	28862
814.692	28759
814.833	28759
814.974	28729
815.115	28687
815.256	28497
815.397	28592
815.539	28535
815.68	28333
815.821	28356
815.962	28310
816.103	28322
816.244	28078
816.385	27972
816.526	28109
816.666	27861
816.807	27724
816.948	27812
817.089	27797
817.23	27606
817.371	27644
817.512	27694
817.653	27717
817.793	27587
817.934	27652
818.075	27690
818.216	27603
818.356	27641
818.497	27523
818.638	27287
818.778	27401
818.919	27427
819.06	27374
819.2	27431
819.341	27454
819.481	27686
819.622	27770
819.762	27930
819.903	27831
820.043	27819
820.184	27717
820.324	27561
820.465	27587
820.605	27686
820.746	27705
820.886	27424
821.026	27462
821.167	27412
821.307	27580
821.447	27370
821.588	27336
821.728	27310
821.868	26998
822.008	26697
822.149	26910
822.289	26785
822.429	26644
822.569	26389
822.709	26583
822.849	26408
822.99	26298
823.13	26286
823.27	26244
823.41	26149
823.55	26008
823.69	26183
823.83	26088
823.97	26069
824.11	25837
824.25	25928
824.389	25776
824.529	25963
824.669	25925
824.809	26058
824.949	26008
825.089	25944
825.228	25890
825.368	25799
825.508	25693
825.648	25788
825.787	25772
825.927	25753
826.067	25814
826.206	25753
826.346	25590
826.485	25662
826.625	25715
826.765	25913
826.904	25696
827.044	25510
827.183	25430
827.323	25308
827.462	25327
827.601	25301
827.741	25365
827.88	25381
828.02	25266
828.159	25297
828.298	25190
828.437	25419
828.577	25297
828.716	25354
828.855	25312
828.994	25038
829.134	25072
829.273	25236
829.412	25137
829.551	24817
829.69	25004
829.829	25072
829.968	25038
830.107	25088
830.246	25084
830.385	24966
830.524	24992
830.663	24928
830.802	24726
830.941	24570
831.08	24532
831.219	24741
831.357	24719
831.496	24802
831.635	24631
831.774	24612
831.913	24338
832.051	24437
832.19	24418
832.329	24498
832.467	24437
832.606	24262
832.744	24205
832.883	24281
833.022	24391
833.16	24437
833.299	24517
833.437	24589
833.576	24654
833.714	24669
833.852	24700
833.991	24791
834.129	24962
834.267	24810
834.406	24639
834.544	24696
834.682	24738
834.821	24471
834.959	24684
835.097	24407
835.235	24414
835.373	24228
835.511	24403
835.65	24117
835.788	24155
835.926	24026
836.064	23977
836.202	23992
836.34	24136
836.478	24216
836.615	24041
836.753	23999
836.891	24049
837.029	24049
837.167	24022
837.305	23988
837.443	23855
837.58	23832
837.718	23923
837.856	23817
837.993	23866
838.131	23821
838.269	23665
838.406	23695
838.544	23783
838.681	23512
838.819	23376
838.956	23337
839.094	23330
839.231	23246
839.369	23425
839.506	23707
839.643	23493
839.781	23242
839.918	23216
840.055	23159
840.193	23223
840.33	23136
840.467	23159
840.604	23128
840.742	23406
840.879	23022
841.016	23121
841.153	23193
841.29	23166
841.427	23204
841.564	23075
841.701	23159
841.838	23098
841.975	22923
842.112	23147
842.249	22930
842.385	22869
842.522	23044
842.659	23086
842.796	22896
842.933	22999
843.069	22957
843.206	22885
843.343	22923
843.479	23105
843.616	22835
843.752	22919
843.889	22778
844.025	22930
844.162	22847
844.298	22885
844.435	22915
844.571	23010
844.708	23090
844.844	23391
844.98	23516
845.117	23752
845.253	24060
845.389	24574
845.525	25993
845.661	28306
845.798	31000
845.934	33321
846.07	34261
846.206	33709
846.342	32012
846.478	29143
846.614	26541
846.75	24966
846.886	23824
847.022	23433
847.158	22938
847.294	22637
847.429	22569
847.565	22402
847.701	22656
847.837	22093
847.972	21899
848.108	22112
848.244	22059
848.379	21717
848.515	21755
848.65	21755
848.786	21713
848.921	21732
849.057	21762
849.192	21854
849.328	21739
849.463	21656
849.598	21564
849.734	21580
849.869	21469
850.004	21317
850.14	21462
850.275	21386
850.41	21401
850.545	21370
850.68	21321
850.815	21355
850.95	21374
851.085	21599
851.22	21447
851.355	21378
851.49	21454
851.625	21408
851.76	21249
851.895	21291
852.03	21268
852.165	21268
852.299	21405
852.434	21462
852.569	21348
852.703	21405
852.838	21507
852.973	21488
853.107	21561
853.242	21306
853.376	21302
853.511	21195
853.645	21264
853.78	21325
853.914	21325
854.048	21294
854.183	21279
854.317	21469
854.451	21500
854.585	21416
854.72	21226
854.854	21408
854.988	21218
855.122	21386
855.256	21233
855.39	21336
855.524	21336
855.658	21348
855.792	21237
855.926	21161
856.06	21241
856.194	21245
856.327	21294
856.461	21199
856.595	21032
856.729	21108
856.862	21165
856.996	21222
857.13	21218
857.263	21245
857.397	21272
857.53	21077
857.664	21032
857.797	21192
857.931	21150
858.064	21237
858.197	21195
858.331	21036
858.464	21119
858.597	21009
858.731	21096
858.864	21070
858.997	20956
859.13	21104
859.263	21055
859.396	21074
859.529	20952
859.662	20944
859.795	20979
859.928	21096
860.061	21226
860.194	21165
860.327	21127
860.46	20982
860.592	20921
860.725	21230
860.858	21074
860.99	21032
861.123	20864
861.256	20864
861.388	21093
861.521	21797
861.653	20815
861.786	20864
861.918	20880
862.05	21070
862.183	20956
862.315	21081
862.447	21173
862.58	21039
862.712	20967
862.844	20663
862.976	20826
863.108	20842
863.24	21119
863.372	20663
863.504	20777
863.636	20708
863.768	20670
863.9	20632
864.032	20613
864.164	20587
864.296	20678
864.428	20750
864.559	20773
864.691	20765
864.823	20697
864.954	20716
865.086	20663
865.217	20587
865.349	20476
865.48	20678
865.612	20659
865.743	20857
865.875	20503
866.006	20629
866.137	20708
866.269	20568
866.4	20625
866.531	20530
866.662	20533
866.793	20682
866.924	20579
867.055	20545
867.186	20526
867.317	20476
867.448	20495
867.579	20480
867.71	20431
867.841	20480
867.972	20533
868.103	20522
868.233	20511
868.364	20613
868.495	20663
868.625	20587
868.756	20727
868.886	20689
869.017	20743
869.147	20735
869.278	20804
869.408	20819
869.539	20762
869.669	20876
869.799	20731
869.929	20838
870.06	20895
870.19	21070
870.32	21005
870.45	21176
870.58	21226
870.71	21207
870.84	21264
870.97	21154
871.1	21180
871.23	21363
871.36	21256
871.489	21252
871.619	21363
871.749	21378
871.879	21408
872.008	21553
872.138	21397
872.267	21351
872.397	21336
872.526	21363
872.656	21264
872.785	21237
872.915	21591
873.044	21549
873.173	21595
873.303	21534
873.432	21580
873.561	21523
873.69	21576
873.819	21545
873.948	21644
874.077	21690
874.206	21545
874.335	21595
874.464	21724
874.593	21728
874.722	21835
874.851	21793
874.979	21941
875.108	21895
875.237	21895
875.365	21918
875.494	21892
875.623	22025
875.751	21934
875.88	21895
876.008	22070
876.136	22325
876.265	22428
876.393	22523
876.521	22557
876.65	22626
876.778	22455
876.906	22481
877.034	22493
877.162	22615
877.29	22599
877.418	22797
877.546	22782
877.674	22755
877.802	22740
877.93	22889
878.058	22835
878.185	22839
878.313	23041
878.441	23284
878.568	23193
878.696	23509
878.824	23901
878.951	24388
879.079	25042
879.206	26058
879.333	26925
879.461	27374
879.588	27998
879.715	28036
879.842	27781
879.97	26826
880.097	25807
880.224	25027
880.351	24597
880.478	24251
880.605	24007
880.732	23859
880.859	23939
880.986	23707
881.112	23657
881.239	23433
881.366	23448
881.493	23185
881.619	23200
881.746	23292
881.872	23242
881.999	23128
882.125	23178
882.252	23212
882.378	23334
882.505	23334
882.631	23220
882.757	23109
882.883	23185
883.01	23079
883.136	22980
883.262	22854
883.388	22889
883.514	23105
883.64	23033
883.766	22946
883.892	22843
884.018	22847
884.143	22987
884.269	22999
884.395	22774
884.52	22675
884.646	22706
884.772	22748
884.897	22634
885.023	22717
885.148	22713
885.274	22767
885.399	22691
885.524	22611
885.65	22500
885.775	22466
885.9	22424
886.025	22421
886.15	22295
886.275	22173
886.4	21945
886.525	22021
886.65	22040
886.775	21983
886.9	22112
887.025	21975
887.149	21835
887.274	21656
887.399	21675
887.523	21545
887.648	21515
887.773	21340
887.897	21572
888.021	21568
888.146	21294
888.27	21450
888.395	21481
888.519	21405
888.643	21382
888.767	21233
888.891	21169
889.015	21138
889.139	21184
889.263	21116
889.387	21081
889.511	21241
889.635	21176
889.759	20861
889.883	20842
890.006	20998
890.13	20941
890.254	20765
890.377	20899
890.501	20735
890.624	20621
890.748	20606
890.871	20427
890.995	20343
891.118	20343
891.241	20457
891.364	20446
891.488	20541
891.611	20434
891.734	20286
891.857	20377
891.98	20263
892.103	20370
892.226	20362
892.349	20180
892.471	20138
892.594	20252
892.717	20103
892.839	20084
892.962	20183
893.085	20199
893.207	20130
893.33	20024
893.452	20005
893.575	20164
893.697	20046
893.819	20278
893.941	20252
894.064	20221
894.186	19963
894.308	20031
894.43	20134
894.552	20073
894.674	20092
894.796	19902
894.918	20065
895.04	20016
895.161	20065
895.283	19978
895.405	19814
895.526	20024
895.648	19928
895.769	19909
895.891	19951
896.012	20043
896.134	19955
896.255	19997
896.376	19830
896.498	19906
896.619	19967
896.74	19944
896.861	19959
896.982	20263
897.103	20324
897.224	20240
897.345	20111
897.466	20134
897.587	20115
897.708	20233
897.828	20122
897.949	20001
898.07	19959
898.19	19993
898.311	20145
898.431	20024
898.552	20065
898.672	20111
898.792	20027
898.913	20202
899.033	19868
899.153	19883
899.273	19696
899.393	19753
899.513	19860
899.633	19826
899.753	19693
899.873	19723
899.993	19928
900.113	19620
900.232	19788
900.352	19818
900.472	19635
900.591	19533
900.711	19700
900.83	19514
900.95	19578
901.069	19518
901.189	19480
901.308	19190
901.427	19194
901.546	19285
901.665	19015
901.784	19225
901.904	19141
902.023	19000
902.141	18604
902.26	18711
902.379	18696
902.498	18604
902.617	18494
902.735	18681
902.854	18525
902.973	18635
903.091	18300
903.21	18308
903.328	18254
903.446	18292
903.565	18117
903.683	18064
903.801	18076
903.919	18034
904.038	18072
904.156	17885
904.274	17851
904.392	17779
904.51	17916
904.627	17783
904.745	17756
904.863	17882
904.981	17585
905.098	17433
905.216	17417
905.334	17478
905.451	17512
905.569	17444
905.686	17425
905.803	17273
905.921	17246
906.038	17288
906.155	17200
906.272	17185
906.389	17239
906.506	17003
906.623	17022
906.74	16961
906.857	16877
906.974	16949
907.091	16987
907.208	17174
907.324	17014
907.441	16900
907.557	16637
907.674	16679
907.79	16599
907.907	16622
908.023	16702
908.139	16622
908.256	16649
908.372	16573
908.488	16561
908.604	16508
908.72	16390
908.836	16417
908.952	16314
909.068	16329
909.184	16436
909.3	16268
909.415	16287
909.531	16261
909.647	16044
909.762	15998
909.878	16078
909.993	16029
910.108	16036
910.224	15922
910.339	15972
910.454	15884
910.57	15911
910.685	15766
910.8	16116
910.915	15987
911.03	15926
911.145	15679
911.259	15713
911.374	15648
911.489	15507
911.604	15496
911.718	15435
911.833	15462
911.947	15317
912.062	15146
912.176	15359
912.291	15329
912.405	15378
912.519	15580
912.633	15477
912.748	15329
912.862	15313
912.976	15287
913.09	15169
913.204	15138
913.318	15116
913.431	15367
913.545	15310
913.659	15252
913.772	15146
913.886	15074
914	14990
914.113	15116
914.226	15142
914.34	15085
914.453	15017
914.566	15150
914.68	15032
914.793	14872
914.906	14686
915.019	14674
915.132	14746
915.245	14632
915.358	14724
915.47	14678
915.583	14625
915.696	14727
915.809	14720
915.921	14872
916.034	14724
916.146	14606
916.259	14583
916.371	14594
916.483	14663
916.595	14575
916.708	14438
916.82	14427
916.932	14552
917.044	14389
917.156	14381
917.268	14381
917.38	14313
917.491	14305
917.603	14377
917.715	14423
917.826	14396
917.938	14256
918.049	14275
918.161	14134
918.272	14507
918.384	14355
918.495	14263
918.606	14130
918.717	14020
918.828	14081
918.939	14062
919.05	14058
919.161	13989
919.272	13909
919.383	13856
919.494	14035
919.604	14248
919.715	14043
919.826	13951
919.936	13974
920.047	14046
920.157	13955
920.267	14172
920.378	13993
920.488	13993
920.598	14111
920.708	14233
920.818	14161
920.928	14115
921.038	14332
921.148	14240
921.258	13890
921.368	13791
921.477	13765
921.587	13765
921.697	13636
921.806	13807
921.916	13616
922.025	13388
922.134	13358
922.244	13308
922.353	13426
922.462	13225
922.571	13278
922.68	12993
922.789	13107
922.898	13053
923.007	12970
923.116	13012
923.224	13015
923.333	13015
923.442	12817
923.55	12844
923.659	12852
923.767	12852
923.876	12791
923.984	12802
924.092	12673
924.201	12787
924.309	12825
924.417	12795
924.525	12715
924.633	12673
924.741	13575
924.849	12486
924.956	12563
925.064	12414
925.172	12403
925.279	12448
925.387	12433
925.494	12563
925.602	12582
925.709	12582
925.816	12292
925.924	12426
926.031	12547
926.138	12395
926.245	12441
926.352	12361
926.459	12475
926.566	12502
926.673	12323
926.779	12239
926.886	12235
926.993	12022
927.099	12003
927.206	11874
927.312	12019
927.419	12049
927.525	11969
927.631	12076
927.737	11923
927.843	11885
927.95	11783
928.056	11855
928.162	11851
928.267	11931
928.373	12330
928.479	11950
928.585	11745
928.69	11771
928.796	11893
928.901	11729
929.007	11539
929.112	11668
929.218	11653
929.323	11596
929.428	11642
929.533	11764
929.638	11448
929.743	11558
929.848	11547
929.953	11532
930.058	11429
930.163	11254
930.267	11280
930.372	11387
930.477	11231
930.581	11436
930.685	11288
930.79	11136
930.894	11166
930.998	11075
931.103	11265
931.207	10824
931.311	10793
931.415	10714
931.519	10504
931.623	10554
