Data from test_V78500241_295.txt Node
Date: Fri Mar 25 14:35:46 CST 2022
User: usil
Spectrometer: V785-0024
Trigger mode: 0
Integration Time (sec): 4.000000E-1
Scans to average: 1
Nonlinearity correction enabled: false
Boxcar width: 0
Storing dark spectrum: false
XAxis mode: Wavelengths
Number of Pixels in Spectrum: 1024
>>>>>Begin Spectral Data<<<<<
801.071	27241
801.214	27135
801.356	26910
801.499	26883
801.641	26735
801.783	26743
801.926	26678
802.068	26484
802.211	26476
802.353	26545
802.496	26343
802.638	26218
802.78	26324
802.923	26145
803.065	26119
803.208	26012
803.35	26206
803.492	26256
803.635	26389
803.777	26244
803.919	26298
804.061	26522
804.204	26180
804.346	26271
804.488	26149
804.63	26199
804.773	26046
804.915	26058
805.057	26336
805.199	26103
805.341	26237
805.483	26199
805.626	26450
805.768	26126
805.91	26252
806.052	26366
806.194	26096
806.336	26446
806.478	26313
806.62	26115
806.762	26362
806.904	26336
807.046	26758
807.188	26701
807.33	26507
807.472	26655
807.614	26575
807.756	26465
807.898	26484
808.04	26347
808.182	26419
808.324	26644
808.465	26412
808.607	26686
808.749	26823
808.891	26853
809.033	26921
809.174	26910
809.316	26807
809.458	26857
809.6	26663
809.741	26727
809.883	26921
810.025	26963
810.166	26937
810.308	26967
810.45	26891
810.591	26823
810.733	26667
810.875	26579
811.016	26511
811.158	26495
811.299	26769
811.441	26735
811.582	26754
811.724	26579
811.865	26644
812.007	26670
812.148	26495
812.29	26682
812.431	26724
812.573	26701
812.714	26918
812.855	27161
812.997	27169
813.138	27150
813.279	27230
813.421	27013
813.562	27123
813.703	26910
813.845	26811
813.986	26541
814.127	26370
814.268	26195
814.41	26286
814.551	26103
814.692	26290
814.833	26088
814.974	26142
815.115	26263
815.256	26005
815.397	26024
815.539	25959
815.68	25864
815.821	25822
815.962	26069
816.103	25883
816.244	25807
816.385	25628
816.526	25635
816.666	25350
816.807	25209
816.948	25388
817.089	25457
817.23	25327
817.371	25316
817.512	25263
817.653	25251
817.793	25228
817.934	25282
818.075	25236
818.216	25358
818.356	25335
818.497	25027
818.638	24894
818.778	24878
818.919	24977
819.06	24848
819.2	24996
819.341	25152
819.481	25088
819.622	25308
819.762	25407
819.903	25415
820.043	25259
820.184	25194
820.324	25278
820.465	25240
820.605	25354
820.746	25133
820.886	25129
821.026	25285
821.167	25133
821.307	25225
821.447	25122
821.588	24916
821.728	24814
821.868	24703
822.008	24631
822.149	24536
822.289	24566
822.429	24422
822.569	24266
822.709	24110
822.849	24144
822.99	24125
823.13	23950
823.27	23809
823.41	23958
823.55	23672
823.69	23965
823.83	23691
823.97	23722
824.11	23695
824.25	23714
824.389	23687
824.529	23661
824.669	23493
824.809	23691
824.949	23672
825.089	23722
825.228	23551
825.368	23433
825.508	23299
825.648	23490
825.787	23436
825.927	23452
826.067	23277
826.206	23372
826.346	23349
826.485	23474
826.625	23303
826.765	23471
826.904	23376
827.044	23212
827.183	23064
827.323	22980
827.462	22984
827.601	23052
827.741	23052
827.88	23022
828.02	22896
828.159	23090
828.298	23102
828.437	22999
828.577	22881
828.716	23193
828.855	22957
828.994	22805
829.134	22710
829.273	22809
829.412	22759
829.551	22733
829.69	22641
829.829	22752
829.968	22809
830.107	22923
830.246	22767
830.385	22656
830.524	22592
830.663	22653
830.802	22584
830.941	22360
831.08	22344
831.219	22265
831.357	22386
831.496	22607
831.635	22322
831.774	22219
831.913	22185
832.051	22112
832.19	21975
832.329	22181
832.467	22025
832.606	21953
832.744	22048
832.883	22051
833.022	21816
833.16	21953
833.299	21937
833.437	21930
833.576	22006
833.714	21880
833.852	22188
833.991	21991
834.129	22207
834.267	22048
834.406	21991
834.544	22036
834.682	21915
834.821	21949
834.959	22097
835.097	21937
835.235	22017
835.373	21937
835.511	21903
835.65	21865
835.788	21884
835.926	21671
836.064	21804
836.202	21526
836.34	21770
836.478	21842
836.615	21682
836.753	21842
836.891	21926
837.029	21831
837.167	21816
837.305	21610
837.443	21724
837.58	21530
837.718	21724
837.856	21762
837.993	21610
838.131	21583
838.269	21458
838.406	21549
838.544	21439
838.681	21336
838.819	21260
838.956	21070
839.094	21165
839.231	21199
839.369	21245
839.506	21389
839.643	21321
839.781	20998
839.918	20887
840.055	21028
840.193	21104
840.33	21001
840.467	21169
840.604	21001
840.742	21184
840.879	20861
841.016	21039
841.153	20902
841.29	21085
841.427	20994
841.564	20933
841.701	20982
841.838	20948
841.975	20811
842.112	20762
842.249	20693
842.385	20697
842.522	20819
842.659	20678
842.796	20758
842.933	20693
843.069	20568
843.206	20590
843.343	20716
843.479	20712
843.616	20648
843.752	20473
843.889	20434
844.025	20560
844.162	20358
844.298	20575
844.435	20541
844.571	20488
844.708	20507
844.844	20617
844.98	20621
845.117	20606
845.253	20412
845.389	20351
845.525	20343
845.661	20355
845.798	20259
845.934	20408
846.07	20317
846.206	20294
846.342	20473
846.478	20210
846.614	20111
846.75	20081
846.886	19898
847.022	20012
847.158	19978
847.294	19879
847.429	20031
847.565	19780
847.701	20187
847.837	19719
847.972	19624
848.108	19685
848.244	19693
848.379	19544
848.515	19434
848.65	19449
848.786	19483
848.921	19476
849.057	19537
849.192	19510
849.328	19445
849.463	19419
849.598	19403
849.734	19407
849.869	19392
850.004	19304
850.14	19327
850.275	19240
850.41	19152
850.545	19190
850.68	19251
850.815	19274
850.95	19209
851.085	19396
851.22	19316
851.355	19289
851.49	19183
851.625	19232
851.76	19160
851.895	19042
852.03	19118
852.165	19206
852.299	19156
852.434	19293
852.569	19293
852.703	19190
852.838	19228
852.973	19339
853.107	19335
853.242	19141
853.376	19114
853.511	18924
853.645	18951
853.78	19217
853.914	19038
854.048	19038
854.183	19031
854.317	19012
854.451	19240
854.585	19065
854.72	18985
854.854	19137
854.988	18947
855.122	19031
855.256	18867
855.39	18989
855.524	19156
855.658	19148
855.792	19038
855.926	19042
856.06	19141
856.194	19072
856.327	19114
856.461	18985
856.595	19031
856.729	19042
856.862	19072
856.996	19038
857.13	19069
857.263	19217
857.397	19065
857.53	18913
857.664	19027
857.797	19053
857.931	19088
858.064	18966
858.197	19084
858.331	18954
858.464	19004
858.597	18985
858.731	18958
858.864	18947
858.997	18901
859.13	18996
859.263	19023
859.396	19034
859.529	18962
859.662	18886
859.795	18932
859.928	18932
860.061	19133
860.194	19179
860.327	18943
860.46	18886
860.592	18962
860.725	19148
860.858	19148
860.99	19061
861.123	18901
861.256	18897
861.388	18970
861.521	19529
861.653	18913
861.786	18821
861.918	18829
862.05	18993
862.183	18920
862.315	19107
862.447	19034
862.58	18901
862.712	18738
862.844	18749
862.976	18757
863.108	18779
863.24	18985
863.372	18639
863.504	18654
863.636	18730
863.768	18776
863.9	18726
864.032	18540
864.164	18669
864.296	18684
864.428	18753
864.559	18738
864.691	18760
864.823	18711
864.954	18616
865.086	18612
865.217	18547
865.349	18494
865.48	18669
865.612	18635
865.743	18787
865.875	18563
866.006	18601
866.137	18669
866.269	18608
866.4	18604
866.531	18502
866.662	18475
866.793	18574
866.924	18498
867.055	18517
867.186	18589
867.317	18513
867.448	18422
867.579	18445
867.71	18346
867.841	18513
867.972	18551
868.103	18521
868.233	18559
868.364	18551
868.495	18597
868.625	18738
868.756	18928
868.886	18688
869.017	18741
869.147	18856
869.278	18871
869.408	18848
869.539	18783
869.669	18863
869.799	18719
869.929	18779
870.06	18905
870.19	19072
870.32	18989
870.45	19053
870.58	19057
870.71	19232
870.84	19422
870.97	19122
871.1	19141
871.23	19266
871.36	19320
871.489	19259
871.619	19354
871.749	19369
871.879	19480
872.008	19548
872.138	19434
872.267	19331
872.397	19244
872.526	19179
872.656	19198
872.785	19225
872.915	19430
873.044	19422
873.173	19411
873.303	19510
873.432	19434
873.561	19578
873.69	19377
873.819	19365
873.948	19495
874.077	19514
874.206	19381
874.335	19365
874.464	19487
874.593	19700
874.722	19563
874.851	19700
874.979	19628
875.108	19681
875.237	19674
875.365	19628
875.494	19643
875.623	19776
875.751	19655
875.88	19628
876.008	19788
876.136	19811
876.265	20054
876.393	20240
876.521	20081
876.65	20145
876.778	20168
876.906	20024
877.034	19951
877.162	20046
877.29	20001
877.418	20062
877.546	20008
877.674	19993
877.802	19928
877.93	19967
878.058	19921
878.185	19856
878.313	19986
878.441	20130
878.568	19917
878.696	20001
878.824	20084
878.951	20107
879.079	20187
879.206	20294
879.333	20400
879.461	20214
879.588	20240
879.715	20202
879.842	20381
879.97	20183
880.097	19849
880.224	19879
880.351	19925
880.478	19871
880.605	19856
880.732	19906
880.859	20157
880.986	19989
881.112	19936
881.239	19738
881.366	19647
881.493	19575
881.619	19559
881.746	19499
881.872	19518
881.999	19529
882.125	19483
882.252	19582
882.378	19571
882.505	19548
882.631	19441
882.757	19259
882.883	19422
883.01	19225
883.136	19255
883.262	19118
883.388	19088
883.514	19141
883.64	19251
883.766	19187
883.892	19023
884.018	19168
884.143	19236
884.269	19377
884.395	18924
884.52	18817
884.646	18935
884.772	18890
884.897	18882
885.023	18951
885.148	19057
885.274	19072
885.399	19008
885.524	18939
885.65	18970
885.775	18973
885.9	18810
886.025	18981
886.15	18913
886.275	18825
886.4	18783
886.525	18859
886.65	18764
886.775	18878
886.9	19091
887.025	19107
887.149	18760
887.274	18707
887.399	18715
887.523	18661
887.648	18650
887.773	18582
887.897	18707
888.021	18734
888.146	18639
888.27	18760
888.395	18757
888.519	18677
888.643	18825
888.767	18719
888.891	18506
889.015	18471
889.139	18513
889.263	18547
889.387	18585
889.511	18623
889.635	18650
889.759	18384
889.883	18467
890.006	18544
890.13	18509
890.254	18410
890.377	18464
890.501	18254
890.624	18190
890.748	18369
890.871	18034
890.995	18087
891.118	18049
891.241	18011
891.364	18072
891.488	18190
891.611	17999
891.734	18178
891.857	18224
891.98	18064
892.103	18110
892.226	18060
892.349	17969
892.471	17912
892.594	18057
892.717	18114
892.839	18015
892.962	18110
893.085	18053
893.207	17942
893.33	17973
893.452	17901
893.575	17984
893.697	18076
893.819	18159
893.941	18194
894.064	18190
894.186	17969
894.308	17946
894.43	18136
894.552	18136
894.674	18022
894.796	17950
894.918	18011
895.04	17988
895.161	18178
895.283	18068
895.405	18057
895.526	18114
895.648	18015
895.769	18079
895.891	17912
896.012	18178
896.134	18182
896.255	18194
896.376	18076
896.498	18117
896.619	18102
896.74	18140
896.861	18068
896.982	18578
897.103	18498
897.224	18391
897.345	18285
897.466	18186
897.587	18311
897.708	18433
897.828	18311
897.949	18178
898.07	18190
898.19	18308
898.311	18456
898.431	18327
898.552	18292
898.672	18403
898.792	18399
898.913	18338
899.033	18209
899.153	18076
899.273	18072
899.393	18079
899.513	18117
899.633	18167
899.753	18038
899.873	18057
899.993	18121
900.113	18102
900.232	18095
900.352	18011
900.472	17950
900.591	17843
900.711	17920
900.83	17889
900.95	18053
901.069	17973
901.189	17923
901.308	17573
901.427	17547
901.546	17543
901.665	17592
901.784	17543
901.904	17493
902.023	17280
902.141	17143
902.26	17045
902.379	17170
902.498	17071
902.617	17014
902.735	17155
902.854	16911
902.973	16942
903.091	16721
903.21	16744
903.328	16771
903.446	16649
903.565	16546
903.683	16618
903.801	16478
903.919	16523
904.038	16577
904.156	16291
904.274	16436
904.392	16394
904.51	16310
904.627	16226
904.745	16398
904.863	16360
904.981	16036
905.098	16010
905.216	15972
905.334	16029
905.451	16006
905.569	15911
905.686	15960
905.803	16036
905.921	15759
906.038	15903
906.155	15770
906.272	15720
906.389	15625
906.506	15447
906.623	15496
906.74	15545
906.857	15424
906.974	15370
907.091	15549
907.208	15682
907.324	15504
907.441	15405
907.557	15260
907.674	15218
907.79	15108
907.907	15214
908.023	15298
908.139	15214
908.256	15047
908.372	15123
908.488	15032
908.604	14975
908.72	14887
908.836	14960
908.952	14941
909.068	14937
909.184	15013
909.3	14853
909.415	14910
909.531	14918
909.647	14697
909.762	14655
909.878	14632
909.993	14739
910.108	14678
910.224	14644
910.339	14545
910.454	14526
910.57	14473
910.685	14427
910.8	14701
910.915	14602
911.03	14438
911.145	14252
911.259	14298
911.374	14389
911.489	14263
911.604	14119
911.718	13967
911.833	14016
911.947	13928
912.062	13807
912.176	13917
912.291	13997
912.405	13978
912.519	14142
912.633	14221
912.748	13986
912.862	13959
912.976	13894
913.09	13734
913.204	13746
913.318	13909
913.431	13898
913.545	13944
913.659	13906
913.772	13883
913.886	13681
914	13715
914.113	13776
914.226	13898
914.34	13731
914.453	13487
914.566	13814
914.68	13483
914.793	13582
914.906	13384
915.019	13392
915.132	13240
915.245	13289
915.358	13335
915.47	13331
915.583	13316
915.696	13449
915.809	13396
915.921	13529
916.034	13251
916.146	13247
916.259	13187
916.371	13327
916.483	13297
916.595	13183
916.708	13232
916.82	13175
916.932	13278
917.044	13129
917.156	13122
917.268	12958
917.38	13050
917.491	13034
917.603	13069
917.715	13061
917.826	13183
917.938	12981
918.049	12837
918.161	12985
918.272	13103
918.384	13164
918.495	13015
918.606	12825
918.717	12821
918.828	12817
918.939	12802
919.05	12768
919.161	12814
919.272	12631
919.383	12707
919.494	12958
919.604	13000
919.715	12890
919.826	12688
919.936	12768
920.047	12928
920.157	12871
920.267	12958
920.378	12783
920.488	12783
920.598	13019
920.708	13023
920.818	12981
920.928	12897
921.038	13072
921.148	13004
921.258	12772
921.368	12802
921.477	12498
921.587	12585
921.697	12399
921.806	12574
921.916	12460
922.025	12254
922.134	12243
922.244	12220
922.353	12296
922.462	12041
922.571	12038
922.68	11923
922.789	11855
922.898	11939
923.007	11893
923.116	11893
923.224	11878
923.333	11920
923.442	11733
923.55	11699
923.659	11653
923.767	11726
923.876	11543
923.984	11794
924.092	11665
924.201	11615
924.309	11661
924.417	11649
924.525	11615
924.633	11566
924.741	12555
924.849	11410
924.956	11528
925.064	11429
925.172	11311
925.279	11395
925.387	11516
925.494	11345
925.602	11558
925.709	11421
925.816	11288
925.924	11402
926.031	11474
926.138	11463
926.245	11429
926.352	11239
926.459	11421
926.566	11421
926.673	11258
926.779	11159
926.886	11201
926.993	11083
927.099	10965
927.206	11010
927.312	10949
927.419	11060
927.525	11071
927.631	11045
927.737	10900
927.843	10820
927.95	10744
928.056	10858
928.162	10854
928.267	11018
928.373	11452
928.479	10961
928.585	10702
928.69	10820
928.796	10923
928.901	10733
929.007	10603
929.112	10774
929.218	10664
929.323	10607
929.428	10603
929.533	10759
929.638	10561
929.743	10622
929.848	10607
929.953	10672
930.058	10462
930.163	10417
930.267	10367
930.372	10481
930.477	10341
930.581	10504
930.685	10356
930.79	10284
930.894	10280
930.998	10177
931.103	10344
931.207	9956
931.311	9911
931.415	9827
931.519	9523
931.623	9606
