Data from test_V78500241_2575.txt Node
Date: Fri Mar 25 14:51:38 CST 2022
User: usil
Spectrometer: V785-0024
Trigger mode: 0
Integration Time (sec): 4.000000E-1
Scans to average: 1
Nonlinearity correction enabled: false
Boxcar width: 0
Storing dark spectrum: false
XAxis mode: Wavelengths
Number of Pixels in Spectrum: 1024
>>>>>Begin Spectral Data<<<<<
801.071	21998
801.214	21861
801.356	21663
801.499	21519
801.641	21378
801.783	21542
801.926	21485
802.068	21363
802.211	21329
802.353	21081
802.496	21020
802.638	20960
802.78	20739
802.923	20750
803.065	20682
803.208	20678
803.35	20807
803.492	20819
803.635	20800
803.777	20644
803.919	20842
804.061	21032
804.204	20674
804.346	20568
804.488	20621
804.63	20727
804.773	20613
804.915	20644
805.057	20796
805.199	20689
805.341	20590
805.483	20804
805.626	20727
805.768	20705
805.91	20644
806.052	20693
806.194	20514
806.336	20701
806.478	20617
806.62	20629
806.762	20644
806.904	20838
807.046	20990
807.188	20975
807.33	20941
807.472	21020
807.614	20986
807.756	20796
807.898	20739
808.04	20549
808.182	20712
808.324	20781
808.465	20697
808.607	20967
808.749	20956
808.891	21108
809.033	21112
809.174	21116
809.316	21009
809.458	21074
809.6	20895
809.741	21096
809.883	21036
810.025	21100
810.166	21127
810.308	21123
810.45	21108
810.591	21055
810.733	20796
810.875	20967
811.016	20735
811.158	20636
811.299	20887
811.441	21028
811.582	20868
811.724	20686
811.865	20731
812.007	20659
812.148	20769
812.29	20804
812.431	20921
812.573	21070
812.714	21222
812.855	21298
812.997	21275
813.138	21526
813.279	21477
813.421	21386
813.562	21222
813.703	21112
813.845	20883
813.986	20617
814.127	20454
814.268	20351
814.41	20240
814.551	20244
814.692	20389
814.833	20248
814.974	20252
815.115	20298
815.256	20145
815.397	20187
815.539	20256
815.68	19963
815.821	19951
815.962	20077
816.103	19970
816.244	19883
816.385	19784
816.526	19761
816.666	19635
816.807	19525
816.948	19468
817.089	19533
817.23	19567
817.371	19434
817.512	19556
817.653	19301
817.793	19422
817.934	19422
818.075	19521
818.216	19384
818.356	19426
818.497	19183
818.638	19118
818.778	19148
818.919	19084
819.06	19152
819.2	19213
819.341	19373
819.481	19343
819.622	19540
819.762	19689
819.903	19639
820.043	19499
820.184	19453
820.324	19499
820.465	19594
820.605	19422
820.746	19422
820.886	19369
821.026	19381
821.167	19274
821.307	19377
821.447	19308
821.588	19175
821.728	19110
821.868	19057
822.008	18947
822.149	18928
822.289	18802
822.429	18490
822.569	18604
822.709	18604
822.849	18422
822.99	18308
823.13	18315
823.27	18353
823.41	18095
823.55	18163
823.69	18220
823.83	18167
823.97	18079
824.11	18003
824.25	17794
824.389	17958
824.529	17939
824.669	17802
824.809	18045
824.949	18072
825.089	17923
825.228	17882
825.368	17809
825.508	17703
825.648	17741
825.787	17760
825.927	17703
826.067	17570
826.206	17604
826.346	17745
826.485	17741
826.625	17699
826.765	17737
826.904	17691
827.044	17448
827.183	17421
827.323	17395
827.462	17532
827.601	17341
827.741	17265
827.88	17448
828.02	17280
828.159	17326
828.298	17383
828.437	17497
828.577	17387
828.716	17512
828.855	17296
828.994	17197
829.134	17178
829.273	17197
829.412	17220
829.551	17029
829.69	17052
829.829	17181
829.968	17200
830.107	17124
830.246	17121
830.385	17029
830.524	17064
830.663	16957
830.802	16850
830.941	16869
831.08	16736
831.219	16927
831.357	16774
831.496	16942
831.635	16805
831.774	16668
831.913	16759
832.051	16512
832.19	16569
832.329	16596
832.467	16440
832.606	16329
832.744	16561
832.883	16424
833.022	16504
833.16	16447
833.299	16538
833.437	16417
833.576	16440
833.714	16519
833.852	16588
833.991	16474
834.129	16546
834.267	16668
834.406	16489
834.544	16451
834.682	16451
834.821	16500
834.959	16687
835.097	16459
835.235	16580
835.373	16569
835.511	16489
835.65	16451
835.788	16470
835.926	16276
836.064	16162
836.202	16276
836.34	16478
836.478	16637
836.615	16379
836.753	16371
836.891	16596
837.029	16409
837.167	16386
837.305	16325
837.443	16230
837.58	16272
837.718	16291
837.856	16413
837.993	16257
838.131	16299
838.269	16207
838.406	16265
838.544	16219
838.681	16017
838.819	15926
838.956	15865
839.094	15823
839.231	15930
839.369	15979
839.506	16287
839.643	16082
839.781	15819
839.918	15876
840.055	15819
840.193	15903
840.33	15736
840.467	15926
840.604	15873
840.742	16097
840.879	15781
841.016	15797
841.153	15709
841.29	15926
841.427	15819
841.564	15854
841.701	15762
841.838	15793
841.975	15682
842.112	15755
842.249	15625
842.385	15641
842.522	15888
842.659	15587
842.796	15698
842.933	15614
843.069	15614
843.206	15648
843.343	15770
843.479	15618
843.616	15675
843.752	15454
843.889	15428
844.025	15526
844.162	15401
844.298	15447
844.435	15355
844.571	15397
844.708	15428
844.844	15584
844.98	15584
845.117	15561
845.253	15382
845.389	15321
845.525	15370
845.661	15351
845.798	15260
845.934	15283
846.07	15119
846.206	15260
846.342	15397
846.478	15192
846.614	15123
846.75	14944
846.886	14899
847.022	15195
847.158	14982
847.294	14952
847.429	14986
847.565	14994
847.701	15192
847.837	14746
847.972	14765
848.108	14727
848.244	14838
848.379	14606
848.515	14617
848.65	14636
848.786	14571
848.921	14526
849.057	14644
849.192	14689
849.328	14686
849.463	14621
849.598	14450
849.734	14514
849.869	14514
850.004	14385
850.14	14412
850.275	14476
850.41	14240
850.545	14313
850.68	14317
850.815	14385
850.95	14343
851.085	14549
851.22	14442
851.355	14351
851.49	14336
851.625	14366
851.76	14374
851.895	14290
852.03	14225
852.165	14278
852.299	14442
852.434	14442
852.569	14396
852.703	14347
852.838	14438
852.973	14556
853.107	14541
853.242	14355
853.376	14259
853.511	14180
853.645	14195
853.78	14404
853.914	14298
854.048	14210
854.183	14187
854.317	14275
854.451	14438
854.585	14237
854.72	14294
854.854	14275
854.988	14256
855.122	14229
855.256	14046
855.39	14313
855.524	14355
855.658	14286
855.792	14286
855.926	14347
856.06	14290
856.194	14377
856.327	14347
856.461	14214
856.595	14320
856.729	14290
856.862	14389
856.996	14275
857.13	14313
857.263	14419
857.397	14427
857.53	14290
857.664	14393
857.797	14377
857.931	14385
858.064	14309
858.197	14351
858.331	14259
858.464	14271
858.597	14149
858.731	14248
858.864	14305
858.997	14271
859.13	14324
859.263	14294
859.396	14339
859.529	14214
859.662	14183
859.795	14145
859.928	14256
860.061	14446
860.194	14518
860.327	14343
860.46	14290
860.592	14446
860.725	14366
860.858	14396
860.99	14263
861.123	14164
861.256	14282
861.388	14309
861.521	14883
861.653	14161
861.786	14183
861.918	14149
862.05	14168
862.183	14183
862.315	14320
862.447	14278
862.58	14267
862.712	13982
862.844	14081
862.976	14100
863.108	14084
863.24	14571
863.372	13993
863.504	14119
863.636	14062
863.768	14111
863.9	14096
864.032	14027
864.164	13970
864.296	14176
864.428	14096
864.559	14107
864.691	14138
864.823	14134
864.954	14107
865.086	14153
865.217	14115
865.349	14027
865.48	14123
865.612	14081
865.743	14103
865.875	14008
866.006	14027
866.137	13993
866.269	14027
866.4	14058
866.531	14054
866.662	13974
866.793	14005
866.924	13883
867.055	14008
867.186	14035
867.317	13932
867.448	13871
867.579	13917
867.71	13928
867.841	14050
867.972	14035
868.103	14016
868.233	14054
868.364	14069
868.495	14100
868.625	14225
868.756	14415
868.886	14157
869.017	14191
869.147	14408
869.278	14404
869.408	14347
869.539	14271
869.669	14377
869.799	14389
869.929	14427
870.06	14454
870.19	14613
870.32	14560
870.45	14663
870.58	14735
870.71	14720
870.84	14815
870.97	14575
871.1	14674
871.23	14921
871.36	14804
871.489	14754
871.619	14796
871.749	14868
871.879	14914
872.008	14986
872.138	14914
872.267	14819
872.397	14689
872.526	14594
872.656	14667
872.785	14815
872.915	14975
873.044	14944
873.173	14800
873.303	15009
873.432	14998
873.561	14941
873.69	14933
873.819	14975
873.948	15032
874.077	15001
874.206	15017
874.335	14960
874.464	15135
874.593	15256
874.722	15138
874.851	15275
874.979	15283
875.108	15291
875.237	15264
875.365	15184
875.494	15211
875.623	15416
875.751	15218
875.88	15287
876.008	15363
876.136	15599
876.265	15633
876.393	15854
876.521	15736
876.65	15713
876.778	15690
876.906	15698
877.034	15637
877.162	15732
877.29	15610
877.418	15751
877.546	15682
877.674	15663
877.802	15739
877.93	15720
878.058	15652
878.185	15511
878.313	15671
878.441	15667
878.568	15542
878.696	15576
878.824	15644
878.951	15667
879.079	15835
879.206	15873
879.333	15892
879.461	15633
879.588	15709
879.715	15793
879.842	16021
879.97	15819
880.097	15481
880.224	15530
880.351	15504
880.478	15572
880.605	15523
880.732	15530
880.859	15709
880.986	15431
881.112	15606
881.239	15405
881.366	15359
881.493	15180
881.619	15089
881.746	15241
881.872	15138
881.999	15127
882.125	15150
882.252	15329
882.378	15218
882.505	15264
882.631	15157
882.757	14849
882.883	14967
883.01	14960
883.136	14967
883.262	14830
883.388	14830
883.514	15043
883.64	14990
883.766	14861
883.892	14823
884.018	14830
884.143	14971
884.269	15043
884.395	14788
884.52	14648
884.646	14758
884.772	14617
884.897	14587
885.023	14708
885.148	14883
885.274	14853
885.399	14804
885.524	14739
885.65	14693
885.775	14678
885.9	14590
886.025	14739
886.15	14792
886.275	14640
886.4	14610
886.525	14648
886.65	14629
886.775	14693
886.9	14834
887.025	14910
887.149	14651
887.274	14549
887.399	14484
887.523	14514
887.648	14431
887.773	14366
887.897	14659
888.021	14526
888.146	14393
888.27	14610
888.395	14697
888.519	14625
888.643	14511
888.767	14511
888.891	14457
889.015	14377
889.139	14393
889.263	14320
889.387	14594
889.511	14564
889.635	14522
889.759	14343
889.883	14366
890.006	14408
890.13	14492
890.254	14282
890.377	14370
890.501	14145
890.624	14214
890.748	14180
890.871	14172
890.995	14073
891.118	14046
891.241	14073
891.364	14199
891.488	14161
891.611	14043
891.734	14130
891.857	14111
891.98	14126
892.103	14221
892.226	14214
892.349	14027
892.471	13803
892.594	14084
892.717	14123
892.839	14126
892.962	14145
893.085	14130
893.207	14073
893.33	14005
893.452	14084
893.575	14088
893.697	14016
893.819	14278
893.941	14339
894.064	14199
894.186	14058
894.308	14050
894.43	14134
894.552	14393
894.674	14202
894.796	14073
894.918	14168
895.04	14024
895.161	14244
895.283	14180
895.405	14149
895.526	14225
895.648	14176
895.769	14214
895.891	14244
896.012	14278
896.134	14271
896.255	14225
896.376	14290
896.498	14282
896.619	14320
896.74	14267
896.861	14362
896.982	14579
897.103	14861
897.224	14598
897.345	14522
897.466	14400
897.587	14571
897.708	14670
897.828	14587
897.949	14552
898.07	14412
898.19	14473
898.311	14716
898.431	14579
898.552	14613
898.672	14667
898.792	14636
898.913	14667
899.033	14499
899.153	14431
899.273	14336
899.393	14541
899.513	14480
899.633	14381
899.753	14537
899.873	14377
899.993	14503
900.113	14442
900.232	14503
900.352	14427
900.472	14377
900.591	14233
900.711	14351
900.83	14267
900.95	14400
901.069	14423
901.189	14275
901.308	14039
901.427	13989
901.546	13955
901.665	14039
901.784	14065
901.904	13887
902.023	13753
902.141	13636
902.26	13594
902.379	13651
902.498	13571
902.617	13525
902.735	13537
902.854	13480
902.973	13468
903.091	13358
903.21	13282
903.328	13259
903.446	13316
903.565	13103
903.683	13183
903.801	12996
903.919	13122
904.038	13034
904.156	12996
904.274	13118
904.392	13012
904.51	12981
904.627	12920
904.745	12958
904.863	12962
904.981	12821
905.098	12616
905.216	12707
905.334	12662
905.451	12715
905.569	12582
905.686	12623
905.803	12620
905.921	12502
906.038	12536
906.155	12483
906.272	12350
906.389	12395
906.506	12289
906.623	12277
906.74	12133
906.857	12155
906.974	12186
907.091	12353
907.208	12330
907.324	12308
907.441	12186
907.557	11931
907.674	11992
907.79	11897
907.907	11958
908.023	11916
908.139	11942
908.256	11912
908.372	11920
908.488	11920
908.604	11764
908.72	11649
908.836	11691
908.952	11756
909.068	11802
909.184	11771
909.3	11714
909.415	11855
909.531	11726
909.647	11551
909.762	11539
909.878	11490
909.993	11581
910.108	11505
910.224	11474
910.339	11532
910.454	11398
910.57	11330
910.685	11330
910.8	11630
910.915	11482
911.03	11379
911.145	11250
911.259	11250
911.374	11220
911.489	11117
911.604	11064
911.718	10984
911.833	11037
911.947	10869
912.062	10767
912.176	10949
912.291	10972
912.405	10965
912.519	11124
912.633	11124
912.748	10999
912.862	11018
912.976	10835
913.09	10736
913.204	10778
913.318	10892
913.431	10961
913.545	10942
913.659	10984
913.772	10831
913.886	10736
914	10706
914.113	10820
914.226	10877
914.34	10782
914.453	10691
914.566	10850
914.68	10615
914.793	10569
914.906	10474
915.019	10478
915.132	10421
915.245	10451
915.358	10489
915.47	10443
915.583	10489
915.696	10508
915.809	10596
915.921	10649
916.034	10462
916.146	10519
916.259	10432
916.371	10504
916.483	10592
916.595	10413
916.708	10371
916.82	10440
916.932	10363
917.044	10375
917.156	10303
917.268	10219
917.38	10291
917.491	10295
917.603	10329
917.715	10314
917.826	10348
917.938	10318
918.049	10211
918.161	10291
918.272	10421
918.384	10375
918.495	10325
918.606	10154
918.717	10116
918.828	10253
918.939	10211
919.05	10071
919.161	10150
919.272	9994
919.383	10059
919.494	10185
919.604	10424
919.715	10227
919.826	10128
919.936	10131
920.047	10246
920.157	10207
920.267	10424
920.378	10268
920.488	10249
920.598	10440
920.708	10519
920.818	10451
920.928	10447
921.038	10538
921.148	10558
921.258	10227
921.368	10188
921.477	10147
921.587	10044
921.697	9979
921.806	10135
921.916	9968
922.025	9880
922.134	9812
922.244	9740
922.353	9804
922.462	9675
922.571	9603
922.68	9545
922.789	9458
922.898	9462
923.007	9389
923.116	9485
923.224	9500
923.333	9549
923.442	9344
923.55	9348
923.659	9435
923.767	9443
923.876	9344
923.984	9447
924.092	9310
924.201	9332
924.309	9408
924.417	9397
924.525	9275
924.633	9359
924.741	10071
924.849	9047
924.956	9325
925.064	9150
925.172	9074
925.279	9074
925.387	9138
925.494	9214
925.602	9294
925.709	9169
925.816	9123
925.924	9146
926.031	9214
926.138	9218
926.245	9222
926.352	9119
926.459	9192
926.566	9279
926.673	9108
926.779	8982
926.886	8990
926.993	8906
927.099	8834
927.206	8842
927.312	8762
927.419	8906
927.525	8815
927.631	8941
927.737	8823
927.843	8750
927.95	8670
928.056	8785
928.162	8758
928.267	8781
928.373	9405
928.479	8902
928.585	8678
928.69	8670
928.796	8758
928.901	8739
929.007	8545
929.112	8754
929.218	8659
929.323	8640
929.428	8594
929.533	8705
929.638	8526
929.743	8606
929.848	8583
929.953	8526
930.058	8541
930.163	8301
930.267	8374
930.372	8465
930.477	8290
930.581	8575
930.685	8423
930.79	8328
930.894	8301
930.998	8301
931.103	8423
931.207	8039
931.311	8035
931.415	7970
931.519	7856
931.623	7788
