Data from test_V78500241_3096.txt Node
Date: Fri Mar 25 14:55:16 CST 2022
User: usil
Spectrometer: V785-0024
Trigger mode: 0
Integration Time (sec): 4.000000E-1
Scans to average: 1
Nonlinearity correction enabled: false
Boxcar width: 0
Storing dark spectrum: false
XAxis mode: Wavelengths
Number of Pixels in Spectrum: 1024
>>>>>Begin Spectral Data<<<<<
801.071	22025
801.214	21895
801.356	21698
801.499	21526
801.641	21469
801.783	21431
801.926	21401
802.068	21310
802.211	21230
802.353	21150
802.496	21024
802.638	20880
802.78	20929
802.923	20845
803.065	20800
803.208	20644
803.35	20788
803.492	20845
803.635	20883
803.777	20842
803.919	20853
804.061	20960
804.204	20746
804.346	20659
804.488	20587
804.63	20800
804.773	20640
804.915	20625
805.057	20693
805.199	20705
805.341	20727
805.483	20826
805.626	20724
805.768	20697
805.91	20815
806.052	20693
806.194	20674
806.336	20785
806.478	20651
806.62	20518
806.762	20743
806.904	20929
807.046	21043
807.188	21085
807.33	20933
807.472	21123
807.614	20834
807.756	20990
807.898	20857
808.04	20823
808.182	20602
808.324	20659
808.465	20823
808.607	20956
808.749	21142
808.891	21108
809.033	21226
809.174	21070
809.316	21017
809.458	21093
809.6	21020
809.741	21096
809.883	21096
810.025	21085
810.166	21214
810.308	21256
810.45	21233
810.591	21100
810.733	20906
810.875	20823
811.016	20754
811.158	20670
811.299	20887
811.441	20963
811.582	20880
811.724	20804
811.865	20857
812.007	20918
812.148	20830
812.29	20750
812.431	21001
812.573	21218
812.714	21116
812.855	21249
812.997	21435
813.138	21412
813.279	21568
813.421	21298
813.562	21154
813.703	21093
813.845	20952
813.986	20651
814.127	20503
814.268	20396
814.41	20412
814.551	20324
814.692	20427
814.833	20374
814.974	20202
815.115	20427
815.256	20153
815.397	20252
815.539	20202
815.68	20054
815.821	20115
815.962	20107
816.103	20142
816.244	20001
816.385	19841
816.526	19826
816.666	19480
816.807	19495
816.948	19594
817.089	19746
817.23	19483
817.371	19597
817.512	19533
817.653	19514
817.793	19354
817.934	19434
818.075	19537
818.216	19518
818.356	19346
818.497	19213
818.638	19171
818.778	19129
818.919	19198
819.06	19095
819.2	19270
819.341	19377
819.481	19320
819.622	19449
819.762	19666
819.903	19753
820.043	19582
820.184	19502
820.324	19445
820.465	19476
820.605	19422
820.746	19468
820.886	19327
821.026	19506
821.167	19339
821.307	19480
821.447	19487
821.588	19358
821.728	19095
821.868	18985
822.008	18738
822.149	18817
822.289	18901
822.429	18532
822.569	18509
822.709	18426
822.849	18388
822.99	18399
823.13	18311
823.27	18285
823.41	18129
823.55	18178
823.69	18228
823.83	18190
823.97	18140
824.11	17874
824.25	17882
824.389	17855
824.529	17992
824.669	17935
824.809	18053
824.949	17977
825.089	17912
825.228	18019
825.368	17752
825.508	17855
825.648	17691
825.787	17760
825.927	17741
826.067	17573
826.206	17695
826.346	17718
826.485	17703
826.625	17699
826.765	17847
826.904	17680
827.044	17429
827.183	17383
827.323	17318
827.462	17395
827.601	17417
827.741	17349
827.88	17330
828.02	17242
828.159	17425
828.298	17360
828.437	17379
828.577	17356
828.716	17467
828.855	17353
828.994	17181
829.134	17143
829.273	17185
829.412	17045
829.551	17105
829.69	17045
829.829	17227
829.968	17239
830.107	17162
830.246	17193
830.385	17109
830.524	16927
830.663	17010
830.802	16843
830.941	16752
831.08	16687
831.219	16774
831.357	16706
831.496	16869
831.635	16725
831.774	16664
831.913	16584
832.051	16603
832.19	16660
832.329	16481
832.467	16375
832.606	16306
832.744	16402
832.883	16447
833.022	16329
833.16	16382
833.299	16481
833.437	16352
833.576	16360
833.714	16413
833.852	16455
833.991	16493
834.129	16577
834.267	16550
834.406	16424
834.544	16531
834.682	16485
834.821	16550
834.959	16660
835.097	16455
835.235	16538
835.373	16474
835.511	16538
835.65	16447
835.788	16405
835.926	16226
836.064	16169
836.202	16268
836.34	16470
836.478	16504
836.615	16341
836.753	16329
836.891	16443
837.029	16443
837.167	16375
837.305	16310
837.443	16333
837.58	16272
837.718	16325
837.856	16257
837.993	16177
838.131	16280
838.269	16082
838.406	16200
838.544	16067
838.681	15937
838.819	15930
838.956	15759
839.094	15705
839.231	15827
839.369	16071
839.506	16177
839.643	16059
839.781	15789
839.918	15884
840.055	15797
840.193	15800
840.33	15831
840.467	15755
840.604	15903
840.742	16074
840.879	15641
841.016	15717
841.153	15797
841.29	15937
841.427	15842
841.564	15781
841.701	15850
841.838	15800
841.975	15774
842.112	15743
842.249	15603
842.385	15675
842.522	15686
842.659	15545
842.796	15591
842.933	15530
843.069	15564
843.206	15492
843.343	15743
843.479	15618
843.616	15580
843.752	15405
843.889	15370
844.025	15557
844.162	15310
844.298	15526
844.435	15313
844.571	15374
844.708	15397
844.844	15500
844.98	15485
845.117	15397
845.253	15344
845.389	15306
845.525	15306
845.661	15249
845.798	15207
845.934	15264
846.07	15176
846.206	15180
846.342	15317
846.478	15165
846.614	14921
846.75	14899
846.886	14933
847.022	15089
847.158	15036
847.294	14941
847.429	14982
847.565	14925
847.701	15192
847.837	14621
847.972	14667
848.108	14788
848.244	14716
848.379	14610
848.515	14594
848.65	14503
848.786	14473
848.921	14598
849.057	14655
849.192	14659
849.328	14590
849.463	14476
849.598	14499
849.734	14495
849.869	14427
850.004	14290
850.14	14374
850.275	14309
850.41	14298
850.545	14195
850.68	14328
850.815	14438
850.95	14229
851.085	14610
851.22	14434
851.355	14267
851.49	14240
851.625	14221
851.76	14225
851.895	14202
852.03	14123
852.165	14233
852.299	14351
852.434	14358
852.569	14305
852.703	14362
852.838	14393
852.973	14480
853.107	14396
853.242	14233
853.376	14195
853.511	13955
853.645	14092
853.78	14233
853.914	14210
854.048	14065
854.183	14081
854.317	14134
854.451	14343
854.585	14221
854.72	14191
854.854	14282
854.988	14149
855.122	14096
855.256	14005
855.39	14123
855.524	14218
855.658	14172
855.792	14237
855.926	14237
856.06	14263
856.194	14210
856.327	14164
856.461	14168
856.595	14130
856.729	14130
856.862	14313
856.996	14145
857.13	14233
857.263	14355
857.397	14229
857.53	14172
857.664	14191
857.797	14271
857.931	14309
858.064	14286
858.197	14294
858.331	14168
858.464	14065
858.597	14138
858.731	14187
858.864	14115
858.997	14164
859.13	14218
859.263	14168
859.396	14229
859.529	14164
859.662	14096
859.795	14065
859.928	14256
860.061	14339
860.194	14400
860.327	14161
860.46	14195
860.592	14259
860.725	14240
860.858	14301
860.99	14161
861.123	14153
861.256	14027
861.388	14256
861.521	14857
861.653	14001
861.786	14046
861.918	14024
862.05	13989
862.183	14130
862.315	14107
862.447	14161
862.58	14149
862.712	13871
862.844	13860
862.976	14065
863.108	13986
863.24	14271
863.372	13959
863.504	13921
863.636	13917
863.768	14008
863.9	13947
864.032	13894
864.164	13967
864.296	14012
864.428	14073
864.559	14119
864.691	13997
864.823	14065
864.954	14062
865.086	14024
865.217	13894
865.349	13860
865.48	13932
865.612	13959
865.743	14005
865.875	13849
866.006	13894
866.137	14020
866.269	13940
866.4	13928
866.531	13940
866.662	13883
866.793	13902
866.924	13955
867.055	13845
867.186	13890
867.317	13917
867.448	13860
867.579	13887
867.71	13875
867.841	13921
867.972	13906
868.103	13970
868.233	14008
868.364	13967
868.495	13906
868.625	14115
868.756	14396
868.886	14039
869.017	14164
869.147	14309
869.278	14336
869.408	14259
869.539	14153
869.669	14263
869.799	14237
869.929	14332
870.06	14336
870.19	14488
870.32	14492
870.45	14549
870.58	14602
870.71	14697
870.84	14655
870.97	14556
871.1	14686
871.23	14754
871.36	14716
871.489	14724
871.619	14765
871.749	14621
871.879	14876
872.008	14861
872.138	14792
872.267	14655
872.397	14625
872.526	14583
872.656	14602
872.785	14655
872.915	14830
873.044	14857
873.173	14811
873.303	14838
873.432	14853
873.561	14982
873.69	14773
873.819	14792
873.948	14891
874.077	14800
874.206	14716
874.335	14880
874.464	14899
874.593	15146
874.722	14998
874.851	15203
874.979	15195
875.108	15195
875.237	15013
875.365	15058
875.494	15116
875.623	15214
875.751	15024
875.88	15214
876.008	15367
876.136	15420
876.265	15481
876.393	15717
876.521	15622
876.65	15603
876.778	15561
876.906	15466
877.034	15450
877.162	15549
877.29	15542
877.418	15492
877.546	15549
877.674	15561
877.802	15564
877.93	15477
878.058	15523
878.185	15481
878.313	15557
878.441	15542
878.568	15378
878.696	15393
878.824	15663
878.951	15698
879.079	15747
879.206	15895
879.333	15675
879.461	15580
879.588	15720
879.715	15835
879.842	15812
879.97	15622
880.097	15412
880.224	15359
880.351	15408
880.478	15321
880.605	15359
880.732	15393
880.859	15542
880.986	15462
881.112	15408
881.239	15256
881.366	15150
881.493	15207
881.619	15188
881.746	15142
881.872	15123
881.999	14994
882.125	15127
882.252	15093
882.378	15161
882.505	15169
882.631	14986
882.757	14872
882.883	14902
883.01	14891
883.136	14876
883.262	14826
883.388	14720
883.514	14872
883.64	14948
883.766	14746
883.892	14712
884.018	14735
884.143	14861
884.269	14918
884.395	14640
884.52	14632
884.646	14507
884.772	14530
884.897	14514
885.023	14617
885.148	14708
885.274	14731
885.399	14769
885.524	14617
885.65	14629
885.775	14640
885.9	14575
886.025	14727
886.15	14708
886.275	14533
886.4	14545
886.525	14659
886.65	14530
886.775	14537
886.9	14689
887.025	14796
887.149	14670
887.274	14434
887.399	14317
887.523	14377
887.648	14396
887.773	14400
887.897	14484
888.021	14473
888.146	14374
888.27	14465
888.395	14533
888.519	14507
888.643	14423
888.767	14568
888.891	14275
889.015	14305
889.139	14377
889.263	14385
889.387	14362
889.511	14499
889.635	14214
889.759	14271
889.883	14221
890.006	14286
890.13	14389
890.254	14107
890.377	14298
890.501	14142
890.624	14046
890.748	14176
890.871	13959
890.995	13993
891.118	13871
891.241	13909
891.364	14073
891.488	14096
891.611	13928
891.734	13997
891.857	14062
891.98	14069
892.103	14153
892.226	13997
892.349	13997
892.471	13811
892.594	14008
892.717	14001
892.839	13986
892.962	13967
893.085	13982
893.207	13989
893.33	13944
893.452	13951
893.575	14088
893.697	14020
893.819	14180
893.941	14172
894.064	14176
894.186	13955
894.308	13986
894.43	14088
894.552	14195
894.674	14058
894.796	13947
894.918	13936
895.04	13974
895.161	14191
895.283	14153
895.405	14062
895.526	14054
895.648	14126
895.769	14123
895.891	14153
896.012	14282
896.134	14126
896.255	14123
896.376	14214
896.498	14081
896.619	14324
896.74	14275
896.861	14290
896.982	14431
897.103	14655
897.224	14476
897.345	14400
897.466	14324
897.587	14427
897.708	14621
897.828	14484
897.949	14427
898.07	14305
898.19	14461
898.311	14545
898.431	14545
898.552	14518
898.672	14602
898.792	14708
898.913	14549
899.033	14415
899.153	14404
899.273	14301
899.393	14305
899.513	14355
899.633	14332
899.753	14495
899.873	14366
899.993	14461
900.113	14305
900.232	14412
900.352	14385
900.472	14259
900.591	14237
900.711	14309
900.83	14362
900.95	14252
901.069	14317
901.189	14240
901.308	14001
901.427	13852
901.546	13970
901.665	13989
901.784	13986
901.904	13795
902.023	13795
902.141	13597
902.26	13476
902.379	13544
902.498	13476
902.617	13476
902.735	13525
902.854	13525
902.973	13544
903.091	13240
903.21	13183
903.328	13225
903.446	13221
903.565	13137
903.683	13194
903.801	12928
903.919	13072
904.038	13053
904.156	12897
904.274	12905
904.392	12897
904.51	12859
904.627	12901
904.745	12954
904.863	12924
904.981	12719
905.098	12574
905.216	12555
905.334	12620
905.451	12532
905.569	12612
905.686	12521
905.803	12559
905.921	12384
906.038	12559
906.155	12441
906.272	12300
906.389	12372
906.506	12197
906.623	12152
906.74	12201
906.857	12102
906.974	12163
907.091	12175
907.208	12289
907.324	12281
907.441	12125
907.557	11843
907.674	11847
907.79	11889
907.907	11927
908.023	11912
908.139	11939
908.256	11832
908.372	11760
908.488	11832
908.604	11722
908.72	11570
908.836	11703
908.952	11729
909.068	11688
909.184	11863
909.3	11684
909.415	11726
909.531	11783
909.647	11387
909.762	11406
909.878	11402
909.993	11486
910.108	11452
910.224	11349
910.339	11474
910.454	11383
910.57	11197
910.685	11178
910.8	11562
910.915	11417
911.03	11269
911.145	11109
911.259	11071
911.374	11204
911.489	11128
911.604	10995
911.718	10866
911.833	10961
911.947	10778
912.062	10759
912.176	10911
912.291	10923
912.405	10927
912.519	11064
912.633	11113
912.748	11075
912.862	10976
912.976	10797
913.09	10763
913.204	10767
913.318	10820
913.431	10896
913.545	10885
913.659	10892
913.772	10812
913.886	10672
914	10679
914.113	10786
914.226	10831
914.34	10729
914.453	10546
914.566	10721
914.68	10615
914.793	10611
914.906	10478
915.019	10382
915.132	10348
915.245	10360
915.358	10386
915.47	10428
915.583	10382
915.696	10436
915.809	10565
915.921	10558
916.034	10398
916.146	10405
916.259	10314
916.371	10489
916.483	10447
916.595	10352
916.708	10360
916.82	10382
916.932	10363
917.044	10344
917.156	10333
917.268	10268
917.38	10253
917.491	10341
917.603	10249
917.715	10344
917.826	10314
917.938	10291
918.049	10143
918.161	10287
918.272	10348
918.384	10405
918.495	10249
918.606	10162
918.717	10093
918.828	10124
918.939	10131
919.05	10063
919.161	10097
919.272	9926
919.383	10036
919.494	10181
919.604	10413
919.715	10139
919.826	10006
919.936	10082
920.047	10215
920.157	10150
920.267	10382
920.378	10207
920.488	10162
920.598	10310
920.708	10474
920.818	10348
920.928	10322
921.038	10474
921.148	10440
921.258	10219
921.368	10071
921.477	9964
921.587	10029
921.697	9899
921.806	10059
921.916	9850
922.025	9660
922.134	9686
922.244	9610
922.353	9774
922.462	9686
922.571	9580
922.68	9363
922.789	9370
922.898	9359
923.007	9386
923.116	9462
923.224	9401
923.333	9405
923.442	9272
923.55	9256
923.659	9291
923.767	9443
923.876	9283
923.984	9367
924.092	9222
924.201	9253
924.309	9192
924.417	9310
924.525	9268
924.633	9161
924.741	10124
924.849	9081
924.956	9199
925.064	9066
925.172	9039
925.279	9055
925.387	9051
925.494	9047
925.602	9233
925.709	9097
925.816	8941
925.924	9036
926.031	9211
926.138	9074
926.245	9150
926.352	8956
926.459	9089
926.566	9150
926.673	8975
926.779	8979
926.886	8921
926.993	8800
927.099	8811
927.206	8697
927.312	8705
927.419	8811
927.525	8804
927.631	8838
927.737	8758
927.843	8667
927.95	8526
928.056	8602
928.162	8712
928.267	8773
928.373	9359
928.479	8811
928.585	8518
928.69	8613
928.796	8689
928.901	8571
929.007	8404
929.112	8610
929.218	8522
929.323	8556
929.428	8530
929.533	8674
929.638	8404
929.743	8419
929.848	8473
929.953	8533
930.058	8362
930.163	8309
930.267	8221
930.372	8419
930.477	8244
930.581	8495
930.685	8366
930.79	8237
930.894	8225
930.998	8168
931.103	8393
931.207	8024
931.311	7917
931.415	7925
931.519	7799
931.623	7769
