Data from test_V78500241_2314.txt Node
Date: Fri Mar 25 14:49:49 CST 2022
User: usil
Spectrometer: V785-0024
Trigger mode: 0
Integration Time (sec): 4.000000E-1
Scans to average: 1
Nonlinearity correction enabled: false
Boxcar width: 0
Storing dark spectrum: false
XAxis mode: Wavelengths
Number of Pixels in Spectrum: 1024
>>>>>Begin Spectral Data<<<<<
801.071	22192
801.214	22070
801.356	21892
801.499	21751
801.641	21603
801.783	21610
801.926	21614
802.068	21576
802.211	21629
802.353	21199
802.496	21142
802.638	21055
802.78	20952
802.923	20872
803.065	20792
803.208	20895
803.35	20857
803.492	20918
803.635	21100
803.777	20834
803.919	20948
804.061	21268
804.204	20815
804.346	20804
804.488	20716
804.63	20758
804.773	20819
804.915	20826
805.057	20807
805.199	20853
805.341	20826
805.483	20979
805.626	20887
805.768	20636
805.91	20788
806.052	20750
806.194	20716
806.336	20857
806.478	20861
806.62	20716
806.762	20906
806.904	21062
807.046	21291
807.188	21123
807.33	21199
807.472	21192
807.614	21043
807.756	20986
807.898	20902
808.04	20815
808.182	20971
808.324	20998
808.465	21051
808.607	21001
808.749	21321
808.891	21325
809.033	21435
809.174	21294
809.316	21207
809.458	21256
809.6	21199
809.741	21294
809.883	21252
810.025	21424
810.166	21340
810.308	21405
810.45	21302
810.591	21302
810.733	21051
810.875	21017
811.016	20899
811.158	20868
811.299	21066
811.441	21051
811.582	21108
811.724	21020
811.865	21001
812.007	20929
812.148	21013
812.29	20963
812.431	21131
812.573	21237
812.714	21291
812.855	21462
812.997	21622
813.138	21819
813.279	21614
813.421	21443
813.562	21336
813.703	21310
813.845	21116
813.986	20724
814.127	20632
814.268	20492
814.41	20552
814.551	20537
814.692	20602
814.833	20431
814.974	20454
815.115	20533
815.256	20404
815.397	20480
815.539	20385
815.68	20328
815.821	20313
815.962	20187
816.103	20122
816.244	20149
816.385	19978
816.526	19959
816.666	19772
816.807	19799
816.948	19757
817.089	19666
817.23	19769
817.371	19696
817.512	19719
817.653	19544
817.793	19556
817.934	19597
818.075	19715
818.216	19712
818.356	19670
818.497	19590
818.638	19206
818.778	19285
818.919	19365
819.06	19381
819.2	19438
819.341	19548
819.481	19540
819.622	19609
819.762	19814
819.903	19719
820.043	19601
820.184	19681
820.324	19590
820.465	19700
820.605	19628
820.746	19567
820.886	19556
821.026	19499
821.167	19628
821.307	19624
821.447	19468
821.588	19510
821.728	19221
821.868	19175
822.008	19076
822.149	19148
822.289	18981
822.429	18661
822.569	18684
822.709	18753
822.849	18532
822.99	18574
823.13	18429
823.27	18521
823.41	18437
823.55	18327
823.69	18296
823.83	18376
823.97	18243
824.11	18106
824.25	18076
824.389	18174
824.529	18190
824.669	18106
824.809	18194
824.949	18140
825.089	18121
825.228	18136
825.368	18003
825.508	17821
825.648	17893
825.787	17870
825.927	17863
826.067	17828
826.206	17840
826.346	17897
826.485	17893
826.625	17870
826.765	17870
826.904	17950
827.044	17726
827.183	17634
827.323	17581
827.462	17573
827.601	17581
827.741	17467
827.88	17570
828.02	17448
828.159	17554
828.298	17615
828.437	17619
828.577	17425
828.716	17657
828.855	17512
828.994	17269
829.134	17208
829.273	17383
829.412	17303
829.551	17147
829.69	17140
829.829	17288
829.968	17322
830.107	17303
830.246	17311
830.385	17292
830.524	17185
830.663	17086
830.802	17033
830.941	16881
831.08	16828
831.219	17025
831.357	16892
831.496	17143
831.635	16771
831.774	16733
831.913	16702
832.051	16698
832.19	16653
832.329	16733
832.467	16626
832.606	16611
832.744	16577
832.883	16535
833.022	16565
833.16	16504
833.299	16660
833.437	16649
833.576	16577
833.714	16516
833.852	16656
833.991	16672
834.129	16733
834.267	16759
834.406	16558
834.544	16580
834.682	16561
834.821	16538
834.959	16858
835.097	16531
835.235	16687
835.373	16694
835.511	16607
835.65	16607
835.788	16516
835.926	16348
836.064	16268
836.202	16299
836.34	16519
836.478	16637
836.615	16466
836.753	16538
836.891	16611
837.029	16634
837.167	16569
837.305	16443
837.443	16371
837.58	16382
837.718	16428
837.856	16478
837.993	16379
838.131	16455
838.269	16295
838.406	16287
838.544	16207
838.681	16124
838.819	16078
838.956	15873
839.094	15884
839.231	15987
839.369	16002
839.506	16287
839.643	16185
839.781	15983
839.918	15960
840.055	15960
840.193	15838
840.33	15899
840.467	15930
840.604	15968
840.742	16143
840.879	15838
841.016	15766
841.153	15895
841.29	16086
841.427	15998
841.564	16025
841.701	15876
841.838	15972
841.975	15816
842.112	15876
842.249	15671
842.385	15755
842.522	15842
842.659	15781
842.796	15774
842.933	15648
843.069	15610
843.206	15698
843.343	15724
843.479	15808
843.616	15660
843.752	15458
843.889	15473
844.025	15580
844.162	15466
844.298	15622
844.435	15477
844.571	15458
844.708	15530
844.844	15644
844.98	15568
845.117	15584
845.253	15359
845.389	15439
845.525	15466
845.661	15355
845.798	15359
845.934	15249
846.07	15275
846.206	15283
846.342	15374
846.478	15188
846.614	15097
846.75	14982
846.886	15036
847.022	15081
847.158	15081
847.294	15024
847.429	15070
847.565	14990
847.701	15313
847.837	14910
847.972	14842
848.108	14830
848.244	14838
848.379	14625
848.515	14667
848.65	14686
848.786	14621
848.921	14632
849.057	14754
849.192	14777
849.328	14743
849.463	14674
849.598	14705
849.734	14568
849.869	14617
850.004	14450
850.14	14564
850.275	14484
850.41	14358
850.545	14415
850.68	14476
850.815	14522
850.95	14427
851.085	14670
851.22	14564
851.355	14492
851.49	14427
851.625	14366
851.76	14396
851.895	14324
852.03	14351
852.165	14431
852.299	14461
852.434	14434
852.569	14522
852.703	14473
852.838	14476
852.973	14644
853.107	14598
853.242	14488
853.376	14374
853.511	14259
853.645	14347
853.78	14438
853.914	14332
854.048	14336
854.183	14324
854.317	14366
854.451	14560
854.585	14252
854.72	14339
854.854	14442
854.988	14309
855.122	14248
855.256	14191
855.39	14351
855.524	14476
855.658	14370
855.792	14256
855.926	14355
856.06	14533
856.194	14389
856.327	14305
856.461	14199
856.595	14294
856.729	14187
856.862	14450
856.996	14431
857.13	14366
857.263	14503
857.397	14503
857.53	14317
857.664	14385
857.797	14465
857.931	14446
858.064	14290
858.197	14484
858.331	14290
858.464	14320
858.597	14221
858.731	14381
858.864	14366
858.997	14240
859.13	14374
859.263	14332
859.396	14450
859.529	14282
859.662	14256
859.795	14187
859.928	14294
860.061	14488
860.194	14571
860.327	14362
860.46	14267
860.592	14400
860.725	14465
860.858	14366
860.99	14317
861.123	14278
861.256	14202
861.388	14336
861.521	14845
861.653	14244
861.786	14142
861.918	14206
862.05	14168
862.183	14275
862.315	14256
862.447	14347
862.58	14309
862.712	14145
862.844	14043
862.976	14214
863.108	14161
863.24	14442
863.372	14012
863.504	14111
863.636	14107
863.768	14172
863.9	14119
864.032	14012
864.164	14065
864.296	14130
864.428	14305
864.559	14214
864.691	14195
864.823	14218
864.954	14218
865.086	14100
865.217	14077
865.349	13928
865.48	14043
865.612	14096
865.743	14275
865.875	14096
866.006	13993
866.137	14134
866.269	14005
866.4	14138
866.531	14062
866.662	14043
866.793	14103
866.924	14092
867.055	14161
867.186	14123
867.317	14084
867.448	14024
867.579	14035
867.71	14092
867.841	13959
867.972	14176
868.103	14062
868.233	14077
868.364	14024
868.495	14214
868.625	14301
868.756	14450
868.886	14305
869.017	14309
869.147	14492
869.278	14431
869.408	14377
869.539	14313
869.669	14381
869.799	14381
869.929	14415
870.06	14480
870.19	14689
870.32	14602
870.45	14629
870.58	14735
870.71	14785
870.84	14758
870.97	14617
871.1	14705
871.23	14895
871.36	14956
871.489	14758
871.619	14819
871.749	14960
871.879	14906
872.008	15032
872.138	14933
872.267	14925
872.397	14811
872.526	14785
872.656	14826
872.785	14785
872.915	14941
873.044	15085
873.173	14944
873.303	14952
873.432	14971
873.561	14975
873.69	14963
873.819	14899
873.948	15070
874.077	14975
874.206	14937
874.335	15039
874.464	15013
874.593	15302
874.722	15142
874.851	15302
874.979	15344
875.108	15340
875.237	15275
875.365	15188
875.494	15222
875.623	15389
875.751	15279
875.88	15321
876.008	15458
876.136	15530
876.265	15751
876.393	15869
876.521	15918
876.65	15762
876.778	15671
876.906	15705
877.034	15622
877.162	15625
877.29	15709
877.418	15705
877.546	15713
877.674	15603
877.802	15698
877.93	15770
878.058	15698
878.185	15500
878.313	15675
878.441	15587
878.568	15530
878.696	15587
878.824	15652
878.951	15743
879.079	15953
879.206	15968
879.333	15846
879.461	15850
879.588	15808
879.715	15819
879.842	16044
879.97	15812
880.097	15553
880.224	15557
880.351	15572
880.478	15618
880.605	15576
880.732	15515
880.859	15793
880.986	15591
881.112	15515
881.239	15458
881.366	15378
881.493	15218
881.619	15214
881.746	15298
881.872	15157
881.999	15104
882.125	15135
882.252	15336
882.378	15230
882.505	15310
882.631	15112
882.757	15043
882.883	15013
883.01	15036
883.136	15013
883.262	14941
883.388	14887
883.514	15001
883.64	15051
883.766	14971
883.892	14914
884.018	14887
884.143	14914
884.269	15138
884.395	14773
884.52	14667
884.646	14674
884.772	14617
884.897	14625
885.023	14750
885.148	14823
885.274	14845
885.399	14864
885.524	14667
885.65	14716
885.775	14800
885.9	14686
886.025	14830
886.15	14765
886.275	14731
886.4	14579
886.525	14632
886.65	14655
886.775	14636
886.9	14902
887.025	14960
887.149	14765
887.274	14579
887.399	14602
887.523	14434
887.648	14492
887.773	14396
887.897	14731
888.021	14537
888.146	14438
888.27	14697
888.395	14663
888.519	14598
888.643	14526
888.767	14575
888.891	14495
889.015	14286
889.139	14461
889.263	14385
889.387	14560
889.511	14602
889.635	14579
889.759	14442
889.883	14423
890.006	14461
890.13	14537
890.254	14389
890.377	14294
890.501	14153
890.624	14313
890.748	14332
890.871	14161
890.995	14119
891.118	13963
891.241	14172
891.364	14058
891.488	14199
891.611	14100
891.734	14168
891.857	14191
891.98	14149
892.103	14301
892.226	14103
892.349	14138
892.471	13974
892.594	14005
892.717	14164
892.839	14126
892.962	14138
893.085	14164
893.207	14138
893.33	13963
893.452	14062
893.575	14161
893.697	14081
893.819	14317
893.941	14305
894.064	14221
894.186	14058
894.308	14138
894.43	14256
894.552	14324
894.674	14313
894.796	14035
894.918	14115
895.04	14119
895.161	14294
895.283	14168
895.405	14202
895.526	14233
895.648	14237
895.769	14347
895.891	14320
896.012	14317
896.134	14294
896.255	14301
896.376	14301
896.498	14240
896.619	14343
896.74	14309
896.861	14370
896.982	14526
897.103	14800
897.224	14682
897.345	14454
897.466	14503
897.587	14571
897.708	14705
897.828	14678
897.949	14476
898.07	14465
898.19	14533
898.311	14788
898.431	14514
898.552	14568
898.672	14701
898.792	14663
898.913	14682
899.033	14621
899.153	14476
899.273	14347
899.393	14503
899.513	14412
899.633	14530
899.753	14446
899.873	14461
899.993	14492
900.113	14450
900.232	14511
900.352	14518
900.472	14415
900.591	14305
900.711	14465
900.83	14313
900.95	14503
901.069	14526
901.189	14423
901.308	14024
901.427	13955
901.546	14039
901.665	14008
901.784	14069
901.904	13894
902.023	13841
902.141	13689
902.26	13628
902.379	13715
902.498	13712
902.617	13559
902.735	13693
902.854	13567
902.973	13586
903.091	13285
903.21	13324
903.328	13346
903.446	13320
903.565	13107
903.683	13221
903.801	13110
903.919	13164
904.038	13160
904.156	13004
904.274	13061
904.392	13027
904.51	13034
904.627	12954
904.745	13000
904.863	13027
904.981	12798
905.098	12730
905.216	12745
905.334	12768
905.451	12684
905.569	12631
905.686	12802
905.803	12654
905.921	12460
906.038	12616
906.155	12551
906.272	12361
906.389	12456
906.506	12407
906.623	12292
906.74	12251
906.857	12182
906.974	12258
907.091	12323
907.208	12437
907.324	12262
907.441	12201
907.557	12076
907.674	11992
907.79	11992
907.907	11992
908.023	12064
908.139	12057
908.256	11942
908.372	11984
908.488	11950
908.604	11809
908.72	11821
908.836	11756
908.952	11779
909.068	11726
909.184	11828
909.3	11718
909.415	11764
909.531	11783
909.647	11554
909.762	11543
909.878	11589
909.993	11497
910.108	11490
910.224	11604
910.339	11528
910.454	11410
910.57	11402
910.685	11326
910.8	11646
910.915	11501
911.03	11395
911.145	11242
911.259	11212
911.374	11261
911.489	11140
911.604	11060
911.718	10995
911.833	10938
911.947	10862
912.062	10771
912.176	10995
912.291	10968
912.405	10995
912.519	11162
912.633	11181
912.748	11105
912.862	10980
912.976	10892
913.09	10778
913.204	10831
913.318	10847
913.431	10930
913.545	10957
913.659	11022
913.772	10934
913.886	10729
914	10672
914.113	10904
914.226	10873
914.34	10763
914.453	10733
914.566	10805
914.68	10691
914.793	10706
914.906	10577
915.019	10516
915.132	10360
915.245	10493
915.358	10485
915.47	10596
915.583	10500
915.696	10493
915.809	10702
915.921	10733
916.034	10451
916.146	10424
916.259	10485
916.371	10542
916.483	10523
916.595	10459
916.708	10428
916.82	10523
916.932	10443
917.044	10402
917.156	10371
917.268	10352
917.38	10287
917.491	10325
917.603	10322
917.715	10409
917.826	10447
917.938	10295
918.049	10261
918.161	10337
918.272	10459
918.384	10462
918.495	10352
918.606	10299
918.717	10181
918.828	10223
918.939	10200
919.05	10120
919.161	10162
919.272	10040
919.383	10013
919.494	10322
919.604	10436
919.715	10196
919.826	10139
919.936	10227
920.047	10242
920.157	10303
920.267	10455
920.378	10261
920.488	10185
920.598	10405
920.708	10542
920.818	10386
920.928	10428
921.038	10554
921.148	10508
921.258	10405
921.368	10257
921.477	10158
921.587	10082
921.697	9907
921.806	10124
921.916	9960
922.025	9785
922.134	9804
922.244	9705
922.353	9789
922.462	9599
922.571	9682
922.68	9534
922.789	9405
922.898	9538
923.007	9317
923.116	9447
923.224	9496
923.333	9496
923.442	9374
923.55	9363
923.659	9420
923.767	9397
923.876	9294
923.984	9428
924.092	9253
924.201	9412
924.309	9370
924.417	9359
924.525	9294
924.633	9310
924.741	10234
924.849	9146
924.956	9287
925.064	9127
925.172	9089
925.279	9100
925.387	9165
925.494	9222
925.602	9283
925.709	9131
925.816	9081
925.924	9100
926.031	9146
926.138	9138
926.245	9142
926.352	9024
926.459	9272
926.566	9176
926.673	9138
926.779	9005
926.886	9005
926.993	8819
927.099	8823
927.206	8777
927.312	8804
927.419	8899
927.525	8838
927.631	8906
927.737	8746
927.843	8762
927.95	8610
928.056	8674
928.162	8724
928.267	8792
928.373	9397
928.479	8853
928.585	8594
928.69	8716
928.796	8674
928.901	8625
929.007	8537
929.112	8697
929.218	8621
929.323	8537
929.428	8511
929.533	8716
929.638	8549
929.743	8625
929.848	8568
929.953	8556
930.058	8530
930.163	8305
930.267	8366
930.372	8412
930.477	8339
930.581	8511
930.685	8374
930.79	8229
930.894	8214
930.998	8244
931.103	8389
931.207	8065
931.311	7982
931.415	7925
931.519	7761
931.623	7784
