Data from test_V78500241_2717.txt Node
Date: Fri Mar 25 14:52:38 CST 2022
User: usil
Spectrometer: V785-0024
Trigger mode: 0
Integration Time (sec): 4.000000E-1
Scans to average: 1
Nonlinearity correction enabled: false
Boxcar width: 0
Storing dark spectrum: false
XAxis mode: Wavelengths
Number of Pixels in Spectrum: 1024
>>>>>Begin Spectral Data<<<<<
801.071	21991
801.214	21850
801.356	21686
801.499	21599
801.641	21447
801.783	21332
801.926	21401
802.068	21310
802.211	21241
802.353	21085
802.496	20826
802.638	20960
802.78	20788
802.923	20750
803.065	20697
803.208	20724
803.35	20773
803.492	20788
803.635	20853
803.777	20697
803.919	20823
804.061	21085
804.204	20705
804.346	20720
804.488	20644
804.63	20701
804.773	20552
804.915	20613
805.057	20754
805.199	20587
805.341	20663
805.483	20758
805.626	20750
805.768	20609
805.91	20613
806.052	20568
806.194	20571
806.336	20682
806.478	20541
806.62	20644
806.762	20632
806.904	20762
807.046	20982
807.188	20880
807.33	20880
807.472	20948
807.614	20792
807.756	20868
807.898	20796
808.04	20636
808.182	20617
808.324	20617
808.465	20796
808.607	20872
808.749	20979
808.891	21264
809.033	21131
809.174	21131
809.316	20937
809.458	20986
809.6	20891
809.741	21001
809.883	21032
810.025	21112
810.166	21077
810.308	21032
810.45	21096
810.591	21028
810.733	20872
810.875	20800
811.016	20602
811.158	20598
811.299	20739
811.441	20758
811.582	20834
811.724	20655
811.865	20674
812.007	20697
812.148	20727
812.29	20659
812.431	20918
812.573	21074
812.714	21157
812.855	21233
812.997	21401
813.138	21485
813.279	21370
813.421	21233
813.562	21039
813.703	20986
813.845	20815
813.986	20663
814.127	20465
814.268	20271
814.41	20324
814.551	20343
814.692	20252
814.833	20157
814.974	20206
815.115	20377
815.256	20168
815.397	20126
815.539	20122
815.68	19970
815.821	19970
815.962	20050
816.103	19917
816.244	19890
816.385	19765
816.526	19727
816.666	19529
816.807	19365
816.948	19643
817.089	19537
817.23	19438
817.371	19510
817.512	19327
817.653	19445
817.793	19293
817.934	19453
818.075	19434
818.216	19358
818.356	19316
818.497	19110
818.638	19061
818.778	19171
818.919	18962
819.06	19099
819.2	19217
819.341	19126
819.481	19335
819.622	19396
819.762	19483
819.903	19480
820.043	19483
820.184	19464
820.324	19487
820.465	19426
820.605	19502
820.746	19419
820.886	19213
821.026	19483
821.167	19343
821.307	19472
821.447	19377
821.588	19270
821.728	19053
821.868	18951
822.008	18882
822.149	18738
822.289	18768
822.429	18563
822.569	18456
822.709	18483
822.849	18285
822.99	18205
823.13	18308
823.27	18311
823.41	18068
823.55	18011
823.69	18110
823.83	18140
823.97	18091
824.11	17840
824.25	17798
824.389	17889
824.529	17950
824.669	17908
824.809	17866
824.949	18003
825.089	17996
825.228	17950
825.368	17882
825.508	17783
825.648	17710
825.787	17707
825.927	17710
826.067	17505
826.206	17680
826.346	17630
826.485	17691
826.625	17585
826.765	17790
826.904	17676
827.044	17452
827.183	17501
827.323	17231
827.462	17383
827.601	17372
827.741	17280
827.88	17345
828.02	17216
828.159	17425
828.298	17490
828.437	17391
828.577	17330
828.716	17520
828.855	17356
828.994	17181
829.134	17041
829.273	17227
829.412	17079
829.551	17018
829.69	17113
829.829	17109
829.968	17265
830.107	17220
830.246	17098
830.385	17067
830.524	16961
830.663	16968
830.802	16881
830.941	16782
831.08	16721
831.219	16961
831.357	16729
831.496	16885
831.635	16672
831.774	16554
831.913	16565
832.051	16542
832.19	16474
832.329	16630
832.467	16455
832.606	16413
832.744	16447
832.883	16375
833.022	16382
833.16	16523
833.299	16474
833.437	16379
833.576	16447
833.714	16531
833.852	16504
833.991	16523
834.129	16565
834.267	16538
834.406	16421
834.544	16519
834.682	16451
834.821	16478
834.959	16618
835.097	16538
835.235	16489
835.373	16497
835.511	16485
835.65	16516
835.788	16489
835.926	16162
836.064	16143
836.202	16211
836.34	16462
836.478	16577
836.615	16508
836.753	16443
836.891	16596
837.029	16470
837.167	16337
837.305	16382
837.443	16284
837.58	16306
837.718	16238
837.856	16185
837.993	16295
838.131	16329
838.269	16230
838.406	16207
838.544	16325
838.681	15949
838.819	15918
838.956	15774
839.094	15823
839.231	15926
839.369	15934
839.506	16181
839.643	16067
839.781	15831
839.918	15781
840.055	15911
840.193	15751
840.33	15785
840.467	15823
840.604	15915
840.742	16036
840.879	15663
841.016	15797
841.153	15694
841.29	15854
841.427	15804
841.564	15895
841.701	15850
841.838	15759
841.975	15770
842.112	15808
842.249	15603
842.385	15580
842.522	15812
842.659	15641
842.796	15591
842.933	15629
843.069	15641
843.206	15667
843.343	15667
843.479	15629
843.616	15614
843.752	15389
843.889	15473
844.025	15485
844.162	15332
844.298	15515
844.435	15351
844.571	15389
844.708	15359
844.844	15618
844.98	15580
845.117	15485
845.253	15355
845.389	15222
845.525	15386
845.661	15188
845.798	15214
845.934	15222
846.07	15112
846.206	15195
846.342	15420
846.478	15146
846.614	15005
846.75	14975
846.886	14975
847.022	15176
847.158	14952
847.294	14948
847.429	14979
847.565	14948
847.701	15154
847.837	14819
847.972	14762
848.108	14743
848.244	14788
848.379	14575
848.515	14602
848.65	14552
848.786	14522
848.921	14644
849.057	14594
849.192	14849
849.328	14587
849.463	14583
849.598	14514
849.734	14419
849.869	14454
850.004	14301
850.14	14362
850.275	14278
850.41	14309
850.545	14305
850.68	14317
850.815	14294
850.95	14450
851.085	14396
851.22	14343
851.355	14309
851.49	14267
851.625	14263
851.76	14301
851.895	14286
852.03	14168
852.165	14252
852.299	14370
852.434	14461
852.569	14431
852.703	14351
852.838	14393
852.973	14381
853.107	14419
853.242	14374
853.376	14256
853.511	14058
853.645	14164
853.78	14366
853.914	14336
854.048	14149
854.183	14214
854.317	14206
854.451	14434
854.585	14149
854.72	14142
854.854	14317
854.988	14096
855.122	14248
855.256	14008
855.39	14111
855.524	14248
855.658	14275
855.792	14157
855.926	14286
856.06	14324
856.194	14298
856.327	14267
856.461	14199
856.595	14168
856.729	14123
856.862	14244
856.996	14275
857.13	14233
857.263	14324
857.397	14339
857.53	14153
857.664	14218
857.797	14267
857.931	14221
858.064	14214
858.197	14362
858.331	14263
858.464	14252
858.597	14134
858.731	14237
858.864	14161
858.997	14153
859.13	14210
859.263	14256
859.396	14298
859.529	14176
859.662	14206
859.795	14225
859.928	14191
860.061	14347
860.194	14324
860.327	14320
860.46	14225
860.592	14351
860.725	14332
860.858	14374
860.99	14183
861.123	14149
861.256	14164
861.388	14278
861.521	14864
861.653	14077
861.786	14016
861.918	14126
862.05	14180
862.183	14164
862.315	14168
862.447	14218
862.58	14206
862.712	14001
862.844	13982
862.976	14065
863.108	13970
863.24	14427
863.372	13928
863.504	14005
863.636	13925
863.768	14020
863.9	14050
864.032	13944
864.164	13909
864.296	14027
864.428	14035
864.559	14130
864.691	14145
864.823	14008
864.954	14043
865.086	14027
865.217	13940
865.349	13868
865.48	13898
865.612	13997
865.743	14138
865.875	14005
866.006	13982
866.137	14043
866.269	13993
866.4	13932
866.531	13940
866.662	13887
866.793	13955
866.924	14008
867.055	13959
867.186	14001
867.317	13951
867.448	13849
867.579	13887
867.71	13879
867.841	13841
867.972	13959
868.103	14065
868.233	13940
868.364	14001
868.495	14027
868.625	14229
868.756	14275
868.886	14248
869.017	14149
869.147	14377
869.278	14396
869.408	14244
869.539	14267
869.669	14339
869.799	14244
869.929	14396
870.06	14336
870.19	14625
870.32	14514
870.45	14583
870.58	14674
870.71	14743
870.84	14724
870.97	14610
871.1	14549
871.23	14952
871.36	14804
871.489	14743
871.619	14864
871.749	14804
871.879	14925
872.008	14868
872.138	14807
872.267	14872
872.397	14701
872.526	14651
872.656	14655
872.785	14689
872.915	14857
873.044	14925
873.173	14826
873.303	15001
873.432	14899
873.561	15032
873.69	14960
873.819	14815
873.948	15051
874.077	14895
874.206	14796
874.335	14910
874.464	15028
874.593	15154
874.722	15116
874.851	15252
874.979	15195
875.108	15180
875.237	15100
875.365	15169
875.494	15226
875.623	15131
875.751	15123
875.88	15268
876.008	15317
876.136	15317
876.265	15625
876.393	15755
876.521	15797
876.65	15717
876.778	15644
876.906	15568
877.034	15561
877.162	15618
877.29	15576
877.418	15644
877.546	15557
877.674	15717
877.802	15644
877.93	15519
878.058	15576
878.185	15507
878.313	15572
878.441	15595
878.568	15462
878.696	15485
878.824	15622
878.951	15713
879.079	15804
879.206	15793
879.333	15694
879.461	15755
879.588	15713
879.715	15823
879.842	15899
879.97	15739
880.097	15469
880.224	15462
880.351	15435
880.478	15523
880.605	15462
880.732	15515
880.859	15827
880.986	15492
881.112	15481
881.239	15359
881.366	15165
881.493	15142
881.619	15165
881.746	15131
881.872	15112
881.999	15024
882.125	15127
882.252	15108
882.378	15252
882.505	15306
882.631	15005
882.757	14902
882.883	14975
883.01	14921
883.136	14830
883.262	14777
883.388	14743
883.514	15009
883.64	15070
883.766	14906
883.892	14746
884.018	14746
884.143	14929
884.269	15055
884.395	14697
884.52	14705
884.646	14716
884.772	14590
884.897	14495
885.023	14579
885.148	14705
885.274	14777
885.399	14735
885.524	14556
885.65	14678
885.775	14720
885.9	14644
886.025	14750
886.15	14682
886.275	14610
886.4	14541
886.525	14663
886.65	14632
886.775	14621
886.9	14682
887.025	14864
887.149	14648
887.274	14408
887.399	14393
887.523	14526
887.648	14362
887.773	14362
887.897	14514
888.021	14457
888.146	14434
888.27	14590
888.395	14636
888.519	14579
888.643	14480
888.767	14511
888.891	14454
889.015	14358
889.139	14412
889.263	14339
889.387	14454
889.511	14495
889.635	14427
889.759	14347
889.883	14347
890.006	14438
890.13	14377
890.254	14347
890.377	14374
890.501	14233
890.624	14073
890.748	14256
890.871	14008
890.995	14107
891.118	13959
891.241	14069
891.364	14142
891.488	14123
891.611	13936
891.734	14161
891.857	14119
891.98	14039
892.103	14153
892.226	14005
892.349	14062
892.471	13989
892.594	13997
892.717	13989
892.839	14069
892.962	14035
893.085	14073
893.207	13955
893.33	13883
893.452	13970
893.575	14046
893.697	14069
893.819	14214
893.941	14275
894.064	14275
894.186	14035
894.308	14008
894.43	14244
894.552	14278
894.674	14233
894.796	14103
894.918	14115
895.04	13986
895.161	14271
895.283	14130
895.405	14100
895.526	14142
895.648	14130
895.769	14187
895.891	14221
896.012	14336
896.134	14248
896.255	14176
896.376	14199
896.498	14259
896.619	14210
896.74	14130
896.861	14240
896.982	14594
897.103	14678
897.224	14446
897.345	14427
897.466	14377
897.587	14488
897.708	14632
897.828	14549
897.949	14480
898.07	14400
898.19	14503
898.311	14602
898.431	14461
898.552	14587
898.672	14560
898.792	14682
898.913	14541
899.033	14545
899.153	14374
899.273	14317
899.393	14404
899.513	14530
899.633	14400
899.753	14442
899.873	14343
899.993	14396
900.113	14385
900.232	14537
900.352	14332
900.472	14294
900.591	14271
900.711	14366
900.83	14294
900.95	14309
901.069	14412
901.189	14180
901.308	14008
901.427	13947
901.546	13940
901.665	14058
901.784	14016
901.904	13849
902.023	13753
902.141	13632
902.26	13624
902.379	13636
902.498	13533
902.617	13483
902.735	13540
902.854	13540
902.973	13460
903.091	13335
903.21	13266
903.328	13285
903.446	13183
903.565	13080
903.683	13088
903.801	13008
903.919	13149
904.038	13110
904.156	12932
904.274	13038
904.392	12909
904.51	12901
904.627	12905
904.745	12947
904.863	12913
904.981	12738
905.098	12654
905.216	12684
905.334	12677
905.451	12623
905.569	12612
905.686	12688
905.803	12540
905.921	12399
906.038	12475
906.155	12452
906.272	12372
906.389	12289
906.506	12136
906.623	12220
906.74	12220
906.857	12136
906.974	12140
907.091	12289
907.208	12395
907.324	12300
907.441	12057
907.557	12011
907.674	11969
907.79	11821
907.907	11893
908.023	11961
908.139	11984
908.256	11901
908.372	11821
908.488	11927
908.604	11729
908.72	11703
908.836	11611
908.952	11676
909.068	11695
909.184	11840
909.3	11760
909.415	11840
909.531	11767
909.647	11589
909.762	11497
909.878	11421
909.993	11425
910.108	11497
910.224	11421
910.339	11497
910.454	11387
910.57	11326
910.685	11299
910.8	11535
910.915	11452
911.03	11360
911.145	11235
911.259	11159
911.374	11227
911.489	11102
911.604	11056
911.718	10911
911.833	10942
911.947	10831
912.062	10797
912.176	10991
912.291	10976
912.405	10927
912.519	11102
912.633	11124
912.748	11018
912.862	11003
912.976	10809
913.09	10717
913.204	10790
913.318	10930
913.431	10930
913.545	10869
913.659	10946
913.772	10828
913.886	10809
914	10710
914.113	10816
914.226	10812
914.34	10763
914.453	10687
914.566	10710
914.68	10645
914.793	10577
914.906	10413
915.019	10394
915.132	10424
915.245	10409
915.358	10447
915.47	10523
915.583	10546
915.696	10516
915.809	10615
915.921	10637
916.034	10428
916.146	10428
916.259	10398
916.371	10500
916.483	10443
916.595	10303
916.708	10379
916.82	10322
916.932	10367
917.044	10363
917.156	10424
917.268	10276
917.38	10325
917.491	10253
917.603	10375
917.715	10329
917.826	10360
917.938	10276
918.049	10128
918.161	10215
918.272	10417
918.384	10367
918.495	10234
918.606	10227
918.717	10177
918.828	10116
918.939	10204
919.05	10036
919.161	10162
919.272	9907
919.383	10044
919.494	10234
919.604	10405
919.715	10219
919.826	10059
919.936	10196
920.047	10169
920.157	10242
920.267	10394
920.378	10234
920.488	10181
920.598	10341
920.708	10497
920.818	10394
920.928	10386
921.038	10588
921.148	10485
921.258	10200
921.368	10162
921.477	10143
921.587	10067
921.697	9945
921.806	10090
921.916	9835
922.025	9766
922.134	9732
922.244	9701
922.353	9808
922.462	9660
922.571	9576
922.68	9454
922.789	9344
922.898	9450
923.007	9363
923.116	9458
923.224	9416
923.333	9412
923.442	9313
923.55	9287
923.659	9367
923.767	9351
923.876	9313
923.984	9306
924.092	9264
924.201	9256
924.309	9302
924.417	9310
924.525	9233
924.633	9268
924.741	9941
924.849	9108
924.956	9272
925.064	9051
925.172	8960
925.279	9093
925.387	9089
925.494	9089
925.602	9226
925.709	9173
925.816	9028
925.924	9081
926.031	9154
926.138	9127
926.245	9131
926.352	8998
926.459	9093
926.566	9192
926.673	9009
926.779	9005
926.886	8963
926.993	8750
927.099	8739
927.206	8781
927.312	8720
927.419	8887
927.525	8785
927.631	8880
927.737	8796
927.843	8724
927.95	8556
928.056	8625
928.162	8648
928.267	8773
928.373	9370
928.479	8762
928.585	8610
928.69	8686
928.796	8750
928.901	8579
929.007	8446
929.112	8514
929.218	8648
929.323	8427
929.428	8511
929.533	8648
929.638	8484
929.743	8461
929.848	8541
929.953	8530
930.058	8434
930.163	8214
930.267	8298
930.372	8404
930.477	8210
930.581	8526
930.685	8339
930.79	8202
930.894	8248
930.998	8240
931.103	8317
931.207	7989
931.311	8016
931.415	7909
931.519	7693
931.623	7734
