Data from test_V78500241_3089.txt Node
Date: Fri Mar 25 14:55:13 CST 2022
User: usil
Spectrometer: V785-0024
Trigger mode: 0
Integration Time (sec): 4.000000E-1
Scans to average: 1
Nonlinearity correction enabled: false
Boxcar width: 0
Storing dark spectrum: false
XAxis mode: Wavelengths
Number of Pixels in Spectrum: 1024
>>>>>Begin Spectral Data<<<<<
801.071	22002
801.214	21819
801.356	21663
801.499	21618
801.641	21530
801.783	21466
801.926	21481
802.068	21416
802.211	21283
802.353	21233
802.496	20963
802.638	20876
802.78	20842
802.923	20727
803.065	20796
803.208	20746
803.35	20701
803.492	20811
803.635	20857
803.777	20705
803.919	20883
804.061	21214
804.204	20811
804.346	20674
804.488	20712
804.63	20720
804.773	20606
804.915	20697
805.057	20727
805.199	20594
805.341	20701
805.483	20796
805.626	20773
805.768	20640
805.91	20686
806.052	20731
806.194	20606
806.336	20788
806.478	20663
806.62	20693
806.762	20724
806.904	20857
807.046	21051
807.188	20986
807.33	20933
807.472	21028
807.614	20880
807.756	20975
807.898	20743
808.04	20636
808.182	20701
808.324	20739
808.465	20785
808.607	21009
808.749	21032
808.891	21165
809.033	21260
809.174	21032
809.316	20967
809.458	20967
809.6	21123
809.741	21146
809.883	21096
810.025	21249
810.166	21241
810.308	21146
810.45	21184
810.591	21055
810.733	20944
810.875	20925
811.016	20853
811.158	20602
811.299	20800
811.441	20857
811.582	20804
811.724	20739
811.865	20743
812.007	20815
812.148	20792
812.29	20880
812.431	20918
812.573	21146
812.714	21138
812.855	21332
812.997	21504
813.138	21549
813.279	21355
813.421	21291
813.562	21268
813.703	21127
813.845	20918
813.986	20720
814.127	20526
814.268	20332
814.41	20442
814.551	20393
814.692	20320
814.833	20400
814.974	20301
815.115	20320
815.256	20134
815.397	20244
815.539	20214
815.68	20115
815.821	20027
815.962	20107
816.103	20031
816.244	19864
816.385	19837
816.526	19799
816.666	19643
816.807	19426
816.948	19544
817.089	19552
817.23	19502
817.371	19422
817.512	19419
817.653	19407
817.793	19407
817.934	19495
818.075	19510
818.216	19434
818.356	19381
818.497	19377
818.638	19118
818.778	19217
818.919	19129
819.06	19194
819.2	19266
819.341	19403
819.481	19396
819.622	19506
819.762	19662
819.903	19658
820.043	19544
820.184	19502
820.324	19441
820.465	19556
820.605	19438
820.746	19426
820.886	19335
821.026	19396
821.167	19384
821.307	19441
821.447	19327
821.588	19312
821.728	19126
821.868	19084
822.008	18821
822.149	18928
822.289	18935
822.429	18616
822.569	18559
822.709	18517
822.849	18369
822.99	18407
823.13	18414
823.27	18399
823.41	18262
823.55	18026
823.69	18087
823.83	18095
823.97	18076
824.11	17908
824.25	17996
824.389	17912
824.529	17999
824.669	17927
824.809	17961
824.949	18095
825.089	17992
825.228	18003
825.368	17691
825.508	17733
825.648	17748
825.787	17771
825.927	17714
826.067	17729
826.206	17600
826.346	17714
826.485	17733
826.625	17535
826.765	17874
826.904	17729
827.044	17433
827.183	17497
827.323	17391
827.462	17444
827.601	17318
827.741	17364
827.88	17368
828.02	17227
828.159	17421
828.298	17414
828.437	17406
828.577	17402
828.716	17608
828.855	17368
828.994	17200
829.134	17170
829.273	17178
829.412	16991
829.551	17113
829.69	17166
829.829	17128
829.968	17220
830.107	17212
830.246	17216
830.385	17102
830.524	17060
830.663	16904
830.802	16797
830.941	16653
831.08	16679
831.219	16946
831.357	16797
831.496	16965
831.635	16740
831.774	16641
831.913	16729
832.051	16531
832.19	16527
832.329	16531
832.467	16390
832.606	16360
832.744	16413
832.883	16394
833.022	16455
833.16	16390
833.299	16402
833.437	16375
833.576	16386
833.714	16516
833.852	16504
833.991	16459
834.129	16538
834.267	16554
834.406	16443
834.544	16558
834.682	16561
834.821	16432
834.959	16698
835.097	16474
835.235	16523
835.373	16523
835.511	16459
835.65	16459
835.788	16352
835.926	16341
836.064	16257
836.202	16226
836.34	16375
836.478	16489
836.615	16329
836.753	16352
836.891	16398
837.029	16527
837.167	16261
837.305	16265
837.443	16265
837.58	16219
837.718	16303
837.856	16234
837.993	16143
838.131	16268
838.269	16078
838.406	16147
838.544	16150
838.681	15918
838.819	15819
838.956	15831
839.094	15838
839.231	15713
839.369	15991
839.506	16272
839.643	16040
839.781	15762
839.918	15717
840.055	15793
840.193	15797
840.33	15808
840.467	15816
840.604	15804
840.742	15991
840.879	15580
841.016	15728
841.153	15675
841.29	15915
841.427	15759
841.564	15850
841.701	15770
841.838	15686
841.975	15701
842.112	15816
842.249	15519
842.385	15515
842.522	15732
842.659	15587
842.796	15587
842.933	15538
843.069	15519
843.206	15545
843.343	15641
843.479	15587
843.616	15545
843.752	15344
843.889	15370
844.025	15496
844.162	15260
844.298	15435
844.435	15374
844.571	15344
844.708	15416
844.844	15523
844.98	15584
845.117	15466
845.253	15310
845.389	15275
845.525	15287
845.661	15287
845.798	15135
845.934	15138
846.07	15176
846.206	15203
846.342	15294
846.478	15268
846.614	14960
846.75	14853
846.886	14864
847.022	15005
847.158	14933
847.294	14845
847.429	14872
847.565	14952
847.701	15165
847.837	14754
847.972	14602
848.108	14682
848.244	14720
848.379	14610
848.515	14454
848.65	14526
848.786	14514
848.921	14549
849.057	14701
849.192	14670
849.328	14545
849.463	14571
849.598	14473
849.734	14492
849.869	14404
850.004	14412
850.14	14362
850.275	14286
850.41	14202
850.545	14240
850.68	14294
850.815	14278
850.95	14320
851.085	14533
851.22	14423
851.355	14199
851.49	14218
851.625	14248
851.76	14271
851.895	14180
852.03	14191
852.165	14252
852.299	14309
852.434	14419
852.569	14256
852.703	14278
852.838	14358
852.973	14412
853.107	14415
853.242	14210
853.376	14225
853.511	14035
853.645	14027
853.78	14278
853.914	14252
854.048	14134
854.183	14111
854.317	14149
854.451	14259
854.585	14119
854.72	14100
854.854	14210
854.988	14153
855.122	14115
855.256	14115
855.39	14183
855.524	14199
855.658	14263
855.792	14256
855.926	14259
856.06	14191
856.194	14275
856.327	14290
856.461	14248
856.595	14210
856.729	14153
856.862	14267
856.996	14210
857.13	14351
857.263	14248
857.397	14377
857.53	14142
857.664	14225
857.797	14294
857.931	14244
858.064	14301
858.197	14336
858.331	14225
858.464	14183
858.597	14008
858.731	14183
858.864	14172
858.997	14134
859.13	14290
859.263	14267
859.396	14267
859.529	14183
859.662	14145
859.795	14202
859.928	14237
860.061	14454
860.194	14404
860.327	14252
860.46	14237
860.592	14347
860.725	14328
860.858	14347
860.99	14164
861.123	14237
861.256	14058
861.388	14256
861.521	14918
861.653	14130
861.786	14054
861.918	14073
862.05	14027
862.183	14126
862.315	14244
862.447	14240
862.58	14145
862.712	14016
862.844	13887
862.976	14008
863.108	14084
863.24	14336
863.372	13947
863.504	13883
863.636	13982
863.768	14065
863.9	14035
864.032	13788
864.164	14035
864.296	13970
864.428	14077
864.559	14035
864.691	14107
864.823	14012
864.954	14069
865.086	14001
865.217	14031
865.349	13944
865.48	13940
865.612	13932
865.743	14039
865.875	13978
866.006	13940
866.137	13925
866.269	14008
866.4	14020
866.531	13974
866.662	13826
866.793	13944
866.924	13826
867.055	13932
867.186	13909
867.317	13982
867.448	13917
867.579	13944
867.71	13845
867.841	13784
867.972	14054
868.103	14031
868.233	14039
868.364	13959
868.495	14123
868.625	14240
868.756	14259
868.886	14100
869.017	14214
869.147	14415
869.278	14332
869.408	14267
869.539	14282
869.669	14278
869.799	14278
869.929	14347
870.06	14396
870.19	14503
870.32	14503
870.45	14571
870.58	14587
870.71	14606
870.84	14682
870.97	14583
871.1	14663
871.23	14842
871.36	14826
871.489	14777
871.619	14731
871.749	14830
871.879	14895
872.008	14853
872.138	14815
872.267	14872
872.397	14636
872.526	14560
872.656	14629
872.785	14625
872.915	14861
873.044	14819
873.173	14872
873.303	14853
873.432	14933
873.561	14956
873.69	14826
873.819	14880
873.948	14864
874.077	14864
874.206	14834
874.335	14842
874.464	14963
874.593	15245
874.722	15093
874.851	15154
874.979	15127
875.108	15275
875.237	15066
875.365	15154
875.494	15123
875.623	15279
875.751	15119
875.88	15195
876.008	15374
876.136	15397
876.265	15591
876.393	15717
876.521	15648
876.65	15709
876.778	15610
876.906	15557
877.034	15511
877.162	15614
877.29	15572
877.418	15682
877.546	15576
877.674	15557
877.802	15564
877.93	15595
878.058	15595
878.185	15485
878.313	15633
878.441	15542
878.568	15332
878.696	15561
878.824	15701
878.951	15701
879.079	15755
879.206	15880
879.333	15720
879.461	15671
879.588	15660
879.715	15778
879.842	15880
879.97	15675
880.097	15447
880.224	15450
880.351	15355
880.478	15367
880.605	15477
880.732	15439
880.859	15652
880.986	15477
881.112	15447
881.239	15355
881.366	15249
881.493	15165
881.619	15173
881.746	15039
881.872	15108
881.999	15188
882.125	15043
882.252	15218
882.378	15119
882.505	15207
882.631	14967
882.757	14914
882.883	14979
883.01	15036
883.136	14963
883.262	14880
883.388	14727
883.514	14986
883.64	14982
883.766	14899
883.892	14811
884.018	14842
884.143	14925
884.269	15100
884.395	14708
884.52	14667
884.646	14587
884.772	14571
884.897	14552
885.023	14708
885.148	14724
885.274	14788
885.399	14743
885.524	14629
885.65	14636
885.775	14587
885.9	14651
886.025	14811
886.15	14648
886.275	14480
886.4	14415
886.525	14629
886.65	14454
886.775	14526
886.9	14735
887.025	14861
887.149	14640
887.274	14454
887.399	14412
887.523	14347
887.648	14438
887.773	14396
887.897	14469
888.021	14571
888.146	14473
888.27	14549
888.395	14663
888.519	14488
888.643	14552
888.767	14438
888.891	14434
889.015	14271
889.139	14313
889.263	14317
889.387	14526
889.511	14590
889.635	14514
889.759	14294
889.883	14332
890.006	14343
890.13	14415
890.254	14221
890.377	14244
890.501	14153
890.624	14142
890.748	14214
890.871	14073
890.995	13928
891.118	13902
891.241	14043
891.364	14043
891.488	14195
891.611	13932
891.734	13921
891.857	14065
891.98	14039
892.103	14084
892.226	14103
892.349	14012
892.471	13936
892.594	14054
892.717	14024
892.839	13959
892.962	13947
893.085	14130
893.207	14031
893.33	13936
893.452	13856
893.575	14084
893.697	13974
893.819	14153
893.941	14225
894.064	14176
894.186	13951
894.308	14043
894.43	14259
894.552	14244
894.674	14157
894.796	13993
894.918	14046
895.04	13978
895.161	14225
895.283	14126
895.405	14050
895.526	14062
895.648	14084
895.769	14100
895.891	14229
896.012	14267
896.134	14263
896.255	14290
896.376	14119
896.498	14164
896.619	14290
896.74	14164
896.861	14336
896.982	14541
897.103	14727
897.224	14488
897.345	14454
897.466	14442
897.587	14465
897.708	14621
897.828	14450
897.949	14461
898.07	14381
898.19	14454
898.311	14674
898.431	14514
898.552	14476
898.672	14716
898.792	14670
898.913	14617
899.033	14438
899.153	14358
899.273	14313
899.393	14377
899.513	14476
899.633	14396
899.753	14454
899.873	14339
899.993	14465
900.113	14358
900.232	14389
900.352	14381
900.472	14282
900.591	14202
900.711	14290
900.83	14320
900.95	14415
901.069	14412
901.189	14199
901.308	13944
901.427	13879
901.546	13993
901.665	14035
901.784	14046
901.904	13879
902.023	13765
902.141	13647
902.26	13525
902.379	13613
902.498	13537
902.617	13449
902.735	13491
902.854	13510
902.973	13483
903.091	13274
903.21	13221
903.328	13247
903.446	13202
903.565	13114
903.683	13145
903.801	12966
903.919	13061
904.038	13084
904.156	12962
904.274	12989
904.392	12878
904.51	12928
904.627	12901
904.745	12958
904.863	12886
904.981	12738
905.098	12551
905.216	12700
905.334	12631
905.451	12601
905.569	12445
905.686	12677
905.803	12620
905.921	12433
906.038	12589
906.155	12414
906.272	12296
906.389	12315
906.506	12224
906.623	12254
906.74	12125
906.857	12121
906.974	12159
907.091	12228
907.208	12342
907.324	12292
907.441	12106
907.557	12030
907.674	11855
907.79	11828
907.907	11885
908.023	11916
908.139	11939
908.256	11866
908.372	11885
908.488	11847
908.604	11779
908.72	11752
908.836	11794
908.952	11764
909.068	11695
909.184	11828
909.3	11737
909.415	11726
909.531	11733
909.647	11463
909.762	11444
909.878	11425
909.993	11391
910.108	11486
910.224	11433
910.339	11436
910.454	11372
910.57	11303
910.685	11208
910.8	11543
910.915	11463
911.03	11398
911.145	11136
911.259	11193
911.374	11174
911.489	11094
911.604	11064
911.718	10934
911.833	10911
911.947	10820
912.062	10736
912.176	10889
912.291	10946
912.405	10923
912.519	11056
912.633	11071
912.748	11029
912.862	10908
912.976	10797
913.09	10679
913.204	10714
913.318	10812
913.431	10946
913.545	10854
913.659	10942
913.772	10767
913.886	10736
914	10706
914.113	10729
914.226	10881
914.34	10687
914.453	10592
914.566	10763
914.68	10641
914.793	10561
914.906	10470
915.019	10421
915.132	10371
915.245	10455
915.358	10402
915.47	10504
915.583	10470
915.696	10474
915.809	10519
915.921	10630
916.034	10386
916.146	10455
916.259	10390
916.371	10451
916.483	10462
916.595	10333
916.708	10287
916.82	10310
916.932	10314
917.044	10356
917.156	10341
917.268	10303
917.38	10234
917.491	10253
917.603	10265
917.715	10363
917.826	10379
917.938	10211
918.049	10173
918.161	10322
918.272	10382
918.384	10462
918.495	10295
918.606	10097
918.717	10059
918.828	10139
918.939	10215
919.05	10086
919.161	10074
919.272	10002
919.383	9945
919.494	10166
919.604	10470
919.715	10139
919.826	10032
919.936	10105
920.047	10181
920.157	10135
920.267	10394
920.378	10207
920.488	10082
920.598	10337
920.708	10565
920.818	10325
920.928	10398
921.038	10466
921.148	10497
921.258	10219
921.368	10067
921.477	10078
921.587	9983
921.697	9812
921.806	10036
921.916	9903
922.025	9797
922.134	9774
922.244	9682
922.353	9751
922.462	9572
922.571	9572
922.68	9428
922.789	9420
922.898	9447
923.007	9363
923.116	9431
923.224	9450
923.333	9420
923.442	9294
923.55	9302
923.659	9317
923.767	9325
923.876	9173
923.984	9386
924.092	9249
924.201	9272
924.309	9294
924.417	9329
924.525	9279
924.633	9294
924.741	10242
924.849	9066
924.956	9268
925.064	9154
925.172	9005
925.279	9066
925.387	9123
925.494	9146
925.602	9310
925.709	9230
925.816	9009
925.924	9131
926.031	9127
926.138	9119
926.245	9169
926.352	9043
926.459	9176
926.566	9264
926.673	9028
926.779	8952
926.886	8960
926.993	8845
927.099	8777
927.206	8853
927.312	8708
927.419	8807
927.525	8830
927.631	8864
927.737	8731
927.843	8724
927.95	8602
928.056	8659
928.162	8651
928.267	8727
928.373	9310
928.479	8796
928.585	8568
928.69	8686
928.796	8796
928.901	8621
929.007	8522
929.112	8655
929.218	8610
929.323	8564
929.428	8503
929.533	8758
929.638	8545
929.743	8473
929.848	8579
929.953	8514
930.058	8427
930.163	8252
930.267	8286
930.372	8457
930.477	8290
930.581	8552
930.685	8393
930.79	8267
930.894	8320
930.998	8301
931.103	8415
931.207	7978
931.311	8073
931.415	7932
931.519	7704
931.623	7788
