Data from test_V78500241_3114.txt Node
Date: Fri Mar 25 14:55:23 CST 2022
User: usil
Spectrometer: V785-0024
Trigger mode: 0
Integration Time (sec): 4.000000E-1
Scans to average: 1
Nonlinearity correction enabled: false
Boxcar width: 0
Storing dark spectrum: false
XAxis mode: Wavelengths
Number of Pixels in Spectrum: 1024
>>>>>Begin Spectral Data<<<<<
801.071	22040
801.214	21907
801.356	21686
801.499	21736
801.641	21488
801.783	21500
801.926	21447
802.068	21397
802.211	21317
802.353	21279
802.496	21135
802.638	20895
802.78	20956
802.923	20788
803.065	20788
803.208	20834
803.35	20918
803.492	20815
803.635	21005
803.777	20785
803.919	20914
804.061	21009
804.204	20872
804.346	20834
804.488	20678
804.63	20670
804.773	20625
804.915	20655
805.057	20807
805.199	20651
805.341	20724
805.483	20758
805.626	20739
805.768	20556
805.91	20758
806.052	20701
806.194	20640
806.336	20800
806.478	20689
806.62	20632
806.762	20739
806.904	20883
807.046	21062
807.188	21055
807.33	21093
807.472	21116
807.614	20941
807.756	20910
807.898	20815
808.04	20674
808.182	20762
808.324	20891
808.465	20838
808.607	20906
808.749	20998
808.891	21161
809.033	21154
809.174	21058
809.316	21058
809.458	21047
809.6	21066
809.741	21222
809.883	21135
810.025	21195
810.166	21173
810.308	21245
810.45	21230
810.591	21074
810.733	20971
810.875	20902
811.016	20765
811.158	20773
811.299	20872
811.441	20914
811.582	20941
811.724	20857
811.865	20727
812.007	20769
812.148	20921
812.29	20868
812.431	21077
812.573	21169
812.714	21150
812.855	21336
812.997	21325
813.138	21553
813.279	21408
813.421	21351
813.562	21214
813.703	21009
813.845	20979
813.986	20640
814.127	20514
814.268	20370
814.41	20313
814.551	20339
814.692	20400
814.833	20267
814.974	20225
815.115	20355
815.256	20259
815.397	20233
815.539	20122
815.68	20046
815.821	20103
815.962	20107
816.103	20077
816.244	19871
816.385	19803
816.526	19635
816.666	19613
816.807	19510
816.948	19586
817.089	19753
817.23	19544
817.371	19419
817.512	19384
817.653	19422
817.793	19354
817.934	19453
818.075	19476
818.216	19415
818.356	19502
818.497	19400
818.638	19080
818.778	19168
818.919	19175
819.06	19221
819.2	19259
819.341	19354
819.481	19297
819.622	19415
819.762	19632
819.903	19719
820.043	19628
820.184	19533
820.324	19422
820.465	19548
820.605	19430
820.746	19434
820.886	19293
821.026	19476
821.167	19483
821.307	19518
821.447	19362
821.588	19308
821.728	19122
821.868	19000
822.008	18829
822.149	18791
822.289	18913
822.429	18597
822.569	18483
822.709	18700
822.849	18361
822.99	18270
823.13	18441
823.27	18365
823.41	18034
823.55	18174
823.69	18125
823.83	18167
823.97	18182
824.11	17870
824.25	17878
824.389	18015
824.529	17980
824.669	17901
824.809	18049
824.949	18015
825.089	17965
825.228	17935
825.368	17707
825.508	17771
825.648	17726
825.787	17847
825.927	17855
826.067	17646
826.206	17577
826.346	17718
826.485	17611
826.625	17710
826.765	17824
826.904	17634
827.044	17482
827.183	17478
827.323	17402
827.462	17463
827.601	17474
827.741	17360
827.88	17417
828.02	17250
828.159	17296
828.298	17410
828.437	17467
828.577	17353
828.716	17516
828.855	17364
828.994	17094
829.134	17159
829.273	17181
829.412	17060
829.551	16999
829.69	17170
829.829	17151
829.968	17197
830.107	17193
830.246	17166
830.385	17064
830.524	17117
830.663	16923
830.802	16843
830.941	16809
831.08	16744
831.219	16938
831.357	16812
831.496	16987
831.635	16721
831.774	16653
831.913	16649
832.051	16478
832.19	16554
832.329	16455
832.467	16527
832.606	16306
832.744	16424
832.883	16478
833.022	16386
833.16	16489
833.299	16443
833.437	16398
833.576	16577
833.714	16390
833.852	16493
833.991	16447
834.129	16455
834.267	16558
834.406	16500
834.544	16512
834.682	16615
834.821	16451
834.959	16668
835.097	16432
835.235	16538
835.373	16527
835.511	16508
835.65	16333
835.788	16348
835.926	16249
836.064	16257
836.202	16230
836.34	16363
836.478	16561
836.615	16360
836.753	16325
836.891	16519
837.029	16478
837.167	16451
837.305	16306
837.443	16291
837.58	16268
837.718	16386
837.856	16249
837.993	16276
838.131	16246
838.269	16166
838.406	16249
838.544	16188
838.681	15960
838.819	15937
838.956	15778
839.094	15751
839.231	15876
839.369	16002
839.506	16147
839.643	16029
839.781	15850
839.918	15705
840.055	15865
840.193	15831
840.33	15800
840.467	15751
840.604	15888
840.742	16048
840.879	15728
841.016	15713
841.153	15778
841.29	15987
841.427	15819
841.564	15816
841.701	15892
841.838	15739
841.975	15762
842.112	15751
842.249	15595
842.385	15622
842.522	15827
842.659	15660
842.796	15549
842.933	15587
843.069	15515
843.206	15458
843.343	15603
843.479	15675
843.616	15587
843.752	15374
843.889	15393
844.025	15492
844.162	15389
844.298	15481
844.435	15279
844.571	15310
844.708	15389
844.844	15481
844.98	15530
845.117	15473
845.253	15344
845.389	15222
845.525	15389
845.661	15192
845.798	15165
845.934	15226
846.07	15211
846.206	15150
846.342	15370
846.478	15214
846.614	14975
846.75	14834
846.886	14868
847.022	15074
847.158	14842
847.294	14925
847.429	14982
847.565	14956
847.701	15154
847.837	14735
847.972	14693
848.108	14777
848.244	14792
848.379	14526
848.515	14499
848.65	14549
848.786	14476
848.921	14556
849.057	14625
849.192	14503
849.328	14606
849.463	14610
849.598	14530
849.734	14480
849.869	14389
850.004	14313
850.14	14343
850.275	14336
850.41	14240
850.545	14221
850.68	14358
850.815	14290
850.95	14263
851.085	14526
851.22	14438
851.355	14347
851.49	14362
851.625	14244
851.76	14252
851.895	14168
852.03	14134
852.165	14301
852.299	14355
852.434	14423
852.569	14248
852.703	14328
852.838	14370
852.973	14438
853.107	14446
853.242	14233
853.376	14248
853.511	14123
853.645	14138
853.78	14309
853.914	14218
854.048	14145
854.183	14145
854.317	14225
854.451	14351
854.585	14210
854.72	14161
854.854	14358
854.988	14039
855.122	14218
855.256	14065
855.39	14218
855.524	14317
855.658	14259
855.792	14199
855.926	14244
856.06	14294
856.194	14225
856.327	14252
856.461	14149
856.595	14199
856.729	14210
856.862	14320
856.996	14259
857.13	14221
857.263	14248
857.397	14355
857.53	14282
857.664	14259
857.797	14263
857.931	14320
858.064	14237
858.197	14305
858.331	14126
858.464	14199
858.597	14191
858.731	14206
858.864	14244
858.997	14218
859.13	14278
859.263	14233
859.396	14214
859.529	14237
859.662	14138
859.795	14138
859.928	14286
860.061	14290
860.194	14396
860.327	14180
860.46	14225
860.592	14240
860.725	14366
860.858	14351
860.99	14191
861.123	14145
861.256	14096
861.388	14168
861.521	14933
861.653	14119
861.786	13982
861.918	14119
862.05	14157
862.183	14092
862.315	14271
862.447	14244
862.58	14069
862.712	13955
862.844	13921
862.976	13993
863.108	13970
863.24	14374
863.372	13925
863.504	14058
863.636	13944
863.768	14077
863.9	14008
864.032	13955
864.164	13940
864.296	13997
864.428	14191
864.559	14123
864.691	14100
864.823	14050
864.954	14043
865.086	13989
865.217	13898
865.349	13864
865.48	13940
865.612	13894
865.743	14153
865.875	13967
866.006	13993
866.137	13963
866.269	13982
866.4	13944
866.531	13879
866.662	13955
866.793	13906
866.924	13932
867.055	13982
867.186	14012
867.317	13921
867.448	13875
867.579	13890
867.71	13932
867.841	13849
867.972	14027
868.103	13936
868.233	13974
868.364	14062
868.495	13936
868.625	14168
868.756	14317
868.886	14096
869.017	14164
869.147	14412
869.278	14309
869.408	14206
869.539	14187
869.669	14256
869.799	14259
869.929	14278
870.06	14317
870.19	14541
870.32	14530
870.45	14533
870.58	14659
870.71	14648
870.84	14678
870.97	14594
871.1	14670
871.23	14819
871.36	14899
871.489	14781
871.619	14705
871.749	14868
871.879	14739
872.008	14979
872.138	14842
872.267	14815
872.397	14636
872.526	14575
872.656	14686
872.785	14697
872.915	14857
873.044	14971
873.173	14838
873.303	14906
873.432	14956
873.561	14941
873.69	14868
873.819	14777
873.948	14933
874.077	14914
874.206	14792
874.335	14880
874.464	15013
874.593	15214
874.722	15135
874.851	15264
874.979	15310
875.108	15355
875.237	15184
875.365	15131
875.494	15123
875.623	15313
875.751	15146
875.88	15214
876.008	15313
876.136	15359
876.265	15557
876.393	15686
876.521	15701
876.65	15770
876.778	15549
876.906	15561
877.034	15572
877.162	15485
877.29	15587
877.418	15667
877.546	15606
877.674	15667
877.802	15690
877.93	15568
878.058	15568
878.185	15507
878.313	15580
878.441	15561
878.568	15420
878.696	15576
878.824	15625
878.951	15720
879.079	15793
879.206	15816
879.333	15842
879.461	15671
879.588	15629
879.715	15778
879.842	15827
879.97	15618
880.097	15447
880.224	15454
880.351	15431
880.478	15515
880.605	15466
880.732	15389
880.859	15675
880.986	15511
881.112	15488
881.239	15245
881.366	15085
881.493	15154
881.619	15146
881.746	15123
881.872	15085
881.999	15077
882.125	15097
882.252	15188
882.378	15093
882.505	15256
882.631	15104
882.757	14929
882.883	14975
883.01	14910
883.136	14937
883.262	14655
883.388	14773
883.514	14963
883.64	15017
883.766	14914
883.892	14701
884.018	14716
884.143	14937
884.269	14967
884.395	14712
884.52	14549
884.646	14689
884.772	14488
884.897	14434
885.023	14667
885.148	14670
885.274	14868
885.399	14708
885.524	14621
885.65	14560
885.775	14693
885.9	14678
886.025	14773
886.15	14701
886.275	14659
886.4	14530
886.525	14522
886.65	14651
886.775	14549
886.9	14731
887.025	14861
887.149	14590
887.274	14419
887.399	14492
887.523	14358
887.648	14370
887.773	14263
887.897	14484
888.021	14503
888.146	14442
888.27	14610
888.395	14621
888.519	14518
888.643	14560
888.767	14564
888.891	14408
889.015	14290
889.139	14351
889.263	14320
889.387	14465
889.511	14602
889.635	14461
889.759	14347
889.883	14282
890.006	14358
890.13	14488
890.254	14305
890.377	14256
890.501	14199
890.624	14050
890.748	14153
890.871	14050
890.995	13959
891.118	13811
891.241	14073
891.364	14062
891.488	14183
891.611	13986
891.734	14035
891.857	14016
891.98	13997
892.103	14210
892.226	14043
892.349	14046
892.471	13875
892.594	13928
892.717	14027
892.839	13997
892.962	14008
893.085	14058
893.207	14077
893.33	13974
893.452	13963
893.575	13997
893.697	14024
893.819	14119
893.941	14149
894.064	14210
894.186	13932
894.308	13989
894.43	14202
894.552	14206
894.674	14233
894.796	13978
894.918	14069
895.04	14008
895.161	14237
895.283	14100
895.405	14069
895.526	14225
895.648	14115
895.769	14149
895.891	14119
896.012	14263
896.134	14317
896.255	14191
896.376	14210
896.498	14130
896.619	14267
896.74	14191
896.861	14225
896.982	14598
897.103	14750
897.224	14499
897.345	14377
897.466	14465
897.587	14499
897.708	14575
897.828	14552
897.949	14355
898.07	14328
898.19	14366
898.311	14594
898.431	14427
898.552	14533
898.672	14617
898.792	14621
898.913	14568
899.033	14556
899.153	14431
899.273	14263
899.393	14389
899.513	14374
899.633	14362
899.753	14545
899.873	14271
899.993	14457
900.113	14400
900.232	14457
900.352	14404
900.472	14320
900.591	14199
900.711	14317
900.83	14248
900.95	14408
901.069	14351
901.189	14153
901.308	13982
901.427	13852
901.546	14039
901.665	14054
901.784	13963
901.904	13852
902.023	13788
902.141	13590
902.26	13487
902.379	13689
902.498	13506
902.617	13464
902.735	13552
902.854	13533
902.973	13518
903.091	13247
903.21	13240
903.328	13247
903.446	13175
903.565	13114
903.683	13179
903.801	13023
903.919	13061
904.038	13152
904.156	12962
904.274	12966
904.392	12924
904.51	12920
904.627	12924
904.745	12985
904.863	12909
904.981	12730
905.098	12627
905.216	12665
905.334	12601
905.451	12658
905.569	12460
905.686	12650
905.803	12627
905.921	12426
906.038	12551
906.155	12346
906.272	12323
906.389	12369
906.506	12239
906.623	12182
906.74	12098
906.857	12155
906.974	12087
907.091	12254
907.208	12285
907.324	12224
907.441	12133
907.557	11920
907.674	11931
907.79	11847
907.907	11893
908.023	11946
908.139	11935
908.256	11863
908.372	11878
908.488	11821
908.604	11623
908.72	11638
908.836	11668
908.952	11634
909.068	11722
909.184	11802
909.3	11707
909.415	11726
909.531	11710
909.647	11501
909.762	11486
909.878	11471
909.993	11463
910.108	11410
910.224	11414
910.339	11433
910.454	11383
910.57	11296
910.685	11204
910.8	11524
910.915	11406
911.03	11299
911.145	11140
911.259	11121
911.374	11220
911.489	11140
911.604	10968
911.718	10896
911.833	10908
911.947	10786
912.062	10767
912.176	10900
912.291	10942
912.405	10831
912.519	11083
912.633	11155
912.748	10995
912.862	10946
912.976	10706
913.09	10683
913.204	10831
913.318	10850
913.431	10980
913.545	10869
913.659	10980
913.772	10755
913.886	10706
914	10740
914.113	10774
914.226	10809
914.34	10752
914.453	10630
914.566	10752
914.68	10691
914.793	10630
914.906	10440
915.019	10440
915.132	10314
915.245	10447
915.358	10474
915.47	10363
915.583	10455
915.696	10489
915.809	10592
915.921	10664
916.034	10348
916.146	10356
916.259	10295
916.371	10527
916.483	10470
916.595	10291
916.708	10352
916.82	10367
916.932	10348
917.044	10390
917.156	10310
917.268	10234
917.38	10310
917.491	10249
917.603	10253
917.715	10344
917.826	10428
917.938	10325
918.049	10147
918.161	10257
918.272	10352
918.384	10386
918.495	10325
918.606	10135
918.717	10055
918.828	10101
918.939	10207
919.05	10010
919.161	10162
919.272	9972
919.383	10040
919.494	10249
919.604	10230
919.715	10147
919.826	10040
919.936	10124
920.047	10272
920.157	10230
920.267	10432
920.378	10173
920.488	10131
920.598	10421
920.708	10489
920.818	10398
920.928	10382
921.038	10504
921.148	10432
921.258	10246
921.368	10040
921.477	10017
921.587	9968
921.697	9953
921.806	10055
921.916	9903
922.025	9781
922.134	9690
922.244	9599
922.353	9812
922.462	9576
922.571	9492
922.68	9488
922.789	9359
922.898	9431
923.007	9336
923.116	9477
923.224	9431
923.333	9401
923.442	9325
923.55	9283
923.659	9313
923.767	9420
923.876	9264
923.984	9389
924.092	9287
924.201	9237
924.309	9287
924.417	9317
924.525	9218
924.633	9218
924.741	10185
924.849	9058
924.956	9226
925.064	9017
925.172	9013
925.279	8994
925.387	9142
925.494	9039
925.602	9199
925.709	9173
925.816	8998
925.924	9024
926.031	9135
926.138	9055
926.245	9116
926.352	9039
926.459	9112
926.566	9230
926.673	8998
926.779	8960
926.886	8914
926.993	8750
927.099	8766
927.206	8826
927.312	8762
927.419	8895
927.525	8796
927.631	8785
927.737	8686
927.843	8636
927.95	8533
928.056	8651
928.162	8762
928.267	8743
928.373	9253
928.479	8754
928.585	8530
928.69	8640
928.796	8716
928.901	8629
929.007	8461
929.112	8606
929.218	8632
929.323	8541
929.428	8499
929.533	8617
929.638	8518
929.743	8552
929.848	8484
929.953	8488
930.058	8400
930.163	8263
930.267	8343
930.372	8457
930.477	8320
930.581	8480
930.685	8332
930.79	8252
930.894	8309
930.998	8271
931.103	8385
931.207	8001
931.311	7967
931.415	7940
931.519	7708
931.623	7765
