Data from test_V78500241_2849.txt Node
Date: Fri Mar 25 14:53:33 CST 2022
User: usil
Spectrometer: V785-0024
Trigger mode: 0
Integration Time (sec): 4.000000E-1
Scans to average: 1
Nonlinearity correction enabled: false
Boxcar width: 0
Storing dark spectrum: false
XAxis mode: Wavelengths
Number of Pixels in Spectrum: 1024
>>>>>Begin Spectral Data<<<<<
801.071	21930
801.214	21941
801.356	21671
801.499	21587
801.641	21481
801.783	21481
801.926	21382
802.068	21294
802.211	21370
802.353	21287
802.496	21055
802.638	20960
802.78	21001
802.923	20811
803.065	20731
803.208	20773
803.35	20587
803.492	20754
803.635	21005
803.777	20629
803.919	20845
804.061	21085
804.204	20705
804.346	20670
804.488	20560
804.63	20636
804.773	20739
804.915	20777
805.057	20678
805.199	20693
805.341	20781
805.483	20785
805.626	20716
805.768	20530
805.91	20663
806.052	20621
806.194	20564
806.336	20861
806.478	20609
806.62	20583
806.762	20598
806.904	20880
807.046	21112
807.188	20982
807.33	20956
807.472	20990
807.614	20952
807.756	20948
807.898	20686
808.04	20758
808.182	20674
808.324	20777
808.465	20746
808.607	20899
808.749	21020
808.891	21089
809.033	21359
809.174	21074
809.316	21005
809.458	21146
809.6	20979
809.741	21100
809.883	21104
810.025	21268
810.166	21119
810.308	21142
810.45	21131
810.591	21039
810.733	21047
810.875	20815
811.016	20727
811.158	20678
811.299	20796
811.441	20815
811.582	20887
811.724	20720
811.865	20727
812.007	20708
812.148	20937
812.29	20758
812.431	20948
812.573	21070
812.714	21184
812.855	21260
812.997	21511
813.138	21515
813.279	21378
813.421	21321
813.562	21066
813.703	21157
813.845	20876
813.986	20678
814.127	20514
814.268	20393
814.41	20419
814.551	20465
814.692	20309
814.833	20320
814.974	20252
815.115	20263
815.256	20259
815.397	20221
815.539	20191
815.68	20088
815.821	20027
815.962	20161
816.103	20039
816.244	19871
816.385	19807
816.526	19811
816.666	19666
816.807	19578
816.948	19548
817.089	19502
817.23	19430
817.371	19571
817.512	19540
817.653	19518
817.793	19354
817.934	19571
818.075	19396
818.216	19552
818.356	19263
818.497	19441
818.638	19088
818.778	19152
818.919	19168
819.06	19187
819.2	19331
819.341	19346
819.481	19365
819.622	19510
819.762	19666
819.903	19594
820.043	19506
820.184	19308
820.324	19403
820.465	19514
820.605	19472
820.746	19320
820.886	19266
821.026	19354
821.167	19331
821.307	19453
821.447	19377
821.588	19236
821.728	19190
821.868	18875
822.008	18905
822.149	18772
822.289	18791
822.429	18547
822.569	18604
822.709	18441
822.849	18319
822.99	18311
823.13	18300
823.27	18247
823.41	18076
823.55	18167
823.69	18190
823.83	18216
823.97	18133
824.11	17965
824.25	17935
824.389	18003
824.529	17973
824.669	17980
824.809	17973
824.949	17946
825.089	18011
825.228	17893
825.368	17779
825.508	17630
825.648	17668
825.787	17687
825.927	17695
826.067	17638
826.206	17752
826.346	17642
826.485	17646
826.625	17661
826.765	17878
826.904	17687
827.044	17570
827.183	17387
827.323	17383
827.462	17482
827.601	17406
827.741	17440
827.88	17433
828.02	17288
828.159	17493
828.298	17330
828.437	17471
828.577	17315
828.716	17471
828.855	17334
828.994	17212
829.134	17166
829.273	17223
829.412	17098
829.551	17132
829.69	17128
829.829	17227
829.968	17212
830.107	17204
830.246	17128
830.385	17079
830.524	17132
830.663	16908
830.802	16934
830.941	16752
831.08	16793
831.219	16675
831.357	16915
831.496	17014
831.635	16786
831.774	16793
831.913	16733
832.051	16634
832.19	16462
832.329	16565
832.467	16577
832.606	16424
832.744	16455
832.883	16542
833.022	16466
833.16	16603
833.299	16485
833.437	16455
833.576	16538
833.714	16580
833.852	16622
833.991	16630
834.129	16561
834.267	16580
834.406	16569
834.544	16717
834.682	16573
834.821	16493
834.959	16599
835.097	16493
835.235	16694
835.373	16527
835.511	16474
835.65	16413
835.788	16424
835.926	16367
836.064	16215
836.202	16398
836.34	16573
836.478	16550
836.615	16440
836.753	16455
836.891	16516
837.029	16466
837.167	16424
837.305	16299
837.443	16284
837.58	16306
837.718	16390
837.856	16299
837.993	16249
838.131	16284
838.269	16044
838.406	16226
838.544	16112
838.681	15991
838.819	16021
838.956	15873
839.094	15861
839.231	15922
839.369	15994
839.506	16246
839.643	16082
839.781	15918
839.918	15873
840.055	15972
840.193	15831
840.33	15781
840.467	15892
840.604	15857
840.742	16166
840.879	15789
841.016	15747
841.153	15766
841.29	16048
841.427	15998
841.564	15873
841.701	15842
841.838	15770
841.975	15835
842.112	15755
842.249	15743
842.385	15610
842.522	15827
842.659	15743
842.796	15618
842.933	15656
843.069	15587
843.206	15637
843.343	15720
843.479	15675
843.616	15720
843.752	15458
843.889	15519
844.025	15564
844.162	15317
844.298	15523
844.435	15515
844.571	15378
844.708	15477
844.844	15534
844.98	15580
845.117	15458
845.253	15450
845.389	15268
845.525	15355
845.661	15378
845.798	15161
845.934	15264
846.07	15222
846.206	15226
846.342	15264
846.478	15252
846.614	15116
846.75	14979
846.886	15036
847.022	15089
847.158	15020
847.294	14963
847.429	14937
847.565	15036
847.701	15203
847.837	14765
847.972	14613
848.108	14796
848.244	14769
848.379	14678
848.515	14636
848.65	14613
848.786	14632
848.921	14621
849.057	14788
849.192	14682
849.328	14689
849.463	14602
849.598	14568
849.734	14450
849.869	14438
850.004	14275
850.14	14389
850.275	14336
850.41	14336
850.545	14275
850.68	14389
850.815	14423
850.95	14351
851.085	14469
851.22	14431
851.355	14423
851.49	14328
851.625	14298
851.76	14320
851.895	14233
852.03	14328
852.165	14294
852.299	14469
852.434	14415
852.569	14385
852.703	14374
852.838	14419
852.973	14518
853.107	14492
853.242	14328
853.376	14206
853.511	14157
853.645	14149
853.78	14324
853.914	14275
854.048	14267
854.183	14218
854.317	14187
854.451	14484
854.585	14267
854.72	14290
854.854	14351
854.988	14180
855.122	14229
855.256	14084
855.39	14221
855.524	14419
855.658	14412
855.792	14278
855.926	14324
856.06	14313
856.194	14351
856.327	14195
856.461	14130
856.595	14142
856.729	14256
856.862	14332
856.996	14233
857.13	14324
857.263	14366
857.397	14396
857.53	14214
857.664	14313
857.797	14336
857.931	14389
858.064	14199
858.197	14244
858.331	14252
858.464	14183
858.597	14176
858.731	14164
858.864	14317
858.997	14206
859.13	14301
859.263	14366
859.396	14377
859.529	14282
859.662	14202
859.795	14240
859.928	14256
860.061	14473
860.194	14400
860.327	14176
860.46	14286
860.592	14290
860.725	14347
860.858	14328
860.99	14206
861.123	14103
861.256	14187
861.388	14278
861.521	14762
861.653	14161
861.786	13997
861.918	14096
862.05	14210
862.183	14161
862.315	14286
862.447	14195
862.58	14233
862.712	13974
862.844	13906
862.976	14062
863.108	14081
863.24	14461
863.372	14039
863.504	14008
863.636	14020
863.768	14039
863.9	13947
864.032	13955
864.164	14054
864.296	14001
864.428	14157
864.559	14176
864.691	14138
864.823	14027
864.954	14054
865.086	14069
865.217	13978
865.349	14069
865.48	14012
865.612	14016
865.743	14164
865.875	13997
866.006	13913
866.137	14001
866.269	14012
866.4	14012
866.531	13963
866.662	13993
866.793	13932
866.924	13936
867.055	13982
867.186	13997
867.317	13974
867.448	13864
867.579	13921
867.71	13925
867.841	13967
867.972	13917
868.103	14020
868.233	13974
868.364	14031
868.495	14126
868.625	14267
868.756	14362
868.886	14092
869.017	14206
869.147	14328
869.278	14332
869.408	14263
869.539	14221
869.669	14332
869.799	14286
869.929	14412
870.06	14263
870.19	14488
870.32	14575
870.45	14560
870.58	14693
870.71	14735
870.84	14811
870.97	14617
871.1	14708
871.23	14796
871.36	14826
871.489	14720
871.619	14750
871.749	14762
871.879	14811
872.008	14910
872.138	14880
872.267	14891
872.397	14731
872.526	14781
872.656	14670
872.785	14674
872.915	14895
873.044	14891
873.173	14834
873.303	14960
873.432	14880
873.561	14921
873.69	14880
873.819	14887
873.948	14887
874.077	14948
874.206	14918
874.335	14929
874.464	14986
874.593	15165
874.722	15157
874.851	15203
874.979	15306
875.108	15188
875.237	15157
875.365	15108
875.494	15154
875.623	15294
875.751	15150
875.88	15302
876.008	15313
876.136	15351
876.265	15591
876.393	15778
876.521	15682
876.65	15656
876.778	15599
876.906	15679
877.034	15580
877.162	15584
877.29	15469
877.418	15584
877.546	15599
877.674	15610
877.802	15739
877.93	15557
878.058	15572
878.185	15473
878.313	15587
878.441	15618
878.568	15504
878.696	15561
878.824	15671
878.951	15622
879.079	15854
879.206	15854
879.333	15785
879.461	15663
879.588	15713
879.715	15762
879.842	15762
879.97	15667
880.097	15485
880.224	15420
880.351	15549
880.478	15572
880.605	15462
880.732	15481
880.859	15743
880.986	15545
881.112	15469
881.239	15420
881.366	15279
881.493	15138
881.619	15135
881.746	15199
881.872	15184
881.999	15135
882.125	15127
882.252	15100
882.378	15222
882.505	15275
882.631	14979
882.757	14902
882.883	14994
883.01	14975
883.136	14838
883.262	14830
883.388	14838
883.514	14990
883.64	14883
883.766	14807
883.892	14834
884.018	14788
884.143	14975
884.269	15013
884.395	14708
884.52	14625
884.646	14674
884.772	14682
884.897	14530
885.023	14640
885.148	14807
885.274	14788
885.399	14804
885.524	14651
885.65	14602
885.775	14731
885.9	14590
886.025	14659
886.15	14693
886.275	14625
886.4	14598
886.525	14636
886.65	14518
886.775	14644
886.9	14830
887.025	14834
887.149	14648
887.274	14465
887.399	14351
887.523	14457
887.648	14442
887.773	14355
887.897	14590
888.021	14568
888.146	14438
888.27	14552
888.395	14663
888.519	14507
888.643	14522
888.767	14613
888.891	14374
889.015	14385
889.139	14415
889.263	14298
889.387	14412
889.511	14530
889.635	14393
889.759	14282
889.883	14343
890.006	14290
890.13	14393
890.254	14252
890.377	14309
890.501	14168
890.624	14100
890.748	14225
890.871	14123
890.995	13989
891.118	13906
891.241	14001
891.364	13997
891.488	14187
891.611	14134
891.734	14065
891.857	14073
891.98	14115
892.103	14157
892.226	14081
892.349	14008
892.471	13864
892.594	13982
892.717	14111
892.839	14130
892.962	14138
893.085	14157
893.207	14027
893.33	13951
893.452	13974
893.575	14062
893.697	14008
893.819	14218
893.941	14145
894.064	14252
894.186	14084
894.308	13917
894.43	14180
894.552	14187
894.674	14191
894.796	14111
894.918	14077
895.04	14107
895.161	14153
895.283	14161
895.405	14130
895.526	14157
895.648	14142
895.769	14267
895.891	14263
896.012	14339
896.134	14305
896.255	14153
896.376	14183
896.498	14142
896.619	14126
896.74	14187
896.861	14221
896.982	14564
897.103	14663
897.224	14537
897.345	14465
897.466	14454
897.587	14465
897.708	14655
897.828	14526
897.949	14488
898.07	14351
898.19	14473
898.311	14674
898.431	14568
898.552	14530
898.672	14670
898.792	14629
898.913	14629
899.033	14541
899.153	14415
899.273	14355
899.393	14389
899.513	14518
899.633	14355
899.753	14484
899.873	14442
899.993	14374
900.113	14461
900.232	14351
900.352	14381
900.472	14309
900.591	14161
900.711	14370
900.83	14210
900.95	14438
901.069	14438
901.189	14328
901.308	13978
901.427	13982
901.546	13963
901.665	13970
901.784	14020
901.904	13814
902.023	13731
902.141	13537
902.26	13502
902.379	13624
902.498	13533
902.617	13502
902.735	13594
902.854	13521
902.973	13495
903.091	13301
903.21	13285
903.328	13263
903.446	13190
903.565	13061
903.683	13072
903.801	13046
903.919	13202
904.038	13133
904.156	12909
904.274	12928
904.392	12913
904.51	12901
904.627	13000
904.745	13019
904.863	12985
904.981	12787
905.098	12597
905.216	12715
905.334	12696
905.451	12741
905.569	12521
905.686	12627
905.803	12646
905.921	12517
906.038	12494
906.155	12471
906.272	12315
906.389	12376
906.506	12243
906.623	12251
906.74	12289
906.857	12148
906.974	12136
907.091	12308
907.208	12414
907.324	12224
907.441	12136
907.557	11980
907.674	12038
907.79	11885
907.907	11958
908.023	11973
908.139	12034
908.256	11901
908.372	11882
908.488	11882
908.604	11741
908.72	11722
908.836	11741
908.952	11665
909.068	11714
909.184	11859
909.3	11748
909.415	11775
909.531	11737
909.647	11596
909.762	11505
909.878	11551
909.993	11452
910.108	11509
910.224	11516
910.339	11478
910.454	11372
910.57	11391
910.685	11235
910.8	11562
910.915	11543
911.03	11444
911.145	11201
911.259	11239
911.374	11151
911.489	11094
911.604	11045
911.718	11003
911.833	11003
911.947	10869
912.062	10812
912.176	10930
912.291	11033
912.405	10976
912.519	11121
912.633	11151
912.748	11067
912.862	10965
912.976	10900
913.09	10733
913.204	10801
913.318	10831
913.431	10991
913.545	10938
913.659	11018
913.772	10915
913.886	10714
914	10622
914.113	10847
914.226	10858
914.34	10843
914.453	10615
914.566	10782
914.68	10672
914.793	10687
914.906	10558
915.019	10432
915.132	10413
915.245	10421
915.358	10519
915.47	10436
915.583	10516
915.696	10462
915.809	10615
915.921	10679
916.034	10421
916.146	10367
916.259	10394
916.371	10512
916.483	10462
916.595	10405
916.708	10390
916.82	10497
916.932	10516
917.044	10360
917.156	10348
917.268	10238
917.38	10306
917.491	10322
917.603	10352
917.715	10402
917.826	10363
917.938	10223
918.049	10246
918.161	10306
918.272	10466
918.384	10405
918.495	10329
918.606	10238
918.717	10105
918.828	10242
918.939	10230
919.05	10112
919.161	10204
919.272	9987
919.383	10090
919.494	10211
919.604	10432
919.715	10246
919.826	10120
919.936	10207
920.047	10333
920.157	10150
920.267	10421
920.378	10276
920.488	10177
920.598	10421
920.708	10630
920.818	10462
920.928	10424
921.038	10573
921.148	10531
921.258	10238
921.368	10185
921.477	10154
921.587	10040
921.697	10013
921.806	10059
921.916	10063
922.025	9838
922.134	9724
922.244	9675
922.353	9800
922.462	9641
922.571	9584
922.68	9496
922.789	9500
922.898	9469
923.007	9382
923.116	9485
923.224	9473
923.333	9428
923.442	9389
923.55	9363
923.659	9332
923.767	9393
923.876	9382
923.984	9370
924.092	9260
924.201	9435
924.309	9317
924.417	9279
924.525	9298
924.633	9245
924.741	10211
924.849	9123
924.956	9325
925.064	9066
925.172	9028
925.279	9005
925.387	9218
925.494	9138
925.602	9287
925.709	9233
925.816	9024
925.924	9062
926.031	9188
926.138	9173
926.245	9116
926.352	9039
926.459	9192
926.566	9161
926.673	9093
926.779	9024
926.886	9032
926.993	8853
927.099	8849
927.206	8811
927.312	8796
927.419	8872
927.525	8834
927.631	8876
927.737	8739
927.843	8674
927.95	8682
928.056	8689
928.162	8686
928.267	8758
928.373	9306
928.479	8864
928.585	8617
928.69	8777
928.796	8785
928.901	8648
929.007	8545
929.112	8640
929.218	8670
929.323	8549
929.428	8556
929.533	8651
929.638	8564
929.743	8507
929.848	8511
929.953	8488
930.058	8511
930.163	8343
930.267	8336
930.372	8499
930.477	8229
930.581	8511
930.685	8370
930.79	8252
930.894	8320
930.998	8206
931.103	8438
931.207	8119
931.311	8001
931.415	7978
931.519	7772
931.623	7818
