Data from test_V78500241_3199.txt Node
Date: Fri Mar 25 14:55:59 CST 2022
User: usil
Spectrometer: V785-0024
Trigger mode: 0
Integration Time (sec): 4.000000E-1
Scans to average: 1
Nonlinearity correction enabled: false
Boxcar width: 0
Storing dark spectrum: false
XAxis mode: Wavelengths
Number of Pixels in Spectrum: 1024
>>>>>Begin Spectral Data<<<<<
801.071	22002
801.214	21907
801.356	21797
801.499	21572
801.641	21435
801.783	21397
801.926	21462
802.068	21374
802.211	21378
802.353	21180
802.496	20979
802.638	20925
802.78	20982
802.923	20781
803.065	20815
803.208	20682
803.35	20762
803.492	20914
803.635	20849
803.777	20739
803.919	20895
804.061	21131
804.204	20861
804.346	20663
804.488	20606
804.63	20667
804.773	20583
804.915	20678
805.057	20746
805.199	20564
805.341	20682
805.483	20834
805.626	20724
805.768	20621
805.91	20674
806.052	20609
806.194	20583
806.336	20804
806.478	20632
806.62	20552
806.762	20720
806.904	20906
807.046	21100
807.188	21070
807.33	20971
807.472	20902
807.614	20876
807.756	20819
807.898	20823
808.04	20705
808.182	20667
808.324	20682
808.465	20842
808.607	20800
808.749	21032
808.891	21104
809.033	21127
809.174	21058
809.316	20956
809.458	21013
809.6	21089
809.741	20990
809.883	21020
810.025	21100
810.166	21176
810.308	21192
810.45	21108
810.591	21024
810.733	20902
810.875	20807
811.016	20655
811.158	20667
811.299	20857
811.441	20864
811.582	20838
811.724	20804
811.865	20693
812.007	20800
812.148	20686
812.29	20788
812.431	20929
812.573	21108
812.714	21230
812.855	21424
812.997	21325
813.138	21473
813.279	21378
813.421	21154
813.562	21169
813.703	21024
813.845	20883
813.986	20769
814.127	20507
814.268	20305
814.41	20358
814.551	20377
814.692	20336
814.833	20267
814.974	20180
815.115	20343
815.256	20119
815.397	20248
815.539	20229
815.68	20050
815.821	20096
815.962	20202
816.103	20107
816.244	19970
816.385	19727
816.526	19795
816.666	19533
816.807	19502
816.948	19655
817.089	19578
817.23	19510
817.371	19411
817.512	19403
817.653	19396
817.793	19403
817.934	19422
818.075	19422
818.216	19434
818.356	19411
818.497	19339
818.638	19160
818.778	19221
818.919	19179
819.06	19080
819.2	19206
819.341	19392
819.481	19411
819.622	19487
819.762	19655
819.903	19445
820.043	19487
820.184	19403
820.324	19434
820.465	19438
820.605	19476
820.746	19491
820.886	19129
821.026	19468
821.167	19297
821.307	19419
821.447	19403
821.588	19335
821.728	19133
821.868	19038
822.008	18878
822.149	18783
822.289	18844
822.429	18566
822.569	18509
822.709	18494
822.849	18350
822.99	18353
823.13	18300
823.27	18414
823.41	18174
823.55	18045
823.69	18155
823.83	18140
823.97	18098
824.11	17973
824.25	17912
824.389	17783
824.529	18026
824.669	17965
824.809	17950
824.949	17958
825.089	17908
825.228	17798
825.368	17657
825.508	17668
825.648	17729
825.787	17672
825.927	17691
826.067	17596
826.206	17623
826.346	17687
826.485	17722
826.625	17657
826.765	17737
826.904	17764
827.044	17448
827.183	17421
827.323	17349
827.462	17410
827.601	17296
827.741	17444
827.88	17448
828.02	17277
828.159	17326
828.298	17387
828.437	17337
828.577	17376
828.716	17455
828.855	17284
828.994	17098
829.134	17166
829.273	17052
829.412	16991
829.551	16953
829.69	17064
829.829	17124
829.968	17181
830.107	17227
830.246	17181
830.385	17006
830.524	17029
830.663	16938
830.802	16828
830.941	16664
831.08	16698
831.219	16793
831.357	16805
831.496	16953
831.635	16721
831.774	16637
831.913	16618
832.051	16554
832.19	16470
832.329	16561
832.467	16436
832.606	16352
832.744	16360
832.883	16371
833.022	16333
833.16	16443
833.299	16573
833.437	16428
833.576	16622
833.714	16497
833.852	16497
833.991	16421
834.129	16417
834.267	16527
834.406	16440
834.544	16485
834.682	16466
834.821	16386
834.959	16611
835.097	16462
835.235	16542
835.373	16546
835.511	16485
835.65	16504
835.788	16398
835.926	16242
836.064	16200
836.202	16139
836.34	16428
836.478	16527
836.615	16363
836.753	16356
836.891	16504
837.029	16360
837.167	16375
837.305	16333
837.443	16325
837.58	16215
837.718	16249
837.856	16303
837.993	16207
838.131	16276
838.269	16246
838.406	16093
838.544	16211
838.681	16040
838.819	15911
838.956	15854
839.094	15739
839.231	15823
839.369	15926
839.506	16158
839.643	16013
839.781	15808
839.918	15747
840.055	15869
840.193	15759
840.33	15675
840.467	15762
840.604	15774
840.742	15911
840.879	15671
841.016	15667
841.153	15656
841.29	15983
841.427	15899
841.564	15717
841.701	15819
841.838	15835
841.975	15720
842.112	15728
842.249	15625
842.385	15507
842.522	15747
842.659	15568
842.796	15507
842.933	15648
843.069	15481
843.206	15492
843.343	15545
843.479	15633
843.616	15652
843.752	15348
843.889	15355
844.025	15542
844.162	15374
844.298	15466
844.435	15408
844.571	15317
844.708	15382
844.844	15534
844.98	15610
845.117	15439
845.253	15252
845.389	15214
845.525	15241
845.661	15275
845.798	15165
845.934	15272
846.07	15161
846.206	15207
846.342	15355
846.478	15165
846.614	15051
846.75	14941
846.886	14979
847.022	15051
847.158	14979
847.294	14975
847.429	14963
847.565	14975
847.701	15127
847.837	14758
847.972	14617
848.108	14762
848.244	14785
848.379	14518
848.515	14526
848.65	14590
848.786	14560
848.921	14514
849.057	14701
849.192	14758
849.328	14533
849.463	14518
849.598	14499
849.734	14434
849.869	14336
850.004	14408
850.14	14355
850.275	14298
850.41	14202
850.545	14237
850.68	14301
850.815	14324
850.95	14332
851.085	14461
851.22	14408
851.355	14332
851.49	14351
851.625	14332
851.76	14199
851.895	14305
852.03	14096
852.165	14286
852.299	14286
852.434	14305
852.569	14278
852.703	14233
852.838	14427
852.973	14514
853.107	14400
853.242	14256
853.376	14161
853.511	14103
853.645	14138
853.78	14298
853.914	14176
854.048	14054
854.183	14195
854.317	14145
854.451	14244
854.585	14138
854.72	14168
854.854	14248
854.988	14039
855.122	14130
855.256	14020
855.39	14233
855.524	14202
855.658	14206
855.792	14168
855.926	14168
856.06	14202
856.194	14187
856.327	14259
856.461	14134
856.595	14107
856.729	14142
856.862	14298
856.996	14180
857.13	14252
857.263	14324
857.397	14355
857.53	14176
857.664	14244
857.797	14202
857.931	14221
858.064	14267
858.197	14256
858.331	14153
858.464	14126
858.597	14008
858.731	14199
858.864	14195
858.997	14115
859.13	14199
859.263	14199
859.396	14199
859.529	14176
859.662	14126
859.795	14153
859.928	14180
860.061	14320
860.194	14317
860.327	14191
860.46	14176
860.592	14324
860.725	14214
860.858	14339
860.99	14142
861.123	14081
861.256	14035
861.388	14210
861.521	14906
861.653	14016
861.786	14062
861.918	13997
862.05	14126
862.183	14180
862.315	14111
862.447	14164
862.58	14180
862.712	13967
862.844	13906
862.976	13928
863.108	14016
863.24	14278
863.372	13883
863.504	13932
863.636	13898
863.768	14001
863.9	13944
864.032	13906
864.164	13940
864.296	14012
864.428	14043
864.559	14084
864.691	14138
864.823	14043
864.954	13978
865.086	13955
865.217	13906
865.349	13902
865.48	13909
865.612	14012
865.743	14012
865.875	14050
866.006	13913
866.137	13947
866.269	13887
866.4	13986
866.531	13902
866.662	13833
866.793	13890
866.924	13883
867.055	13940
867.186	13932
867.317	13917
867.448	13852
867.579	13970
867.71	13879
867.841	13845
867.972	13909
868.103	13955
868.233	13986
868.364	13864
868.495	14012
868.625	14172
868.756	14180
868.886	14126
869.017	14058
869.147	14393
869.278	14244
869.408	14305
869.539	14161
869.669	14233
869.799	14233
869.929	14320
870.06	14294
870.19	14438
870.32	14480
870.45	14499
870.58	14602
870.71	14686
870.84	14720
870.97	14602
871.1	14511
871.23	14750
871.36	14773
871.489	14743
871.619	14762
871.749	14765
871.879	14815
872.008	14948
872.138	14739
872.267	14807
872.397	14606
872.526	14712
872.656	14678
872.785	14636
872.915	14727
873.044	14918
873.173	14807
873.303	14849
873.432	14876
873.561	14975
873.69	14838
873.819	14792
873.948	14921
874.077	14823
874.206	14773
874.335	14876
874.464	14990
874.593	15127
874.722	15135
874.851	15195
874.979	15230
875.108	15093
875.237	15077
875.365	15043
875.494	15081
875.623	15203
875.751	15154
875.88	15230
876.008	15275
876.136	15389
876.265	15534
876.393	15732
876.521	15682
876.65	15557
876.778	15557
876.906	15542
877.034	15481
877.162	15466
877.29	15450
877.418	15584
877.546	15618
877.674	15564
877.802	15545
877.93	15587
878.058	15530
878.185	15382
878.313	15618
878.441	15614
878.568	15401
878.696	15504
878.824	15507
878.951	15603
879.079	15781
879.206	15964
879.333	15747
879.461	15545
879.588	15675
879.715	15812
879.842	15876
879.97	15660
880.097	15355
880.224	15355
880.351	15393
880.478	15454
880.605	15428
880.732	15370
880.859	15652
880.986	15450
881.112	15458
881.239	15279
881.366	15188
881.493	15195
881.619	15097
881.746	15089
881.872	15028
881.999	15013
882.125	15017
882.252	15154
882.378	15150
882.505	15272
882.631	15024
882.757	14849
882.883	14944
883.01	14872
883.136	14743
883.262	14902
883.388	14746
883.514	14914
883.64	14914
883.766	14792
883.892	14716
884.018	14743
884.143	14929
884.269	15020
884.395	14667
884.52	14625
884.646	14541
884.772	14549
884.897	14526
885.023	14743
885.148	14701
885.274	14819
885.399	14629
885.524	14533
885.65	14594
885.775	14682
885.9	14511
886.025	14686
886.15	14689
886.275	14625
886.4	14484
886.525	14518
886.65	14541
886.775	14492
886.9	14686
887.025	14853
887.149	14636
887.274	14476
887.399	14431
887.523	14419
887.648	14324
887.773	14343
887.897	14564
888.021	14434
888.146	14446
888.27	14484
888.395	14598
888.519	14393
888.643	14480
888.767	14473
888.891	14294
889.015	14278
889.139	14301
889.263	14332
889.387	14419
889.511	14552
889.635	14381
889.759	14252
889.883	14320
890.006	14324
890.13	14290
890.254	14233
890.377	14183
890.501	14168
890.624	14073
890.748	14111
890.871	14043
890.995	14008
891.118	13879
891.241	14050
891.364	13940
891.488	14092
891.611	13906
891.734	14039
891.857	13989
891.98	14054
892.103	14164
892.226	14126
892.349	14001
892.471	13780
892.594	13940
892.717	14008
892.839	14012
892.962	13989
893.085	13989
893.207	13993
893.33	13940
893.452	13978
893.575	14073
893.697	14069
893.819	14176
893.941	14172
894.064	14130
894.186	13970
894.308	13917
894.43	14058
894.552	14237
894.674	14172
894.796	14039
894.918	14123
895.04	14084
895.161	14096
895.283	14172
895.405	14100
895.526	14054
895.648	14119
895.769	14157
895.891	14202
896.012	14145
896.134	14191
896.255	14191
896.376	14126
896.498	14183
896.619	14275
896.74	14168
896.861	14153
896.982	14522
897.103	14579
897.224	14507
897.345	14408
897.466	14355
897.587	14450
897.708	14533
897.828	14473
897.949	14408
898.07	14221
898.19	14450
898.311	14541
898.431	14598
898.552	14533
898.672	14602
898.792	14636
898.913	14617
899.033	14404
899.153	14370
899.273	14320
899.393	14419
899.513	14412
899.633	14423
899.753	14404
899.873	14431
899.993	14412
900.113	14347
900.232	14476
900.352	14374
900.472	14233
900.591	14317
900.711	14282
900.83	14252
900.95	14404
901.069	14377
901.189	14206
901.308	13970
901.427	13947
901.546	13997
901.665	14039
901.784	13978
901.904	13822
902.023	13761
902.141	13521
902.26	13514
902.379	13491
902.498	13476
902.617	13491
902.735	13518
902.854	13419
902.973	13464
903.091	13236
903.21	13194
903.328	13263
903.446	13183
903.565	13019
903.683	13084
903.801	12981
903.919	13069
904.038	12947
904.156	12894
904.274	13053
904.392	12909
904.51	12890
904.627	12875
904.745	12871
904.863	12951
904.981	12631
905.098	12616
905.216	12555
905.334	12616
905.451	12532
905.569	12559
905.686	12563
905.803	12528
905.921	12410
906.038	12502
906.155	12414
906.272	12289
906.389	12319
906.506	12251
906.623	12186
906.74	12106
906.857	12102
906.974	12163
907.091	12273
907.208	12270
907.324	12228
907.441	12129
907.557	11977
907.674	11980
907.79	11866
907.907	11882
908.023	11916
908.139	11870
908.256	11790
908.372	11882
908.488	11824
908.604	11748
908.72	11577
908.836	11672
908.952	11657
909.068	11653
909.184	11836
909.3	11646
909.415	11688
909.531	11566
909.647	11387
909.762	11372
909.878	11436
909.993	11440
910.108	11398
910.224	11402
910.339	11467
910.454	11330
910.57	11337
910.685	11242
910.8	11509
910.915	11448
911.03	11322
911.145	11223
911.259	11060
911.374	11143
911.489	11025
911.604	10995
911.718	10889
911.833	10847
911.947	10733
912.062	10774
912.176	10930
912.291	10930
912.405	10877
912.519	11121
912.633	11117
912.748	10946
912.862	10957
912.976	10805
913.09	10710
913.204	10687
913.318	10748
913.431	10930
913.545	10869
913.659	10869
913.772	10771
913.886	10630
914	10630
914.113	10752
914.226	10911
914.34	10740
914.453	10626
914.566	10782
914.68	10607
914.793	10565
914.906	10405
915.019	10466
915.132	10238
915.245	10478
915.358	10440
915.47	10599
915.583	10436
915.696	10451
915.809	10561
915.921	10592
916.034	10341
916.146	10352
916.259	10280
916.371	10447
916.483	10436
916.595	10295
916.708	10356
916.82	10333
916.932	10382
917.044	10325
917.156	10310
917.268	10249
917.38	10261
917.491	10185
917.603	10242
917.715	10318
917.826	10421
917.938	10310
918.049	10105
918.161	10310
918.272	10455
918.384	10249
918.495	10272
918.606	10093
918.717	10063
918.828	10135
918.939	10150
919.05	10093
919.161	10139
919.272	9922
919.383	9994
919.494	10162
919.604	10386
919.715	10162
919.826	10067
919.936	10169
920.047	10246
920.157	10131
920.267	10360
920.378	10169
920.488	10204
920.598	10379
920.708	10565
920.818	10367
920.928	10386
921.038	10550
921.148	10470
921.258	10147
921.368	10097
921.477	10078
921.587	10006
921.697	9861
921.806	10055
921.916	9895
922.025	9732
922.134	9732
922.244	9690
922.353	9766
922.462	9587
922.571	9599
922.68	9344
922.789	9382
922.898	9416
923.007	9336
923.116	9435
923.224	9378
923.333	9424
923.442	9256
923.55	9249
923.659	9264
923.767	9329
923.876	9291
923.984	9351
924.092	9184
924.201	9298
924.309	9264
924.417	9279
924.525	9169
924.633	9199
924.741	10158
924.849	9085
924.956	9211
925.064	9047
925.172	9013
925.279	9093
925.387	9119
925.494	9058
925.602	9264
925.709	9165
925.816	8956
925.924	9036
926.031	9138
926.138	9024
926.245	9108
926.352	8971
926.459	9211
926.566	9138
926.673	9024
926.779	8918
926.886	8868
926.993	8785
927.099	8750
927.206	8670
927.312	8727
927.419	8891
927.525	8807
927.631	8785
927.737	8754
927.843	8670
927.95	8556
928.056	8644
928.162	8682
928.267	8716
928.373	9336
928.479	8781
928.585	8560
928.69	8739
928.796	8659
928.901	8587
929.007	8492
929.112	8629
929.218	8594
929.323	8457
929.428	8473
929.533	8583
929.638	8438
929.743	8503
929.848	8533
929.953	8511
930.058	8431
930.163	8240
930.267	8301
930.372	8469
930.477	8256
930.581	8499
930.685	8279
930.79	8172
930.894	8244
930.998	8225
931.103	8309
931.207	8069
931.311	7940
931.415	7879
931.519	7681
931.623	7715
