Data from test_V78500241_1761.txt Node
Date: Fri Mar 25 14:45:58 CST 2022
User: usil
Spectrometer: V785-0024
Trigger mode: 0
Integration Time (sec): 4.000000E-1
Scans to average: 1
Nonlinearity correction enabled: false
Boxcar width: 0
Storing dark spectrum: false
XAxis mode: Wavelengths
Number of Pixels in Spectrum: 1024
>>>>>Begin Spectral Data<<<<<
801.071	22284
801.214	22124
801.356	21861
801.499	21701
801.641	21534
801.783	21500
801.926	21519
802.068	21542
802.211	21481
802.353	21355
802.496	21218
802.638	20986
802.78	21093
802.923	21024
803.065	20834
803.208	20918
803.35	20864
803.492	20902
803.635	21055
803.777	20952
803.919	21005
804.061	21230
804.204	21024
804.346	20876
804.488	20762
804.63	20826
804.773	20731
804.915	20819
805.057	20853
805.199	20743
805.341	20792
805.483	20914
805.626	20918
805.768	20842
805.91	20906
806.052	20754
806.194	20754
806.336	20982
806.478	20838
806.62	20804
806.762	20746
806.904	20944
807.046	21218
807.188	21089
807.33	21161
807.472	21173
807.614	21017
807.756	21024
807.898	20872
808.04	20925
808.182	20830
808.324	20838
808.465	20925
808.607	20998
808.749	21146
808.891	21313
809.033	21321
809.174	21355
809.316	21058
809.458	21272
809.6	21180
809.741	21336
809.883	21256
810.025	21294
810.166	21363
810.308	21435
810.45	21313
810.591	21302
810.733	21055
810.875	20998
811.016	20906
811.158	20792
811.299	20952
811.441	21165
811.582	21043
811.724	21005
811.865	20906
812.007	20948
812.148	20956
812.29	21081
812.431	21074
812.573	21405
812.714	21310
812.855	21439
812.997	21637
813.138	21682
813.279	21564
813.421	21504
813.562	21374
813.703	21249
813.845	21085
813.986	20910
814.127	20743
814.268	20606
814.41	20594
814.551	20507
814.692	20602
814.833	20396
814.974	20613
815.115	20507
815.256	20351
815.397	20476
815.539	20332
815.68	20240
815.821	20161
815.962	20366
816.103	20206
816.244	20073
816.385	20077
816.526	19955
816.666	19830
816.807	19681
816.948	19750
817.089	19727
817.23	19753
817.371	19609
817.512	19727
817.653	19677
817.793	19715
817.934	19719
818.075	19719
818.216	19708
818.356	19719
818.497	19499
818.638	19350
818.778	19365
818.919	19453
819.06	19449
819.2	19620
819.341	19540
819.481	19521
819.622	19639
819.762	19814
819.903	19765
820.043	19639
820.184	19628
820.324	19578
820.465	19586
820.605	19609
820.746	19639
820.886	19525
821.026	19590
821.167	19601
821.307	19655
821.447	19586
821.588	19445
821.728	19411
821.868	19148
822.008	19015
822.149	19050
822.289	19065
822.429	18825
822.569	18776
822.709	18711
822.849	18635
822.99	18532
823.13	18509
823.27	18471
823.41	18391
823.55	18353
823.69	18426
823.83	18422
823.97	18289
824.11	18072
824.25	18072
824.389	18091
824.529	18159
824.669	18106
824.809	18136
824.949	18140
825.089	18228
825.228	18015
825.368	17863
825.508	17965
825.648	17950
825.787	18011
825.927	17992
826.067	17843
826.206	17912
826.346	17939
826.485	17996
826.625	17901
826.765	18030
826.904	17897
827.044	17760
827.183	17657
827.323	17611
827.462	17619
827.601	17520
827.741	17558
827.88	17570
828.02	17459
828.159	17558
828.298	17566
828.437	17592
828.577	17646
828.716	17741
828.855	17425
828.994	17345
829.134	17292
829.273	17402
829.412	17155
829.551	17280
829.69	17349
829.829	17421
829.968	17505
830.107	17284
830.246	17368
830.385	17311
830.524	17162
830.663	17200
830.802	17033
830.941	16915
831.08	16904
831.219	17102
831.357	17025
831.496	17025
831.635	16976
831.774	16790
831.913	16801
832.051	16786
832.19	16649
832.329	16736
832.467	16736
832.606	16565
832.744	16694
832.883	16634
833.022	16607
833.16	16660
833.299	16706
833.437	16641
833.576	16740
833.714	16736
833.852	16748
833.991	16782
834.129	16793
834.267	16736
834.406	16736
834.544	16812
834.682	16706
834.821	16615
834.959	16790
835.097	16755
835.235	16805
835.373	16786
835.511	16721
835.65	16527
835.788	16729
835.926	16478
836.064	16455
836.202	16390
836.34	16656
836.478	16717
836.615	16554
836.753	16596
836.891	16733
837.029	16710
837.167	16523
837.305	16580
837.443	16508
837.58	16489
837.718	16573
837.856	16516
837.993	16462
838.131	16459
838.269	16367
838.406	16363
838.544	16333
838.681	16169
838.819	16105
838.956	16017
839.094	16044
839.231	16169
839.369	16192
839.506	16337
839.643	16272
839.781	15987
839.918	15964
840.055	15972
840.193	15972
840.33	15960
840.467	15930
840.604	16048
840.742	16341
840.879	15953
841.016	15945
841.153	15945
841.29	16048
841.427	16040
841.564	15987
841.701	16074
841.838	15941
841.975	15842
842.112	15854
842.249	15808
842.385	15698
842.522	15857
842.659	15854
842.796	15766
842.933	15755
843.069	15728
843.206	15644
843.343	15823
843.479	15831
843.616	15835
843.752	15618
843.889	15603
844.025	15827
844.162	15538
844.298	15713
844.435	15500
844.571	15534
844.708	15652
844.844	15682
844.98	15648
845.117	15720
845.253	15526
845.389	15424
845.525	15496
845.661	15549
845.798	15374
845.934	15481
846.07	15393
846.206	15523
846.342	15515
846.478	15382
846.614	15176
846.75	15100
846.886	15131
847.022	15161
847.158	15135
847.294	15249
847.429	15165
847.565	15135
847.701	15466
847.837	14929
847.972	14826
848.108	15009
848.244	14971
848.379	14743
848.515	14724
848.65	14765
848.786	14743
848.921	14754
849.057	14929
849.192	14826
849.328	14754
849.463	14834
849.598	14678
849.734	14689
849.869	14651
850.004	14556
850.14	14670
850.275	14507
850.41	14347
850.545	14499
850.68	14583
850.815	14560
850.95	14446
851.085	14632
851.22	14659
851.355	14473
851.49	14503
851.625	14507
851.76	14503
851.895	14431
852.03	14461
852.165	14480
852.299	14503
852.434	14613
852.569	14552
852.703	14461
852.838	14575
852.973	14648
853.107	14667
853.242	14473
853.376	14351
853.511	14252
853.645	14358
853.78	14499
853.914	14343
854.048	14355
854.183	14347
854.317	14351
854.451	14499
854.585	14408
854.72	14415
854.854	14366
854.988	14290
855.122	14423
855.256	14320
855.39	14374
855.524	14442
855.658	14446
855.792	14374
855.926	14358
856.06	14514
856.194	14461
856.327	14374
856.461	14362
856.595	14347
856.729	14313
856.862	14454
856.996	14473
857.13	14473
857.263	14590
857.397	14560
857.53	14438
857.664	14419
857.797	14488
857.931	14465
858.064	14484
858.197	14552
858.331	14446
858.464	14294
858.597	14332
858.731	14400
858.864	14301
858.997	14343
859.13	14313
859.263	14320
859.396	14423
859.529	14396
859.662	14336
859.795	14339
859.928	14389
860.061	14518
860.194	14541
860.327	14412
860.46	14393
860.592	14438
860.725	14579
860.858	14492
860.99	14499
861.123	14305
861.256	14275
861.388	14358
861.521	15074
861.653	14259
861.786	14164
861.918	14176
862.05	14263
862.183	14313
862.315	14423
862.447	14412
862.58	14305
862.712	14233
862.844	14138
862.976	14229
863.108	14275
863.24	14454
863.372	14046
863.504	14145
863.636	14221
863.768	14210
863.9	14168
864.032	14153
864.164	14119
864.296	14187
864.428	14206
864.559	14210
864.691	14278
864.823	14210
864.954	14214
865.086	14161
865.217	14161
865.349	13997
865.48	14199
865.612	14187
865.743	14263
865.875	14187
866.006	14084
866.137	14100
866.269	14115
866.4	14187
866.531	14149
866.662	14065
866.793	14153
866.924	14157
867.055	14142
867.186	14119
867.317	14092
867.448	13940
867.579	14073
867.71	14046
867.841	14039
867.972	14176
868.103	14142
868.233	14183
868.364	14176
868.495	14263
868.625	14366
868.756	14431
868.886	14396
869.017	14332
869.147	14450
869.278	14484
869.408	14404
869.539	14442
869.669	14450
869.799	14465
869.929	14530
870.06	14507
870.19	14743
870.32	14655
870.45	14750
870.58	14872
870.71	14902
870.84	14956
870.97	14807
871.1	14864
871.23	15017
871.36	15013
871.489	14876
871.619	14967
871.749	14971
871.879	15055
872.008	15116
872.138	14971
872.267	14941
872.397	14891
872.526	14861
872.656	14788
872.785	14868
872.915	14967
873.044	15146
873.173	15009
873.303	15089
873.432	15154
873.561	15199
873.69	15100
873.819	15062
873.948	15066
874.077	15039
874.206	14982
874.335	15036
874.464	15184
874.593	15389
874.722	15165
874.851	15363
874.979	15302
875.108	15428
875.237	15222
875.365	15272
875.494	15283
875.623	15492
875.751	15298
875.88	15428
876.008	15530
876.136	15561
876.265	15797
876.393	15842
876.521	15907
876.65	15819
876.778	15774
876.906	15644
877.034	15701
877.162	15766
877.29	15713
877.418	15675
877.546	15808
877.674	15717
877.802	15808
877.93	15789
878.058	15675
878.185	15644
878.313	15827
878.441	15759
878.568	15660
878.696	15667
878.824	15797
878.951	15892
879.079	16002
879.206	16010
879.333	15941
879.461	15743
879.588	15949
879.715	15842
879.842	16097
879.97	15850
880.097	15584
880.224	15599
880.351	15633
880.478	15713
880.605	15644
880.732	15580
880.859	15960
880.986	15545
881.112	15644
881.239	15420
881.366	15363
881.493	15374
881.619	15294
881.746	15230
881.872	15252
881.999	15184
882.125	15180
882.252	15374
882.378	15344
882.505	15412
882.631	15226
882.757	15085
882.883	15188
883.01	15119
883.136	15047
883.262	15074
883.388	15017
883.514	15135
883.64	15237
883.766	15108
883.892	14906
884.018	14960
884.143	15135
884.269	15241
884.395	14944
884.52	14765
884.646	14918
884.772	14777
884.897	14705
885.023	14815
885.148	14853
885.274	15009
885.399	14925
885.524	14777
885.65	14762
885.775	14815
885.9	14834
886.025	14796
886.15	14883
886.275	14834
886.4	14663
886.525	14773
886.65	14743
886.775	14727
886.9	14883
887.025	14971
887.149	14807
887.274	14644
887.399	14617
887.523	14663
887.648	14579
887.773	14492
887.897	14701
888.021	14625
888.146	14629
888.27	14678
888.395	14659
888.519	14678
888.643	14655
888.767	14697
888.891	14655
889.015	14442
889.139	14571
889.263	14476
889.387	14541
889.511	14632
889.635	14594
889.759	14434
889.883	14408
890.006	14518
890.13	14629
890.254	14427
890.377	14396
890.501	14267
890.624	14278
890.748	14351
890.871	14275
890.995	14282
891.118	14092
891.241	14233
891.364	14142
891.488	14301
891.611	14123
891.734	14225
891.857	14214
891.98	14168
892.103	14267
892.226	14206
892.349	14202
892.471	14081
892.594	14191
892.717	14126
892.839	14218
892.962	14145
893.085	14244
893.207	14195
893.33	14084
893.452	14031
893.575	14164
893.697	14164
893.819	14423
893.941	14393
894.064	14324
894.186	14119
894.308	14180
894.43	14301
894.552	14374
894.674	14271
894.796	14172
894.918	14256
895.04	14259
895.161	14339
895.283	14320
895.405	14240
895.526	14214
895.648	14259
895.769	14320
895.891	14408
896.012	14393
896.134	14412
896.255	14415
896.376	14355
896.498	14374
896.619	14396
896.74	14347
896.861	14358
896.982	14701
897.103	14876
897.224	14644
897.345	14682
897.466	14514
897.587	14575
897.708	14769
897.828	14640
897.949	14617
898.07	14465
898.19	14632
898.311	14762
898.431	14629
898.552	14716
898.672	14781
898.792	14667
898.913	14674
899.033	14590
899.153	14556
899.273	14408
899.393	14488
899.513	14632
899.633	14575
899.753	14613
899.873	14492
899.993	14659
900.113	14552
900.232	14549
900.352	14503
900.472	14434
900.591	14473
900.711	14446
900.83	14286
900.95	14450
901.069	14644
901.189	14355
901.308	14134
901.427	14081
901.546	14138
901.665	14024
901.784	14031
901.904	14069
902.023	13879
902.141	13715
902.26	13643
902.379	13742
902.498	13597
902.617	13616
902.735	13658
902.854	13723
902.973	13601
903.091	13483
903.21	13373
903.328	13335
903.446	13320
903.565	13232
903.683	13274
903.801	13118
903.919	13266
904.038	13206
904.156	12985
904.274	13183
904.392	13050
904.51	13057
904.627	13122
904.745	13061
904.863	13129
904.981	12863
905.098	12745
905.216	12681
905.334	12726
905.451	12749
905.569	12711
905.686	12776
905.803	12745
905.921	12566
906.038	12642
906.155	12559
906.272	12475
906.389	12509
906.506	12311
906.623	12399
906.74	12327
906.857	12220
906.974	12194
907.091	12464
907.208	12426
907.324	12407
907.441	12266
907.557	12163
907.674	12060
907.79	12064
907.907	12034
908.023	12133
908.139	12091
908.256	11996
908.372	11988
908.488	11984
908.604	11851
908.72	11756
908.836	11840
908.952	11809
909.068	11855
909.184	11977
909.3	11866
909.415	11931
909.531	11923
909.647	11627
909.762	11649
909.878	11566
909.993	11668
910.108	11566
910.224	11615
910.339	11600
910.454	11539
910.57	11448
910.685	11398
910.8	11802
910.915	11672
911.03	11539
911.145	11368
911.259	11311
911.374	11345
911.489	11208
911.604	11181
911.718	11098
911.833	11109
911.947	11018
912.062	10908
912.176	11117
912.291	11117
912.405	11029
912.519	11227
912.633	11334
912.748	11098
912.862	11140
912.976	10961
913.09	10801
913.204	10896
913.318	11045
913.431	11006
913.545	11132
913.659	11037
913.772	10949
913.886	10911
914	10839
914.113	10976
914.226	10930
914.34	10900
914.453	10755
914.566	10881
914.68	10812
914.793	10725
914.906	10641
915.019	10577
915.132	10512
915.245	10611
915.358	10592
915.47	10653
915.583	10569
915.696	10554
915.809	10744
915.921	10774
916.034	10584
916.146	10584
916.259	10519
916.371	10611
916.483	10618
916.595	10538
916.708	10478
916.82	10577
916.932	10535
917.044	10512
917.156	10561
917.268	10352
917.38	10428
917.491	10382
917.603	10379
917.715	10542
917.826	10516
917.938	10348
918.049	10280
918.161	10337
918.272	10634
918.384	10569
918.495	10455
918.606	10348
918.717	10287
918.828	10303
918.939	10310
919.05	10169
919.161	10276
919.272	10124
919.383	10188
919.494	10318
919.604	10531
919.715	10341
919.826	10276
919.936	10268
920.047	10432
920.157	10379
920.267	10497
920.378	10371
920.488	10287
920.598	10565
920.708	10675
920.818	10523
920.928	10519
921.038	10641
921.148	10649
921.258	10360
921.368	10314
921.477	10219
921.587	10204
921.697	10048
921.806	10230
921.916	10032
922.025	9880
922.134	9911
922.244	9876
922.353	9953
922.462	9762
922.571	9713
922.68	9603
922.789	9622
922.898	9641
923.007	9538
923.116	9576
923.224	9561
923.333	9542
923.442	9439
923.55	9416
923.659	9538
923.767	9504
923.876	9481
923.984	9485
924.092	9306
924.201	9393
924.309	9443
924.417	9386
924.525	9389
924.633	9382
924.741	10276
924.849	9161
924.956	9359
925.064	9127
925.172	9154
925.279	9131
925.387	9283
925.494	9211
925.602	9405
925.709	9233
925.816	9154
925.924	9310
926.031	9317
926.138	9161
926.245	9230
926.352	9104
926.459	9253
926.566	9336
926.673	9218
926.779	9077
926.886	9070
926.993	8952
927.099	8925
927.206	8929
927.312	8899
927.419	8967
927.525	8986
927.631	8883
927.737	8880
927.843	8807
927.95	8735
928.056	8815
928.162	8826
928.267	8933
928.373	9454
928.479	8937
928.585	8659
928.69	8766
928.796	8785
928.901	8750
929.007	8564
929.112	8712
929.218	8682
929.323	8659
929.428	8617
929.533	8769
929.638	8621
929.743	8590
929.848	8720
929.953	8613
930.058	8575
930.163	8393
930.267	8503
930.372	8549
930.477	8385
930.581	8587
930.685	8503
930.79	8351
930.894	8393
930.998	8370
931.103	8507
931.207	8183
931.311	8161
931.415	8092
931.519	7883
931.623	7868
