Data from test_V78500241_2407.txt Node
Date: Fri Mar 25 14:50:28 CST 2022
User: usil
Spectrometer: V785-0024
Trigger mode: 0
Integration Time (sec): 4.000000E-1
Scans to average: 1
Nonlinearity correction enabled: false
Boxcar width: 0
Storing dark spectrum: false
XAxis mode: Wavelengths
Number of Pixels in Spectrum: 1024
>>>>>Begin Spectral Data<<<<<
801.071	22181
801.214	22021
801.356	21903
801.499	21660
801.641	21614
801.783	21530
801.926	21519
802.068	21545
802.211	21340
802.353	21294
802.496	21039
802.638	21009
802.78	20861
802.923	20868
803.065	20883
803.208	20823
803.35	20823
803.492	20921
803.635	20906
803.777	20781
803.919	20933
804.061	21214
804.204	20883
804.346	20697
804.488	20644
804.63	20868
804.773	20629
804.915	20788
805.057	20815
805.199	20670
805.341	20872
805.483	20807
805.626	20876
805.768	20716
805.91	20731
806.052	20777
806.194	20743
806.336	21036
806.478	20712
806.62	20750
806.762	20765
806.904	20853
807.046	21142
807.188	21108
807.33	21005
807.472	21127
807.614	21085
807.756	20910
807.898	20921
808.04	20815
808.182	20762
808.324	20937
808.465	20906
808.607	20990
808.749	21150
808.891	21104
809.033	21378
809.174	21214
809.316	21024
809.458	21180
809.6	21127
809.741	21180
809.883	21154
810.025	21291
810.166	21363
810.308	21321
810.45	21165
810.591	21055
810.733	20967
810.875	20952
811.016	20868
811.158	20731
811.299	20921
811.441	21062
811.582	20960
811.724	20914
811.865	20845
812.007	20933
812.148	20796
812.29	20918
812.431	21085
812.573	21275
812.714	21214
812.855	21469
812.997	21519
813.138	21701
813.279	21538
813.421	21450
813.562	21359
813.703	21127
813.845	21108
813.986	20777
814.127	20511
814.268	20503
814.41	20526
814.551	20324
814.692	20415
814.833	20469
814.974	20389
815.115	20556
815.256	20412
815.397	20347
815.539	20275
815.68	20206
815.821	20103
815.962	20237
816.103	20172
816.244	20092
816.385	19936
816.526	19864
816.666	19845
816.807	19578
816.948	19677
817.089	19776
817.23	19586
817.371	19548
817.512	19487
817.653	19582
817.793	19552
817.934	19506
818.075	19491
818.216	19487
818.356	19613
818.497	19335
818.638	19266
818.778	19255
818.919	19187
819.06	19274
819.2	19407
819.341	19544
819.481	19419
819.622	19578
819.762	19833
819.903	19715
820.043	19590
820.184	19468
820.324	19571
820.465	19609
820.605	19586
820.746	19472
820.886	19381
821.026	19651
821.167	19529
821.307	19635
821.447	19506
821.588	19384
821.728	19278
821.868	19213
822.008	18909
822.149	18935
822.289	19019
822.429	18677
822.569	18612
822.709	18642
822.849	18555
822.99	18479
823.13	18506
823.27	18422
823.41	18273
823.55	18171
823.69	18254
823.83	18220
823.97	18140
824.11	18091
824.25	18072
824.389	18003
824.529	18125
824.669	17992
824.809	18133
824.949	18068
825.089	18087
825.228	17946
825.368	17885
825.508	17805
825.648	17832
825.787	17775
825.927	17855
826.067	17760
826.206	17805
826.346	17809
826.485	17760
826.625	17771
826.765	17984
826.904	17821
827.044	17630
827.183	17718
827.323	17398
827.462	17665
827.601	17410
827.741	17455
827.88	17478
828.02	17398
828.159	17410
828.298	17497
828.437	17646
828.577	17379
828.716	17592
828.855	17448
828.994	17197
829.134	17246
829.273	17239
829.412	17151
829.551	17102
829.69	17185
829.829	17284
829.968	17349
830.107	17345
830.246	17208
830.385	17181
830.524	17140
830.663	17052
830.802	16946
830.941	16782
831.08	16782
831.219	16949
831.357	16831
831.496	17037
831.635	16961
831.774	16759
831.913	16679
832.051	16755
832.19	16599
832.329	16675
832.467	16451
832.606	16607
832.744	16519
832.883	16550
833.022	16580
833.16	16558
833.299	16573
833.437	16531
833.576	16702
833.714	16611
833.852	16615
833.991	16535
834.129	16615
834.267	16626
834.406	16565
834.544	16618
834.682	16531
834.821	16584
834.959	16790
835.097	16542
835.235	16615
835.373	16653
835.511	16630
835.65	16421
835.788	16421
835.926	16329
836.064	16287
836.202	16280
836.34	16478
836.478	16538
836.615	16440
836.753	16512
836.891	16542
837.029	16523
837.167	16394
837.305	16356
837.443	16424
837.58	16261
837.718	16421
837.856	16276
837.993	16276
838.131	16344
838.269	16299
838.406	16322
838.544	16215
838.681	16051
838.819	15972
838.956	15850
839.094	15998
839.231	15869
839.369	16040
839.506	16329
839.643	16162
839.781	15892
839.918	15705
840.055	15899
840.193	15892
840.33	15903
840.467	15819
840.604	15899
840.742	16200
840.879	15884
841.016	15789
841.153	15793
841.29	16013
841.427	15934
841.564	15911
841.701	15854
841.838	15743
841.975	15755
842.112	15903
842.249	15717
842.385	15648
842.522	15964
842.659	15739
842.796	15622
842.933	15663
843.069	15648
843.206	15606
843.343	15713
843.479	15686
843.616	15660
843.752	15545
843.889	15466
844.025	15568
844.162	15454
844.298	15568
844.435	15477
844.571	15443
844.708	15481
844.844	15663
844.98	15629
845.117	15629
845.253	15450
845.389	15477
845.525	15443
845.661	15340
845.798	15268
845.934	15386
846.07	15218
846.206	15272
846.342	15466
846.478	15165
846.614	15062
846.75	15024
846.886	14998
847.022	15203
847.158	14990
847.294	15089
847.429	15047
847.565	14956
847.701	15226
847.837	14708
847.972	14807
848.108	14800
848.244	14815
848.379	14621
848.515	14629
848.65	14598
848.786	14693
848.921	14632
849.057	14773
849.192	14746
849.328	14697
849.463	14575
849.598	14480
849.734	14514
849.869	14461
850.004	14431
850.14	14571
850.275	14415
850.41	14385
850.545	14377
850.68	14381
850.815	14381
850.95	14423
851.085	14560
851.22	14393
851.355	14431
851.49	14385
851.625	14423
851.76	14332
851.895	14225
852.03	14248
852.165	14438
852.299	14526
852.434	14415
852.569	14484
852.703	14442
852.838	14564
852.973	14484
853.107	14484
853.242	14366
853.376	14221
853.511	14168
853.645	14134
853.78	14332
853.914	14298
854.048	14176
854.183	14183
854.317	14183
854.451	14419
854.585	14286
854.72	14252
854.854	14328
854.988	14191
855.122	14191
855.256	14069
855.39	14134
855.524	14374
855.658	14278
855.792	14313
855.926	14427
856.06	14294
856.194	14374
856.327	14199
856.461	14214
856.595	14259
856.729	14191
856.862	14324
856.996	14263
857.13	14336
857.263	14400
857.397	14343
857.53	14305
857.664	14294
857.797	14347
857.931	14324
858.064	14271
858.197	14434
858.331	14305
858.464	14233
858.597	14157
858.731	14237
858.864	14248
858.997	14240
859.13	14286
859.263	14229
859.396	14317
859.529	14286
859.662	14358
859.795	14172
859.928	14267
860.061	14366
860.194	14374
860.327	14347
860.46	14290
860.592	14404
860.725	14469
860.858	14396
860.99	14244
861.123	14218
861.256	14263
861.388	14290
861.521	14944
861.653	14088
861.786	14218
861.918	14005
862.05	14111
862.183	14324
862.315	14218
862.447	14358
862.58	14187
862.712	13963
862.844	13997
862.976	14115
863.108	14111
863.24	14385
863.372	14050
863.504	14073
863.636	14088
863.768	14081
863.9	14126
864.032	13989
864.164	14065
864.296	14016
864.428	14210
864.559	14161
864.691	14084
864.823	14088
864.954	14153
865.086	14069
865.217	14043
865.349	13955
865.48	14031
865.612	13959
865.743	14142
865.875	14050
866.006	14054
866.137	14039
866.269	13978
866.4	14084
866.531	14008
866.662	13951
866.793	13989
866.924	14065
867.055	14142
867.186	14096
867.317	13921
867.448	13913
867.579	14005
867.71	13947
867.841	13955
867.972	14084
868.103	14043
868.233	14058
868.364	13997
868.495	14123
868.625	14290
868.756	14317
868.886	14180
869.017	14278
869.147	14355
869.278	14431
869.408	14271
869.539	14263
869.669	14355
869.799	14328
869.929	14423
870.06	14347
870.19	14625
870.32	14686
870.45	14602
870.58	14636
870.71	14739
870.84	14708
870.97	14682
871.1	14564
871.23	14830
871.36	14891
871.489	14781
871.619	14811
871.749	14895
871.879	14902
872.008	14933
872.138	14925
872.267	14872
872.397	14777
872.526	14743
872.656	14598
872.785	14689
872.915	14952
873.044	14956
873.173	14834
873.303	14883
873.432	15020
873.561	14967
873.69	14853
873.819	14899
873.948	14998
874.077	14952
874.206	14990
874.335	14910
874.464	15085
874.593	15272
874.722	15157
874.851	15279
874.979	15214
875.108	15275
875.237	15184
875.365	15237
875.494	15150
875.623	15336
875.751	15222
875.88	15192
876.008	15443
876.136	15424
876.265	15610
876.393	15797
876.521	15747
876.65	15736
876.778	15686
876.906	15644
877.034	15584
877.162	15614
877.29	15637
877.418	15667
877.546	15599
877.674	15667
877.802	15641
877.93	15789
878.058	15671
878.185	15538
878.313	15576
878.441	15622
878.568	15580
878.696	15587
878.824	15728
878.951	15774
879.079	15880
879.206	16013
879.333	15842
879.461	15656
879.588	15751
879.715	15732
879.842	15960
879.97	15682
880.097	15545
880.224	15542
880.351	15507
880.478	15591
880.605	15511
880.732	15462
880.859	15644
880.986	15614
881.112	15553
881.239	15386
881.366	15252
881.493	15146
881.619	15020
881.746	15180
881.872	15211
881.999	15119
882.125	15127
882.252	15287
882.378	15226
882.505	15363
882.631	15135
882.757	15001
882.883	15009
883.01	15077
883.136	14994
883.262	14861
883.388	14754
883.514	14876
883.64	15089
883.766	14872
883.892	14788
884.018	14781
884.143	14979
884.269	15055
884.395	14819
884.52	14731
884.646	14727
884.772	14674
884.897	14537
885.023	14750
885.148	14861
885.274	14811
885.399	14781
885.524	14693
885.65	14667
885.775	14777
885.9	14655
886.025	14796
886.15	14746
886.275	14640
886.4	14549
886.525	14552
886.65	14499
886.775	14590
886.9	14819
887.025	14899
887.149	14655
887.274	14568
887.399	14469
887.523	14499
887.648	14442
887.773	14438
887.897	14552
888.021	14594
888.146	14400
888.27	14674
888.395	14701
888.519	14587
888.643	14564
888.767	14568
888.891	14484
889.015	14431
889.139	14393
889.263	14309
889.387	14469
889.511	14659
889.635	14518
889.759	14355
889.883	14286
890.006	14396
890.13	14488
890.254	14301
890.377	14362
890.501	14149
890.624	14130
890.748	14286
890.871	14077
890.995	14005
891.118	13940
891.241	14039
891.364	14039
891.488	14210
891.611	14081
891.734	14199
891.857	14142
891.98	14046
892.103	14149
892.226	14142
892.349	14027
892.471	13894
892.594	14092
892.717	14130
892.839	14005
892.962	13982
893.085	14134
893.207	14138
893.33	14016
893.452	13947
893.575	14096
893.697	14077
893.819	14252
893.941	14324
894.064	14244
894.186	13989
894.308	14107
894.43	14202
894.552	14290
894.674	14199
894.796	14024
894.918	14092
895.04	14130
895.161	14256
895.283	14252
895.405	14084
895.526	14142
895.648	14267
895.769	14218
895.891	14237
896.012	14275
896.134	14336
896.255	14332
896.376	14320
896.498	14202
896.619	14199
896.74	14290
896.861	14320
896.982	14488
897.103	14762
897.224	14526
897.345	14484
897.466	14423
897.587	14473
897.708	14689
897.828	14613
897.949	14495
898.07	14400
898.19	14492
898.311	14594
898.431	14473
898.552	14629
898.672	14689
898.792	14629
898.913	14568
899.033	14533
899.153	14480
899.273	14511
899.393	14469
899.513	14552
899.633	14492
899.753	14412
899.873	14446
899.993	14492
900.113	14396
900.232	14507
900.352	14450
900.472	14248
900.591	14259
900.711	14374
900.83	14214
900.95	14385
901.069	14431
901.189	14248
901.308	14058
901.427	13989
901.546	14092
901.665	14043
901.784	14024
901.904	13932
902.023	13727
902.141	13548
902.26	13537
902.379	13696
902.498	13613
902.617	13537
902.735	13609
902.854	13499
902.973	13472
903.091	13209
903.21	13324
903.328	13327
903.446	13270
903.565	13187
903.683	13133
903.801	13069
903.919	13084
904.038	13091
904.156	13004
904.274	13091
904.392	12909
904.51	12962
904.627	12920
904.745	12989
904.863	12886
904.981	12684
905.098	12574
905.216	12684
905.334	12631
905.451	12738
905.569	12639
905.686	12684
905.803	12677
905.921	12494
906.038	12620
906.155	12452
906.272	12330
906.389	12388
906.506	12365
906.623	12148
906.74	12205
906.857	12182
906.974	12178
907.091	12243
907.208	12414
907.324	12254
907.441	12205
907.557	12083
907.674	11927
907.79	11889
907.907	12007
908.023	11961
908.139	11969
908.256	11920
908.372	11885
908.488	11939
908.604	11786
908.72	11741
908.836	11714
908.952	11786
909.068	11798
909.184	11840
909.3	11737
909.415	11824
909.531	11783
909.647	11509
909.762	11524
909.878	11501
909.993	11554
910.108	11490
910.224	11501
910.339	11524
910.454	11455
910.57	11398
910.685	11280
910.8	11672
910.915	11554
911.03	11417
911.145	11227
911.259	11235
911.374	11235
911.489	11098
911.604	11143
911.718	11064
911.833	11010
911.947	10900
912.062	10839
912.176	10896
912.291	10877
912.405	10934
912.519	11109
912.633	11223
912.748	11029
912.862	11029
912.976	10820
913.09	10767
913.204	10759
913.318	10889
913.431	10949
913.545	10858
913.659	10930
913.772	10896
913.886	10736
914	10649
914.113	10843
914.226	10748
914.34	10820
914.453	10611
914.566	10790
914.68	10672
914.793	10668
914.906	10485
915.019	10447
915.132	10432
915.245	10504
915.358	10459
915.47	10436
915.583	10523
915.696	10535
915.809	10622
915.921	10702
916.034	10417
916.146	10462
916.259	10462
916.371	10459
916.483	10542
916.595	10436
916.708	10390
916.82	10424
916.932	10375
917.044	10500
917.156	10402
917.268	10280
917.38	10348
917.491	10325
917.603	10352
917.715	10386
917.826	10398
917.938	10265
918.049	10196
918.161	10287
918.272	10417
918.384	10474
918.495	10356
918.606	10253
918.717	10078
918.828	10200
918.939	10261
919.05	10090
919.161	10166
919.272	9979
919.383	10032
919.494	10318
919.604	10405
919.715	10147
919.826	10128
919.936	10169
920.047	10246
920.157	10242
920.267	10421
920.378	10234
920.488	10188
920.598	10432
920.708	10512
920.818	10394
920.928	10363
921.038	10596
921.148	10527
921.258	10265
921.368	10078
921.477	10025
921.587	10002
921.697	9960
921.806	10181
921.916	9960
922.025	9873
922.134	9823
922.244	9766
922.353	9800
922.462	9599
922.571	9572
922.68	9549
922.789	9504
922.898	9507
923.007	9439
923.116	9450
923.224	9481
923.333	9405
923.442	9351
923.55	9291
923.659	9363
923.767	9454
923.876	9298
923.984	9386
924.092	9355
924.201	9386
924.309	9310
924.417	9340
924.525	9260
924.633	9279
924.741	10063
924.849	9135
924.956	9203
925.064	9138
925.172	9013
925.279	9062
925.387	9112
925.494	9074
925.602	9253
925.709	9211
925.816	9070
925.924	9119
926.031	9222
926.138	9157
926.245	9188
926.352	9043
926.459	9173
926.566	9226
926.673	9036
926.779	9017
926.886	9024
926.993	8895
927.099	8857
927.206	8811
927.312	8792
927.419	8849
927.525	8823
927.631	8902
927.737	8785
927.843	8716
927.95	8545
928.056	8739
928.162	8769
928.267	8819
928.373	9367
928.479	8853
928.585	8526
928.69	8697
928.796	8758
928.901	8632
929.007	8545
929.112	8648
929.218	8655
929.323	8602
929.428	8522
929.533	8682
929.638	8434
929.743	8438
929.848	8625
929.953	8480
930.058	8347
930.163	8385
930.267	8294
930.372	8454
930.477	8317
930.581	8537
930.685	8385
930.79	8263
930.894	8309
930.998	8218
931.103	8374
931.207	8016
931.311	8031
931.415	7967
931.519	7780
931.623	7803
