Data from test_V78500241_2737.txt Node
Date: Fri Mar 25 14:52:46 CST 2022
User: usil
Spectrometer: V785-0024
Trigger mode: 0
Integration Time (sec): 4.000000E-1
Scans to average: 1
Nonlinearity correction enabled: false
Boxcar width: 0
Storing dark spectrum: false
XAxis mode: Wavelengths
Number of Pixels in Spectrum: 1024
>>>>>Begin Spectral Data<<<<<
801.071	22017
801.214	21922
801.356	21641
801.499	21542
801.641	21530
801.783	21481
801.926	21420
802.068	21268
802.211	21310
802.353	21146
802.496	21028
802.638	20956
802.78	20941
802.923	20823
803.065	20682
803.208	20682
803.35	20743
803.492	20834
803.635	20891
803.777	20708
803.919	20758
804.061	21009
804.204	20861
804.346	20667
804.488	20663
804.63	20750
804.773	20423
804.915	20552
805.057	20796
805.199	20541
805.341	20670
805.483	20667
805.626	20606
805.768	20659
805.91	20598
806.052	20765
806.194	20484
806.336	20830
806.478	20651
806.62	20503
806.762	20644
806.904	20937
807.046	21001
807.188	20967
807.33	20990
807.472	20956
807.614	20880
807.756	20777
807.898	20606
808.04	20712
808.182	20686
808.324	20686
808.465	20815
808.607	20933
808.749	21020
808.891	21100
809.033	21096
809.174	20960
809.316	20929
809.458	20986
809.6	20937
809.741	21047
809.883	20994
810.025	21169
810.166	21146
810.308	21157
810.45	21081
810.591	20994
810.733	20921
810.875	20750
811.016	20735
811.158	20735
811.299	20758
811.441	20914
811.582	20849
811.724	20857
811.865	20670
812.007	20811
812.148	20712
812.29	20682
812.431	20899
812.573	21081
812.714	21294
812.855	21252
812.997	21355
813.138	21469
813.279	21336
813.421	21226
813.562	21218
813.703	20971
813.845	20960
813.986	20636
814.127	20393
814.268	20412
814.41	20450
814.551	20233
814.692	20381
814.833	20259
814.974	20385
815.115	20271
815.256	20206
815.397	20138
815.539	20210
815.68	19955
815.821	19970
815.962	19940
816.103	20062
816.244	19887
816.385	19761
816.526	19693
816.666	19537
816.807	19464
816.948	19476
817.089	19514
817.23	19510
817.371	19502
817.512	19537
817.653	19392
817.793	19369
817.934	19502
818.075	19460
818.216	19419
818.356	19343
818.497	19187
818.638	19148
818.778	19179
818.919	19164
819.06	19179
819.2	19217
819.341	19232
819.481	19266
819.622	19373
819.762	19597
819.903	19639
820.043	19480
820.184	19521
820.324	19403
820.465	19472
820.605	19365
820.746	19419
820.886	19407
821.026	19384
821.167	19441
821.307	19476
821.447	19327
821.588	19244
821.728	19053
821.868	19042
822.008	18871
822.149	18779
822.289	18928
822.429	18646
822.569	18525
822.709	18631
822.849	18353
822.99	18266
823.13	18178
823.27	18319
823.41	18098
823.55	18087
823.69	18136
823.83	18239
823.97	18060
824.11	17912
824.25	17988
824.389	17942
824.529	17950
824.669	17855
824.809	17942
824.949	17939
825.089	17977
825.228	17931
825.368	17707
825.508	17756
825.648	17596
825.787	17668
825.927	17680
826.067	17570
826.206	17668
826.346	17828
826.485	17722
826.625	17619
826.765	17767
826.904	17729
827.044	17539
827.183	17577
827.323	17292
827.462	17467
827.601	17414
827.741	17391
827.88	17368
828.02	17212
828.159	17349
828.298	17425
828.437	17425
828.577	17425
828.716	17539
828.855	17349
828.994	17079
829.134	17216
829.273	17170
829.412	17174
829.551	17048
829.69	17117
829.829	17140
829.968	17117
830.107	17140
830.246	17216
830.385	17121
830.524	16923
830.663	16965
830.802	16797
830.941	16812
831.08	16706
831.219	16828
831.357	16797
831.496	17025
831.635	16797
831.774	16778
831.913	16694
832.051	16554
832.19	16519
832.329	16645
832.467	16417
832.606	16287
832.744	16363
832.883	16428
833.022	16394
833.16	16500
833.299	16455
833.437	16516
833.576	16554
833.714	16470
833.852	16516
833.991	16493
834.129	16554
834.267	16565
834.406	16558
834.544	16607
834.682	16481
834.821	16508
834.959	16793
835.097	16508
835.235	16649
835.373	16512
835.511	16550
835.65	16409
835.788	16447
835.926	16402
836.064	16120
836.202	16291
836.34	16519
836.478	16531
836.615	16398
836.753	16337
836.891	16558
837.029	16470
837.167	16481
837.305	16379
837.443	16314
837.58	16284
837.718	16443
837.856	16352
837.993	16139
838.131	16291
838.269	16284
838.406	16185
838.544	16188
838.681	15987
838.819	15926
838.956	15850
839.094	15861
839.231	15865
839.369	16063
839.506	16329
839.643	16067
839.781	15804
839.918	15876
840.055	15941
840.193	15770
840.33	15930
840.467	15937
840.604	15850
840.742	16036
840.879	15728
841.016	15747
841.153	15804
841.29	15926
841.427	15972
841.564	15854
841.701	15842
841.838	15724
841.975	15747
842.112	15850
842.249	15709
842.385	15618
842.522	15808
842.659	15663
842.796	15545
842.933	15698
843.069	15603
843.206	15663
843.343	15679
843.479	15644
843.616	15625
843.752	15477
843.889	15363
844.025	15622
844.162	15408
844.298	15530
844.435	15386
844.571	15382
844.708	15420
844.844	15542
844.98	15519
845.117	15450
845.253	15374
845.389	15241
845.525	15359
845.661	15279
845.798	15249
845.934	15287
846.07	15192
846.206	15275
846.342	15348
846.478	15199
846.614	15005
846.75	14986
846.886	14990
847.022	15043
847.158	15089
847.294	15097
847.429	15028
847.565	15020
847.701	15142
847.837	14727
847.972	14621
848.108	14895
848.244	14811
848.379	14640
848.515	14518
848.65	14545
848.786	14533
848.921	14552
849.057	14590
849.192	14746
849.328	14640
849.463	14503
849.598	14526
849.734	14518
849.869	14549
850.004	14328
850.14	14366
850.275	14423
850.41	14305
850.545	14370
850.68	14343
850.815	14415
850.95	14362
851.085	14552
851.22	14526
851.355	14393
851.49	14347
851.625	14294
851.76	14282
851.895	14275
852.03	14187
852.165	14313
852.299	14434
852.434	14396
852.569	14355
852.703	14434
852.838	14412
852.973	14514
853.107	14476
853.242	14377
853.376	14168
853.511	14126
853.645	14191
853.78	14336
853.914	14210
854.048	14229
854.183	14218
854.317	14301
854.451	14442
854.585	14199
854.72	14202
854.854	14271
854.988	14142
855.122	14244
855.256	14054
855.39	14214
855.524	14328
855.658	14286
855.792	14237
855.926	14301
856.06	14275
856.194	14298
856.327	14229
856.461	14180
856.595	14172
856.729	14157
856.862	14362
856.996	14278
857.13	14381
857.263	14275
857.397	14328
857.53	14278
857.664	14301
857.797	14286
857.931	14324
858.064	14233
858.197	14408
858.331	14252
858.464	14168
858.597	14096
858.731	14263
858.864	14183
858.997	14221
859.13	14240
859.263	14145
859.396	14214
859.529	14191
859.662	14176
859.795	14263
859.928	14180
860.061	14282
860.194	14389
860.327	14271
860.46	14195
860.592	14271
860.725	14294
860.858	14355
860.99	14176
861.123	14161
861.256	14092
861.388	14256
861.521	14838
861.653	14096
861.786	14115
861.918	14134
862.05	14138
862.183	14168
862.315	14157
862.447	14202
862.58	14229
862.712	14054
862.844	13997
862.976	14088
863.108	13989
863.24	14412
863.372	13936
863.504	14039
863.636	14001
863.768	14054
863.9	14031
864.032	13913
864.164	13963
864.296	14092
864.428	14123
864.559	14100
864.691	14145
864.823	14062
864.954	13906
865.086	14046
865.217	14027
865.349	13959
865.48	13955
865.612	14058
865.743	14126
865.875	14031
866.006	14046
866.137	14123
866.269	13970
866.4	13890
866.531	13932
866.662	13871
866.793	13989
866.924	13894
867.055	14050
867.186	13963
867.317	13955
867.448	13868
867.579	13959
867.71	13936
867.841	13849
867.972	13963
868.103	14043
868.233	14092
868.364	14050
868.495	14119
868.625	14138
868.756	14320
868.886	14199
869.017	14233
869.147	14278
869.278	14263
869.408	14202
869.539	14233
869.669	14374
869.799	14320
869.929	14377
870.06	14290
870.19	14511
870.32	14587
870.45	14556
870.58	14701
870.71	14807
870.84	14701
870.97	14590
871.1	14610
871.23	14769
871.36	14826
871.489	14769
871.619	14830
871.749	14849
871.879	14849
872.008	14914
872.138	14849
872.267	14868
872.397	14697
872.526	14579
872.656	14686
872.785	14765
872.915	14853
873.044	14998
873.173	14765
873.303	14887
873.432	14918
873.561	14910
873.69	14952
873.819	14914
873.948	14944
874.077	14880
874.206	14845
874.335	14849
874.464	15039
874.593	15207
874.722	15161
874.851	15184
874.979	15176
875.108	15332
875.237	15119
875.365	15154
875.494	15176
875.623	15218
875.751	15142
875.88	15218
876.008	15340
876.136	15473
876.265	15660
876.393	15717
876.521	15709
876.65	15694
876.778	15667
876.906	15580
877.034	15622
877.162	15553
877.29	15572
877.418	15587
877.546	15660
877.674	15663
877.802	15595
877.93	15576
878.058	15564
878.185	15443
878.313	15606
878.441	15675
878.568	15393
878.696	15545
878.824	15606
878.951	15679
879.079	15766
879.206	15937
879.333	15838
879.461	15698
879.588	15713
879.715	15873
879.842	15937
879.97	15652
880.097	15386
880.224	15447
880.351	15492
880.478	15496
880.605	15485
880.732	15481
880.859	15694
880.986	15530
881.112	15496
881.239	15351
881.366	15298
881.493	15157
881.619	15161
881.746	15085
881.872	15142
881.999	15211
882.125	15119
882.252	15214
882.378	15123
882.505	15329
882.631	15154
882.757	14998
882.883	14937
883.01	14979
883.136	14868
883.262	14849
883.388	14754
883.514	14975
883.64	14952
883.766	14952
883.892	14731
884.018	14765
884.143	14906
884.269	14960
884.395	14682
884.52	14659
884.646	14708
884.772	14575
884.897	14571
885.023	14606
885.148	14739
885.274	14811
885.399	14735
885.524	14735
885.65	14617
885.775	14636
885.9	14682
886.025	14807
886.15	14705
886.275	14693
886.4	14674
886.525	14537
886.65	14629
886.775	14636
886.9	14807
887.025	14929
887.149	14693
887.274	14514
887.399	14389
887.523	14461
887.648	14526
887.773	14347
887.897	14590
888.021	14568
888.146	14530
888.27	14590
888.395	14587
888.519	14621
888.643	14503
888.767	14526
888.891	14461
889.015	14290
889.139	14324
889.263	14343
889.387	14495
889.511	14526
889.635	14412
889.759	14275
889.883	14328
890.006	14320
890.13	14503
890.254	14161
890.377	14298
890.501	14339
890.624	14088
890.748	14252
890.871	14153
890.995	14050
891.118	14054
891.241	14043
891.364	14115
891.488	14187
891.611	14096
891.734	14005
891.857	14176
891.98	14062
892.103	14119
892.226	14084
892.349	13974
892.471	13890
892.594	13947
892.717	14115
892.839	14012
892.962	14005
893.085	14142
893.207	14077
893.33	13974
893.452	13963
893.575	14103
893.697	13963
893.819	14157
893.941	14332
894.064	14111
894.186	14016
894.308	14084
894.43	14218
894.552	14294
894.674	14134
894.796	14046
894.918	14046
895.04	13974
895.161	14191
895.283	14210
895.405	14210
895.526	14130
895.648	14168
895.769	14206
895.891	14278
896.012	14286
896.134	14195
896.255	14221
896.376	14180
896.498	14225
896.619	14199
896.74	14214
896.861	14263
896.982	14511
897.103	14750
897.224	14412
897.345	14419
897.466	14419
897.587	14408
897.708	14621
897.828	14484
897.949	14503
898.07	14305
898.19	14442
898.311	14575
898.431	14533
898.552	14613
898.672	14549
898.792	14705
898.913	14571
899.033	14511
899.153	14473
899.273	14298
899.393	14370
899.513	14393
899.633	14476
899.753	14393
899.873	14347
899.993	14571
900.113	14412
900.232	14533
900.352	14389
900.472	14362
900.591	14332
900.711	14324
900.83	14233
900.95	14461
901.069	14328
901.189	14225
901.308	13978
901.427	13925
901.546	14001
901.665	13917
901.784	14016
901.904	13852
902.023	13723
902.141	13563
902.26	13578
902.379	13628
902.498	13548
902.617	13495
902.735	13495
902.854	13525
902.973	13480
903.091	13282
903.21	13179
903.328	13251
903.446	13244
903.565	13141
903.683	13080
903.801	13008
903.919	13091
904.038	13034
904.156	12951
904.274	12962
904.392	12958
904.51	12928
904.627	12954
904.745	12977
904.863	12924
904.981	12707
905.098	12570
905.216	12597
905.334	12696
905.451	12665
905.569	12582
905.686	12681
905.803	12559
905.921	12445
906.038	12525
906.155	12441
906.272	12334
906.389	12346
906.506	12292
906.623	12194
906.74	12224
906.857	12159
906.974	12178
907.091	12304
907.208	12410
907.324	12167
907.441	12114
907.557	11992
907.674	11954
907.79	11920
907.907	11885
908.023	12057
908.139	12049
908.256	11836
908.372	11916
908.488	11840
908.604	11733
908.72	11729
908.836	11722
908.952	11752
909.068	11642
909.184	11821
909.3	11638
909.415	11752
909.531	11729
909.647	11493
909.762	11600
909.878	11452
909.993	11493
910.108	11600
910.224	11467
910.339	11421
910.454	11421
910.57	11398
910.685	11265
910.8	11509
910.915	11467
911.03	11284
911.145	11151
911.259	11193
911.374	11265
911.489	11109
911.604	11048
911.718	11029
911.833	10972
911.947	10889
912.062	10744
912.176	10957
912.291	11010
912.405	10987
912.519	11113
912.633	11140
912.748	11003
912.862	10934
912.976	10782
913.09	10736
913.204	10721
913.318	10866
913.431	10946
913.545	10862
913.659	10915
913.772	10782
913.886	10740
914	10687
914.113	10759
914.226	10763
914.34	10714
914.453	10615
914.566	10816
914.68	10649
914.793	10603
914.906	10474
915.019	10379
915.132	10379
915.245	10413
915.358	10436
915.47	10459
915.583	10432
915.696	10550
915.809	10645
915.921	10580
916.034	10470
916.146	10512
916.259	10348
916.371	10531
916.483	10519
916.595	10337
916.708	10379
916.82	10417
916.932	10367
917.044	10367
917.156	10325
917.268	10246
917.38	10306
917.491	10291
917.603	10303
917.715	10291
917.826	10405
917.938	10261
918.049	10158
918.161	10268
918.272	10291
918.384	10424
918.495	10318
918.606	10135
918.717	10154
918.828	10116
918.939	10280
919.05	9979
919.161	10185
919.272	9991
919.383	10036
919.494	10268
919.604	10386
919.715	10192
919.826	10044
919.936	10116
920.047	10265
920.157	10112
920.267	10390
920.378	10287
920.488	10086
920.598	10325
920.708	10474
920.818	10398
920.928	10344
921.038	10485
921.148	10527
921.258	10227
921.368	10128
921.477	10086
921.587	10006
921.697	9922
921.806	10086
921.916	9926
922.025	9717
922.134	9831
922.244	9671
922.353	9800
922.462	9644
922.571	9553
922.68	9473
922.789	9447
922.898	9443
923.007	9283
923.116	9428
923.224	9401
923.333	9458
923.442	9256
923.55	9275
923.659	9325
923.767	9306
923.876	9226
923.984	9272
924.092	9142
924.201	9313
924.309	9298
924.417	9340
924.525	9184
924.633	9211
924.741	10013
924.849	9097
924.956	9256
925.064	9127
925.172	8982
925.279	9093
925.387	9119
925.494	9123
925.602	9207
925.709	9218
925.816	8990
925.924	9062
926.031	9188
926.138	9093
926.245	9165
926.352	8998
926.459	9180
926.566	9226
926.673	9097
926.779	8986
926.886	8929
926.993	8838
927.099	8769
927.206	8773
927.312	8861
927.419	8842
927.525	8845
927.631	8895
927.737	8716
927.843	8720
927.95	8613
928.056	8727
928.162	8750
928.267	8739
928.373	9363
928.479	8788
928.585	8629
928.69	8674
928.796	8769
928.901	8655
929.007	8575
929.112	8693
929.218	8625
929.323	8594
929.428	8488
929.533	8689
929.638	8492
929.743	8568
929.848	8575
929.953	8507
930.058	8446
930.163	8374
930.267	8396
930.372	8469
930.477	8396
930.581	8480
930.685	8362
930.79	8225
930.894	8233
930.998	8298
931.103	8404
931.207	8107
931.311	8046
931.415	7982
931.519	7761
931.623	7814
