Data from test_V78500241_3544.txt Node
Date: Fri Mar 25 14:58:23 CST 2022
User: usil
Spectrometer: V785-0024
Trigger mode: 0
Integration Time (sec): 4.000000E-1
Scans to average: 1
Nonlinearity correction enabled: false
Boxcar width: 0
Storing dark spectrum: false
XAxis mode: Wavelengths
Number of Pixels in Spectrum: 1024
>>>>>Begin Spectral Data<<<<<
801.071	21926
801.214	21797
801.356	21580
801.499	21458
801.641	21420
801.783	21249
801.926	21306
802.068	21165
802.211	21135
802.353	20979
802.496	20929
802.638	20785
802.78	20724
802.923	20716
803.065	20533
803.208	20499
803.35	20571
803.492	20769
803.635	20739
803.777	20682
803.919	20579
804.061	20982
804.204	20659
804.346	20651
804.488	20419
804.63	20644
804.773	20442
804.915	20587
805.057	20598
805.199	20556
805.341	20579
805.483	20640
805.626	20522
805.768	20530
805.91	20450
806.052	20526
806.194	20343
806.336	20655
806.478	20442
806.62	20488
806.762	20495
806.904	20739
807.046	20895
807.188	20739
807.33	20800
807.472	20849
807.614	20754
807.756	20781
807.898	20594
808.04	20514
808.182	20590
808.324	20602
808.465	20632
808.607	20708
808.749	20861
808.891	21058
809.033	20944
809.174	20864
809.316	20785
809.458	20682
809.6	20773
809.741	20861
809.883	20910
810.025	20948
810.166	20902
810.308	21039
810.45	20971
810.591	20815
810.733	20773
810.875	20602
811.016	20583
811.158	20541
811.299	20743
811.441	20788
811.582	20746
811.724	20598
811.865	20571
812.007	20556
812.148	20655
812.29	20568
812.431	20667
812.573	20842
812.714	20960
812.855	20975
812.997	21291
813.138	21367
813.279	21233
813.421	21119
813.562	20982
813.703	20845
813.845	20773
813.986	20400
814.127	20328
814.268	20244
814.41	20164
814.551	20199
814.692	20248
814.833	20020
814.974	20164
815.115	20050
815.256	19978
815.397	20031
815.539	19921
815.68	19963
815.821	19856
815.962	19932
816.103	19746
816.244	19795
816.385	19594
816.526	19430
816.666	19483
816.807	19285
816.948	19453
817.089	19460
817.23	19346
817.371	19384
817.512	19316
817.653	19251
817.793	19206
817.934	19316
818.075	19422
818.216	19202
818.356	19198
818.497	19080
818.638	18958
818.778	18943
818.919	19091
819.06	19019
819.2	19171
819.341	19095
819.481	19133
819.622	19396
819.762	19483
819.903	19426
820.043	19365
820.184	19301
820.324	19293
820.465	19301
820.605	19327
820.746	19236
820.886	19137
821.026	19244
821.167	19171
821.307	19259
821.447	19236
821.588	19099
821.728	18943
821.868	18787
822.008	18612
822.149	18700
822.289	18635
822.429	18452
822.569	18346
822.709	18372
822.849	18167
822.99	18125
823.13	18003
823.27	18136
823.41	17996
823.55	17893
823.69	17969
823.83	17980
823.97	17893
824.11	17661
824.25	17775
824.389	17722
824.529	17798
824.669	17718
824.809	17855
824.949	17859
825.089	17771
825.228	17851
825.368	17554
825.508	17497
825.648	17509
825.787	17611
825.927	17600
826.067	17478
826.206	17535
826.346	17532
826.485	17585
826.625	17478
826.765	17684
826.904	17691
827.044	17239
827.183	17223
827.323	17223
827.462	17296
827.601	17223
827.741	17277
827.88	17189
828.02	17113
828.159	17124
828.298	17292
828.437	17353
828.577	17174
828.716	17345
828.855	17204
828.994	16927
829.134	16911
829.273	16946
829.412	16991
829.551	16934
829.69	16942
829.829	17162
829.968	17105
830.107	17037
830.246	16953
830.385	16953
830.524	16904
830.663	16828
830.802	16740
830.941	16691
831.08	16630
831.219	16679
831.357	16725
831.496	16786
831.635	16637
831.774	16527
831.913	16489
832.051	16443
832.19	16360
832.329	16405
832.467	16459
832.606	16367
832.744	16272
832.883	16379
833.022	16223
833.16	16333
833.299	16352
833.437	16322
833.576	16382
833.714	16352
833.852	16402
833.991	16363
834.129	16424
834.267	16474
834.406	16386
834.544	16424
834.682	16363
834.821	16249
834.959	16527
835.097	16360
835.235	16535
835.373	16421
835.511	16398
835.65	16322
835.788	16234
835.926	16192
836.064	16166
836.202	16139
836.34	16329
836.478	16268
836.615	16169
836.753	16367
836.891	16276
837.029	16398
837.167	16219
837.305	16333
837.443	16200
837.58	16150
837.718	16246
837.856	16276
837.993	16139
838.131	16226
838.269	16055
838.406	16116
838.544	15972
838.681	15876
838.819	15869
838.956	15705
839.094	15785
839.231	15819
839.369	15949
839.506	16086
839.643	15983
839.781	15618
839.918	15599
840.055	15823
840.193	15736
840.33	15789
840.467	15656
840.604	15770
840.742	15941
840.879	15538
841.016	15682
841.153	15576
841.29	15823
841.427	15755
841.564	15759
841.701	15751
841.838	15648
841.975	15663
842.112	15599
842.249	15610
842.385	15428
842.522	15671
842.659	15572
842.796	15405
842.933	15610
843.069	15488
843.206	15439
843.343	15485
843.479	15477
843.616	15553
843.752	15264
843.889	15237
844.025	15435
844.162	15287
844.298	15412
844.435	15241
844.571	15313
844.708	15279
844.844	15389
844.98	15370
845.117	15367
845.253	15279
845.389	15252
845.525	15260
845.661	15165
845.798	15093
845.934	15146
846.07	15028
846.206	15138
846.342	15294
846.478	15112
846.614	14883
846.75	14842
846.886	14887
847.022	14948
847.158	14921
847.294	14800
847.429	14868
847.565	14834
847.701	15100
847.837	14590
847.972	14499
848.108	14731
848.244	14613
848.379	14469
848.515	14480
848.65	14518
848.786	14473
848.921	14438
849.057	14560
849.192	14465
849.328	14499
849.463	14438
849.598	14370
849.734	14473
849.869	14465
850.004	14252
850.14	14389
850.275	14286
850.41	14210
850.545	14161
850.68	14320
850.815	14278
850.95	14286
851.085	14389
851.22	14351
851.355	14225
851.49	14191
851.625	14164
851.76	14149
851.895	14077
852.03	14111
852.165	14256
852.299	14400
852.434	14343
852.569	14278
852.703	14278
852.838	14202
852.973	14366
853.107	14408
853.242	14252
853.376	14081
853.511	14027
853.645	14062
853.78	14202
853.914	14103
854.048	14149
854.183	14111
854.317	14065
854.451	14202
854.585	14005
854.72	13982
854.854	14081
854.988	14020
855.122	14050
855.256	14031
855.39	14069
855.524	14252
855.658	14187
855.792	14058
855.926	14065
856.06	14153
856.194	14126
856.327	14161
856.461	14043
856.595	14001
856.729	14043
856.862	14225
856.996	14126
857.13	14126
857.263	14320
857.397	14271
857.53	14081
857.664	14233
857.797	14210
857.931	14240
858.064	14092
858.197	14233
858.331	14145
858.464	14065
858.597	14088
858.731	14142
858.864	14096
858.997	14069
859.13	14195
859.263	14100
859.396	14138
859.529	14157
859.662	14115
859.795	14046
859.928	14111
860.061	14187
860.194	14248
860.327	14195
860.46	14107
860.592	14210
860.725	14248
860.858	14157
860.99	14050
861.123	13997
861.256	13974
861.388	14096
861.521	14921
861.653	14020
861.786	13917
861.918	13909
862.05	14012
862.183	14008
862.315	14081
862.447	14153
862.58	14016
862.712	13841
862.844	13890
862.976	13951
863.108	13982
863.24	14305
863.372	13864
863.504	13963
863.636	13879
863.768	13894
863.9	13894
864.032	13723
864.164	13780
864.296	13955
864.428	14138
864.559	13989
864.691	13963
864.823	13906
864.954	13913
865.086	13940
865.217	13833
865.349	13788
865.48	13845
865.612	13940
865.743	13986
865.875	13845
866.006	13944
866.137	13879
866.269	13875
866.4	13913
866.531	13883
866.662	13871
866.793	13818
866.924	13887
867.055	13909
867.186	13845
867.317	13856
867.448	13772
867.579	13814
867.71	13776
867.841	13826
867.972	13864
868.103	13947
868.233	13803
868.364	13921
868.495	13925
868.625	14126
868.756	14214
868.886	14050
869.017	14050
869.147	14233
869.278	14336
869.408	14145
869.539	14183
869.669	14183
869.799	14199
869.929	14259
870.06	14267
870.19	14358
870.32	14366
870.45	14499
870.58	14499
870.71	14648
870.84	14621
870.97	14541
871.1	14511
871.23	14568
871.36	14811
871.489	14693
871.619	14670
871.749	14758
871.879	14727
872.008	14838
872.138	14743
872.267	14689
872.397	14640
872.526	14640
872.656	14545
872.785	14632
872.915	14716
873.044	14906
873.173	14826
873.303	14823
873.432	14956
873.561	14800
873.69	14743
873.819	14819
873.948	14811
874.077	14826
874.206	14739
874.335	14796
874.464	14914
874.593	15062
874.722	15051
874.851	15089
874.979	15123
875.108	15138
875.237	14986
875.365	15093
875.494	15036
875.623	15142
875.751	15119
875.88	15287
876.008	15249
876.136	15393
876.265	15564
876.393	15690
876.521	15679
876.65	15652
876.778	15511
876.906	15488
877.034	15526
877.162	15500
877.29	15481
877.418	15561
877.546	15534
877.674	15523
877.802	15530
877.93	15519
878.058	15515
878.185	15405
878.313	15507
878.441	15557
878.568	15408
878.696	15389
878.824	15667
878.951	15603
879.079	15739
879.206	15831
879.333	15610
879.461	15572
879.588	15675
879.715	15709
879.842	15823
879.97	15587
880.097	15367
880.224	15344
880.351	15477
880.478	15428
880.605	15397
880.732	15310
880.859	15591
880.986	15401
881.112	15466
881.239	15252
881.366	15184
881.493	15222
881.619	14998
881.746	15077
881.872	15047
881.999	15119
882.125	15028
882.252	15161
882.378	15051
882.505	15195
882.631	14990
882.757	14895
882.883	14910
883.01	14868
883.136	14796
883.262	14708
883.388	14674
883.514	14773
883.64	14830
883.766	14765
883.892	14598
884.018	14750
884.143	14746
884.269	14986
884.395	14564
884.52	14423
884.646	14549
884.772	14522
884.897	14450
885.023	14594
885.148	14682
885.274	14640
885.399	14693
885.524	14514
885.65	14514
885.775	14613
885.9	14571
886.025	14670
886.15	14610
886.275	14488
886.4	14412
886.525	14461
886.65	14465
886.775	14568
886.9	14632
887.025	14785
887.149	14533
887.274	14415
887.399	14263
887.523	14324
887.648	14229
887.773	14347
887.897	14396
888.021	14415
888.146	14339
888.27	14465
888.395	14541
888.519	14469
888.643	14499
888.767	14427
888.891	14298
889.015	14187
889.139	14294
889.263	14271
889.387	14381
889.511	14393
889.635	14355
889.759	14206
889.883	14161
890.006	14195
890.13	14320
890.254	14111
890.377	14248
890.501	14069
890.624	13963
890.748	14012
890.871	13951
890.995	13947
891.118	13799
891.241	14046
891.364	13928
891.488	13997
891.611	13913
891.734	14031
891.857	14001
891.98	14016
892.103	14031
892.226	13932
892.349	13951
892.471	13833
892.594	13940
892.717	13974
892.839	13974
892.962	13967
893.085	13944
893.207	13909
893.33	13795
893.452	13890
893.575	13959
893.697	13944
893.819	14145
893.941	14123
894.064	14065
894.186	13894
894.308	13928
894.43	14039
894.552	14157
894.674	14088
894.796	13921
894.918	14081
895.04	13917
895.161	14088
895.283	14008
895.405	14073
895.526	14081
895.648	14115
895.769	14119
895.891	14157
896.012	14191
896.134	14229
896.255	14103
896.376	14062
896.498	14123
896.619	14256
896.74	14157
896.861	14237
896.982	14442
897.103	14697
897.224	14438
897.345	14423
897.466	14320
897.587	14408
897.708	14461
897.828	14442
897.949	14324
898.07	14328
898.19	14419
898.311	14613
898.431	14446
898.552	14492
898.672	14571
898.792	14526
898.913	14587
899.033	14492
899.153	14328
899.273	14328
899.393	14305
899.513	14377
899.633	14347
899.753	14415
899.873	14324
899.993	14385
900.113	14324
900.232	14415
900.352	14366
900.472	14339
900.591	14130
900.711	14248
900.83	14218
900.95	14290
901.069	14362
901.189	14183
901.308	13906
901.427	13906
901.546	14001
901.665	14054
901.784	13879
901.904	13807
902.023	13674
902.141	13518
902.26	13537
902.379	13575
902.498	13540
902.617	13453
902.735	13468
902.854	13540
902.973	13453
903.091	13175
903.21	13217
903.328	13202
903.446	13118
903.565	13061
903.683	13061
903.801	12932
903.919	13015
904.038	13042
904.156	12837
904.274	12958
904.392	12890
904.51	12897
904.627	12878
904.745	12810
904.863	12932
904.981	12711
905.098	12578
905.216	12589
905.334	12631
905.451	12612
905.569	12563
905.686	12551
905.803	12608
905.921	12395
906.038	12559
906.155	12388
906.272	12209
906.389	12361
906.506	12209
906.623	12186
906.74	12182
906.857	12011
906.974	12144
907.091	12300
907.208	12342
907.324	12190
907.441	12007
907.557	11897
907.674	11874
907.79	11863
907.907	11843
908.023	11904
908.139	11885
908.256	11923
908.372	11878
908.488	11809
908.604	11676
908.72	11676
908.836	11688
908.952	11611
909.068	11699
909.184	11840
909.3	11611
909.415	11745
909.531	11638
909.647	11497
909.762	11429
909.878	11436
909.993	11448
910.108	11421
910.224	11471
910.339	11368
910.454	11349
910.57	11307
910.685	11284
910.8	11448
910.915	11516
911.03	11322
911.145	11166
911.259	11140
911.374	11132
911.489	10980
911.604	10900
911.718	10858
911.833	10949
911.947	10790
912.062	10763
912.176	10850
912.291	10919
912.405	10900
912.519	11075
912.633	11117
912.748	11052
912.862	10942
912.976	10763
913.09	10672
913.204	10755
913.318	10771
913.431	10919
913.545	10812
913.659	10919
913.772	10714
913.886	10656
914	10672
914.113	10729
914.226	10797
914.34	10698
914.453	10500
914.566	10702
914.68	10615
914.793	10653
914.906	10474
915.019	10428
915.132	10402
915.245	10421
915.358	10462
915.47	10413
915.583	10363
915.696	10459
915.809	10531
915.921	10443
916.034	10421
916.146	10417
916.259	10390
916.371	10379
916.483	10405
916.595	10367
916.708	10379
916.82	10375
916.932	10318
917.044	10341
917.156	10318
917.268	10249
917.38	10257
917.491	10287
917.603	10280
917.715	10333
917.826	10367
917.938	10234
918.049	10147
918.161	10257
918.272	10386
918.384	10409
918.495	10284
918.606	10223
918.717	10169
918.828	10112
918.939	10124
919.05	9972
919.161	10131
919.272	9945
919.383	9949
919.494	10185
919.604	10276
919.715	10200
919.826	10032
919.936	10211
920.047	10257
920.157	10139
920.267	10360
920.378	10238
920.488	10147
920.598	10291
920.708	10451
920.818	10333
920.928	10379
921.038	10459
921.148	10508
921.258	10120
921.368	10162
921.477	10124
921.587	10006
921.697	9861
921.806	10051
921.916	9926
922.025	9694
922.134	9736
922.244	9663
922.353	9774
922.462	9549
922.571	9534
922.68	9378
922.789	9344
922.898	9439
923.007	9340
923.116	9488
923.224	9416
923.333	9359
923.442	9256
923.55	9245
923.659	9279
923.767	9294
923.876	9264
923.984	9340
924.092	9161
924.201	9245
924.309	9336
924.417	9253
924.525	9203
924.633	9214
924.741	10002
924.849	9051
924.956	9222
925.064	9036
925.172	8925
925.279	9009
925.387	9047
925.494	9116
925.602	9157
925.709	9214
925.816	8994
925.924	9062
926.031	9131
926.138	9066
926.245	9085
926.352	9005
926.459	9154
926.566	9131
926.673	9093
926.779	8956
926.886	8925
926.993	8872
927.099	8842
927.206	8701
927.312	8629
927.419	8819
927.525	8773
927.631	8857
927.737	8689
927.843	8640
927.95	8522
928.056	8708
928.162	8655
928.267	8773
928.373	9332
928.479	8750
928.585	8594
928.69	8632
928.796	8648
928.901	8659
929.007	8465
929.112	8629
929.218	8499
929.323	8522
929.428	8514
929.533	8651
929.638	8412
929.743	8427
929.848	8613
929.953	8457
930.058	8400
930.163	8229
930.267	8320
930.372	8457
930.477	8305
930.581	8454
930.685	8355
930.79	8202
930.894	8168
930.998	8183
931.103	8377
931.207	8073
931.311	7917
931.415	7807
931.519	7719
931.623	7734
