Data from test_V78500241_3439.txt Node
Date: Fri Mar 25 14:57:39 CST 2022
User: usil
Spectrometer: V785-0024
Trigger mode: 0
Integration Time (sec): 4.000000E-1
Scans to average: 1
Nonlinearity correction enabled: false
Boxcar width: 0
Storing dark spectrum: false
XAxis mode: Wavelengths
Number of Pixels in Spectrum: 1024
>>>>>Begin Spectral Data<<<<<
801.071	21816
801.214	21804
801.356	21759
801.499	21538
801.641	21195
801.783	21294
801.926	21374
802.068	21241
802.211	21180
802.353	21051
802.496	20796
802.638	20754
802.78	20727
802.923	20648
803.065	20514
803.208	20644
803.35	20781
803.492	20701
803.635	20720
803.777	20590
803.919	20735
804.061	20963
804.204	20864
804.346	20526
804.488	20522
804.63	20670
804.773	20571
804.915	20545
805.057	20739
805.199	20461
805.341	20613
805.483	20587
805.626	20667
805.768	20454
805.91	20499
806.052	20598
806.194	20450
806.336	20655
806.478	20461
806.62	20476
806.762	20640
806.904	20667
807.046	20902
807.188	20960
807.33	20937
807.472	21028
807.614	20746
807.756	20693
807.898	20819
808.04	20556
808.182	20625
808.324	20644
808.465	20598
808.607	20762
808.749	20830
808.891	20929
809.033	20986
809.174	20929
809.316	20804
809.458	20849
809.6	20910
809.741	20956
809.883	21001
810.025	20960
810.166	20998
810.308	21066
810.45	20967
810.591	20925
810.733	20785
810.875	20663
811.016	20655
811.158	20552
811.299	20731
811.441	20815
811.582	20762
811.724	20697
811.865	20609
812.007	20571
812.148	20632
812.29	20693
812.431	20773
812.573	20880
812.714	21055
812.855	21108
812.997	21302
813.138	21321
813.279	21291
813.421	21146
813.562	21135
813.703	20849
813.845	20838
813.986	20571
814.127	20320
814.268	20294
814.41	20233
814.551	20191
814.692	20317
814.833	20142
814.974	20275
815.115	20332
815.256	20122
815.397	19970
815.539	19989
815.68	20107
815.821	19845
815.962	19917
816.103	19913
816.244	19757
816.385	19601
816.526	19662
816.666	19510
816.807	19369
816.948	19483
817.089	19491
817.23	19411
817.371	19308
817.512	19384
817.653	19285
817.793	19251
817.934	19381
818.075	19293
818.216	19297
818.356	19274
818.497	19164
818.638	18947
818.778	18924
818.919	18985
819.06	19091
819.2	19133
819.341	19103
819.481	19088
819.622	19365
819.762	19438
819.903	19521
820.043	19403
820.184	19415
820.324	19407
820.465	19441
820.605	19411
820.746	19202
820.886	19118
821.026	19331
821.167	19278
821.307	19331
821.447	19297
821.588	19251
821.728	19038
821.868	18954
822.008	18719
822.149	18829
822.289	18897
822.429	18494
822.569	18399
822.709	18506
822.849	18285
822.99	18247
823.13	18216
823.27	18266
823.41	17878
823.55	17996
823.69	18068
823.83	18167
823.97	18045
824.11	17889
824.25	17756
824.389	17767
824.529	17908
824.669	17703
824.809	17939
824.949	17935
825.089	17904
825.228	17855
825.368	17707
825.508	17615
825.648	17608
825.787	17627
825.927	17638
826.067	17596
826.206	17535
826.346	17604
826.485	17429
826.625	17630
826.765	17676
826.904	17665
827.044	17417
827.183	17414
827.323	17322
827.462	17288
827.601	17292
827.741	17235
827.88	17307
828.02	17181
828.159	17170
828.298	17345
828.437	17330
828.577	17288
828.716	17448
828.855	17128
828.994	17048
829.134	17098
829.273	17083
829.412	16923
829.551	17037
829.69	17022
829.829	17071
829.968	17105
830.107	17189
830.246	17060
830.385	16976
830.524	17071
830.663	16809
830.802	16805
830.941	16717
831.08	16611
831.219	16713
831.357	16828
831.496	16881
831.635	16618
831.774	16599
831.913	16634
832.051	16489
832.19	16455
832.329	16481
832.467	16409
832.606	16375
832.744	16375
832.883	16363
833.022	16413
833.16	16382
833.299	16424
833.437	16421
833.576	16512
833.714	16436
833.852	16421
833.991	16462
834.129	16440
834.267	16436
834.406	16451
834.544	16542
834.682	16474
834.821	16341
834.959	16702
835.097	16417
835.235	16478
835.373	16512
835.511	16478
835.65	16287
835.788	16333
835.926	16173
836.064	16101
836.202	16162
836.34	16379
836.478	16447
836.615	16325
836.753	16352
836.891	16497
837.029	16409
837.167	16409
837.305	16310
837.443	16226
837.58	16204
837.718	16306
837.856	16272
837.993	16128
838.131	16318
838.269	16185
838.406	16101
838.544	15972
838.681	15915
838.819	15926
838.956	15770
839.094	15679
839.231	15812
839.369	15915
839.506	16219
839.643	15979
839.781	15774
839.918	15808
840.055	15774
840.193	15736
840.33	15819
840.467	15789
840.604	15800
840.742	15979
840.879	15675
841.016	15641
841.153	15682
841.29	15922
841.427	15717
841.564	15762
841.701	15755
841.838	15755
841.975	15614
842.112	15648
842.249	15576
842.385	15545
842.522	15720
842.659	15648
842.796	15492
842.933	15618
843.069	15500
843.206	15538
843.343	15625
843.479	15698
843.616	15614
843.752	15450
843.889	15321
844.025	15473
844.162	15226
844.298	15507
844.435	15367
844.571	15279
844.708	15431
844.844	15481
844.98	15564
845.117	15462
845.253	15336
845.389	15256
845.525	15222
845.661	15237
845.798	15142
845.934	15233
846.07	15112
846.206	15222
846.342	15218
846.478	15070
846.614	14960
846.75	14853
846.886	14788
847.022	14986
847.158	14857
847.294	14838
847.429	14982
847.565	14929
847.701	15150
847.837	14670
847.972	14659
848.108	14701
848.244	14674
848.379	14613
848.515	14568
848.65	14629
848.786	14552
848.921	14564
849.057	14697
849.192	14663
849.328	14625
849.463	14583
849.598	14404
849.734	14530
849.869	14446
850.004	14362
850.14	14301
850.275	14351
850.41	14256
850.545	14248
850.68	14282
850.815	14298
850.95	14252
851.085	14537
851.22	14355
851.355	14351
851.49	14282
851.625	14267
851.76	14180
851.895	14153
852.03	14138
852.165	14278
852.299	14324
852.434	14225
852.569	14313
852.703	14271
852.838	14362
852.973	14408
853.107	14461
853.242	14305
853.376	14107
853.511	14092
853.645	14134
853.78	14320
853.914	14176
854.048	14123
854.183	14161
854.317	14240
854.451	14393
854.585	14126
854.72	14096
854.854	14244
854.988	14111
855.122	14077
855.256	13997
855.39	14081
855.524	14153
855.658	14180
855.792	14294
855.926	14206
856.06	14271
856.194	14275
856.327	14103
856.461	14126
856.595	14191
856.729	14168
856.862	14237
856.996	14199
857.13	14275
857.263	14267
857.397	14317
857.53	14164
857.664	14259
857.797	14244
857.931	14237
858.064	14206
858.197	14244
858.331	14164
858.464	14073
858.597	14043
858.731	14107
858.864	14123
858.997	14210
859.13	14149
859.263	14062
859.396	14206
859.529	14218
859.662	14199
859.795	14138
859.928	14191
860.061	14358
860.194	14256
860.327	14115
860.46	14138
860.592	14233
860.725	14347
860.858	14271
860.99	14107
861.123	14103
861.256	14043
861.388	14210
861.521	14975
861.653	14046
861.786	14024
861.918	14008
862.05	14142
862.183	14119
862.315	14115
862.447	14282
862.58	14180
862.712	13932
862.844	13921
862.976	14020
863.108	13925
863.24	14377
863.372	13898
863.504	14008
863.636	13925
863.768	13944
863.9	14069
864.032	13913
864.164	13940
864.296	13967
864.428	14126
864.559	14088
864.691	14111
864.823	14065
864.954	13947
865.086	13989
865.217	13837
865.349	13849
865.48	13894
865.612	13978
865.743	14111
865.875	13947
866.006	13898
866.137	13951
866.269	13940
866.4	13826
866.531	13875
866.662	13830
866.793	13925
866.924	13928
867.055	13974
867.186	13944
867.317	13879
867.448	13875
867.579	13879
867.71	13791
867.841	13875
867.972	13963
868.103	13932
868.233	13970
868.364	13932
868.495	14016
868.625	14233
868.756	14244
868.886	14092
869.017	14183
869.147	14259
869.278	14343
869.408	14199
869.539	14161
869.669	14298
869.799	14180
869.929	14301
870.06	14263
870.19	14461
870.32	14476
870.45	14552
870.58	14632
870.71	14701
870.84	14648
870.97	14590
871.1	14590
871.23	14758
871.36	14762
871.489	14686
871.619	14746
871.749	14857
871.879	14800
872.008	14819
872.138	14811
872.267	14781
872.397	14667
872.526	14590
872.656	14545
872.785	14606
872.915	14895
873.044	14914
873.173	14868
873.303	14804
873.432	14910
873.561	15024
873.69	14781
873.819	14842
873.948	14960
874.077	14826
874.206	14845
874.335	14910
874.464	15074
874.593	15161
874.722	15188
874.851	15165
874.979	15161
875.108	15313
875.237	15093
875.365	15070
875.494	15154
875.623	15077
875.751	15112
875.88	15169
876.008	15321
876.136	15367
876.265	15572
876.393	15682
876.521	15694
876.65	15610
876.778	15572
876.906	15447
877.034	15443
877.162	15606
877.29	15564
877.418	15625
877.546	15545
877.674	15485
877.802	15652
877.93	15587
878.058	15504
878.185	15447
878.313	15500
878.441	15530
878.568	15450
878.696	15542
878.824	15481
878.951	15720
879.079	15736
879.206	15979
879.333	15785
879.461	15614
879.588	15663
879.715	15709
879.842	15869
879.97	15564
880.097	15355
880.224	15363
880.351	15416
880.478	15408
880.605	15393
880.732	15454
880.859	15663
880.986	15389
881.112	15397
881.239	15241
881.366	15249
881.493	15146
881.619	15081
881.746	15093
881.872	14975
881.999	15070
882.125	15066
882.252	15112
882.378	15214
882.505	15241
882.631	15135
882.757	14906
882.883	14986
883.01	14979
883.136	14845
883.262	14765
883.388	14686
883.514	14914
883.64	14925
883.766	14819
883.892	14765
884.018	14800
884.143	14857
884.269	14971
884.395	14720
884.52	14632
884.646	14522
884.772	14564
884.897	14469
885.023	14587
885.148	14807
885.274	14788
885.399	14735
885.524	14594
885.65	14590
885.775	14636
885.9	14602
886.025	14739
886.15	14716
886.275	14560
886.4	14507
886.525	14571
886.65	14587
886.775	14461
886.9	14708
887.025	14872
887.149	14705
887.274	14419
887.399	14389
887.523	14343
887.648	14377
887.773	14393
887.897	14465
888.021	14507
888.146	14309
888.27	14587
888.395	14552
888.519	14476
888.643	14427
888.767	14488
888.891	14324
889.015	14396
889.139	14294
889.263	14214
889.387	14431
889.511	14396
889.635	14461
889.759	14256
889.883	14313
890.006	14290
890.13	14336
890.254	14119
890.377	14237
890.501	14115
890.624	14103
890.748	14210
890.871	14050
890.995	13932
891.118	13890
891.241	13970
891.364	13978
891.488	14081
891.611	13963
891.734	14054
891.857	14035
891.98	13993
892.103	14138
892.226	14054
892.349	13917
892.471	13841
892.594	14039
892.717	13947
892.839	14062
892.962	14024
893.085	13986
893.207	14005
893.33	13928
893.452	13871
893.575	14043
893.697	14050
893.819	14115
893.941	14225
894.064	14164
894.186	14008
894.308	14016
894.43	14161
894.552	14157
894.674	14115
894.796	13944
894.918	14001
895.04	14096
895.161	14172
895.283	14138
895.405	14050
895.526	14077
895.648	14081
895.769	14164
895.891	14157
896.012	14275
896.134	14149
896.255	14294
896.376	14191
896.498	14176
896.619	14221
896.74	14130
896.861	14278
896.982	14568
897.103	14678
897.224	14492
897.345	14476
897.466	14332
897.587	14465
897.708	14492
897.828	14465
897.949	14313
898.07	14332
898.19	14412
898.311	14545
898.431	14469
898.552	14564
898.672	14571
898.792	14590
898.913	14625
899.033	14450
899.153	14366
899.273	14275
899.393	14229
899.513	14347
899.633	14385
899.753	14305
899.873	14400
899.993	14423
900.113	14343
900.232	14381
900.352	14419
900.472	14301
900.591	14263
900.711	14142
900.83	14145
900.95	14381
901.069	14332
901.189	14088
901.308	14046
901.427	13955
901.546	13932
901.665	13997
901.784	13967
901.904	13772
902.023	13639
902.141	13457
902.26	13495
902.379	13594
902.498	13506
902.617	13419
902.735	13491
902.854	13495
902.973	13441
903.091	13179
903.21	13187
903.328	13282
903.446	13053
903.565	13057
903.683	13110
903.801	12947
903.919	13057
904.038	13042
904.156	12844
904.274	12859
904.392	12837
904.51	12844
904.627	12844
904.745	12916
904.863	12962
904.981	12700
905.098	12570
905.216	12642
905.334	12635
905.451	12597
905.569	12616
905.686	12673
905.803	12525
905.921	12342
906.038	12479
906.155	12445
906.272	12270
906.389	12338
906.506	12171
906.623	12117
906.74	12140
906.857	11996
906.974	12026
907.091	12186
907.208	12205
907.324	12251
907.441	12098
907.557	11923
907.674	11942
907.79	11855
907.907	11874
908.023	11885
908.139	11912
908.256	11912
908.372	11843
908.488	11760
908.604	11726
908.72	11589
908.836	11619
908.952	11611
909.068	11668
909.184	11790
909.3	11764
909.415	11809
909.531	11756
909.647	11452
909.762	11433
909.878	11448
909.993	11425
910.108	11482
910.224	11318
910.339	11410
910.454	11334
910.57	11284
910.685	11292
910.8	11493
910.915	11455
911.03	11356
911.145	11155
911.259	11094
911.374	11067
911.489	11064
911.604	11022
911.718	10938
911.833	10892
911.947	10812
912.062	10740
912.176	10915
912.291	10961
912.405	10904
912.519	11136
912.633	11109
912.748	10942
912.862	10900
912.976	10763
913.09	10778
913.204	10679
913.318	10744
913.431	10831
913.545	10919
913.659	10881
913.772	10793
913.886	10710
914	10687
914.113	10710
914.226	10759
914.34	10752
914.453	10615
914.566	10820
914.68	10679
914.793	10554
914.906	10466
915.019	10348
915.132	10421
915.245	10348
915.358	10390
915.47	10371
915.583	10466
915.696	10462
915.809	10561
915.921	10580
916.034	10424
916.146	10371
916.259	10310
916.371	10512
916.483	10367
916.595	10360
916.708	10356
916.82	10375
916.932	10253
917.044	10303
917.156	10299
917.268	10234
917.38	10261
917.491	10223
917.603	10306
917.715	10367
917.826	10398
917.938	10272
918.049	10109
918.161	10318
918.272	10398
918.384	10371
918.495	10284
918.606	10078
918.717	10143
918.828	10071
918.939	10207
919.05	10006
919.161	10101
919.272	9941
919.383	10010
919.494	10139
919.604	10284
919.715	10135
919.826	9979
919.936	10116
920.047	10154
920.157	10154
920.267	10367
920.378	10177
920.488	10169
920.598	10322
920.708	10474
920.818	10360
920.928	10230
921.038	10413
921.148	10470
921.258	10173
921.368	10192
921.477	10006
921.587	9979
921.697	9842
921.806	10002
921.916	9842
922.025	9789
922.134	9770
922.244	9637
922.353	9663
922.462	9549
922.571	9481
922.68	9329
922.789	9389
922.898	9374
923.007	9412
923.116	9447
923.224	9405
923.333	9374
923.442	9321
923.55	9306
923.659	9321
923.767	9401
923.876	9180
923.984	9306
924.092	9226
924.201	9332
924.309	9332
924.417	9283
924.525	9260
924.633	9203
924.741	10120
924.849	9081
924.956	9138
925.064	9039
925.172	8986
925.279	8998
925.387	9085
925.494	9001
925.602	9123
925.709	9112
925.816	8979
925.924	9017
926.031	9142
926.138	9081
926.245	9146
926.352	8963
926.459	9188
926.566	9192
926.673	9039
926.779	8906
926.886	8918
926.993	8792
927.099	8800
927.206	8705
927.312	8693
927.419	8868
927.525	8807
927.631	8868
927.737	8659
927.843	8651
927.95	8549
928.056	8674
928.162	8629
928.267	8777
928.373	9340
928.479	8815
928.585	8461
928.69	8648
928.796	8678
928.901	8648
929.007	8526
929.112	8545
929.218	8568
929.323	8533
929.428	8469
929.533	8583
929.638	8442
929.743	8457
929.848	8545
929.953	8480
930.058	8320
930.163	8199
930.267	8351
930.372	8419
930.477	8282
930.581	8434
930.685	8347
930.79	8199
930.894	8214
930.998	8237
931.103	8377
931.207	8024
931.311	7894
931.415	7879
931.519	7818
931.623	7670
