Data from test_V78500241_1082.txt Node
Date: Fri Mar 25 14:41:15 CST 2022
User: usil
Spectrometer: V785-0024
Trigger mode: 0
Integration Time (sec): 4.000000E-1
Scans to average: 1
Nonlinearity correction enabled: false
Boxcar width: 0
Storing dark spectrum: false
XAxis mode: Wavelengths
Number of Pixels in Spectrum: 1024
>>>>>Begin Spectral Data<<<<<
801.071	22706
801.214	22599
801.356	22356
801.499	22276
801.641	22074
801.783	22128
801.926	22105
802.068	21953
802.211	21937
802.353	21789
802.496	21663
802.638	21576
802.78	21553
802.923	21583
803.065	21485
803.208	21492
803.35	21545
803.492	21599
803.635	21545
803.777	21428
803.919	21553
804.061	21770
804.204	21458
804.346	21370
804.488	21317
804.63	21287
804.773	21313
804.915	21332
805.057	21405
805.199	21226
805.341	21336
805.483	21473
805.626	21492
805.768	21344
805.91	21393
806.052	21317
806.194	21298
806.336	21549
806.478	21431
806.62	21367
806.762	21485
806.904	21576
807.046	21819
807.188	21789
807.33	21705
807.472	21705
807.614	21793
807.756	21819
807.898	21663
808.04	21633
808.182	21606
808.324	21778
808.465	21941
808.607	22048
808.749	22135
808.891	22360
809.033	22421
809.174	22325
809.316	22044
809.458	22177
809.6	21968
809.741	21991
809.883	21930
810.025	22002
810.166	22021
810.308	22070
810.45	22025
810.591	21888
810.733	21747
810.875	21694
811.016	21644
811.158	21530
811.299	21595
811.441	21701
811.582	21690
811.724	21633
811.865	21564
812.007	21477
812.148	21492
812.29	21580
812.431	21785
812.573	21880
812.714	21998
812.855	21983
812.997	22196
813.138	22314
813.279	22223
813.421	22109
813.562	22032
813.703	21991
813.845	21743
813.986	21534
814.127	21272
814.268	21199
814.41	21058
814.551	21089
814.692	21173
814.833	21089
814.974	20979
815.115	21192
815.256	21032
815.397	20971
815.539	21055
815.68	20792
815.821	20830
815.962	20998
816.103	20861
816.244	20762
816.385	20583
816.526	20648
816.666	20370
816.807	20336
816.948	20385
817.089	20347
817.23	20153
817.371	20183
817.512	20286
817.653	20328
817.793	20214
817.934	20313
818.075	20328
818.216	20240
818.356	20290
818.497	20092
818.638	19887
818.778	20016
818.919	19932
819.06	19871
819.2	20138
819.341	20157
819.481	20092
819.622	20423
819.762	20446
819.903	20393
820.043	20366
820.184	20202
820.324	20282
820.465	20336
820.605	20313
820.746	20244
820.886	20115
821.026	20259
821.167	20248
821.307	20199
821.447	20164
821.588	20039
821.728	19997
821.868	19830
822.008	19662
822.149	19556
822.289	19628
822.429	19335
822.569	19285
822.709	19301
822.849	19046
822.99	19141
823.13	19141
823.27	19084
823.41	19000
823.55	18875
823.69	18920
823.83	18962
823.97	18886
824.11	18734
824.25	18673
824.389	18776
824.529	18837
824.669	18783
824.809	18814
824.949	18677
825.089	18738
825.228	18734
825.368	18620
825.508	18597
825.648	18563
825.787	18574
825.927	18623
826.067	18460
826.206	18391
826.346	18582
826.485	18471
826.625	18574
826.765	18715
826.904	18506
827.044	18235
827.183	18289
827.323	18243
827.462	18205
827.601	18091
827.741	18163
827.88	18178
828.02	18041
828.159	18205
828.298	18163
828.437	18262
828.577	18216
828.716	18254
828.855	18155
828.994	17863
829.134	18011
829.273	18041
829.412	17973
829.551	17855
829.69	18087
829.829	18038
829.968	18060
830.107	18041
830.246	17927
830.385	17847
830.524	17828
830.663	17760
830.802	17703
830.941	17589
831.08	17562
831.219	17646
831.357	17638
831.496	17847
831.635	17577
831.774	17474
831.913	17315
832.051	17455
832.19	17433
832.329	17452
832.467	17322
832.606	17299
832.744	17330
832.883	17239
833.022	17353
833.16	17246
833.299	17345
833.437	17292
833.576	17288
833.714	17356
833.852	17341
833.991	17402
834.129	17520
834.267	17459
834.406	17315
834.544	17349
834.682	17349
834.821	17315
834.959	17376
835.097	17208
835.235	17440
835.373	17395
835.511	17398
835.65	17181
835.788	17067
835.926	17022
836.064	16942
836.202	17075
836.34	17212
836.478	17250
836.615	17189
836.753	17235
836.891	17242
837.029	17318
837.167	17220
837.305	17200
837.443	17124
837.58	17033
837.718	17185
837.856	17212
837.993	17006
838.131	17067
838.269	16961
838.406	17022
838.544	16911
838.681	16812
838.819	16702
838.956	16584
839.094	16538
839.231	16702
839.369	16733
839.506	17083
839.643	16919
839.781	16626
839.918	16519
840.055	16698
840.193	16523
840.33	16675
840.467	16622
840.604	16546
840.742	16877
840.879	16504
841.016	16485
841.153	16523
841.29	16698
841.427	16630
841.564	16573
841.701	16615
841.838	16588
841.975	16527
842.112	16531
842.249	16436
842.385	16341
842.522	16550
842.659	16409
842.796	16287
842.933	16348
843.069	16295
843.206	16303
843.343	16447
843.479	16428
843.616	16500
843.752	16154
843.889	16169
844.025	16325
844.162	16150
844.298	16181
844.435	16265
844.571	16124
844.708	16230
844.844	16314
844.98	16405
845.117	16310
845.253	16253
845.389	16154
845.525	16352
845.661	16348
845.798	16371
845.934	16500
846.07	16641
846.206	16489
846.342	16607
846.478	16314
846.614	15956
846.75	15892
846.886	15804
847.022	15968
847.158	15850
847.294	15808
847.429	15766
847.565	15743
847.701	15953
847.837	15477
847.972	15477
848.108	15625
848.244	15488
848.379	15401
848.515	15370
848.65	15302
848.786	15336
848.921	15283
849.057	15420
849.192	15504
849.328	15424
849.463	15329
849.598	15252
849.734	15218
849.869	15180
850.004	15169
850.14	15123
850.275	15017
850.41	15062
850.545	14990
850.68	14960
850.815	15127
850.95	15070
851.085	15211
851.22	15173
851.355	15230
851.49	15032
851.625	15062
851.76	15020
851.895	14963
852.03	14963
852.165	15138
852.299	15039
852.434	15112
852.569	15195
852.703	15157
852.838	15157
852.973	15230
853.107	15275
853.242	15013
853.376	15001
853.511	14800
853.645	15028
853.78	15085
853.914	15013
854.048	14921
854.183	14880
854.317	15017
854.451	15116
854.585	14979
854.72	14868
854.854	15051
854.988	14910
855.122	14899
855.256	14811
855.39	14929
855.524	15055
855.658	14986
855.792	14979
855.926	15028
856.06	14948
856.194	15028
856.327	14853
856.461	14891
856.595	14807
856.729	14861
856.862	15077
856.996	14941
857.13	15028
857.263	15104
857.397	15100
857.53	14902
857.664	15104
857.797	15032
857.931	15043
858.064	14963
858.197	15089
858.331	14986
858.464	14857
858.597	14773
858.731	14990
858.864	15017
858.997	14891
859.13	14986
859.263	14887
859.396	15032
859.529	14880
859.662	14811
859.795	14864
859.928	14921
860.061	15150
860.194	15150
860.327	14956
860.46	14887
860.592	15127
860.725	15142
860.858	15131
860.99	14921
861.123	14910
861.256	14963
861.388	14967
861.521	15572
861.653	14876
861.786	14762
861.918	14876
862.05	14838
862.183	14963
862.315	14960
862.447	15001
862.58	14910
862.712	14781
862.844	14777
862.976	14735
863.108	14781
863.24	15264
863.372	14720
863.504	14712
863.636	14686
863.768	14804
863.9	14750
864.032	14610
864.164	14636
864.296	14849
864.428	14845
864.559	14674
864.691	14891
864.823	14864
864.954	14754
865.086	14785
865.217	14712
865.349	14724
865.48	14705
865.612	14708
865.743	14815
865.875	14724
866.006	14617
866.137	14750
866.269	14617
866.4	14720
866.531	14659
866.662	14773
866.793	14590
866.924	14625
867.055	14602
867.186	14708
867.317	14655
867.448	14590
867.579	14610
867.71	14625
867.841	14602
867.972	14769
868.103	14716
868.233	14693
868.364	14655
868.495	14727
868.625	14868
868.756	15066
868.886	14887
869.017	14899
869.147	14933
869.278	15055
869.408	14925
869.539	14998
869.669	15028
869.799	14952
869.929	15112
870.06	15028
870.19	15268
870.32	15249
870.45	15173
870.58	15348
870.71	15348
870.84	15538
870.97	15313
871.1	15325
871.23	15553
871.36	15572
871.489	15408
871.619	15538
871.749	15428
871.879	15629
872.008	15660
872.138	15530
872.267	15515
872.397	15526
872.526	15424
872.656	15397
872.785	15443
872.915	15545
873.044	15606
873.173	15633
873.303	15644
873.432	15633
873.561	15720
873.69	15652
873.819	15671
873.948	15717
874.077	15606
874.206	15534
874.335	15641
874.464	15713
874.593	15846
874.722	15846
874.851	15949
874.979	15895
875.108	15987
875.237	15941
875.365	15838
875.494	15975
875.623	16036
875.751	15987
875.88	15873
876.008	16067
876.136	16093
876.265	16230
876.393	16379
876.521	16382
876.65	16417
876.778	16375
876.906	16325
877.034	16211
877.162	16234
877.29	16272
877.418	16280
877.546	16348
877.674	16291
877.802	16390
877.93	16447
878.058	16261
878.185	16291
878.313	16318
878.441	16363
878.568	16268
878.696	16280
878.824	16325
878.951	16512
879.079	16641
879.206	16873
879.333	16771
879.461	16664
879.588	16733
879.715	16839
879.842	16900
879.97	16649
880.097	16352
880.224	16314
880.351	16348
880.478	16265
880.605	16310
880.732	16268
880.859	16504
880.986	16261
881.112	16287
881.239	16044
881.366	16059
881.493	15964
881.619	15998
881.746	15934
881.872	15873
881.999	15770
882.125	15892
882.252	15979
882.378	15915
882.505	16067
882.631	15953
882.757	15789
882.883	15736
883.01	15759
883.136	15644
883.262	15656
883.388	15553
883.514	15770
883.64	15713
883.766	15629
883.892	15561
884.018	15473
884.143	15713
884.269	15785
884.395	15443
884.52	15355
884.646	15424
884.772	15302
884.897	15329
885.023	15447
885.148	15428
885.274	15523
885.399	15606
885.524	15370
885.65	15439
885.775	15462
885.9	15367
886.025	15599
886.15	15568
886.275	15291
886.4	15249
886.525	15393
886.65	15378
886.775	15355
886.9	15488
887.025	15637
887.149	15325
887.274	15351
887.399	15192
887.523	15260
887.648	15146
887.773	15161
887.897	15260
888.021	15252
888.146	15211
888.27	15252
888.395	15298
888.519	15291
888.643	15226
888.767	15214
888.891	15074
889.015	15058
889.139	15150
889.263	15036
889.387	15119
889.511	15233
889.635	15176
889.759	15032
889.883	15104
890.006	15062
890.13	15116
890.254	14944
890.377	14937
890.501	14929
890.624	14819
890.748	14895
890.871	14796
890.995	14644
891.118	14735
891.241	14739
891.364	14777
891.488	14811
891.611	14708
891.734	14716
891.857	14788
891.98	14750
892.103	14861
892.226	14762
892.349	14682
892.471	14583
892.594	14845
892.717	14735
892.839	14754
892.962	14651
893.085	14750
893.207	14667
893.33	14514
893.452	14610
893.575	14739
893.697	14693
893.819	14857
893.941	14785
894.064	14838
894.186	14708
894.308	14678
894.43	14792
894.552	14906
894.674	14815
894.796	14571
894.918	14678
895.04	14701
895.161	14880
895.283	14800
895.405	14724
895.526	14842
895.648	14811
895.769	14746
895.891	14880
896.012	14891
896.134	14937
896.255	14925
896.376	14788
896.498	14754
896.619	14948
896.74	14887
896.861	14823
896.982	15195
897.103	15310
897.224	15119
897.345	15154
897.466	15047
897.587	15135
897.708	15302
897.828	15154
897.949	15066
898.07	14994
898.19	15058
898.311	15245
898.431	15123
898.552	15207
898.672	15252
898.792	15332
898.913	15279
899.033	15135
899.153	14986
899.273	15020
899.393	15032
899.513	15009
899.633	15066
899.753	14990
899.873	14963
899.993	15081
900.113	14941
900.232	15043
900.352	14941
900.472	15043
900.591	14891
900.711	14979
900.83	14815
900.95	15043
901.069	15017
901.189	14861
901.308	14613
901.427	14533
901.546	14598
901.665	14564
901.784	14571
901.904	14476
902.023	14320
902.141	14202
902.26	14134
902.379	14218
902.498	14142
902.617	14008
902.735	14111
902.854	14138
902.973	14119
903.091	13845
903.21	13902
903.328	13833
903.446	13799
903.565	13643
903.683	13738
903.801	13616
903.919	13731
904.038	13670
904.156	13430
904.274	13605
904.392	13449
904.51	13441
904.627	13411
904.745	13483
904.863	13441
904.981	13289
905.098	13133
905.216	13213
905.334	13232
905.451	13091
905.569	13122
905.686	13137
905.803	13270
905.921	12973
906.038	13103
906.155	12973
906.272	12878
906.389	12882
906.506	12757
906.623	12745
906.74	12798
906.857	12696
906.974	12665
907.091	12757
907.208	12901
907.324	12817
907.441	12631
907.557	12532
907.674	12521
907.79	12513
907.907	12490
908.023	12513
908.139	12490
908.256	12513
908.372	12388
908.488	12372
908.604	12235
908.72	12258
908.836	12243
908.952	12273
909.068	12235
909.184	12281
909.3	12235
909.415	12266
909.531	12277
909.647	12045
909.762	12022
909.878	12034
909.993	11984
910.108	12034
910.224	12060
910.339	11999
910.454	11916
910.57	11897
910.685	11760
910.8	12095
910.915	12041
911.03	11942
911.145	11680
911.259	11627
911.374	11653
911.489	11611
911.604	11623
911.718	11482
911.833	11497
911.947	11379
912.062	11265
912.176	11497
912.291	11493
912.405	11429
912.519	11634
912.633	11691
912.748	11592
912.862	11398
912.976	11360
913.09	11239
913.204	11292
913.318	11387
913.431	11448
913.545	11440
913.659	11444
913.772	11398
913.886	11212
914	11197
914.113	11220
914.226	11246
914.34	11250
914.453	11155
914.566	11292
914.68	11117
914.793	11094
914.906	10923
915.019	10801
915.132	10839
915.245	10938
915.358	10934
915.47	10972
915.583	10927
915.696	11041
915.809	11029
915.921	11094
916.034	10892
916.146	10946
916.259	10850
916.371	11022
916.483	10934
916.595	10839
916.708	10881
916.82	10839
916.932	10881
917.044	10896
917.156	10866
917.268	10790
917.38	10675
917.491	10717
917.603	10729
917.715	10896
917.826	10786
917.938	10679
918.049	10702
918.161	10725
918.272	10831
918.384	10828
918.495	10805
918.606	10592
918.717	10656
918.828	10672
918.939	10698
919.05	10493
919.161	10592
919.272	10497
919.383	10512
919.494	10615
919.604	10801
919.715	10596
919.826	10558
919.936	10561
920.047	10634
920.157	10546
920.267	10908
920.378	10668
920.488	10611
920.598	10801
920.708	11010
920.818	10797
920.928	10805
921.038	10999
921.148	10915
921.258	10656
921.368	10550
921.477	10466
921.587	10443
921.697	10459
921.806	10459
921.916	10318
922.025	10188
922.134	10207
922.244	10120
922.353	10101
922.462	10059
922.571	10032
922.68	9854
922.789	9766
922.898	9930
923.007	9743
923.116	9895
923.224	9911
923.333	9857
923.442	9759
923.55	9660
923.659	9751
923.767	9865
923.876	9641
923.984	9743
924.092	9701
924.201	9770
924.309	9724
924.417	9686
924.525	9720
924.633	9713
924.741	10531
924.849	9542
924.956	9652
925.064	9519
925.172	9389
925.279	9481
925.387	9519
925.494	9450
925.602	9633
925.709	9576
925.816	9420
925.924	9447
926.031	9591
926.138	9572
926.245	9599
926.352	9462
926.459	9530
926.566	9603
926.673	9496
926.779	9321
926.886	9310
926.993	9249
927.099	9226
927.206	9146
927.312	9097
927.419	9169
927.525	9169
927.631	9222
927.737	9119
927.843	9074
927.95	9032
928.056	9043
928.162	9138
928.267	9188
928.373	9717
928.479	9089
928.585	8929
928.69	9089
928.796	9028
928.901	8998
929.007	8872
929.112	8982
929.218	8937
929.323	8910
929.428	8845
929.533	9043
929.638	8758
929.743	8838
929.848	8815
929.953	8929
930.058	8720
930.163	8701
930.267	8750
930.372	8781
930.477	8617
930.581	8876
930.685	8735
930.79	8579
930.894	8617
930.998	8590
931.103	8731
931.207	8351
931.311	8324
931.415	8256
931.519	8123
931.623	8088
