Data from test_V78500241_1484.txt Node
Date: Fri Mar 25 14:44:02 CST 2022
User: usil
Spectrometer: V785-0024
Trigger mode: 0
Integration Time (sec): 4.000000E-1
Scans to average: 1
Nonlinearity correction enabled: false
Boxcar width: 0
Storing dark spectrum: false
XAxis mode: Wavelengths
Number of Pixels in Spectrum: 1024
>>>>>Begin Spectral Data<<<<<
801.071	22504
801.214	22276
801.356	22120
801.499	22002
801.641	21831
801.783	21793
801.926	21831
802.068	21854
802.211	21622
802.353	21603
802.496	21302
802.638	21374
802.78	21348
802.923	21214
803.065	21009
803.208	21100
803.35	21112
803.492	21211
803.635	21268
803.777	21199
803.919	21310
804.061	21424
804.204	21214
804.346	21112
804.488	20956
804.63	21096
804.773	21055
804.915	21047
805.057	21108
805.199	21039
805.341	21070
805.483	21165
805.626	21245
805.768	21036
805.91	21017
806.052	21077
806.194	20994
806.336	21184
806.478	21138
806.62	21024
806.762	21062
806.904	21294
807.046	21462
807.188	21462
807.33	21401
807.472	21511
807.614	21279
807.756	21348
807.898	21279
808.04	21096
808.182	21165
808.324	21241
808.465	21256
808.607	21416
808.749	21572
808.891	21846
809.033	21819
809.174	21713
809.316	21595
809.458	21663
809.6	21553
809.741	21526
809.883	21538
810.025	21717
810.166	21614
810.308	21781
810.45	21576
810.591	21435
810.733	21428
810.875	21298
811.016	21302
811.158	21157
811.299	21344
811.441	21454
811.582	21344
811.724	21245
811.865	21329
812.007	21306
812.148	21214
812.29	21393
812.431	21424
812.573	21690
812.714	21618
812.855	21728
812.997	21781
813.138	21918
813.279	21797
813.421	21793
813.562	21679
813.703	21542
813.845	21420
813.986	21070
814.127	20842
814.268	20941
814.41	20811
814.551	20834
814.692	20838
814.833	20697
814.974	20887
815.115	20773
815.256	20518
815.397	20568
815.539	20587
815.68	20423
815.821	20419
815.962	20537
816.103	20503
816.244	20492
816.385	20233
816.526	20298
816.666	20138
816.807	19921
816.948	20077
817.089	19993
817.23	19936
817.371	20046
817.512	20008
817.653	19982
817.793	19944
817.934	19967
818.075	19940
818.216	19864
818.356	19894
818.497	19784
818.638	19582
818.778	19685
818.919	19674
819.06	19708
819.2	19689
819.341	19803
819.481	19765
819.622	19970
819.762	20195
819.903	19944
820.043	19997
820.184	19967
820.324	19978
820.465	19955
820.605	19928
820.746	19925
820.886	19719
821.026	19887
821.167	19864
821.307	19963
821.447	19753
821.588	19670
821.728	19662
821.868	19415
822.008	19331
822.149	19240
822.289	19346
822.429	19099
822.569	19027
822.709	18935
822.849	18837
822.99	18840
823.13	18802
823.27	18745
823.41	18684
823.55	18521
823.69	18589
823.83	18635
823.97	18486
824.11	18315
824.25	18338
824.389	18471
824.529	18422
824.669	18395
824.809	18479
824.949	18452
825.089	18410
825.228	18315
825.368	18213
825.508	18205
825.648	18194
825.787	18380
825.927	18315
826.067	18174
826.206	18174
826.346	18159
826.485	18144
826.625	18091
826.765	18209
826.904	18159
827.044	17946
827.183	17863
827.323	17767
827.462	17798
827.601	17813
827.741	17885
827.88	17809
828.02	17775
828.159	17843
828.298	17874
828.437	17939
828.577	17889
828.716	17954
828.855	17904
828.994	17699
829.134	17611
829.273	17642
829.412	17547
829.551	17566
829.69	17532
829.829	17592
829.968	17680
830.107	17554
830.246	17627
830.385	17676
830.524	17471
830.663	17387
830.802	17349
830.941	17242
831.08	17246
831.219	17292
831.357	17200
831.496	17284
831.635	17113
831.774	17124
831.913	17029
832.051	16927
832.19	16995
832.329	17060
832.467	16904
832.606	16881
832.744	16828
832.883	16885
833.022	16911
833.16	16904
833.299	16930
833.437	16896
833.576	16995
833.714	16972
833.852	16953
833.991	16987
834.129	17075
834.267	16995
834.406	16957
834.544	17006
834.682	16961
834.821	16850
834.959	17155
835.097	16949
835.235	16972
835.373	16831
835.511	17006
835.65	16809
835.788	16816
835.926	16630
836.064	16687
836.202	16626
836.34	16858
836.478	17056
836.615	16786
836.753	16854
836.891	17048
837.029	16866
837.167	16850
837.305	16778
837.443	16748
837.58	16618
837.718	16698
837.856	16717
837.993	16592
838.131	16748
838.269	16489
838.406	16637
838.544	16611
838.681	16474
838.819	16341
838.956	16185
839.094	16078
839.231	16367
839.369	16386
839.506	16778
839.643	16447
839.781	16204
839.918	16120
840.055	16223
840.193	16196
840.33	16154
840.467	16268
840.604	16265
840.742	16542
840.879	16147
841.016	16055
841.153	16143
841.29	16375
841.427	16329
841.564	16261
841.701	16223
841.838	16169
841.975	16112
842.112	16185
842.249	16036
842.385	15888
842.522	16200
842.659	16021
842.796	15956
842.933	16017
843.069	15979
843.206	15937
843.343	16010
843.479	16036
843.616	16051
843.752	15888
843.889	15865
844.025	15926
844.162	15797
844.298	15823
844.435	15804
844.571	15739
844.708	15835
844.844	15960
844.98	15899
845.117	15876
845.253	15743
845.389	15793
845.525	15789
845.661	15720
845.798	15770
845.934	15854
846.07	15857
846.206	15937
846.342	15930
846.478	15652
846.614	15572
846.75	15329
846.886	15412
847.022	15412
847.158	15363
847.294	15382
847.429	15298
847.565	15351
847.701	15622
847.837	15123
847.972	15074
848.108	15211
848.244	15218
848.379	14941
848.515	14929
848.65	14944
848.786	14998
848.921	14986
849.057	15100
849.192	15028
849.328	15047
849.463	15017
849.598	14910
849.734	14857
849.869	14785
850.004	14667
850.14	14640
850.275	14674
850.41	14758
850.545	14701
850.68	14682
850.815	14762
850.95	14625
851.085	14891
851.22	14861
851.355	14712
851.49	14746
851.625	14667
851.76	14667
851.895	14587
852.03	14693
852.165	14697
852.299	14693
852.434	14762
852.569	14697
852.703	14716
852.838	14830
852.973	14944
853.107	14845
853.242	14739
853.376	14610
853.511	14564
853.645	14526
853.78	14689
853.914	14552
854.048	14507
854.183	14514
854.317	14621
854.451	14716
854.585	14507
854.72	14640
854.854	14655
854.988	14423
855.122	14629
855.256	14419
855.39	14545
855.524	14613
855.658	14499
855.792	14632
855.926	14629
856.06	14648
856.194	14689
856.327	14644
856.461	14514
856.595	14454
856.729	14632
856.862	14724
856.996	14716
857.13	14663
857.263	14727
857.397	14731
857.53	14613
857.664	14629
857.797	14674
857.931	14686
858.064	14651
858.197	14617
858.331	14598
858.464	14594
858.597	14377
858.731	14579
858.864	14545
858.997	14457
859.13	14697
859.263	14533
859.396	14606
859.529	14659
859.662	14640
859.795	14575
859.928	14571
860.061	14750
860.194	14731
860.327	14682
860.46	14640
860.592	14693
860.725	14735
860.858	14773
860.99	14575
861.123	14579
861.256	14564
861.388	14560
861.521	15097
861.653	14431
861.786	14408
861.918	14419
862.05	14514
862.183	14503
862.315	14659
862.447	14682
862.58	14526
862.712	14339
862.844	14336
862.976	14419
863.108	14393
863.24	14807
863.372	14278
863.504	14404
863.636	14332
863.768	14351
863.9	14320
864.032	14294
864.164	14412
864.296	14358
864.428	14526
864.559	14446
864.691	14450
864.823	14419
864.954	14446
865.086	14305
865.217	14393
865.349	14320
865.48	14248
865.612	14396
865.743	14511
865.875	14377
866.006	14400
866.137	14278
866.269	14351
866.4	14366
866.531	14374
866.662	14320
866.793	14294
866.924	14259
867.055	14377
867.186	14275
867.317	14362
867.448	14195
867.579	14339
867.71	14244
867.841	14275
867.972	14320
868.103	14355
868.233	14332
868.364	14282
868.495	14339
868.625	14564
868.756	14739
868.886	14488
869.017	14651
869.147	14712
869.278	14716
869.408	14621
869.539	14503
869.669	14686
869.799	14560
869.929	14693
870.06	14689
870.19	14868
870.32	14857
870.45	14880
870.58	14982
870.71	15074
870.84	15100
870.97	15047
871.1	14918
871.23	15169
871.36	15184
871.489	15089
871.619	15138
871.749	15089
871.879	15218
872.008	15283
872.138	15226
872.267	15112
872.397	14952
872.526	14994
872.656	15108
872.785	14975
872.915	15275
873.044	15237
873.173	15272
873.303	15252
873.432	15287
873.561	15233
873.69	15249
873.819	15119
873.948	15317
874.077	15214
874.206	15157
874.335	15287
874.464	15348
874.593	15488
874.722	15504
874.851	15538
874.979	15644
875.108	15564
875.237	15401
875.365	15431
875.494	15447
875.623	15641
875.751	15641
875.88	15530
876.008	15629
876.136	15770
876.265	15880
876.393	16017
876.521	16074
876.65	15972
876.778	16036
876.906	15911
877.034	15907
877.162	15915
877.29	15835
877.418	16006
877.546	16059
877.674	16090
877.802	15945
877.93	15979
878.058	16029
878.185	15930
878.313	15956
878.441	15968
878.568	15838
878.696	15857
878.824	16006
878.951	16002
879.079	16116
879.206	16322
879.333	16310
879.461	16131
879.588	16185
879.715	16261
879.842	16417
879.97	16120
880.097	15899
880.224	15949
880.351	15953
880.478	15915
880.605	15755
880.732	15747
880.859	16017
880.986	15857
881.112	15884
881.239	15793
881.366	15542
881.493	15519
881.619	15393
881.746	15500
881.872	15553
881.999	15534
882.125	15492
882.252	15488
882.378	15553
882.505	15671
882.631	15466
882.757	15355
882.883	15348
883.01	15367
883.136	15302
883.262	15214
883.388	15135
883.514	15336
883.64	15378
883.766	15283
883.892	15020
884.018	15097
884.143	15283
884.269	15378
884.395	15005
884.52	14883
884.646	15104
884.772	14975
884.897	14891
885.023	14948
885.148	15157
885.274	15116
885.399	15081
885.524	15017
885.65	15005
885.775	15066
885.9	15043
886.025	15047
886.15	15055
886.275	14952
886.4	14845
886.525	14998
886.65	14804
886.775	14952
886.9	15108
887.025	15142
887.149	15081
887.274	14872
887.399	14815
887.523	14758
887.648	14720
887.773	14762
887.897	14876
888.021	14895
888.146	14819
888.27	14891
888.395	15005
888.519	14853
888.643	14777
888.767	14899
888.891	14754
889.015	14686
889.139	14811
889.263	14617
889.387	14826
889.511	14895
889.635	14811
889.759	14629
889.883	14693
890.006	14785
890.13	14739
890.254	14499
890.377	14636
890.501	14518
890.624	14522
890.748	14568
890.871	14362
890.995	14286
891.118	14267
891.241	14355
891.364	14419
891.488	14446
891.611	14370
891.734	14400
891.857	14377
891.98	14320
892.103	14404
892.226	14328
892.349	14320
892.471	14164
892.594	14412
892.717	14355
892.839	14309
892.962	14377
893.085	14522
893.207	14336
893.33	14294
893.452	14267
893.575	14423
893.697	14412
893.819	14568
893.941	14518
894.064	14495
894.186	14336
894.308	14240
894.43	14518
894.552	14450
894.674	14594
894.796	14301
894.918	14423
895.04	14336
895.161	14473
895.283	14495
895.405	14400
895.526	14351
895.648	14476
895.769	14465
895.891	14530
896.012	14640
896.134	14533
896.255	14568
896.376	14606
896.498	14587
896.619	14552
896.74	14495
896.861	14583
896.982	14750
897.103	15074
897.224	14842
897.345	14823
897.466	14701
897.587	14788
897.708	14921
897.828	14765
897.949	14739
898.07	14610
898.19	14716
898.311	14944
898.431	14708
898.552	14918
898.672	14902
898.792	14921
898.913	14895
899.033	14758
899.153	14739
899.273	14594
899.393	14864
899.513	14689
899.633	14651
899.753	14842
899.873	14682
899.993	14872
900.113	14785
900.232	14754
900.352	14735
900.472	14632
900.591	14545
900.711	14610
900.83	14526
900.95	14629
901.069	14613
901.189	14488
901.308	14355
901.427	14351
901.546	14282
901.665	14233
901.784	14259
901.904	14153
902.023	14077
902.141	13970
902.26	13837
902.379	13932
902.498	13826
902.617	13887
902.735	13921
902.854	13761
902.973	13856
903.091	13556
903.21	13578
903.328	13548
903.446	13483
903.565	13419
903.683	13453
903.801	13285
903.919	13381
904.038	13335
904.156	13274
904.274	13255
904.392	13179
904.51	13179
904.627	13164
904.745	13251
904.863	13217
904.981	13053
905.098	12920
905.216	12829
905.334	12913
905.451	12920
905.569	12844
905.686	12905
905.803	12970
905.921	12749
906.038	12795
906.155	12741
906.272	12601
906.389	12802
906.506	12433
906.623	12483
906.74	12403
906.857	12426
906.974	12353
907.091	12582
907.208	12601
907.324	12433
907.441	12418
907.557	12205
907.674	12201
907.79	12178
907.907	12186
908.023	12205
908.139	12171
908.256	12175
908.372	12091
908.488	12140
908.604	12019
908.72	12007
908.836	11961
908.952	11942
909.068	11901
909.184	12095
909.3	12053
909.415	12045
909.531	11897
909.647	11771
909.762	11748
909.878	11718
909.993	11733
910.108	11695
910.224	11741
910.339	11703
910.454	11596
910.57	11608
910.685	11558
910.8	11737
910.915	11771
911.03	11619
911.145	11528
911.259	11433
911.374	11425
911.489	11334
911.604	11239
911.718	11140
911.833	11189
911.947	10980
912.062	11025
912.176	11151
912.291	11170
912.405	11151
912.519	11429
912.633	11444
912.748	11296
912.862	11223
912.976	11014
913.09	10927
913.204	10999
913.318	11060
913.431	11140
913.545	11181
913.659	11212
913.772	11014
913.886	10896
914	10923
914.113	11045
914.226	11067
914.34	10999
914.453	10850
914.566	11003
914.68	10885
914.793	10862
914.906	10763
915.019	10550
915.132	10607
915.245	10664
915.358	10759
915.47	10714
915.583	10679
915.696	10744
915.809	10774
915.921	10820
916.034	10607
916.146	10691
916.259	10546
916.371	10771
916.483	10679
916.595	10565
916.708	10584
916.82	10607
916.932	10603
917.044	10497
917.156	10455
917.268	10405
917.38	10443
917.491	10474
917.603	10497
917.715	10626
917.826	10660
917.938	10455
918.049	10344
918.161	10554
918.272	10630
918.384	10637
918.495	10474
918.606	10306
918.717	10310
918.828	10382
918.939	10409
919.05	10230
919.161	10386
919.272	10154
919.383	10295
919.494	10363
919.604	10573
919.715	10447
919.826	10268
919.936	10318
920.047	10409
920.157	10390
920.267	10577
920.378	10489
920.488	10390
920.598	10577
920.708	10698
920.818	10675
920.928	10561
921.038	10698
921.148	10744
921.258	10428
921.368	10295
921.477	10306
921.587	10177
921.697	10139
921.806	10306
921.916	10109
922.025	9994
922.134	9888
922.244	9846
922.353	9953
922.462	9812
922.571	9728
922.68	9580
922.789	9633
922.898	9656
923.007	9584
923.116	9629
923.224	9568
923.333	9576
923.442	9553
923.55	9485
923.659	9545
923.767	9614
923.876	9458
923.984	9553
924.092	9462
924.201	9439
924.309	9530
924.417	9523
924.525	9477
924.633	9431
924.741	10379
924.849	9253
924.956	9439
925.064	9279
925.172	9245
925.279	9283
925.387	9275
925.494	9222
925.602	9473
925.709	9321
925.816	9188
925.924	9329
926.031	9332
926.138	9344
926.245	9378
926.352	9237
926.459	9287
926.566	9367
926.673	9313
926.779	9112
926.886	9131
926.993	9062
927.099	8971
927.206	8982
927.312	8979
927.419	8982
927.525	8929
927.631	9005
927.737	8925
927.843	8834
927.95	8727
928.056	8918
928.162	8967
928.267	9013
928.373	9462
928.479	8937
928.585	8750
928.69	8933
928.796	8883
928.901	8815
929.007	8705
929.112	8861
929.218	8735
929.323	8705
929.428	8705
929.533	8845
929.638	8625
929.743	8655
929.848	8773
929.953	8701
930.058	8625
930.163	8446
930.267	8530
930.372	8594
930.477	8389
930.581	8621
930.685	8575
930.79	8389
930.894	8393
930.998	8400
931.103	8583
931.207	8164
931.311	8123
931.415	8142
931.519	7909
931.623	7879
