Data from test_V78500241_288.txt Node
Date: Fri Mar 25 14:35:43 CST 2022
User: usil
Spectrometer: V785-0024
Trigger mode: 0
Integration Time (sec): 4.000000E-1
Scans to average: 1
Nonlinearity correction enabled: false
Boxcar width: 0
Storing dark spectrum: false
XAxis mode: Wavelengths
Number of Pixels in Spectrum: 1024
>>>>>Begin Spectral Data<<<<<
801.071	27355
801.214	27096
801.356	26925
801.499	26872
801.641	26659
801.783	26609
801.926	26644
802.068	26689
802.211	26617
802.353	26480
802.496	26305
802.638	26320
802.78	26336
802.923	26142
803.065	26107
803.208	26294
803.35	26225
803.492	26320
803.635	26370
803.777	26275
803.919	26339
804.061	26640
804.204	26195
804.346	26168
804.488	26084
804.63	26305
804.773	26145
804.915	26214
805.057	26122
805.199	26187
805.341	26332
805.483	26358
805.626	26221
805.768	26202
805.91	26183
806.052	26320
806.194	26187
806.336	26583
806.478	26305
806.62	26149
806.762	26328
806.904	26453
807.046	26705
807.188	26606
807.33	26609
807.472	26636
807.614	26488
807.756	26598
807.898	26374
808.04	26393
808.182	26465
808.324	26552
808.465	26427
808.607	26697
808.749	26640
808.891	26967
809.033	27062
809.174	26906
809.316	26880
809.458	26815
809.6	26693
809.741	26727
809.883	26864
810.025	27047
810.166	27039
810.308	26918
810.45	26815
810.591	26716
810.733	26549
810.875	26594
811.016	26541
811.158	26412
811.299	26663
811.441	26762
811.582	26640
811.724	26552
811.865	26629
812.007	26545
812.148	26590
812.29	26602
812.431	26648
812.573	26754
812.714	26914
812.855	26967
812.997	27085
813.138	27310
813.279	27051
813.421	27096
813.562	27070
813.703	26861
813.845	26693
813.986	26549
814.127	26286
814.268	26134
814.41	26225
814.551	26058
814.692	26355
814.833	26126
814.974	26142
815.115	26115
815.256	26016
815.397	26008
815.539	26069
815.68	25951
815.821	25799
815.962	25970
816.103	25921
816.244	25696
816.385	25521
816.526	25674
816.666	25365
816.807	25240
816.948	25316
817.089	25320
817.23	25339
817.371	25213
817.512	25346
817.653	25217
817.793	25244
817.934	25179
818.075	25251
818.216	25247
818.356	25164
818.497	25164
818.638	24962
818.778	24954
818.919	24863
819.06	25069
819.2	25008
819.341	25110
819.481	25152
819.622	25270
819.762	25575
819.903	25438
820.043	25388
820.184	25156
820.324	25236
820.465	25396
820.605	25244
820.746	25236
820.886	25088
821.026	25095
821.167	25099
821.307	25320
821.447	25179
821.588	25000
821.728	24985
821.868	24768
822.008	24696
822.149	24703
822.289	24593
822.429	24353
822.569	24174
822.709	24117
822.849	24106
822.99	24087
823.13	23996
823.27	24038
823.41	23821
823.55	23764
823.69	23843
823.83	23908
823.97	23927
824.11	23577
824.25	23589
824.389	23596
824.529	23680
824.669	23608
824.809	23592
824.949	23627
825.089	23726
825.228	23737
825.368	23307
825.508	23512
825.648	23421
825.787	23360
825.927	23471
826.067	23334
826.206	23471
826.346	23444
826.485	23471
826.625	23334
826.765	23604
826.904	23337
827.044	23109
827.183	23124
827.323	23056
827.462	23083
827.601	23280
827.741	23033
827.88	23113
828.02	23022
828.159	22972
828.298	23037
828.437	23151
828.577	22938
828.716	23204
828.855	22991
828.994	22733
829.134	22934
829.273	22850
829.412	22759
829.551	22672
829.69	22733
829.829	22649
829.968	22782
830.107	22767
830.246	22778
830.385	22618
830.524	22710
830.663	22538
830.802	22417
830.941	22398
831.08	22424
831.219	22398
831.357	22413
831.496	22561
831.635	22306
831.774	22261
831.913	22200
832.051	22128
832.19	22070
832.329	22143
832.467	21899
832.606	21991
832.744	21880
832.883	21975
833.022	21895
833.16	21934
833.299	21994
833.437	21934
833.576	21892
833.714	21945
833.852	22109
833.991	22181
834.129	22029
834.267	21991
834.406	21991
834.544	22051
834.682	21888
834.821	21873
834.959	22082
835.097	21842
835.235	21998
835.373	21838
835.511	21975
835.65	21895
835.788	21720
835.926	21720
836.064	21663
836.202	21637
836.34	21846
836.478	21876
836.615	21739
836.753	21876
836.891	21968
837.029	21903
837.167	21652
837.305	21610
837.443	21694
837.58	21629
837.718	21679
837.856	21705
837.993	21507
838.131	21720
838.269	21428
838.406	21717
838.544	21466
838.681	21367
838.819	21321
838.956	21024
839.094	21108
839.231	21119
839.369	21199
839.506	21492
839.643	21348
839.781	21096
839.918	20994
840.055	21017
840.193	21093
840.33	20952
840.467	20975
840.604	21047
840.742	21275
840.879	20830
841.016	20880
841.153	20963
841.29	21096
841.427	21017
841.564	21005
841.701	21081
841.838	20876
841.975	20963
842.112	20800
842.249	20807
842.385	20708
842.522	21020
842.659	20777
842.796	20727
842.933	20716
843.069	20674
843.206	20659
843.343	20743
843.479	20625
843.616	20731
843.752	20507
843.889	20514
844.025	20651
844.162	20511
844.298	20575
844.435	20499
844.571	20484
844.708	20427
844.844	20492
844.98	20518
845.117	20632
845.253	20393
845.389	20366
845.525	20408
845.661	20320
845.798	20214
845.934	20438
846.07	20282
846.206	20396
846.342	20484
846.478	20317
846.614	20069
846.75	19982
846.886	20005
847.022	20065
847.158	19982
847.294	19879
847.429	19928
847.565	19890
847.701	20157
847.837	19681
847.972	19731
848.108	19727
848.244	19696
848.379	19506
848.515	19495
848.65	19499
848.786	19487
848.921	19571
849.057	19552
849.192	19609
849.328	19605
849.463	19529
849.598	19384
849.734	19468
849.869	19400
850.004	19274
850.14	19274
850.275	19244
850.41	19129
850.545	19217
850.68	19293
850.815	19232
850.95	19228
851.085	19411
851.22	19285
851.355	19274
851.49	19156
851.625	19206
851.76	19110
851.895	19034
852.03	19175
852.165	19217
852.299	19289
852.434	19251
852.569	19247
852.703	19057
852.838	19343
852.973	19312
853.107	19403
853.242	19221
853.376	19114
853.511	18981
853.645	19027
853.78	19110
853.914	19023
854.048	19126
854.183	18977
854.317	19076
854.451	19129
854.585	19004
854.72	19008
854.854	19076
854.988	18977
855.122	18875
855.256	18817
855.39	19000
855.524	18905
855.658	19057
855.792	19076
855.926	18977
856.06	19084
856.194	19050
856.327	19091
856.461	19050
856.595	19008
856.729	19053
856.862	19175
856.996	19004
857.13	19053
857.263	19099
857.397	19095
857.53	18966
857.664	19031
857.797	19057
857.931	19000
858.064	19137
858.197	19015
858.331	18905
858.464	18989
858.597	18795
858.731	18821
858.864	18924
858.997	18905
859.13	18951
859.263	18981
859.396	18973
859.529	18875
859.662	18859
859.795	18958
859.928	18817
860.061	19114
860.194	19129
860.327	18962
860.46	18795
860.592	19095
860.725	19103
860.858	18951
860.99	18947
861.123	18791
861.256	18787
861.388	18753
861.521	19480
861.653	18810
861.786	18669
861.918	18726
862.05	18932
862.183	19004
862.315	19129
862.447	19053
862.58	19023
862.712	18787
862.844	18635
862.976	18757
863.108	18753
863.24	19027
863.372	18612
863.504	18757
863.636	18585
863.768	18585
863.9	18604
864.032	18627
864.164	18661
864.296	18658
864.428	18779
864.559	18688
864.691	18795
864.823	18654
864.954	18722
865.086	18677
865.217	18544
865.349	18403
865.48	18631
865.612	18601
865.743	18810
865.875	18467
866.006	18422
866.137	18582
866.269	18608
866.4	18536
866.531	18509
866.662	18525
866.793	18475
866.924	18559
867.055	18635
867.186	18566
867.317	18517
867.448	18448
867.579	18578
867.71	18441
867.841	18456
867.972	18528
868.103	18506
868.233	18589
868.364	18395
868.495	18513
868.625	18749
868.756	18848
868.886	18700
869.017	18703
869.147	18897
869.278	18844
869.408	18726
869.539	18776
869.669	18703
869.799	18749
869.929	18795
870.06	18798
870.19	19038
870.32	19095
870.45	18958
870.58	19156
870.71	19133
870.84	19247
870.97	19114
871.1	19137
871.23	19365
871.36	19335
871.489	19206
871.619	19327
871.749	19263
871.879	19419
872.008	19312
872.138	19316
872.267	19293
872.397	19278
872.526	19236
872.656	19050
872.785	19194
872.915	19430
873.044	19430
873.173	19495
873.303	19434
873.432	19304
873.561	19468
873.69	19312
873.819	19327
873.948	19426
874.077	19381
874.206	19331
874.335	19384
874.464	19601
874.593	19647
874.722	19616
874.851	19734
874.979	19628
875.108	19715
875.237	19643
875.365	19559
875.494	19620
875.623	19696
875.751	19483
875.88	19689
876.008	19811
876.136	19871
876.265	19986
876.393	20244
876.521	20050
876.65	20062
876.778	20054
876.906	19982
877.034	19944
877.162	20058
877.29	19902
877.418	20065
877.546	19978
877.674	20012
877.802	19986
877.93	20005
878.058	20024
878.185	19936
878.313	20001
878.441	20035
878.568	19879
878.696	19925
878.824	20081
878.951	20115
879.079	20206
879.206	20389
879.333	20263
879.461	20225
879.588	20290
879.715	20309
879.842	20374
879.97	20172
880.097	19909
880.224	19898
880.351	19951
880.478	19925
880.605	19860
880.732	19822
880.859	20081
880.986	19841
881.112	19993
881.239	19826
881.366	19700
881.493	19620
881.619	19472
881.746	19613
881.872	19457
881.999	19453
882.125	19472
882.252	19537
882.378	19445
882.505	19624
882.631	19320
882.757	19270
882.883	19335
883.01	19190
883.136	19266
883.262	19107
883.388	19072
883.514	19255
883.64	19198
883.766	19209
883.892	19023
884.018	19129
884.143	19168
884.269	19152
884.395	18928
884.52	18882
884.646	18924
884.772	18810
884.897	18817
885.023	18840
885.148	19012
885.274	19133
885.399	18977
885.524	18779
885.65	18977
885.775	18985
885.9	18913
886.025	18970
886.15	18886
886.275	18840
886.4	18795
886.525	18856
886.65	18745
886.775	18848
886.9	19034
887.025	19072
887.149	18825
887.274	18776
887.399	18703
887.523	18661
887.648	18593
887.773	18456
887.897	18711
888.021	18696
888.146	18642
888.27	18700
888.395	18650
888.519	18764
888.643	18722
888.767	18745
888.891	18608
889.015	18448
889.139	18494
889.263	18410
889.387	18525
889.511	18620
889.635	18525
889.759	18422
889.883	18574
890.006	18532
890.13	18563
890.254	18296
890.377	18475
890.501	18167
890.624	18346
890.748	18388
890.871	18125
890.995	18125
891.118	17980
891.241	18258
891.364	18057
891.488	18140
891.611	18072
891.734	18079
891.857	18205
891.98	18091
892.103	18102
892.226	18053
892.349	18019
892.471	17889
892.594	17969
892.717	18045
892.839	17920
892.962	17961
893.085	18019
893.207	17927
893.33	17889
893.452	17920
893.575	18045
893.697	17939
893.819	18121
893.941	18140
894.064	18060
894.186	17958
894.308	17954
894.43	18087
894.552	18087
894.674	18049
894.796	17996
894.918	17992
895.04	17969
895.161	17988
895.283	18015
895.405	17988
895.526	17939
895.648	17866
895.769	18053
895.891	18053
896.012	18178
896.134	18064
896.255	18228
896.376	17954
896.498	18098
896.619	18182
896.74	18163
896.861	18136
896.982	18437
897.103	18490
897.224	18395
897.345	18346
897.466	18380
897.587	18323
897.708	18490
897.828	18319
897.949	18395
898.07	18228
898.19	18262
898.311	18372
898.431	18338
898.552	18403
898.672	18494
898.792	18452
898.913	18365
899.033	18178
899.153	18182
899.273	17927
899.393	18121
899.513	18053
899.633	18087
899.753	18072
899.873	18003
899.993	18079
900.113	18053
900.232	18140
900.352	18026
900.472	17874
900.591	17980
900.711	17977
900.83	17969
900.95	17992
901.069	18003
901.189	17855
901.308	17665
901.427	17562
901.546	17516
901.665	17505
901.784	17573
901.904	17455
902.023	17353
902.141	17170
902.26	17075
902.379	17277
902.498	17086
902.617	17113
902.735	17235
902.854	17075
902.973	17052
903.091	16900
903.21	16774
903.328	16706
903.446	16691
903.565	16637
903.683	16577
903.801	16550
903.919	16470
904.038	16554
904.156	16443
904.274	16394
904.392	16276
904.51	16295
904.627	16329
904.745	16356
904.863	16443
904.981	16101
905.098	16055
905.216	16067
905.334	15991
905.451	16051
905.569	16029
905.686	16051
905.803	15903
905.921	15842
906.038	15987
906.155	15831
906.272	15686
906.389	15682
906.506	15549
906.623	15561
906.74	15591
906.857	15401
906.974	15466
907.091	15561
907.208	15606
907.324	15564
907.441	15447
907.557	15313
907.674	15306
907.79	15272
907.907	15310
908.023	15252
908.139	15245
908.256	15180
908.372	15127
908.488	15039
908.604	14925
908.72	14944
908.836	15020
908.952	14990
909.068	14971
909.184	15028
909.3	14994
909.415	15001
909.531	15039
909.647	14663
909.762	14758
909.878	14632
909.993	14682
910.108	14701
910.224	14587
910.339	14632
910.454	14564
910.57	14549
910.685	14377
910.8	14629
910.915	14541
911.03	14469
911.145	14381
911.259	14275
911.374	14233
911.489	14210
911.604	14206
911.718	13978
911.833	14077
911.947	13864
912.062	13925
912.176	13986
912.291	13936
912.405	13986
912.519	14145
912.633	14229
912.748	13989
912.862	14043
912.976	13849
913.09	13776
913.204	13887
913.318	13803
913.431	13993
913.545	13875
913.659	13993
913.772	13731
913.886	13700
914	13636
914.113	13738
914.226	13807
914.34	13655
914.453	13639
914.566	13769
914.68	13601
914.793	13544
914.906	13354
915.019	13373
915.132	13297
915.245	13285
915.358	13468
915.47	13301
915.583	13419
915.696	13460
915.809	13537
915.921	13529
916.034	13324
916.146	13324
916.259	13213
916.371	13403
916.483	13266
916.595	13179
916.708	13293
916.82	13209
916.932	13160
917.044	13183
917.156	13156
917.268	13050
917.38	13160
917.491	13061
917.603	13031
917.715	13133
917.826	13114
917.938	13012
918.049	12966
918.161	13072
918.272	13122
918.384	13118
918.495	13034
918.606	12905
918.717	12787
918.828	12894
918.939	12920
919.05	12829
919.161	12821
919.272	12658
919.383	12677
919.494	12962
919.604	13000
919.715	12932
919.826	12760
919.936	12749
920.047	12894
920.157	12810
920.267	12973
920.378	12817
920.488	12787
920.598	12962
920.708	13084
920.818	13034
920.928	12966
921.038	13129
921.148	13080
921.258	12909
921.368	12734
921.477	12665
921.587	12677
921.697	12547
921.806	12616
921.916	12445
922.025	12289
922.134	12296
922.244	12224
922.353	12319
922.462	12053
922.571	12136
922.68	11916
922.789	11882
922.898	11939
923.007	11840
923.116	11912
923.224	11923
923.333	11859
923.442	11760
923.55	11672
923.659	11767
923.767	11836
923.876	11733
923.984	11779
924.092	11665
924.201	11718
924.309	11733
924.417	11760
924.525	11577
924.633	11661
924.741	12551
924.849	11387
924.956	11524
925.064	11372
925.172	11349
925.279	11353
925.387	11471
925.494	11372
925.602	11524
925.709	11474
925.816	11284
925.924	11360
926.031	11528
926.138	11433
926.245	11330
926.352	11265
926.459	11421
926.566	11410
926.673	11322
926.779	11254
926.886	11185
926.993	11067
927.099	11060
927.206	11037
927.312	10961
927.419	11060
927.525	11094
927.631	11037
927.737	10938
927.843	10911
927.95	10805
928.056	10809
928.162	10877
928.267	10949
928.373	11395
928.479	11037
928.585	10736
928.69	10866
928.796	10820
928.901	10759
929.007	10649
929.112	10744
929.218	10714
929.323	10607
929.428	10634
929.533	10733
929.638	10596
929.743	10531
929.848	10607
929.953	10596
930.058	10390
930.163	10337
930.267	10329
930.372	10561
930.477	10371
930.581	10584
930.685	10394
930.79	10242
930.894	10352
930.998	10204
931.103	10337
931.207	9968
931.311	9964
931.415	9838
931.519	9671
931.623	9629
