Data from test_V78500241_2107.txt Node
Date: Fri Mar 25 14:48:23 CST 2022
User: usil
Spectrometer: V785-0024
Trigger mode: 0
Integration Time (sec): 4.000000E-1
Scans to average: 1
Nonlinearity correction enabled: false
Boxcar width: 0
Storing dark spectrum: false
XAxis mode: Wavelengths
Number of Pixels in Spectrum: 1024
>>>>>Begin Spectral Data<<<<<
801.071	22131
801.214	22074
801.356	21778
801.499	21675
801.641	21526
801.783	21405
801.926	21481
802.068	21416
802.211	21332
802.353	21264
802.496	20925
802.638	20979
802.78	21032
802.923	20887
803.065	20807
803.208	20720
803.35	20746
803.492	20868
803.635	20921
803.777	20830
803.919	20910
804.061	21169
804.204	20868
804.346	20682
804.488	20697
804.63	20716
804.773	20712
804.915	20735
805.057	20800
805.199	20651
805.341	20686
805.483	20746
805.626	20769
805.768	20640
805.91	20781
806.052	20750
806.194	20621
806.336	20914
806.478	20731
806.62	20792
806.762	20929
806.904	20933
807.046	21188
807.188	21055
807.33	21085
807.472	21020
807.614	20960
807.756	21062
807.898	20887
808.04	20746
808.182	20800
808.324	20834
808.465	20819
808.607	21001
808.749	21116
808.891	21100
809.033	21214
809.174	21230
809.316	21051
809.458	21135
809.6	21081
809.741	21184
809.883	21264
810.025	21306
810.166	21317
810.308	21176
810.45	21256
810.591	21112
810.733	21032
810.875	20952
811.016	20716
811.158	20815
811.299	20967
811.441	21043
811.582	20956
811.724	20895
811.865	20777
812.007	20864
812.148	20910
812.29	20834
812.431	21005
812.573	21218
812.714	21351
812.855	21416
812.997	21386
813.138	21500
813.279	21439
813.421	21462
813.562	21203
813.703	21066
813.845	20971
813.986	20556
814.127	20575
814.268	20438
814.41	20434
814.551	20370
814.692	20442
814.833	20294
814.974	20336
815.115	20301
815.256	20278
815.397	20225
815.539	20240
815.68	20134
815.821	20035
815.962	20039
816.103	20088
816.244	20035
816.385	19932
816.526	19791
816.666	19575
816.807	19540
816.948	19567
817.089	19628
817.23	19643
817.371	19559
817.512	19700
817.653	19559
817.793	19525
817.934	19548
818.075	19651
818.216	19628
818.356	19445
818.497	19358
818.638	19289
818.778	19304
818.919	19316
819.06	19270
819.2	19377
819.341	19422
819.481	19441
819.622	19567
819.762	19757
819.903	19696
820.043	19590
820.184	19586
820.324	19506
820.465	19616
820.605	19559
820.746	19445
820.886	19403
821.026	19392
821.167	19537
821.307	19624
821.447	19411
821.588	19434
821.728	19225
821.868	19110
822.008	18962
822.149	19038
822.289	19012
822.429	18673
822.569	18578
822.709	18646
822.849	18506
822.99	18380
823.13	18517
823.27	18372
823.41	18254
823.55	18228
823.69	18281
823.83	18224
823.97	18148
824.11	18072
824.25	18038
824.389	18064
824.529	18163
824.669	17961
824.809	18186
824.949	18152
825.089	18026
825.228	18003
825.368	17927
825.508	17809
825.648	17805
825.787	17901
825.927	17783
826.067	17691
826.206	17676
826.346	17691
826.485	17783
826.625	17847
826.765	17908
826.904	17767
827.044	17589
827.183	17417
827.323	17349
827.462	17505
827.601	17433
827.741	17459
827.88	17448
828.02	17379
828.159	17539
828.298	17551
828.437	17596
828.577	17406
828.716	17570
828.855	17497
828.994	17181
829.134	17299
829.273	17284
829.412	17185
829.551	17216
829.69	17140
829.829	17227
829.968	17452
830.107	17315
830.246	17277
830.385	17079
830.524	17181
830.663	17029
830.802	16938
830.941	16816
831.08	16816
831.219	16946
831.357	16938
831.496	17136
831.635	16809
831.774	16698
831.913	16774
832.051	16668
832.19	16649
832.329	16683
832.467	16569
832.606	16481
832.744	16531
832.883	16500
833.022	16451
833.16	16504
833.299	16607
833.437	16565
833.576	16660
833.714	16577
833.852	16660
833.991	16573
834.129	16721
834.267	16771
834.406	16630
834.544	16596
834.682	16558
834.821	16599
834.959	16812
835.097	16504
835.235	16752
835.373	16497
835.511	16736
835.65	16550
835.788	16592
835.926	16428
836.064	16299
836.202	16443
836.34	16584
836.478	16504
836.615	16466
836.753	16497
836.891	16504
837.029	16565
837.167	16500
837.305	16424
837.443	16341
837.58	16348
837.718	16489
837.856	16360
837.993	16333
838.131	16398
838.269	16356
838.406	16344
838.544	16314
838.681	16128
838.819	16040
838.956	15945
839.094	15911
839.231	15907
839.369	16002
839.506	16287
839.643	16120
839.781	15926
839.918	15873
840.055	15876
840.193	15827
840.33	15953
840.467	15884
840.604	15972
840.742	16086
840.879	15774
841.016	15865
841.153	15808
841.29	16139
841.427	15892
841.564	15880
841.701	15934
841.838	15739
841.975	15854
842.112	15869
842.249	15732
842.385	15713
842.522	15888
842.659	15766
842.796	15641
842.933	15660
843.069	15686
843.206	15629
843.343	15869
843.479	15682
843.616	15671
843.752	15439
843.889	15504
844.025	15633
844.162	15428
844.298	15660
844.435	15477
844.571	15507
844.708	15473
844.844	15679
844.98	15641
845.117	15682
845.253	15595
845.389	15321
845.525	15412
845.661	15348
845.798	15199
845.934	15321
846.07	15363
846.206	15424
846.342	15386
846.478	15279
846.614	15188
846.75	15036
846.886	14979
847.022	15184
847.158	15119
847.294	15055
847.429	15100
847.565	15070
847.701	15291
847.837	14769
847.972	14785
848.108	14857
848.244	14880
848.379	14712
848.515	14682
848.65	14659
848.786	14716
848.921	14659
849.057	14636
849.192	14788
849.328	14689
849.463	14678
849.598	14610
849.734	14571
849.869	14594
850.004	14442
850.14	14575
850.275	14480
850.41	14332
850.545	14408
850.68	14393
850.815	14434
850.95	14396
851.085	14632
851.22	14552
851.355	14476
851.49	14492
851.625	14362
851.76	14362
851.895	14328
852.03	14298
852.165	14377
852.299	14427
852.434	14568
852.569	14454
852.703	14488
852.838	14541
852.973	14689
853.107	14571
853.242	14370
853.376	14362
853.511	14168
853.645	14237
853.78	14370
853.914	14347
854.048	14313
854.183	14305
854.317	14305
854.451	14393
854.585	14339
854.72	14275
854.854	14374
854.988	14290
855.122	14298
855.256	14172
855.39	14332
855.524	14412
855.658	14240
855.792	14366
855.926	14347
856.06	14389
856.194	14396
856.327	14339
856.461	14202
856.595	14240
856.729	14199
856.862	14339
856.996	14328
857.13	14336
857.263	14480
857.397	14351
857.53	14282
857.664	14412
857.797	14339
857.931	14442
858.064	14347
858.197	14374
858.331	14320
858.464	14294
858.597	14153
858.731	14240
858.864	14290
858.997	14332
859.13	14412
859.263	14427
859.396	14374
859.529	14218
859.662	14168
859.795	14324
859.928	14320
860.061	14476
860.194	14537
860.327	14309
860.46	14366
860.592	14427
860.725	14484
860.858	14404
860.99	14301
861.123	14286
861.256	14145
861.388	14370
861.521	14857
861.653	14168
861.786	14237
861.918	14100
862.05	14240
862.183	14263
862.315	14324
862.447	14320
862.58	14134
862.712	14088
862.844	13997
862.976	14115
863.108	14084
863.24	14415
863.372	13993
863.504	14142
863.636	14077
863.768	14111
863.9	14035
864.032	14103
864.164	14020
864.296	14088
864.428	14206
864.559	14218
864.691	14210
864.823	14180
864.954	14069
865.086	14088
865.217	13982
865.349	13993
865.48	14100
865.612	14024
865.743	14164
865.875	14050
866.006	14081
866.137	14073
866.269	14123
866.4	14062
866.531	13955
866.662	13932
866.793	13982
866.924	14103
867.055	14001
867.186	14050
867.317	13951
867.448	14039
867.579	13993
867.71	13925
867.841	13974
867.972	14073
868.103	13970
868.233	14069
868.364	14062
868.495	14214
868.625	14240
868.756	14324
868.886	14271
869.017	14298
869.147	14377
869.278	14476
869.408	14332
869.539	14309
869.669	14408
869.799	14385
869.929	14385
870.06	14446
870.19	14701
870.32	14492
870.45	14636
870.58	14663
870.71	14754
870.84	14777
870.97	14712
871.1	14693
871.23	14914
871.36	14918
871.489	14785
871.619	14807
871.749	14857
871.879	15070
872.008	14842
872.138	14883
872.267	14921
872.397	14735
872.526	14765
872.656	14670
872.785	14754
872.915	14990
873.044	15017
873.173	14952
873.303	15028
873.432	14902
873.561	15081
873.69	15055
873.819	15047
873.948	15017
874.077	14982
874.206	14902
874.335	14952
874.464	15188
874.593	15218
874.722	15275
874.851	15252
874.979	15355
875.108	15252
875.237	15275
875.365	15127
875.494	15199
875.623	15458
875.751	15195
875.88	15412
876.008	15405
876.136	15511
876.265	15724
876.393	15899
876.521	15705
876.65	15781
876.778	15667
876.906	15625
877.034	15599
877.162	15713
877.29	15633
877.418	15751
877.546	15762
877.674	15701
877.802	15652
877.93	15679
878.058	15644
878.185	15557
878.313	15705
878.441	15698
878.568	15610
878.696	15603
878.824	15736
878.951	15789
879.079	15869
879.206	15937
879.333	15915
879.461	15774
879.588	15835
879.715	15888
879.842	15987
879.97	15789
880.097	15488
880.224	15580
880.351	15530
880.478	15572
880.605	15538
880.732	15580
880.859	15679
880.986	15485
881.112	15557
881.239	15424
881.366	15332
881.493	15283
881.619	15226
881.746	15188
881.872	15291
881.999	15077
882.125	15192
882.252	15291
882.378	15260
882.505	15264
882.631	15195
882.757	15062
882.883	15131
883.01	15051
883.136	14918
883.262	14868
883.388	14773
883.514	15013
883.64	15116
883.766	14937
883.892	14921
884.018	14830
884.143	15127
884.269	15093
884.395	14785
884.52	14716
884.646	14731
884.772	14617
884.897	14590
885.023	14727
885.148	14883
885.274	14883
885.399	14830
885.524	14750
885.65	14743
885.775	14697
885.9	14769
886.025	14804
886.15	14762
886.275	14552
886.4	14598
886.525	14689
886.65	14651
886.775	14727
886.9	14845
887.025	14948
887.149	14659
887.274	14560
887.399	14457
887.523	14480
887.648	14412
887.773	14427
887.897	14560
888.021	14522
888.146	14499
888.27	14632
888.395	14720
888.519	14682
888.643	14617
888.767	14625
888.891	14537
889.015	14484
889.139	14393
889.263	14400
889.387	14545
889.511	14564
889.635	14549
889.759	14423
889.883	14332
890.006	14362
890.13	14457
890.254	14317
890.377	14393
890.501	14221
890.624	14130
890.748	14282
890.871	14123
890.995	14058
891.118	14046
891.241	14096
891.364	14172
891.488	14286
891.611	14111
891.734	14138
891.857	14183
891.98	14111
892.103	14210
892.226	14157
892.349	14107
892.471	13932
892.594	13986
892.717	14134
892.839	14115
892.962	14176
893.085	14168
893.207	14012
893.33	14073
893.452	14065
893.575	14161
893.697	14119
893.819	14267
893.941	14317
894.064	14187
894.186	14012
894.308	14058
894.43	14206
894.552	14206
894.674	14240
894.796	14145
894.918	14111
895.04	14168
895.161	14282
895.283	14366
895.405	14206
895.526	14214
895.648	14275
895.769	14237
895.891	14206
896.012	14282
896.134	14221
896.255	14271
896.376	14256
896.498	14210
896.619	14328
896.74	14221
896.861	14336
896.982	14590
897.103	14735
897.224	14667
897.345	14469
897.466	14423
897.587	14579
897.708	14678
897.828	14667
897.949	14533
898.07	14446
898.19	14564
898.311	14689
898.431	14514
898.552	14651
898.672	14796
898.792	14785
898.913	14674
899.033	14678
899.153	14499
899.273	14343
899.393	14377
899.513	14492
899.633	14400
899.753	14514
899.873	14480
899.993	14499
900.113	14438
900.232	14545
900.352	14434
900.472	14427
900.591	14256
900.711	14339
900.83	14362
900.95	14412
901.069	14355
901.189	14305
901.308	14130
901.427	13928
901.546	14016
901.665	14084
901.784	14012
901.904	13830
902.023	13856
902.141	13704
902.26	13586
902.379	13681
902.498	13582
902.617	13548
902.735	13594
902.854	13518
902.973	13556
903.091	13285
903.21	13320
903.328	13297
903.446	13339
903.565	13122
903.683	13247
903.801	13061
903.919	13156
904.038	13129
904.156	13027
904.274	12989
904.392	12996
904.51	13008
904.627	13091
904.745	12970
904.863	13110
904.981	12814
905.098	12623
905.216	12631
905.334	12741
905.451	12642
905.569	12582
905.686	12798
905.803	12662
905.921	12467
906.038	12585
906.155	12525
906.272	12391
906.389	12388
906.506	12262
906.623	12308
906.74	12334
906.857	12140
906.974	12289
907.091	12338
907.208	12346
907.324	12384
907.441	12175
907.557	11996
907.674	11984
907.79	11882
907.907	11977
908.023	12087
908.139	12038
908.256	11973
908.372	11935
908.488	11942
908.604	11752
908.72	11726
908.836	11741
908.952	11657
909.068	11783
909.184	11908
909.3	11733
909.415	11847
909.531	11775
909.647	11581
909.762	11539
909.878	11509
909.993	11581
910.108	11501
910.224	11509
910.339	11516
910.454	11448
910.57	11379
910.685	11330
910.8	11672
910.915	11558
911.03	11448
911.145	11250
911.259	11208
911.374	11273
911.489	11121
911.604	11079
911.718	10991
911.833	11003
911.947	10885
912.062	10831
912.176	10904
912.291	11033
912.405	11060
912.519	11216
912.633	11288
912.748	11037
912.862	11018
912.976	10938
913.09	10717
913.204	10854
913.318	10946
913.431	10987
913.545	10987
913.659	10965
913.772	10900
913.886	10733
914	10710
914.113	10881
914.226	10919
914.34	10824
914.453	10744
914.566	10820
914.68	10702
914.793	10721
914.906	10531
915.019	10428
915.132	10413
915.245	10527
915.358	10493
915.47	10474
915.583	10504
915.696	10603
915.809	10626
915.921	10656
916.034	10455
916.146	10436
916.259	10402
916.371	10596
916.483	10516
916.595	10424
916.708	10451
916.82	10516
916.932	10432
917.044	10424
917.156	10405
917.268	10318
917.38	10322
917.491	10344
917.603	10238
917.715	10417
917.826	10413
917.938	10329
918.049	10192
918.161	10356
918.272	10512
918.384	10451
918.495	10405
918.606	10219
918.717	10135
918.828	10268
918.939	10314
919.05	10112
919.161	10192
919.272	9975
919.383	10048
919.494	10299
919.604	10428
919.715	10204
919.826	10154
919.936	10181
920.047	10322
920.157	10280
920.267	10440
920.378	10265
920.488	10158
920.598	10405
920.708	10519
920.818	10409
920.928	10474
921.038	10577
921.148	10508
921.258	10276
921.368	10181
921.477	10139
921.587	10109
921.697	9991
921.806	10139
921.916	10006
922.025	9846
922.134	9827
922.244	9671
922.353	9846
922.462	9568
922.571	9705
922.68	9511
922.789	9454
922.898	9511
923.007	9428
923.116	9534
923.224	9553
923.333	9466
923.442	9401
923.55	9340
923.659	9355
923.767	9481
923.876	9279
923.984	9450
924.092	9272
924.201	9302
924.309	9393
924.417	9279
924.525	9306
924.633	9313
924.741	10219
924.849	9138
924.956	9241
925.064	9077
925.172	9081
925.279	9093
925.387	9093
925.494	9150
925.602	9245
925.709	9161
925.816	9100
925.924	9116
926.031	9218
926.138	9195
926.245	9165
926.352	9024
926.459	9184
926.566	9237
926.673	9070
926.779	9032
926.886	9051
926.993	8868
927.099	8838
927.206	8838
927.312	8750
927.419	8891
927.525	8830
927.631	8849
927.737	8754
927.843	8686
927.95	8655
928.056	8727
928.162	8849
928.267	8823
928.373	9382
928.479	8861
928.585	8610
928.69	8716
928.796	8758
928.901	8629
929.007	8568
929.112	8621
929.218	8648
929.323	8625
929.428	8560
929.533	8697
929.638	8492
929.743	8503
929.848	8579
929.953	8530
930.058	8450
930.163	8279
930.267	8404
930.372	8423
930.477	8332
930.581	8564
930.685	8427
930.79	8294
930.894	8309
930.998	8240
931.103	8457
931.207	8035
931.311	7989
931.415	8016
931.519	7708
931.623	7803
