Data from test_V78500241_1149.txt Node
Date: Fri Mar 25 14:41:43 CST 2022
User: usil
Spectrometer: V785-0024
Trigger mode: 0
Integration Time (sec): 4.000000E-1
Scans to average: 1
Nonlinearity correction enabled: false
Boxcar width: 0
Storing dark spectrum: false
XAxis mode: Wavelengths
Number of Pixels in Spectrum: 1024
>>>>>Begin Spectral Data<<<<<
801.071	22649
801.214	22421
801.356	22284
801.499	22158
801.641	21926
801.783	21899
801.926	21899
802.068	21861
802.211	21800
802.353	21778
802.496	21507
802.638	21416
802.78	21386
802.923	21332
803.065	21241
803.208	21138
803.35	21165
803.492	21408
803.635	21412
803.777	21207
803.919	21317
804.061	21629
804.204	21203
804.346	21154
804.488	21211
804.63	21214
804.773	21203
804.915	21192
805.057	21412
805.199	21157
805.341	21340
805.483	21329
805.626	21195
805.768	21138
805.91	21252
806.052	21142
806.194	21176
806.336	21424
806.478	21180
806.62	21192
806.762	21207
806.904	21469
807.046	21572
807.188	21542
807.33	21606
807.472	21606
807.614	21511
807.756	21462
807.898	21389
808.04	21458
808.182	21511
808.324	21477
808.465	21526
808.607	21663
808.749	21903
808.891	21945
809.033	21968
809.174	21915
809.316	21770
809.458	21713
809.6	21709
809.741	21682
809.883	21679
810.025	21797
810.166	21766
810.308	21785
810.45	21766
810.591	21717
810.733	21660
810.875	21447
811.016	21351
811.158	21348
811.299	21367
811.441	21534
811.582	21454
811.724	21412
811.865	21382
812.007	21332
812.148	21351
812.29	21477
812.431	21606
812.573	21686
812.714	21793
812.855	21884
812.997	22090
813.138	22173
813.279	21979
813.421	21953
813.562	21899
813.703	21583
813.845	21576
813.986	21302
814.127	21104
814.268	20998
814.41	20910
814.551	20918
814.692	21112
814.833	20785
814.974	20807
815.115	20933
815.256	20739
815.397	20682
815.539	20743
815.68	20712
815.821	20545
815.962	20739
816.103	20632
816.244	20560
816.385	20317
816.526	20275
816.666	20206
816.807	20092
816.948	20267
817.089	20206
817.23	20206
817.371	20168
817.512	20062
817.653	19963
817.793	20111
817.934	20187
818.075	20134
818.216	20161
818.356	20077
818.497	19864
818.638	19712
818.778	19689
818.919	19803
819.06	19788
819.2	19799
819.341	19921
819.481	19909
819.622	20065
819.762	20298
819.903	20233
820.043	20088
820.184	20103
820.324	20119
820.465	20077
820.605	20187
820.746	20130
820.886	19925
821.026	20122
821.167	20077
821.307	20130
821.447	20092
821.588	19799
821.728	19742
821.868	19556
822.008	19540
822.149	19445
822.289	19365
822.429	19289
822.569	19118
822.709	19053
822.849	19069
822.99	19046
823.13	18932
823.27	18886
823.41	18795
823.55	18703
823.69	18821
823.83	18783
823.97	18738
824.11	18623
824.25	18544
824.389	18627
824.529	18532
824.669	18578
824.809	18684
824.949	18658
825.089	18585
825.228	18517
825.368	18388
825.508	18426
825.648	18467
825.787	18365
825.927	18391
826.067	18228
826.206	18323
826.346	18315
826.485	18342
826.625	18350
826.765	18479
826.904	18395
827.044	18106
827.183	18106
827.323	18209
827.462	18072
827.601	18011
827.741	18076
827.88	18079
828.02	17889
828.159	17969
828.298	17977
828.437	18125
828.577	17988
828.716	18114
828.855	18068
828.994	17855
829.134	17726
829.273	17939
829.412	17794
829.551	17707
829.69	17783
829.829	17813
829.968	17889
830.107	17821
830.246	17866
830.385	17760
830.524	17687
830.663	17577
830.802	17459
830.941	17368
831.08	17383
831.219	17482
831.357	17512
831.496	17657
831.635	17395
831.774	17349
831.913	17273
832.051	17212
832.19	17132
832.329	17223
832.467	17121
832.606	17200
832.744	17014
832.883	17117
833.022	17037
833.16	17128
833.299	17189
833.437	17102
833.576	17239
833.714	17124
833.852	17151
833.991	17166
834.129	17318
834.267	17299
834.406	17109
834.544	17178
834.682	17239
834.821	17033
834.959	17307
835.097	17143
835.235	17284
835.373	17155
835.511	17208
835.65	16999
835.788	17102
835.926	16923
836.064	16805
836.202	16805
836.34	17102
836.478	17143
836.615	17151
836.753	17041
836.891	17178
837.029	17121
837.167	16961
837.305	17029
837.443	16927
837.58	16930
837.718	17037
837.856	16839
837.993	16881
838.131	17113
838.269	16881
838.406	16790
838.544	16759
838.681	16771
838.819	16561
838.956	16497
839.094	16478
839.231	16527
839.369	16611
839.506	16919
839.643	16740
839.781	16504
839.918	16363
840.055	16375
840.193	16470
840.33	16455
840.467	16409
840.604	16577
840.742	16675
840.879	16325
841.016	16360
841.153	16363
841.29	16577
841.427	16459
841.564	16493
841.701	16519
841.838	16382
841.975	16333
842.112	16363
842.249	16219
842.385	16215
842.522	16413
842.659	16246
842.796	16192
842.933	16284
843.069	16253
843.206	16105
843.343	16238
843.479	16344
843.616	16322
843.752	15968
843.889	16017
844.025	16158
844.162	16010
844.298	16101
844.435	16021
844.571	16101
844.708	16177
844.844	16147
844.98	16162
845.117	16044
845.253	15975
845.389	15915
845.525	16017
845.661	16078
845.798	15991
845.934	16090
846.07	16131
846.206	16105
846.342	16147
846.478	15922
846.614	15755
846.75	15686
846.886	15618
847.022	15717
847.158	15660
847.294	15603
847.429	15644
847.565	15587
847.701	15838
847.837	15492
847.972	15283
848.108	15397
848.244	15378
848.379	15287
848.515	15188
848.65	15108
848.786	15245
848.921	15157
849.057	15272
849.192	15279
849.328	15268
849.463	15230
849.598	15184
849.734	15142
849.869	15055
850.004	15020
850.14	15066
850.275	15142
850.41	14864
850.545	14849
850.68	14971
850.815	14914
850.95	15032
851.085	15070
851.22	15032
851.355	14914
851.49	14906
851.625	15020
851.76	14998
851.895	14872
852.03	14849
852.165	14929
852.299	14998
852.434	15001
852.569	14941
852.703	14979
852.838	15028
852.973	15097
853.107	15146
853.242	14902
853.376	14849
853.511	14739
853.645	14785
853.78	14914
853.914	14826
854.048	14720
854.183	14705
854.317	14804
854.451	14990
854.585	14811
854.72	14663
854.854	14868
854.988	14773
855.122	14785
855.256	14689
855.39	14815
855.524	14819
855.658	14899
855.792	14788
855.926	14811
856.06	14918
856.194	14899
856.327	14853
856.461	14659
856.595	14796
856.729	14727
856.862	14967
856.996	14773
857.13	14899
857.263	14925
857.397	14891
857.53	14853
857.664	14902
857.797	14887
857.931	14914
858.064	14876
858.197	14994
858.331	14815
858.464	14720
858.597	14686
858.731	14853
858.864	14796
858.997	14811
859.13	14864
859.263	14872
859.396	14872
859.529	14792
859.662	14705
859.795	14735
859.928	14883
860.061	14963
860.194	14960
860.327	14796
860.46	14834
860.592	14937
860.725	14925
860.858	14967
860.99	14754
861.123	14754
861.256	14807
861.388	14868
861.521	15511
861.653	14659
861.786	14678
861.918	14762
862.05	14686
862.183	14758
862.315	14765
862.447	14823
862.58	14769
862.712	14545
862.844	14476
862.976	14621
863.108	14644
863.24	15062
863.372	14446
863.504	14552
863.636	14541
863.768	14625
863.9	14552
864.032	14530
864.164	14533
864.296	14587
864.428	14678
864.559	14651
864.691	14686
864.823	14670
864.954	14590
865.086	14636
865.217	14594
865.349	14495
865.48	14610
865.612	14518
865.743	14678
865.875	14590
866.006	14556
866.137	14518
866.269	14533
866.4	14560
866.531	14579
866.662	14465
866.793	14511
866.924	14541
867.055	14583
867.186	14583
867.317	14606
867.448	14427
867.579	14514
867.71	14347
867.841	14522
867.972	14640
868.103	14552
868.233	14518
868.364	14610
868.495	14636
868.625	14769
868.756	14838
868.886	14804
869.017	14743
869.147	14864
869.278	14872
869.408	14842
869.539	14788
869.669	14842
869.799	14811
869.929	14910
870.06	15013
870.19	15081
870.32	15047
870.45	15199
870.58	15188
870.71	15279
870.84	15325
870.97	15203
871.1	15188
871.23	15313
871.36	15317
871.489	15264
871.619	15344
871.749	15363
871.879	15386
872.008	15488
872.138	15378
872.267	15359
872.397	15256
872.526	15211
872.656	15207
872.785	15195
872.915	15439
873.044	15507
873.173	15466
873.303	15424
873.432	15523
873.561	15542
873.69	15492
873.819	15329
873.948	15454
874.077	15523
874.206	15504
874.335	15348
874.464	15622
874.593	15831
874.722	15618
874.851	15842
874.979	15698
875.108	15808
875.237	15732
875.365	15652
875.494	15766
875.623	15838
875.751	15652
875.88	15751
876.008	15934
876.136	15964
876.265	16097
876.393	16299
876.521	16181
876.65	16230
876.778	16226
876.906	16135
877.034	16139
877.162	16131
877.29	16097
877.418	16207
877.546	16059
877.674	16177
877.802	16154
877.93	16067
878.058	16090
878.185	16044
878.313	16048
878.441	16200
878.568	16101
878.696	16101
878.824	16234
878.951	16295
879.079	16291
879.206	16573
879.333	16417
879.461	16386
879.588	16318
879.715	16618
879.842	16611
879.97	16268
880.097	16154
880.224	16013
880.351	16162
880.478	16147
880.605	15998
880.732	16040
880.859	16261
880.986	16025
881.112	16101
881.239	15861
881.366	15789
881.493	15857
881.619	15564
881.746	15739
881.872	15686
881.999	15675
882.125	15667
882.252	15633
882.378	15671
882.505	15789
882.631	15648
882.757	15507
882.883	15625
883.01	15447
883.136	15431
883.262	15313
883.388	15389
883.514	15523
883.64	15564
883.766	15397
883.892	15313
884.018	15447
884.143	15507
884.269	15652
884.395	15336
884.52	15260
884.646	15180
884.772	15169
884.897	15203
885.023	15154
885.148	15325
885.274	15431
885.399	15188
885.524	15245
885.65	15180
885.775	15195
885.9	15169
886.025	15222
886.15	15252
886.275	15161
886.4	15104
886.525	15119
886.65	15104
886.775	15218
886.9	15325
887.025	15363
887.149	15173
887.274	15013
887.399	15024
887.523	15093
887.648	14918
887.773	14998
887.897	15146
888.021	15116
888.146	14967
888.27	15104
888.395	15233
888.519	14994
888.643	15062
888.767	15119
888.891	14975
889.015	14861
889.139	14956
889.263	14800
889.387	14960
889.511	15028
889.635	14963
889.759	14883
889.883	14853
890.006	14876
890.13	14937
890.254	14754
890.377	14941
890.501	14594
890.624	14632
890.748	14785
890.871	14640
890.995	14560
891.118	14537
891.241	14533
891.364	14533
891.488	14632
891.611	14518
891.734	14590
891.857	14720
891.98	14598
892.103	14663
892.226	14625
892.349	14560
892.471	14370
892.594	14621
892.717	14537
892.839	14571
892.962	14583
893.085	14583
893.207	14514
893.33	14488
893.452	14488
893.575	14514
893.697	14533
893.819	14762
893.941	14724
894.064	14705
894.186	14568
894.308	14484
894.43	14587
894.552	14762
894.674	14659
894.796	14507
894.918	14568
895.04	14499
895.161	14648
895.283	14678
895.405	14648
895.526	14693
895.648	14579
895.769	14754
895.891	14750
896.012	14804
896.134	14731
896.255	14887
896.376	14621
896.498	14708
896.619	14716
896.74	14762
896.861	14785
896.982	15051
897.103	15184
897.224	14963
897.345	14986
897.466	14826
897.587	14994
897.708	15058
897.828	15009
897.949	15058
898.07	14811
898.19	14956
898.311	15127
898.431	14921
898.552	14937
898.672	15203
898.792	15131
898.913	15017
899.033	15032
899.153	14849
899.273	14979
899.393	14864
899.513	15032
899.633	14883
899.753	14952
899.873	14769
899.993	14952
900.113	14952
900.232	14960
900.352	14925
900.472	14838
900.591	14724
900.711	14773
900.83	14697
900.95	14823
901.069	14823
901.189	14610
901.308	14499
901.427	14389
901.546	14412
901.665	14347
901.784	14442
901.904	14267
902.023	14214
902.141	14008
902.26	13959
902.379	14069
902.498	13940
902.617	13898
902.735	14043
902.854	13974
902.973	13997
903.091	13681
903.21	13647
903.328	13696
903.446	13571
903.565	13502
903.683	13529
903.801	13480
903.919	13525
904.038	13624
904.156	13331
904.274	13449
904.392	13263
904.51	13343
904.627	13308
904.745	13400
904.863	13381
904.981	13091
905.098	12977
905.216	13072
905.334	13107
905.451	12973
905.569	12932
905.686	13080
905.803	13000
905.921	12837
906.038	12901
906.155	12932
906.272	12749
906.389	12772
906.506	12646
906.623	12635
906.74	12604
906.857	12483
906.974	12620
907.091	12623
907.208	12825
907.324	12692
907.441	12589
907.557	12418
907.674	12338
907.79	12266
907.907	12285
908.023	12452
908.139	12410
908.256	12281
908.372	12270
908.488	12270
908.604	12140
908.72	12083
908.836	12197
908.952	12159
909.068	12205
909.184	12140
909.3	12114
909.415	12182
909.531	12114
909.647	11893
909.762	11878
909.878	11805
909.993	11901
910.108	11840
910.224	11847
910.339	11939
910.454	11764
910.57	11714
910.685	11688
910.8	11958
910.915	11851
911.03	11680
911.145	11596
911.259	11581
911.374	11630
911.489	11471
911.604	11512
911.718	11280
911.833	11345
911.947	11216
912.062	11159
912.176	11307
912.291	11341
912.405	11356
912.519	11581
912.633	11486
912.748	11372
912.862	11261
912.976	11216
913.09	11132
913.204	11090
913.318	11185
913.431	11292
913.545	11178
913.659	11277
913.772	11166
913.886	11079
914	10957
914.113	11109
914.226	11216
914.34	11174
914.453	11025
914.566	11155
914.68	11033
914.793	11056
914.906	10820
915.019	10763
915.132	10729
915.245	10710
915.358	10862
915.47	10854
915.583	10767
915.696	10866
915.809	10915
915.921	10995
916.034	10843
916.146	10801
916.259	10744
916.371	10847
916.483	10790
916.595	10725
916.708	10725
916.82	10729
916.932	10733
917.044	10710
917.156	10744
917.268	10607
917.38	10558
917.491	10577
917.603	10706
917.715	10706
917.826	10721
917.938	10630
918.049	10478
918.161	10611
918.272	10702
918.384	10714
918.495	10630
918.606	10535
918.717	10508
918.828	10542
918.939	10493
919.05	10478
919.161	10436
919.272	10318
919.383	10379
919.494	10516
919.604	10710
919.715	10554
919.826	10504
919.936	10443
920.047	10523
920.157	10546
920.267	10691
920.378	10512
920.488	10535
920.598	10767
920.708	10854
920.818	10717
920.928	10637
921.038	10915
921.148	10786
921.258	10519
921.368	10470
921.477	10344
921.587	10390
921.697	10154
921.806	10352
921.916	10249
922.025	10044
922.134	10036
922.244	10112
922.353	10116
922.462	9953
922.571	9884
922.68	9827
922.789	9644
922.898	9808
923.007	9709
923.116	9800
923.224	9823
923.333	9717
923.442	9667
923.55	9622
923.659	9675
923.767	9679
923.876	9595
923.984	9656
924.092	9576
924.201	9603
924.309	9652
924.417	9629
924.525	9511
924.633	9568
924.741	10356
924.849	9447
924.956	9572
925.064	9397
925.172	9287
925.279	9279
925.387	9447
925.494	9351
925.602	9564
925.709	9458
925.816	9378
925.924	9389
926.031	9496
926.138	9431
926.245	9408
926.352	9424
926.459	9424
926.566	9504
926.673	9294
926.779	9268
926.886	9306
926.993	9108
927.099	9074
927.206	9062
927.312	9039
927.419	9165
927.525	9123
927.631	9135
927.737	9013
927.843	8960
927.95	8864
928.056	9013
928.162	9055
928.267	9017
928.373	9599
928.479	9051
928.585	8807
928.69	8906
928.796	8994
928.901	8929
929.007	8781
929.112	8838
929.218	8868
929.323	8800
929.428	8804
929.533	8883
929.638	8724
929.743	8773
929.848	8766
929.953	8769
930.058	8712
930.163	8522
930.267	8549
930.372	8746
930.477	8530
930.581	8777
930.685	8678
930.79	8495
930.894	8541
930.998	8480
931.103	8587
931.207	8339
931.311	8301
931.415	8168
931.519	7978
931.623	7940
