Data from test_V78500241_1406.txt Node
Date: Fri Mar 25 14:43:30 CST 2022
User: usil
Spectrometer: V785-0024
Trigger mode: 0
Integration Time (sec): 4.000000E-1
Scans to average: 1
Nonlinearity correction enabled: false
Boxcar width: 0
Storing dark spectrum: false
XAxis mode: Wavelengths
Number of Pixels in Spectrum: 1024
>>>>>Begin Spectral Data<<<<<
801.071	22500
801.214	22348
801.356	22150
801.499	21953
801.641	21922
801.783	21793
801.926	21793
802.068	21778
802.211	21747
802.353	21701
802.496	21416
802.638	21351
802.78	21317
802.923	21241
803.065	21211
803.208	21222
803.35	21047
803.492	21123
803.635	21230
803.777	21272
803.919	21188
804.061	21542
804.204	21138
804.346	21173
804.488	20994
804.63	21028
804.773	20941
804.915	21039
805.057	21214
805.199	21070
805.341	21157
805.483	21264
805.626	21157
805.768	21077
805.91	21047
806.052	21051
806.194	21077
806.336	21203
806.478	21066
806.62	21001
806.762	21062
806.904	21199
807.046	21500
807.188	21401
807.33	21542
807.472	21507
807.614	21477
807.756	21466
807.898	21329
808.04	21203
808.182	21252
808.324	21321
808.465	21477
808.607	21648
808.749	21690
808.891	21827
809.033	21915
809.174	21895
809.316	21629
809.458	21686
809.6	21523
809.741	21633
809.883	21557
810.025	21667
810.166	21705
810.308	21713
810.45	21606
810.591	21485
810.733	21473
810.875	21351
811.016	21207
811.158	21169
811.299	21317
811.441	21462
811.582	21485
811.724	21176
811.865	21230
812.007	21275
812.148	21252
812.29	21313
812.431	21443
812.573	21534
812.714	21625
812.855	21690
812.997	21812
813.138	22010
813.279	21785
813.421	21690
813.562	21587
813.703	21603
813.845	21386
813.986	21039
814.127	21062
814.268	20937
814.41	20971
814.551	20800
814.692	20811
814.833	20781
814.974	20758
815.115	20792
815.256	20552
815.397	20568
815.539	20613
815.68	20663
815.821	20587
815.962	20450
816.103	20644
816.244	20324
816.385	20332
816.526	20206
816.666	20069
816.807	19997
816.948	19978
817.089	20024
817.23	20058
817.371	19951
817.512	19887
817.653	19879
817.793	19849
817.934	19890
818.075	20016
818.216	19894
818.356	19841
818.497	19727
818.638	19556
818.778	19563
818.919	19628
819.06	19674
819.2	19784
819.341	19757
819.481	19879
819.622	19940
819.762	20191
819.903	20153
820.043	19913
820.184	20077
820.324	19803
820.465	19963
820.605	19830
820.746	19947
820.886	19788
821.026	19776
821.167	19887
821.307	20008
821.447	19913
821.588	19750
821.728	19605
821.868	19415
822.008	19259
822.149	19221
822.289	19320
822.429	19031
822.569	19004
822.709	18905
822.849	18863
822.99	18840
823.13	18795
823.27	18821
823.41	18608
823.55	18658
823.69	18661
823.83	18604
823.97	18418
824.11	18410
824.25	18388
824.389	18441
824.529	18452
824.669	18445
824.809	18604
824.949	18555
825.089	18464
825.228	18338
825.368	18152
825.508	18251
825.648	18266
825.787	18194
825.927	18152
826.067	18136
826.206	18152
826.346	18213
826.485	18258
826.625	18159
826.765	18285
826.904	18102
827.044	17935
827.183	17771
827.323	17752
827.462	17961
827.601	17843
827.741	17790
827.88	17912
828.02	17855
828.159	17939
828.298	17817
828.437	17992
828.577	17813
828.716	17973
828.855	17828
828.994	17657
829.134	17653
829.273	17634
829.412	17611
829.551	17383
829.69	17596
829.829	17684
829.968	17794
830.107	17646
830.246	17665
830.385	17619
830.524	17490
830.663	17474
830.802	17261
830.941	17197
831.08	17162
831.219	17296
831.357	17155
831.496	17501
831.635	17128
831.774	17235
831.913	17117
832.051	17006
832.19	16972
832.329	16965
832.467	16968
832.606	16843
832.744	16828
832.883	17067
833.022	16930
833.16	16812
833.299	17018
833.437	16938
833.576	16957
833.714	16972
833.852	16999
833.991	16961
834.129	17018
834.267	16980
834.406	16881
834.544	17010
834.682	17041
834.821	16904
834.959	17109
835.097	16938
835.235	17086
835.373	16984
835.511	16869
835.65	16824
835.788	16885
835.926	16736
836.064	16702
836.202	16740
836.34	16835
836.478	16991
836.615	16862
836.753	16889
836.891	16889
837.029	16869
837.167	16847
837.305	16927
837.443	16782
837.58	16774
837.718	16831
837.856	16694
837.993	16790
838.131	16694
838.269	16687
838.406	16626
838.544	16626
838.681	16413
838.819	16428
838.956	16192
839.094	16322
839.231	16284
839.369	16371
839.506	16660
839.643	16504
839.781	16375
839.918	16306
840.055	16314
840.193	16382
840.33	16177
840.467	16337
840.604	16242
840.742	16394
840.879	16143
841.016	16192
841.153	16116
841.29	16295
841.427	16219
841.564	16341
841.701	16352
841.838	16223
841.975	16082
842.112	16188
842.249	15998
842.385	16090
842.522	16143
842.659	16109
842.796	16090
842.933	16116
843.069	16036
843.206	15983
843.343	16139
843.479	16021
843.616	16147
843.752	15812
843.889	15876
844.025	15975
844.162	15835
844.298	15899
844.435	15861
844.571	15880
844.708	15915
844.844	15994
844.98	16029
845.117	15880
845.253	15888
845.389	15736
845.525	15823
845.661	15819
845.798	15876
845.934	15949
846.07	15956
846.206	15994
846.342	15964
846.478	15755
846.614	15610
846.75	15397
846.886	15348
847.022	15526
847.158	15363
847.294	15477
847.429	15439
847.565	15431
847.701	15720
847.837	15127
847.972	15070
848.108	15192
848.244	15131
848.379	15039
848.515	14971
848.65	14986
848.786	15055
848.921	15024
849.057	15138
849.192	15070
849.328	15017
849.463	15024
849.598	14937
849.734	14975
849.869	14899
850.004	14834
850.14	14849
850.275	14727
850.41	14720
850.545	14697
850.68	14804
850.815	14765
850.95	14796
851.085	14994
851.22	14880
851.355	14811
851.49	14674
851.625	14693
851.76	14765
851.895	14644
852.03	14613
852.165	14769
852.299	14823
852.434	14800
852.569	14750
852.703	14788
852.838	14811
852.973	14929
853.107	14918
853.242	14743
853.376	14655
853.511	14533
853.645	14530
853.78	14781
853.914	14549
854.048	14587
854.183	14625
854.317	14670
854.451	14754
854.585	14632
854.72	14602
854.854	14651
854.988	14568
855.122	14613
855.256	14522
855.39	14686
855.524	14724
855.658	14674
855.792	14655
855.926	14708
856.06	14682
856.194	14724
856.327	14629
856.461	14632
856.595	14621
856.729	14602
856.862	14762
856.996	14724
857.13	14716
857.263	14689
857.397	14686
857.53	14663
857.664	14640
857.797	14800
857.931	14754
858.064	14583
858.197	14727
858.331	14625
858.464	14644
858.597	14625
858.731	14575
858.864	14583
858.997	14632
859.13	14644
859.263	14602
859.396	14777
859.529	14587
859.662	14579
859.795	14606
859.928	14575
860.061	14682
860.194	14773
860.327	14686
860.46	14670
860.592	14708
860.725	14686
860.858	14815
860.99	14632
861.123	14583
861.256	14610
861.388	14602
861.521	15401
861.653	14454
861.786	14450
861.918	14461
862.05	14511
862.183	14583
862.315	14537
862.447	14686
862.58	14648
862.712	14454
862.844	14370
862.976	14560
863.108	14579
863.24	14887
863.372	14366
863.504	14366
863.636	14366
863.768	14514
863.9	14400
864.032	14248
864.164	14305
864.296	14366
864.428	14488
864.559	14514
864.691	14434
864.823	14492
864.954	14438
865.086	14358
865.217	14309
865.349	14301
865.48	14412
865.612	14431
865.743	14579
865.875	14393
866.006	14328
866.137	14419
866.269	14408
866.4	14457
866.531	14366
866.662	14324
866.793	14355
866.924	14263
867.055	14434
867.186	14377
867.317	14317
867.448	14275
867.579	14374
867.71	14298
867.841	14317
867.972	14332
868.103	14358
868.233	14431
868.364	14415
868.495	14461
868.625	14579
868.756	14602
868.886	14533
869.017	14629
869.147	14598
869.278	14727
869.408	14621
869.539	14617
869.669	14579
869.799	14598
869.929	14773
870.06	14746
870.19	14891
870.32	15028
870.45	14933
870.58	14952
870.71	15173
870.84	15173
870.97	15001
871.1	14998
871.23	15256
871.36	15176
871.489	15138
871.619	15077
871.749	15222
871.879	15093
872.008	15294
872.138	15233
872.267	15142
872.397	15089
872.526	15032
872.656	15055
872.785	15020
872.915	15214
873.044	15222
873.173	15294
873.303	15302
873.432	15306
873.561	15332
873.69	15291
873.819	15355
873.948	15393
874.077	15260
874.206	15264
874.335	15283
874.464	15321
874.593	15584
874.722	15469
874.851	15587
874.979	15671
875.108	15610
875.237	15542
875.365	15420
875.494	15652
875.623	15610
875.751	15507
875.88	15701
876.008	15747
876.136	15899
876.265	15956
876.393	16109
876.521	16101
876.65	16082
876.778	15983
876.906	15983
877.034	16006
877.162	15911
877.29	15926
877.418	16002
877.546	15998
877.674	16048
877.802	16051
877.93	16021
878.058	15987
878.185	15876
878.313	16025
878.441	15964
878.568	15835
878.696	16025
878.824	16086
878.951	16223
879.079	16219
879.206	16398
879.333	16272
879.461	16124
879.588	16310
879.715	16402
879.842	16341
879.97	16257
880.097	15998
880.224	15934
880.351	15819
880.478	15876
880.605	15846
880.732	15835
880.859	16169
880.986	15937
881.112	15918
881.239	15842
881.366	15633
881.493	15587
881.619	15500
881.746	15641
881.872	15530
881.999	15526
882.125	15515
882.252	15519
882.378	15599
882.505	15610
882.631	15500
882.757	15389
882.883	15428
883.01	15321
883.136	15321
883.262	15188
883.388	15237
883.514	15374
883.64	15382
883.766	15264
883.892	15089
884.018	15157
884.143	15329
884.269	15428
884.395	15100
884.52	15009
884.646	15070
884.772	15032
884.897	14971
885.023	15013
885.148	15100
885.274	15184
885.399	15165
885.524	15047
885.65	15039
885.775	15001
885.9	14963
886.025	15146
886.15	15119
886.275	14986
886.4	14952
886.525	14994
886.65	14941
886.775	14971
886.9	15165
887.025	15218
887.149	14998
887.274	14857
887.399	14868
887.523	14925
887.648	14838
887.773	14777
887.897	14941
888.021	14830
888.146	14830
888.27	14895
888.395	14902
888.519	14845
888.643	14944
888.767	14982
888.891	14739
889.015	14754
889.139	14727
889.263	14731
889.387	14830
889.511	14804
889.635	14864
889.759	14613
889.883	14754
890.006	14727
890.13	14845
890.254	14686
890.377	14625
890.501	14579
890.624	14537
890.748	14644
890.871	14465
890.995	14275
891.118	14252
891.241	14461
891.364	14370
891.488	14564
891.611	14393
891.734	14469
891.857	14473
891.98	14358
892.103	14454
892.226	14412
892.349	14412
892.471	14164
892.594	14351
892.717	14313
892.839	14377
892.962	14351
893.085	14454
893.207	14389
893.33	14298
893.452	14332
893.575	14461
893.697	14389
893.819	14499
893.941	14625
894.064	14556
894.186	14298
894.308	14271
894.43	14450
894.552	14590
894.674	14480
894.796	14389
894.918	14412
895.04	14511
895.161	14537
895.283	14454
895.405	14412
895.526	14518
895.648	14522
895.769	14514
895.891	14480
896.012	14575
896.134	14533
896.255	14640
896.376	14575
896.498	14648
896.619	14606
896.74	14533
896.861	14583
896.982	14868
897.103	15097
897.224	14868
897.345	14811
897.466	14705
897.587	14826
897.708	14998
897.828	14929
897.949	14845
898.07	14712
898.19	14853
898.311	14937
898.431	14815
898.552	14883
898.672	14998
898.792	14998
898.913	14933
899.033	14823
899.153	14785
899.273	14735
899.393	14682
899.513	14830
899.633	14758
899.753	14804
899.873	14712
899.993	14826
900.113	14724
900.232	14804
900.352	14678
900.472	14629
900.591	14571
900.711	14651
900.83	14629
900.95	14750
901.069	14792
901.189	14610
901.308	14377
901.427	14229
901.546	14317
901.665	14278
901.784	14328
901.904	14142
902.023	14012
902.141	13909
902.26	13822
902.379	13917
902.498	13898
902.617	13738
902.735	13868
902.854	13753
902.973	13818
903.091	13510
903.21	13597
903.328	13613
903.446	13491
903.565	13422
903.683	13400
903.801	13411
903.919	13354
904.038	13335
904.156	13251
904.274	13297
904.392	13206
904.51	13247
904.627	13190
904.745	13282
904.863	13160
904.981	13091
905.098	12913
905.216	12867
905.334	12947
905.451	12848
905.569	12875
905.686	12905
905.803	12909
905.921	12684
906.038	12859
906.155	12700
906.272	12650
906.389	12627
906.506	12563
906.623	12490
906.74	12445
906.857	12414
906.974	12357
907.091	12589
907.208	12639
907.324	12525
907.441	12448
907.557	12399
907.674	12262
907.79	12140
907.907	12243
908.023	12300
908.139	12273
908.256	12235
908.372	12190
908.488	12117
908.604	11920
908.72	11897
908.836	12095
908.952	12026
909.068	12022
909.184	12091
909.3	12007
909.415	12019
909.531	12007
909.647	11798
909.762	11847
909.878	11733
909.993	11771
910.108	11748
910.224	11627
910.339	11680
910.454	11566
910.57	11585
910.685	11604
910.8	11878
910.915	11817
911.03	11630
911.145	11467
911.259	11440
911.374	11421
911.489	11337
911.604	11398
911.718	11277
911.833	11250
911.947	11109
912.062	11067
912.176	11242
912.291	11181
912.405	11299
912.519	11414
912.633	11425
912.748	11292
912.862	11258
912.976	11041
913.09	10995
913.204	11033
913.318	11117
913.431	11261
913.545	11185
913.659	11166
913.772	11136
913.886	10968
914	10949
914.113	11083
914.226	11121
914.34	11022
914.453	10896
914.566	10923
914.68	10900
914.793	10847
914.906	10729
915.019	10656
915.132	10630
915.245	10683
915.358	10706
915.47	10721
915.583	10763
915.696	10782
915.809	10736
915.921	10911
916.034	10561
916.146	10668
916.259	10721
916.371	10767
916.483	10729
916.595	10577
916.708	10577
916.82	10675
916.932	10577
917.044	10637
917.156	10569
917.268	10466
917.38	10580
917.491	10565
917.603	10542
917.715	10535
917.826	10641
917.938	10436
918.049	10402
918.161	10523
918.272	10683
918.384	10577
918.495	10577
918.606	10447
918.717	10337
918.828	10424
918.939	10344
919.05	10306
919.161	10405
919.272	10223
919.383	10242
919.494	10459
919.604	10660
919.715	10402
919.826	10402
919.936	10333
920.047	10516
920.157	10440
920.267	10637
920.378	10504
920.488	10386
920.598	10565
920.708	10698
920.818	10630
920.928	10634
921.038	10691
921.148	10752
921.258	10478
921.368	10379
921.477	10299
921.587	10246
921.697	10124
921.806	10322
921.916	10097
922.025	9930
922.134	9983
922.244	9911
922.353	9979
922.462	9915
922.571	9812
922.68	9671
922.789	9667
922.898	9652
923.007	9622
923.116	9656
923.224	9686
923.333	9686
923.442	9526
923.55	9561
923.659	9576
923.767	9595
923.876	9534
923.984	9526
924.092	9511
924.201	9523
924.309	9458
924.417	9496
924.525	9500
924.633	9477
924.741	10405
924.849	9325
924.956	9462
925.064	9332
925.172	9245
925.279	9150
925.387	9348
925.494	9370
925.602	9408
925.709	9348
925.816	9287
925.924	9294
926.031	9370
926.138	9310
926.245	9336
926.352	9233
926.459	9405
926.566	9332
926.673	9268
926.779	9230
926.886	9104
926.993	9058
927.099	8975
927.206	8952
927.312	8902
927.419	9081
927.525	9077
927.631	9036
927.737	8994
927.843	8777
927.95	8750
928.056	8902
928.162	8906
928.267	8937
928.373	9603
928.479	9020
928.585	8720
928.69	8895
928.796	8891
928.901	8883
929.007	8743
929.112	8845
929.218	8769
929.323	8724
929.428	8659
929.533	8872
929.638	8613
929.743	8727
929.848	8743
929.953	8697
930.058	8625
930.163	8457
930.267	8507
930.372	8545
930.477	8412
930.581	8655
930.685	8613
930.79	8317
930.894	8457
930.998	8324
931.103	8541
931.207	8176
931.311	8126
931.415	8195
931.519	7947
931.623	7890
