Data from test_V78500241_1923.txt Node
Date: Fri Mar 25 14:47:06 CST 2022
User: usil
Spectrometer: V785-0024
Trigger mode: 0
Integration Time (sec): 4.000000E-1
Scans to average: 1
Nonlinearity correction enabled: false
Boxcar width: 0
Storing dark spectrum: false
XAxis mode: Wavelengths
Number of Pixels in Spectrum: 1024
>>>>>Begin Spectral Data<<<<<
801.071	22074
801.214	21895
801.356	21762
801.499	21652
801.641	21477
801.783	21435
801.926	21504
802.068	21408
802.211	21302
802.353	21264
802.496	21081
802.638	20925
802.78	20925
802.923	20868
803.065	20743
803.208	20720
803.35	20785
803.492	20925
803.635	20834
803.777	20823
803.919	20830
804.061	21207
804.204	20811
804.346	20727
804.488	20758
804.63	20746
804.773	20590
804.915	20617
805.057	20853
805.199	20716
805.341	20830
805.483	20720
805.626	20773
805.768	20792
805.91	20834
806.052	20906
806.194	20568
806.336	20925
806.478	20735
806.62	20735
806.762	20800
806.904	20880
807.046	21055
807.188	21020
807.33	21005
807.472	21188
807.614	20857
807.756	20925
807.898	20990
808.04	20781
808.182	20769
808.324	20834
808.465	20910
808.607	20952
808.749	21116
808.891	21077
809.033	21252
809.174	21260
809.316	21032
809.458	21055
809.6	21039
809.741	21165
809.883	21241
810.025	21256
810.166	21275
810.308	21351
810.45	21256
810.591	21093
810.733	21077
810.875	20921
811.016	20701
811.158	20674
811.299	20834
811.441	20906
811.582	20967
811.724	20823
811.865	20781
812.007	20876
812.148	20861
812.29	20986
812.431	21032
812.573	21047
812.714	21294
812.855	21291
812.997	21428
813.138	21583
813.279	21469
813.421	21363
813.562	21268
813.703	21142
813.845	21020
813.986	20693
814.127	20446
814.268	20495
814.41	20450
814.551	20404
814.692	20446
814.833	20313
814.974	20313
815.115	20362
815.256	20244
815.397	20221
815.539	20313
815.68	20122
815.821	20031
815.962	20275
816.103	20119
816.244	20115
816.385	19970
816.526	19856
816.666	19662
816.807	19647
816.948	19685
817.089	19616
817.23	19601
817.371	19563
817.512	19525
817.653	19556
817.793	19407
817.934	19438
818.075	19651
818.216	19563
818.356	19559
818.497	19335
818.638	19209
818.778	19304
818.919	19304
819.06	19316
819.2	19251
819.341	19365
819.481	19407
819.622	19491
819.762	19655
819.903	19655
820.043	19544
820.184	19537
820.324	19525
820.465	19476
820.605	19537
820.746	19468
820.886	19240
821.026	19460
821.167	19415
821.307	19628
821.447	19396
821.588	19221
821.728	19183
821.868	19129
822.008	19027
822.149	18951
822.289	18848
822.429	18681
822.569	18604
822.709	18700
822.849	18422
822.99	18429
823.13	18251
823.27	18403
823.41	18346
823.55	18163
823.69	18228
823.83	18133
823.97	18106
824.11	18019
824.25	17950
824.389	17999
824.529	18083
824.669	17973
824.809	18129
824.949	18148
825.089	18095
825.228	18076
825.368	17840
825.508	17813
825.648	17916
825.787	17908
825.927	17786
826.067	17703
826.206	17748
826.346	17775
826.485	17874
826.625	17752
826.765	17897
826.904	17813
827.044	17474
827.183	17554
827.323	17410
827.462	17558
827.601	17535
827.741	17440
827.88	17528
828.02	17360
828.159	17452
828.298	17535
828.437	17512
828.577	17459
828.716	17585
828.855	17296
828.994	17284
829.134	17200
829.273	17204
829.412	17170
829.551	17254
829.69	17166
829.829	17379
829.968	17379
830.107	17368
830.246	17246
830.385	17132
830.524	17159
830.663	17067
830.802	17018
830.941	16816
831.08	16850
831.219	16972
831.357	16953
831.496	17132
831.635	16797
831.774	16752
831.913	16790
832.051	16683
832.19	16626
832.329	16717
832.467	16538
832.606	16599
832.744	16508
832.883	16523
833.022	16538
833.16	16618
833.299	16683
833.437	16546
833.576	16561
833.714	16668
833.852	16596
833.991	16607
834.129	16637
834.267	16733
834.406	16554
834.544	16702
834.682	16664
834.821	16645
834.959	16717
835.097	16599
835.235	16710
835.373	16561
835.511	16554
835.65	16607
835.788	16478
835.926	16466
836.064	16363
836.202	16432
836.34	16577
836.478	16653
836.615	16519
836.753	16542
836.891	16630
837.029	16519
837.167	16569
837.305	16421
837.443	16413
837.58	16344
837.718	16561
837.856	16379
837.993	16497
838.131	16386
838.269	16390
838.406	16356
838.544	16215
838.681	16181
838.819	16154
838.956	15949
839.094	15979
839.231	15964
839.369	16040
839.506	16371
839.643	16166
839.781	15945
839.918	15960
840.055	15960
840.193	15949
840.33	15941
840.467	15956
840.604	15880
840.742	16211
840.879	15835
841.016	15968
841.153	15812
841.29	16002
841.427	15964
841.564	15838
841.701	15979
841.838	15934
841.975	15812
842.112	15922
842.249	15713
842.385	15789
842.522	15953
842.659	15751
842.796	15675
842.933	15720
843.069	15728
843.206	15690
843.343	15865
843.479	15835
843.616	15778
843.752	15564
843.889	15511
844.025	15686
844.162	15504
844.298	15625
844.435	15473
844.571	15492
844.708	15747
844.844	15675
844.98	15690
845.117	15671
845.253	15412
845.389	15351
845.525	15462
845.661	15382
845.798	15298
845.934	15325
846.07	15252
846.206	15382
846.342	15466
846.478	15317
846.614	15176
846.75	15135
846.886	14971
847.022	15070
847.158	15058
847.294	15100
847.429	15116
847.565	14998
847.701	15374
847.837	14899
847.972	14712
848.108	14899
848.244	14891
848.379	14800
848.515	14629
848.65	14773
848.786	14712
848.921	14674
849.057	14788
849.192	14815
849.328	14716
849.463	14636
849.598	14648
849.734	14644
849.869	14518
850.004	14495
850.14	14629
850.275	14408
850.41	14400
850.545	14434
850.68	14286
850.815	14511
850.95	14476
851.085	14602
851.22	14564
851.355	14457
851.49	14427
851.625	14415
851.76	14404
851.895	14343
852.03	14294
852.165	14480
852.299	14495
852.434	14587
852.569	14533
852.703	14469
852.838	14514
852.973	14560
853.107	14594
853.242	14476
853.376	14282
853.511	14256
853.645	14183
853.78	14442
853.914	14320
854.048	14355
854.183	14256
854.317	14324
854.451	14473
854.585	14396
854.72	14298
854.854	14400
854.988	14324
855.122	14309
855.256	14229
855.39	14301
855.524	14244
855.658	14381
855.792	14298
855.926	14320
856.06	14427
856.194	14431
856.327	14294
856.461	14237
856.595	14298
856.729	14351
856.862	14355
856.996	14313
857.13	14412
857.263	14457
857.397	14465
857.53	14271
857.664	14438
857.797	14400
857.931	14393
858.064	14385
858.197	14454
858.331	14324
858.464	14275
858.597	14214
858.731	14328
858.864	14328
858.997	14461
859.13	14309
859.263	14298
859.396	14423
859.529	14374
859.662	14229
859.795	14294
859.928	14415
860.061	14526
860.194	14461
860.327	14317
860.46	14328
860.592	14446
860.725	14438
860.858	14370
860.99	14248
861.123	14259
861.256	14381
861.388	14431
861.521	15142
861.653	14145
861.786	14225
861.918	14256
862.05	14237
862.183	14328
862.315	14309
862.447	14450
862.58	14282
862.712	14126
862.844	14062
862.976	14134
863.108	14149
863.24	14412
863.372	14123
863.504	14100
863.636	14111
863.768	14031
863.9	14031
864.032	14092
864.164	14027
864.296	14149
864.428	14218
864.559	14218
864.691	14225
864.823	14180
864.954	14062
865.086	14115
865.217	14119
865.349	14092
865.48	14119
865.612	14164
865.743	14164
865.875	14123
866.006	14100
866.137	14107
866.269	14115
866.4	14088
866.531	14031
866.662	13989
866.793	14024
866.924	14062
867.055	14073
867.186	14161
867.317	14054
867.448	13959
867.579	14084
867.71	14062
867.841	14062
867.972	14134
868.103	14130
868.233	14142
868.364	14111
868.495	14183
868.625	14290
868.756	14358
868.886	14252
869.017	14332
869.147	14358
869.278	14484
869.408	14454
869.539	14294
869.669	14537
869.799	14366
869.929	14469
870.06	14488
870.19	14610
870.32	14663
870.45	14678
870.58	14769
870.71	14823
870.84	14842
870.97	14823
871.1	14773
871.23	14960
871.36	14921
871.489	14902
871.619	14811
871.749	14861
871.879	14902
872.008	15055
872.138	14967
872.267	14899
872.397	14891
872.526	14762
872.656	14762
872.785	14792
872.915	14990
873.044	15043
873.173	14956
873.303	15058
873.432	15047
873.561	14986
873.69	15138
873.819	15024
873.948	15093
874.077	15039
874.206	15043
874.335	15055
874.464	15058
874.593	15252
874.722	15230
874.851	15363
874.979	15306
875.108	15431
875.237	15192
875.365	15230
875.494	15340
875.623	15386
875.751	15241
875.88	15298
876.008	15507
876.136	15622
876.265	15759
876.393	15915
876.521	15785
876.65	15907
876.778	15755
876.906	15759
877.034	15762
877.162	15675
877.29	15625
877.418	15808
877.546	15739
877.674	15694
877.802	15686
877.93	15736
878.058	15595
878.185	15633
878.313	15648
878.441	15694
878.568	15568
878.696	15606
878.824	15679
878.951	15770
879.079	15941
879.206	16021
879.333	15892
879.461	15812
879.588	15895
879.715	15975
879.842	16025
879.97	15857
880.097	15534
880.224	15568
880.351	15660
880.478	15595
880.605	15511
880.732	15496
880.859	15724
880.986	15519
881.112	15618
881.239	15511
881.366	15367
881.493	15214
881.619	15169
881.746	15325
881.872	15211
881.999	15192
882.125	15203
882.252	15256
882.378	15275
882.505	15378
882.631	15199
882.757	14994
882.883	15131
883.01	15032
883.136	14994
883.262	14952
883.388	14941
883.514	15047
883.64	15180
883.766	15001
883.892	14819
884.018	14925
884.143	15081
884.269	15150
884.395	14864
884.52	14712
884.646	14804
884.772	14769
884.897	14712
885.023	14781
885.148	14861
885.274	14857
885.399	14842
885.524	14701
885.65	14708
885.775	14785
885.9	14697
886.025	14883
886.15	14807
886.275	14727
886.4	14632
886.525	14739
886.65	14754
886.775	14640
886.9	14857
887.025	15039
887.149	14746
887.274	14598
887.399	14507
887.523	14568
887.648	14590
887.773	14518
887.897	14629
888.021	14606
888.146	14598
888.27	14625
888.395	14720
888.519	14667
888.643	14663
888.767	14629
888.891	14533
889.015	14473
889.139	14507
889.263	14355
889.387	14545
889.511	14625
889.635	14518
889.759	14442
889.883	14431
890.006	14385
890.13	14579
890.254	14332
890.377	14396
890.501	14362
890.624	14263
890.748	14301
890.871	14187
890.995	14008
891.118	14046
891.241	14145
891.364	14221
891.488	14275
891.611	14206
891.734	14081
891.857	14202
891.98	14180
892.103	14176
892.226	14286
892.349	14050
892.471	13989
892.594	14081
892.717	14145
892.839	14031
892.962	14119
893.085	14187
893.207	14145
893.33	13955
893.452	14142
893.575	14126
893.697	14149
893.819	14328
893.941	14370
894.064	14476
894.186	14115
894.308	14138
894.43	14278
894.552	14400
894.674	14381
894.796	14149
894.918	14206
895.04	14252
895.161	14412
895.283	14244
895.405	14142
895.526	14256
895.648	14240
895.769	14324
895.891	14313
896.012	14339
896.134	14324
896.255	14240
896.376	14263
896.498	14252
896.619	14324
896.74	14252
896.861	14358
896.982	14575
897.103	14826
897.224	14670
897.345	14533
897.466	14541
897.587	14583
897.708	14724
897.828	14629
897.949	14552
898.07	14484
898.19	14499
898.311	14716
898.431	14598
898.552	14602
898.672	14621
898.792	14735
898.913	14606
899.033	14606
899.153	14549
899.273	14469
899.393	14438
899.513	14552
899.633	14488
899.753	14587
899.873	14427
899.993	14514
900.113	14465
900.232	14552
900.352	14590
900.472	14533
900.591	14313
900.711	14358
900.83	14298
900.95	14461
901.069	14537
901.189	14218
901.308	14027
901.427	13963
901.546	14043
901.665	14096
901.784	14077
901.904	13875
902.023	13837
902.141	13700
902.26	13704
902.379	13666
902.498	13632
902.617	13548
902.735	13677
902.854	13632
902.973	13544
903.091	13362
903.21	13373
903.328	13335
903.446	13259
903.565	13198
903.683	13198
903.801	13126
903.919	13209
904.038	13107
904.156	12935
904.274	13080
904.392	13027
904.51	12924
904.627	13019
904.745	13053
904.863	13080
904.981	12852
905.098	12749
905.216	12662
905.334	12722
905.451	12684
905.569	12574
905.686	12779
905.803	12760
905.921	12540
906.038	12658
906.155	12566
906.272	12384
906.389	12460
906.506	12277
906.623	12296
906.74	12232
906.857	12163
906.974	12243
907.091	12403
907.208	12429
907.324	12311
907.441	12182
907.557	12110
907.674	11992
907.79	11999
907.907	12026
908.023	11999
908.139	12011
908.256	11980
908.372	11965
908.488	11901
908.604	11832
908.72	11653
908.836	11805
908.952	11699
909.068	11798
909.184	11931
909.3	11783
909.415	11859
909.531	11824
909.647	11566
909.762	11562
909.878	11532
909.993	11680
910.108	11478
910.224	11505
910.339	11585
910.454	11570
910.57	11505
910.685	11376
910.8	11638
910.915	11577
911.03	11421
911.145	11261
911.259	11265
911.374	11269
911.489	11220
911.604	11140
911.718	11056
911.833	11003
911.947	10858
912.062	10786
912.176	11003
912.291	11010
912.405	11018
912.519	11242
912.633	11212
912.748	11109
912.862	10980
912.976	10869
913.09	10748
913.204	10847
913.318	10793
913.431	10972
913.545	10938
913.659	10923
913.772	10911
913.886	10774
914	10736
914.113	10839
914.226	10854
914.34	10854
914.453	10698
914.566	10809
914.68	10771
914.793	10683
914.906	10535
915.019	10527
915.132	10459
915.245	10466
915.358	10516
915.47	10558
915.583	10470
915.696	10596
915.809	10618
915.921	10656
916.034	10470
916.146	10459
916.259	10417
916.371	10558
916.483	10558
916.595	10428
916.708	10405
916.82	10516
916.932	10417
917.044	10402
917.156	10451
917.268	10295
917.38	10428
917.491	10318
917.603	10344
917.715	10489
917.826	10409
917.938	10314
918.049	10200
918.161	10318
918.272	10504
918.384	10565
918.495	10398
918.606	10246
918.717	10177
918.828	10306
918.939	10207
919.05	10215
919.161	10227
919.272	10002
919.383	10109
919.494	10363
919.604	10481
919.715	10287
919.826	10158
919.936	10162
920.047	10299
920.157	10215
920.267	10466
920.378	10223
920.488	10211
920.598	10478
920.708	10634
920.818	10478
920.928	10432
921.038	10550
921.148	10649
921.258	10230
921.368	10124
921.477	10166
921.587	10055
921.697	10044
921.806	10116
921.916	9979
922.025	9827
922.134	9785
922.244	9766
922.353	9880
922.462	9800
922.571	9625
922.68	9507
922.789	9473
922.898	9557
923.007	9431
923.116	9542
923.224	9469
923.333	9473
923.442	9382
923.55	9321
923.659	9408
923.767	9439
923.876	9367
923.984	9488
924.092	9317
924.201	9329
924.309	9351
924.417	9348
924.525	9344
924.633	9313
924.741	10265
924.849	9093
924.956	9211
925.064	9123
925.172	9051
925.279	9108
925.387	9108
925.494	9142
925.602	9287
925.709	9291
925.816	9138
925.924	9146
926.031	9249
926.138	9135
926.245	9188
926.352	9081
926.459	9272
926.566	9306
926.673	9058
926.779	9009
926.886	9043
926.993	8872
927.099	8849
927.206	8826
927.312	8804
927.419	8921
927.525	8891
927.631	8864
927.737	8777
927.843	8796
927.95	8701
928.056	8758
928.162	8785
928.267	8849
928.373	9450
928.479	8960
928.585	8564
928.69	8693
928.796	8762
928.901	8659
929.007	8495
929.112	8648
929.218	8632
929.323	8655
929.428	8552
929.533	8766
929.638	8495
929.743	8476
929.848	8579
929.953	8522
930.058	8499
930.163	8313
930.267	8415
930.372	8495
930.477	8279
930.581	8568
930.685	8434
930.79	8317
930.894	8328
930.998	8313
931.103	8442
931.207	8062
931.311	8043
931.415	8008
931.519	7772
931.623	7837
