Data from test_V78500241_2206.txt Node
Date: Fri Mar 25 14:49:04 CST 2022
User: usil
Spectrometer: V785-0024
Trigger mode: 0
Integration Time (sec): 4.000000E-1
Scans to average: 1
Nonlinearity correction enabled: false
Boxcar width: 0
Storing dark spectrum: false
XAxis mode: Wavelengths
Number of Pixels in Spectrum: 1024
>>>>>Begin Spectral Data<<<<<
801.071	22200
801.214	22139
801.356	21747
801.499	21720
801.641	21652
801.783	21622
801.926	21515
802.068	21367
802.211	21412
802.353	21218
802.496	21047
802.638	21055
802.78	21089
802.923	20880
803.065	20902
803.208	20811
803.35	20887
803.492	20948
803.635	21005
803.777	20842
803.919	20994
804.061	21214
804.204	20872
804.346	20754
804.488	20773
804.63	20864
804.773	20705
804.915	20811
805.057	20887
805.199	20762
805.341	20754
805.483	20872
805.626	20853
805.768	20758
805.91	20990
806.052	20750
806.194	20609
806.336	20925
806.478	20792
806.62	20746
806.762	20868
806.904	20937
807.046	21241
807.188	21173
807.33	21009
807.472	21154
807.614	21074
807.756	21096
807.898	20982
808.04	20838
808.182	20811
808.324	20830
808.465	20876
808.607	21199
808.749	21066
808.891	21340
809.033	21310
809.174	21283
809.316	21222
809.458	21142
809.6	21058
809.741	21226
809.883	21218
810.025	21302
810.166	21355
810.308	21256
810.45	21321
810.591	21214
810.733	21001
810.875	20990
811.016	20830
811.158	20796
811.299	21013
811.441	20910
811.582	21074
811.724	20979
811.865	20998
812.007	20834
812.148	20872
812.29	21039
812.431	21100
812.573	21306
812.714	21420
812.855	21374
812.997	21481
813.138	21667
813.279	21583
813.421	21485
813.562	21329
813.703	21188
813.845	21081
813.986	20769
814.127	20731
814.268	20587
814.41	20469
814.551	20454
814.692	20450
814.833	20473
814.974	20465
815.115	20434
815.256	20309
815.397	20278
815.539	20336
815.68	20336
815.821	20168
815.962	20157
816.103	20237
816.244	20077
816.385	20035
816.526	19917
816.666	19833
816.807	19662
816.948	19624
817.089	19833
817.23	19750
817.371	19677
817.512	19632
817.653	19571
817.793	19552
817.934	19514
818.075	19567
818.216	19613
818.356	19567
818.497	19438
818.638	19240
818.778	19255
818.919	19316
819.06	19426
819.2	19396
819.341	19510
819.481	19510
819.622	19586
819.762	19784
819.903	19700
820.043	19643
820.184	19658
820.324	19628
820.465	19544
820.605	19662
820.746	19559
820.886	19529
821.026	19563
821.167	19381
821.307	19556
821.447	19407
821.588	19438
821.728	19331
821.868	19122
822.008	19034
822.149	18951
822.289	19031
822.429	18802
822.569	18772
822.709	18692
822.849	18357
822.99	18506
823.13	18437
823.27	18327
823.41	18327
823.55	18194
823.69	18285
823.83	18270
823.97	18254
824.11	17992
824.25	17954
824.389	17923
824.529	18190
824.669	17901
824.809	18152
824.949	18133
825.089	18155
825.228	18026
825.368	17851
825.508	17950
825.648	17863
825.787	17866
825.927	17882
826.067	17748
826.206	17828
826.346	17859
826.485	17893
826.625	17828
826.765	17965
826.904	17805
827.044	17615
827.183	17570
827.323	17604
827.462	17646
827.601	17646
827.741	17573
827.88	17505
828.02	17383
828.159	17619
828.298	17528
828.437	17581
828.577	17425
828.716	17695
828.855	17516
828.994	17326
829.134	17372
829.273	17299
829.412	17246
829.551	17353
829.69	17239
829.829	17417
829.968	17372
830.107	17318
830.246	17414
830.385	17250
830.524	17356
830.663	17159
830.802	17075
830.941	16938
831.08	16946
831.219	17075
831.357	16904
831.496	17170
831.635	16972
831.774	16885
831.913	16767
832.051	16679
832.19	16717
832.329	16725
832.467	16584
832.606	16569
832.744	16603
832.883	16546
833.022	16611
833.16	16649
833.299	16618
833.437	16607
833.576	16763
833.714	16561
833.852	16740
833.991	16691
834.129	16721
834.267	16577
834.406	16717
834.544	16729
834.682	16683
834.821	16588
834.959	16835
835.097	16577
835.235	16717
835.373	16710
835.511	16611
835.65	16561
835.788	16558
835.926	16462
836.064	16405
836.202	16508
836.34	16558
836.478	16626
836.615	16577
836.753	16519
836.891	16717
837.029	16630
837.167	16554
837.305	16466
837.443	16424
837.58	16371
837.718	16538
837.856	16474
837.993	16417
838.131	16504
838.269	16413
838.406	16310
838.544	16204
838.681	16169
838.819	16150
838.956	15960
839.094	16040
839.231	16013
839.369	16063
839.506	16432
839.643	16230
839.781	15964
839.918	15964
840.055	16006
840.193	16090
840.33	15975
840.467	16017
840.604	15968
840.742	16185
840.879	15880
841.016	15804
841.153	15911
841.29	16101
841.427	15991
841.564	15907
841.701	15998
841.838	15941
841.975	15865
842.112	15941
842.249	15842
842.385	15667
842.522	15964
842.659	15808
842.796	15675
842.933	15701
843.069	15698
843.206	15618
843.343	15892
843.479	15739
843.616	15739
843.752	15561
843.889	15469
844.025	15641
844.162	15561
844.298	15641
844.435	15534
844.571	15473
844.708	15603
844.844	15732
844.98	15572
845.117	15584
845.253	15492
845.389	15401
845.525	15435
845.661	15382
845.798	15283
845.934	15454
846.07	15359
846.206	15367
846.342	15416
846.478	15287
846.614	15089
846.75	15157
846.886	15066
847.022	15173
847.158	15161
847.294	15051
847.429	15100
847.565	15070
847.701	15329
847.837	14849
847.972	14804
848.108	14937
848.244	14849
848.379	14796
848.515	14640
848.65	14644
848.786	14621
848.921	14708
849.057	14842
849.192	14834
849.328	14712
849.463	14743
849.598	14758
849.734	14571
849.869	14545
850.004	14545
850.14	14530
850.275	14492
850.41	14332
850.545	14381
850.68	14412
850.815	14450
850.95	14450
851.085	14583
851.22	14640
851.355	14454
851.49	14492
851.625	14412
851.76	14343
851.895	14244
852.03	14400
852.165	14450
852.299	14514
852.434	14537
852.569	14533
852.703	14469
852.838	14583
852.973	14556
853.107	14549
853.242	14461
853.376	14366
853.511	14336
853.645	14355
853.78	14457
853.914	14355
854.048	14290
854.183	14370
854.317	14370
854.451	14396
854.585	14294
854.72	14362
854.854	14393
854.988	14305
855.122	14225
855.256	14161
855.39	14252
855.524	14396
855.658	14400
855.792	14294
855.926	14362
856.06	14431
856.194	14473
856.327	14328
856.461	14157
856.595	14282
856.729	14271
856.862	14377
856.996	14351
857.13	14393
857.263	14415
857.397	14530
857.53	14427
857.664	14408
857.797	14541
857.931	14454
858.064	14377
858.197	14503
858.331	14244
858.464	14225
858.597	14134
858.731	14282
858.864	14339
858.997	14343
859.13	14347
859.263	14366
859.396	14461
859.529	14298
859.662	14290
859.795	14199
859.928	14324
860.061	14450
860.194	14412
860.327	14355
860.46	14355
860.592	14412
860.725	14415
860.858	14488
860.99	14393
861.123	14313
861.256	14298
861.388	14454
861.521	14864
861.653	14172
861.786	14248
861.918	14229
862.05	14362
862.183	14195
862.315	14324
862.447	14454
862.58	14263
862.712	14081
862.844	14043
862.976	14199
863.108	14183
863.24	14427
863.372	14130
863.504	14111
863.636	14119
863.768	14149
863.9	14092
864.032	14119
864.164	14092
864.296	14123
864.428	14202
864.559	14176
864.691	14161
864.823	14157
864.954	14073
865.086	14142
865.217	14100
865.349	13993
865.48	14039
865.612	14134
865.743	14103
865.875	14050
866.006	14103
866.137	14084
866.269	14130
866.4	13989
866.531	14123
866.662	13955
866.793	14123
866.924	14077
867.055	14027
867.186	14092
867.317	13993
867.448	13959
867.579	13974
867.71	13963
867.841	14027
867.972	14210
868.103	13959
868.233	14058
868.364	14126
868.495	14130
868.625	14301
868.756	14343
868.886	14191
869.017	14358
869.147	14465
869.278	14465
869.408	14309
869.539	14393
869.669	14438
869.799	14332
869.929	14492
870.06	14434
870.19	14667
870.32	14598
870.45	14686
870.58	14735
870.71	14834
870.84	14861
870.97	14819
871.1	14594
871.23	14944
871.36	14994
871.489	15039
871.619	14804
871.749	14891
871.879	14998
872.008	15017
872.138	14948
872.267	14948
872.397	14796
872.526	14796
872.656	14769
872.785	14785
872.915	14960
873.044	14956
873.173	14967
873.303	14990
873.432	14963
873.561	15017
873.69	15036
873.819	14948
873.948	15047
874.077	14979
874.206	14956
874.335	15001
874.464	15154
874.593	15302
874.722	15264
874.851	15241
874.979	15359
875.108	15382
875.237	15233
875.365	15173
875.494	15306
875.623	15370
875.751	15211
875.88	15233
876.008	15431
876.136	15488
876.265	15812
876.393	15869
876.521	15747
876.65	15770
876.778	15682
876.906	15637
877.034	15667
877.162	15686
877.29	15599
877.418	15705
877.546	15720
877.674	15770
877.802	15705
877.93	15736
878.058	15732
878.185	15572
878.313	15625
878.441	15743
878.568	15523
878.696	15698
878.824	15759
878.951	15816
879.079	15842
879.206	15983
879.333	15793
879.461	15816
879.588	15899
879.715	15892
879.842	15949
879.97	15789
880.097	15599
880.224	15496
880.351	15606
880.478	15557
880.605	15515
880.732	15515
880.859	15774
880.986	15599
881.112	15545
881.239	15458
881.366	15233
881.493	15218
881.619	15188
881.746	15252
881.872	15203
881.999	15195
882.125	15249
882.252	15321
882.378	15222
882.505	15367
882.631	15104
882.757	15001
882.883	15142
883.01	15024
883.136	14982
883.262	14880
883.388	14872
883.514	15028
883.64	15077
883.766	15013
883.892	14796
884.018	14804
884.143	15028
884.269	15138
884.395	14785
884.52	14727
884.646	14765
884.772	14640
884.897	14610
885.023	14773
885.148	14895
885.274	14891
885.399	14868
885.524	14792
885.65	14819
885.775	14807
885.9	14823
886.025	14849
886.15	14777
886.275	14697
886.4	14598
886.525	14754
886.65	14659
886.775	14655
886.9	14861
887.025	14910
887.149	14735
887.274	14545
887.399	14484
887.523	14556
887.648	14488
887.773	14465
887.897	14606
888.021	14583
888.146	14606
888.27	14564
888.395	14610
888.519	14590
888.643	14621
888.767	14667
888.891	14488
889.015	14366
889.139	14434
889.263	14389
889.387	14533
889.511	14686
889.635	14590
889.759	14355
889.883	14324
890.006	14454
890.13	14526
890.254	14358
890.377	14385
890.501	14267
890.624	14263
890.748	14256
890.871	14183
890.995	14084
891.118	14054
891.241	14062
891.364	14176
891.488	14286
891.611	14092
891.734	14103
891.857	14206
891.98	14214
892.103	14157
892.226	14134
892.349	14073
892.471	13974
892.594	14050
892.717	14092
892.839	14043
892.962	14138
893.085	14199
893.207	14119
893.33	13982
893.452	14073
893.575	14172
893.697	14119
893.819	14320
893.941	14328
894.064	14298
894.186	14001
894.308	14103
894.43	14256
894.552	14336
894.674	14252
894.796	14119
894.918	14183
895.04	14145
895.161	14324
895.283	14298
895.405	14164
895.526	14206
895.648	14206
895.769	14164
895.891	14244
896.012	14259
896.134	14332
896.255	14271
896.376	14290
896.498	14195
896.619	14343
896.74	14309
896.861	14408
896.982	14625
897.103	14842
897.224	14735
897.345	14522
897.466	14514
897.587	14484
897.708	14735
897.828	14629
897.949	14526
898.07	14503
898.19	14480
898.311	14697
898.431	14587
898.552	14693
898.672	14678
898.792	14686
898.913	14636
899.033	14552
899.153	14404
899.273	14431
899.393	14537
899.513	14469
899.633	14598
899.753	14606
899.873	14465
899.993	14549
900.113	14476
900.232	14594
900.352	14442
900.472	14366
900.591	14351
900.711	14469
900.83	14317
900.95	14408
901.069	14598
901.189	14240
901.308	14218
901.427	14062
901.546	14081
901.665	14043
901.784	14111
901.904	13955
902.023	13921
902.141	13662
902.26	13643
902.379	13738
902.498	13571
902.617	13613
902.735	13734
902.854	13647
902.973	13559
903.091	13320
903.21	13297
903.328	13247
903.446	13316
903.565	13179
903.683	13225
903.801	13061
903.919	13168
904.038	13232
904.156	12977
904.274	13168
904.392	12996
904.51	13008
904.627	12981
904.745	12973
904.863	13080
904.981	12871
905.098	12662
905.216	12772
905.334	12798
905.451	12673
905.569	12669
905.686	12677
905.803	12707
905.921	12532
906.038	12620
906.155	12521
906.272	12403
906.389	12494
906.506	12350
906.623	12338
906.74	12323
906.857	12243
906.974	12190
907.091	12292
907.208	12384
907.324	12452
907.441	12171
907.557	11984
907.674	12102
907.79	12003
907.907	11996
908.023	12022
908.139	12038
908.256	11969
908.372	11935
908.488	11961
908.604	11840
908.72	11718
908.836	11760
908.952	11802
909.068	11748
909.184	11817
909.3	11771
909.415	11870
909.531	11767
909.647	11638
909.762	11520
909.878	11478
909.993	11611
910.108	11551
910.224	11455
910.339	11512
910.454	11505
910.57	11326
910.685	11334
910.8	11611
910.915	11600
911.03	11493
911.145	11318
911.259	11216
911.374	11239
911.489	11185
911.604	11109
911.718	11056
911.833	10995
911.947	10896
912.062	10839
912.176	11029
912.291	10976
912.405	11003
912.519	11174
912.633	11242
912.748	10999
912.862	11014
912.976	10892
913.09	10702
913.204	10873
913.318	10885
913.431	11022
913.545	10927
913.659	11014
913.772	10877
913.886	10740
914	10675
914.113	10824
914.226	10904
914.34	10866
914.453	10744
914.566	10793
914.68	10668
914.793	10786
914.906	10489
915.019	10455
915.132	10466
915.245	10535
915.358	10474
915.47	10497
915.583	10599
915.696	10462
915.809	10702
915.921	10710
916.034	10500
916.146	10405
916.259	10489
916.371	10550
916.483	10588
916.595	10322
916.708	10421
916.82	10398
916.932	10318
917.044	10428
917.156	10462
917.268	10238
917.38	10337
917.491	10303
917.603	10325
917.715	10424
917.826	10481
917.938	10268
918.049	10303
918.161	10421
918.272	10474
918.384	10527
918.495	10390
918.606	10276
918.717	10223
918.828	10268
918.939	10253
919.05	10162
919.161	10135
919.272	10002
919.383	10036
919.494	10249
919.604	10394
919.715	10253
919.826	10128
919.936	10204
920.047	10318
920.157	10280
920.267	10386
920.378	10318
920.488	10234
920.598	10459
920.708	10645
920.818	10424
920.928	10447
921.038	10599
921.148	10542
921.258	10287
921.368	10192
921.477	10002
921.587	10116
921.697	9895
921.806	10128
921.916	9956
922.025	9800
922.134	9778
922.244	9797
922.353	9850
922.462	9606
922.571	9576
922.68	9500
922.789	9504
922.898	9568
923.007	9397
923.116	9538
923.224	9488
923.333	9530
923.442	9374
923.55	9272
923.659	9447
923.767	9477
923.876	9336
923.984	9306
924.092	9287
924.201	9374
924.309	9329
924.417	9443
924.525	9355
924.633	9355
924.741	10265
924.849	9176
924.956	9291
925.064	9142
925.172	9074
925.279	9138
925.387	9195
925.494	9226
925.602	9313
925.709	9195
925.816	9066
925.924	9138
926.031	9245
926.138	9192
926.245	9176
926.352	9119
926.459	9253
926.566	9237
926.673	9074
926.779	8971
926.886	9036
926.993	8872
927.099	8864
927.206	8883
927.312	8826
927.419	8933
927.525	8868
927.631	8941
927.737	8785
927.843	8693
927.95	8659
928.056	8716
928.162	8716
928.267	8777
928.373	9530
928.479	8811
928.585	8602
928.69	8766
928.796	8788
928.901	8682
929.007	8560
929.112	8640
929.218	8640
929.323	8564
929.428	8598
929.533	8731
929.638	8514
929.743	8617
929.848	8625
929.953	8629
930.058	8431
930.163	8328
930.267	8412
930.372	8476
930.477	8294
930.581	8571
930.685	8381
930.79	8225
930.894	8370
930.998	8275
931.103	8358
931.207	8062
931.311	8050
931.415	7997
931.519	7811
931.623	7727
