Data from test_V78500241_3579.txt Node
Date: Fri Mar 25 14:58:38 CST 2022
User: usil
Spectrometer: V785-0024
Trigger mode: 0
Integration Time (sec): 4.000000E-1
Scans to average: 1
Nonlinearity correction enabled: false
Boxcar width: 0
Storing dark spectrum: false
XAxis mode: Wavelengths
Number of Pixels in Spectrum: 1024
>>>>>Begin Spectral Data<<<<<
801.071	21915
801.214	21854
801.356	21507
801.499	21450
801.641	21294
801.783	21233
801.926	21203
802.068	21157
802.211	21214
802.353	21028
802.496	20948
802.638	20765
802.78	20773
802.923	20731
803.065	20564
803.208	20465
803.35	20632
803.492	20727
803.635	20819
803.777	20606
803.919	20648
804.061	20990
804.204	20629
804.346	20499
804.488	20488
804.63	20613
804.773	20457
804.915	20549
805.057	20568
805.199	20469
805.341	20503
805.483	20606
805.626	20568
805.768	20377
805.91	20571
806.052	20564
806.194	20366
806.336	20564
806.478	20412
806.62	20457
806.762	20571
806.904	20739
807.046	20826
807.188	20762
807.33	20804
807.472	20925
807.614	20716
807.756	20754
807.898	20602
808.04	20606
808.182	20366
808.324	20526
808.465	20602
808.607	20826
808.749	20849
808.891	20834
809.033	21074
809.174	20887
809.316	20765
809.458	20834
809.6	20750
809.741	20918
809.883	20758
810.025	20960
810.166	20948
810.308	20921
810.45	20868
810.591	20830
810.733	20758
810.875	20564
811.016	20507
811.158	20541
811.299	20636
811.441	20788
811.582	20716
811.724	20526
811.865	20648
812.007	20613
812.148	20552
812.29	20686
812.431	20823
812.573	20872
812.714	21085
812.855	21154
812.997	21157
813.138	21298
813.279	21207
813.421	20990
813.562	20982
813.703	20906
813.845	20788
813.986	20427
814.127	20301
814.268	20256
814.41	20180
814.551	20161
814.692	20115
814.833	20069
814.974	20096
815.115	20252
815.256	19963
815.397	19955
815.539	20016
815.68	19849
815.821	19883
815.962	19978
816.103	19875
816.244	19734
816.385	19727
816.526	19575
816.666	19304
816.807	19320
816.948	19343
817.089	19331
817.23	19304
817.371	19327
817.512	19202
817.653	19331
817.793	19190
817.934	19175
818.075	19327
818.216	19266
818.356	19350
818.497	19050
818.638	18897
818.778	18897
818.919	18966
819.06	18943
819.2	19050
819.341	19122
819.481	19122
819.622	19343
819.762	19381
819.903	19453
820.043	19324
820.184	19285
820.324	19308
820.465	19419
820.605	19190
820.746	19213
820.886	19148
821.026	19266
821.167	19225
821.307	19122
821.447	19137
821.588	19293
821.728	18947
821.868	18840
822.008	18707
822.149	18700
822.289	18696
822.429	18361
822.569	18311
822.709	18315
822.849	18133
822.99	18121
823.13	18038
823.27	18125
823.41	17904
823.55	18034
823.69	17992
823.83	17931
823.97	17912
824.11	17649
824.25	17661
824.389	17745
824.529	17851
824.669	17752
824.809	17836
824.949	17760
825.089	17802
825.228	17786
825.368	17539
825.508	17512
825.648	17570
825.787	17589
825.927	17547
826.067	17391
826.206	17471
826.346	17474
826.485	17528
826.625	17436
826.765	17665
826.904	17497
827.044	17212
827.183	17258
827.323	17178
827.462	17341
827.601	17181
827.741	17197
827.88	17200
828.02	17121
828.159	17208
828.298	17189
828.437	17250
828.577	17174
828.716	17258
828.855	17181
828.994	17033
829.134	16961
829.273	16946
829.412	16923
829.551	16934
829.69	17052
829.829	17022
829.968	17162
830.107	17045
830.246	16980
830.385	16850
830.524	16896
830.663	16793
830.802	16771
830.941	16637
831.08	16516
831.219	16763
831.357	16634
831.496	16816
831.635	16729
831.774	16561
831.913	16497
832.051	16500
832.19	16375
832.329	16451
832.467	16310
832.606	16303
832.744	16246
832.883	16188
833.022	16188
833.16	16322
833.299	16310
833.437	16257
833.576	16341
833.714	16436
833.852	16257
833.991	16481
834.129	16432
834.267	16360
834.406	16295
834.544	16352
834.682	16360
834.821	16265
834.959	16531
835.097	16333
835.235	16405
835.373	16348
835.511	16341
835.65	16249
835.788	16363
835.926	16086
836.064	16051
836.202	16055
836.34	16337
836.478	16287
836.615	16272
836.753	16333
836.891	16337
837.029	16424
837.167	16268
837.305	16268
837.443	16192
837.58	16082
837.718	16230
837.856	16196
837.993	16040
838.131	16158
838.269	15953
838.406	16013
838.544	16044
838.681	15907
838.819	15876
838.956	15751
839.094	15800
839.231	15717
839.369	15926
839.506	16097
839.643	15953
839.781	15705
839.918	15720
840.055	15663
840.193	15637
840.33	15705
840.467	15709
840.604	15739
840.742	16051
840.879	15469
841.016	15652
841.153	15534
841.29	15781
841.427	15667
841.564	15713
841.701	15766
841.838	15675
841.975	15652
842.112	15633
842.249	15332
842.385	15435
842.522	15652
842.659	15538
842.796	15359
842.933	15576
843.069	15428
843.206	15321
843.343	15584
843.479	15447
843.616	15561
843.752	15287
843.889	15272
844.025	15481
844.162	15279
844.298	15397
844.435	15245
844.571	15241
844.708	15291
844.844	15469
844.98	15443
845.117	15386
845.253	15298
845.389	15173
845.525	15195
845.661	15180
845.798	15055
845.934	15116
846.07	15020
846.206	15131
846.342	15218
846.478	15157
846.614	14952
846.75	14769
846.886	14826
847.022	14891
847.158	14899
847.294	14918
847.429	14956
847.565	14838
847.701	15081
847.837	14606
847.972	14511
848.108	14804
848.244	14769
848.379	14503
848.515	14404
848.65	14469
848.786	14480
848.921	14431
849.057	14495
849.192	14655
849.328	14446
849.463	14476
849.598	14495
849.734	14336
849.869	14313
850.004	14240
850.14	14313
850.275	14229
850.41	14195
850.545	14145
850.68	14256
850.815	14336
850.95	14138
851.085	14404
851.22	14347
851.355	14233
851.49	14119
851.625	14229
851.76	14157
851.895	14130
852.03	14092
852.165	14237
852.299	14301
852.434	14275
852.569	14278
852.703	14145
852.838	14278
852.973	14389
853.107	14389
853.242	14191
853.376	14126
853.511	13902
853.645	14073
853.78	14142
853.914	14100
854.048	14096
854.183	14149
854.317	14100
854.451	14237
854.585	13993
854.72	14081
854.854	14134
854.988	14065
855.122	14088
855.256	14043
855.39	14123
855.524	14157
855.658	14195
855.792	14187
855.926	14195
856.06	14062
856.194	14248
856.327	14130
856.461	14031
856.595	14035
856.729	14039
856.862	14240
856.996	14084
857.13	14164
857.263	14221
857.397	14206
857.53	14153
857.664	14119
857.797	14145
857.931	14103
858.064	14103
858.197	14164
858.331	14183
858.464	14065
858.597	14016
858.731	14100
858.864	14084
858.997	14081
859.13	14138
859.263	14134
859.396	14100
859.529	14054
859.662	14092
859.795	13951
859.928	14145
860.061	14278
860.194	14244
860.327	14134
860.46	14096
860.592	14199
860.725	14210
860.858	14172
860.99	14107
861.123	14024
861.256	14081
861.388	14172
861.521	14762
861.653	13989
861.786	13849
861.918	13940
862.05	14081
862.183	14031
862.315	14058
862.447	14031
862.58	14092
862.712	13879
862.844	13715
862.976	13898
863.108	13814
863.24	14309
863.372	13788
863.504	13917
863.636	13871
863.768	13951
863.9	13887
864.032	13833
864.164	13898
864.296	14016
864.428	14073
864.559	13967
864.691	14031
864.823	13925
864.954	14027
865.086	13970
865.217	13814
865.349	13738
865.48	13856
865.612	13841
865.743	14081
865.875	13967
866.006	13989
866.137	13944
866.269	13898
866.4	13826
866.531	13898
866.662	13791
866.793	13837
866.924	13830
867.055	13909
867.186	13856
867.317	13890
867.448	13845
867.579	13841
867.71	13799
867.841	13830
867.972	13955
868.103	13837
868.233	14024
868.364	13917
868.495	13906
868.625	14252
868.756	14237
868.886	14096
869.017	14206
869.147	14298
869.278	14343
869.408	14199
869.539	14168
869.669	14271
869.799	14214
869.929	14263
870.06	14282
870.19	14476
870.32	14446
870.45	14469
870.58	14579
870.71	14670
870.84	14689
870.97	14545
871.1	14552
871.23	14720
871.36	14765
871.489	14712
871.619	14644
871.749	14758
871.879	14804
872.008	14887
872.138	14796
872.267	14819
872.397	14610
872.526	14663
872.656	14530
872.785	14636
872.915	14899
873.044	14842
873.173	14773
873.303	14861
873.432	14861
873.561	14899
873.69	14895
873.819	14864
873.948	14853
874.077	14815
874.206	14743
874.335	14811
874.464	14986
874.593	15097
874.722	15005
874.851	15184
874.979	15074
875.108	15146
875.237	15176
875.365	15013
875.494	15051
875.623	15226
875.751	15108
875.88	15184
876.008	15283
876.136	15302
876.265	15542
876.393	15610
876.521	15591
876.65	15648
876.778	15568
876.906	15545
877.034	15481
877.162	15553
877.29	15424
877.418	15576
877.546	15545
877.674	15549
877.802	15428
877.93	15523
878.058	15458
878.185	15389
878.313	15576
878.441	15572
878.568	15363
878.696	15466
878.824	15519
878.951	15603
879.079	15671
879.206	15812
879.333	15732
879.461	15595
879.588	15720
879.715	15682
879.842	15884
879.97	15705
880.097	15466
880.224	15382
880.351	15412
880.478	15439
880.605	15389
880.732	15454
880.859	15587
880.986	15447
881.112	15443
881.239	15294
881.366	15203
881.493	15074
881.619	15104
881.746	15100
881.872	14933
881.999	15036
882.125	14979
882.252	15142
882.378	15127
882.505	15169
882.631	15013
882.757	14800
882.883	15024
883.01	14861
883.136	14792
883.262	14750
883.388	14678
883.514	14982
883.64	14933
883.766	14765
883.892	14682
884.018	14651
884.143	14868
884.269	14967
884.395	14648
884.52	14587
884.646	14590
884.772	14568
884.897	14564
885.023	14606
885.148	14682
885.274	14743
885.399	14617
885.524	14621
885.65	14568
885.775	14533
885.9	14621
886.025	14632
886.15	14640
886.275	14568
886.4	14488
886.525	14469
886.65	14484
886.775	14457
886.9	14796
887.025	14834
887.149	14587
887.274	14473
887.399	14419
887.523	14366
887.648	14339
887.773	14301
887.897	14526
888.021	14541
888.146	14336
888.27	14587
888.395	14541
888.519	14476
888.643	14461
888.767	14495
888.891	14355
889.015	14298
889.139	14320
889.263	14282
889.387	14396
889.511	14423
889.635	14332
889.759	14199
889.883	14286
890.006	14294
890.13	14423
890.254	14244
890.377	14164
890.501	14107
890.624	14111
890.748	14229
890.871	13913
890.995	13830
891.118	13944
891.241	14081
891.364	14008
891.488	14046
891.611	13883
891.734	13993
891.857	14027
891.98	14065
892.103	14077
892.226	13887
892.349	14016
892.471	13852
892.594	14001
892.717	13921
892.839	14008
892.962	14005
893.085	14084
893.207	13955
893.33	13917
893.452	13833
893.575	14077
893.697	13967
893.819	14062
893.941	14180
894.064	14176
894.186	13887
894.308	13951
894.43	14039
894.552	14221
894.674	14062
894.796	13932
894.918	14016
895.04	14016
895.161	14161
895.283	14058
895.405	14020
895.526	14088
895.648	14107
895.769	14180
895.891	14126
896.012	14168
896.134	14084
896.255	14123
896.376	14020
896.498	14240
896.619	14168
896.74	14100
896.861	14244
896.982	14530
897.103	14594
897.224	14446
897.345	14396
897.466	14343
897.587	14339
897.708	14522
897.828	14427
897.949	14298
898.07	14259
898.19	14358
898.311	14667
898.431	14461
898.552	14404
898.672	14575
898.792	14545
898.913	14514
899.033	14408
899.153	14336
899.273	14298
899.393	14313
899.513	14381
899.633	14404
899.753	14400
899.873	14298
899.993	14415
900.113	14317
900.232	14362
900.352	14309
900.472	14259
900.591	14164
900.711	14237
900.83	14202
900.95	14347
901.069	14328
901.189	14176
901.308	13978
901.427	13883
901.546	13906
901.665	13906
901.784	13849
901.904	13830
902.023	13715
902.141	13518
902.26	13388
902.379	13540
902.498	13400
902.617	13384
902.735	13525
902.854	13525
902.973	13327
903.091	13217
903.21	13133
903.328	13209
903.446	13141
903.565	13133
903.683	13107
903.801	12890
903.919	13042
904.038	13038
904.156	12913
904.274	12943
904.392	12825
904.51	12886
904.627	12787
904.745	12935
904.863	12901
904.981	12597
905.098	12578
905.216	12540
905.334	12555
905.451	12570
905.569	12517
905.686	12612
905.803	12582
905.921	12467
906.038	12513
906.155	12334
906.272	12247
906.389	12346
906.506	12072
906.623	12201
906.74	12155
906.857	12022
906.974	12079
907.091	12273
907.208	12361
907.324	12125
907.441	11980
907.557	11988
907.674	11904
907.79	11821
907.907	11999
908.023	11889
908.139	11950
908.256	11889
908.372	11817
908.488	11813
908.604	11649
908.72	11699
908.836	11611
908.952	11657
909.068	11710
909.184	11756
909.3	11592
909.415	11741
909.531	11615
909.647	11421
909.762	11379
909.878	11421
909.993	11482
910.108	11383
910.224	11341
910.339	11478
910.454	11345
910.57	11250
910.685	11174
910.8	11436
910.915	11421
911.03	11318
911.145	11109
911.259	11181
911.374	11105
911.489	11006
911.604	11056
911.718	10949
911.833	10995
911.947	10816
912.062	10664
912.176	10797
912.291	10904
912.405	10812
912.519	11029
912.633	11136
912.748	10984
912.862	10858
912.976	10733
913.09	10675
913.204	10812
913.318	10801
913.431	10824
913.545	10862
913.659	10847
913.772	10752
913.886	10706
914	10618
914.113	10733
914.226	10774
914.34	10767
914.453	10470
914.566	10752
914.68	10592
914.793	10527
914.906	10417
915.019	10382
915.132	10356
915.245	10367
915.358	10402
915.47	10371
915.583	10405
915.696	10428
915.809	10519
915.921	10538
916.034	10367
916.146	10306
916.259	10379
916.371	10386
916.483	10531
916.595	10329
916.708	10322
916.82	10284
916.932	10291
917.044	10284
917.156	10390
917.268	10257
917.38	10181
917.491	10169
917.603	10268
917.715	10306
917.826	10421
917.938	10219
918.049	10166
918.161	10333
918.272	10352
918.384	10421
918.495	10261
918.606	10109
918.717	10048
918.828	10105
918.939	10116
919.05	10074
919.161	10101
919.272	9945
919.383	10013
919.494	10215
919.604	10333
919.715	10143
919.826	10093
919.936	10090
920.047	10295
920.157	10162
920.267	10329
920.378	10204
920.488	10097
920.598	10360
920.708	10443
920.818	10341
920.928	10299
921.038	10459
921.148	10436
921.258	10112
921.368	10101
921.477	10006
921.587	9983
921.697	9892
921.806	10021
921.916	9873
922.025	9800
922.134	9694
922.244	9675
922.353	9694
922.462	9557
922.571	9564
922.68	9359
922.789	9401
922.898	9412
923.007	9332
923.116	9431
923.224	9435
923.333	9382
923.442	9298
923.55	9226
923.659	9275
923.767	9355
923.876	9233
923.984	9291
924.092	9294
924.201	9355
924.309	9199
924.417	9363
924.525	9184
924.633	9245
924.741	9937
924.849	9047
924.956	9157
925.064	9051
925.172	8960
925.279	9009
925.387	9077
925.494	9131
925.602	9184
925.709	9184
925.816	9005
925.924	9032
926.031	9138
926.138	9055
926.245	9169
926.352	9013
926.459	9142
926.566	9116
926.673	9024
926.779	8948
926.886	8868
926.993	8705
927.099	8838
927.206	8746
927.312	8670
927.419	8830
927.525	8792
927.631	8796
927.737	8735
927.843	8708
927.95	8590
928.056	8621
928.162	8716
928.267	8708
928.373	9310
928.479	8781
928.585	8522
928.69	8594
928.796	8629
928.901	8651
929.007	8423
929.112	8629
929.218	8560
929.323	8514
929.428	8488
929.533	8545
929.638	8431
929.743	8492
929.848	8533
929.953	8442
930.058	8461
930.163	8244
930.267	8301
930.372	8393
930.477	8218
930.581	8514
930.685	8377
930.79	8275
930.894	8248
930.998	8168
931.103	8370
931.207	8008
931.311	7913
931.415	7849
931.519	7685
931.623	7765
