Data from test_V78500241_596.txt Node
Date: Fri Mar 25 14:37:52 CST 2022
User: usil
Spectrometer: V785-0024
Trigger mode: 0
Integration Time (sec): 4.000000E-1
Scans to average: 1
Nonlinearity correction enabled: false
Boxcar width: 0
Storing dark spectrum: false
XAxis mode: Wavelengths
Number of Pixels in Spectrum: 1024
>>>>>Begin Spectral Data<<<<<
801.071	27873
801.214	27739
801.356	27576
801.499	27549
801.641	27511
801.783	27340
801.926	27439
802.068	27188
802.211	27218
802.353	27146
802.496	26899
802.638	26815
802.78	26826
802.923	26750
803.065	26663
803.208	26750
803.35	26857
803.492	26948
803.635	27051
803.777	26906
803.919	26952
804.061	27165
804.204	27070
804.346	26975
804.488	27020
804.63	27081
804.773	26910
804.915	27116
805.057	27207
805.199	27005
805.341	27230
805.483	27374
805.626	27340
805.768	27222
805.91	27405
806.052	27507
806.194	27542
806.336	27797
806.478	27816
806.62	27918
806.762	28204
806.904	28519
807.046	28938
807.188	29037
807.33	29414
807.472	29843
807.614	30068
807.756	30783
807.898	31438
808.04	32522
808.182	33991
808.324	35821
808.465	37753
808.607	39869
808.749	41786
808.891	42901
809.033	43084
809.174	41847
809.316	39892
809.458	37575
809.6	35402
809.741	33572
809.883	32065
810.025	31304
810.166	30612
810.308	29977
810.45	29558
810.591	29155
810.733	28809
810.875	28645
811.016	28238
811.158	28070
811.299	28162
811.441	28063
811.582	28025
811.724	27762
811.865	27793
812.007	27736
812.148	27625
812.29	27629
812.431	27614
812.573	27800
812.714	28002
812.855	27918
812.997	27983
813.138	27994
813.279	27991
813.421	27892
813.562	27724
813.703	27481
813.845	27424
813.986	27119
814.127	26998
814.268	26872
814.41	26678
814.551	26716
814.692	26705
814.833	26613
814.974	26617
815.115	26613
815.256	26377
815.397	26564
815.539	26358
815.68	26237
815.821	26332
815.962	26324
816.103	26267
816.244	26043
816.385	25970
816.526	25856
816.666	25670
816.807	25525
816.948	25757
817.089	25685
817.23	25544
817.371	25655
817.512	25624
817.653	25495
817.793	25457
817.934	25472
818.075	25506
818.216	25266
818.356	25468
818.497	25247
818.638	25069
818.778	25190
818.919	25244
819.06	25304
819.2	25369
819.341	25578
819.481	25403
819.622	25479
819.762	25696
819.903	25731
820.043	25540
820.184	25537
820.324	25487
820.465	25426
820.605	25289
820.746	25327
820.886	25259
821.026	25289
821.167	25369
821.307	25510
821.447	25263
821.588	25194
821.728	25004
821.868	24863
822.008	24833
822.149	24517
822.289	24684
822.429	24437
822.569	24418
822.709	24254
822.849	24277
822.99	24167
823.13	24022
823.27	24057
823.41	23999
823.55	23996
823.69	23996
823.83	23893
823.97	23676
824.11	23665
824.25	23707
824.389	23737
824.529	23764
824.669	23630
824.809	23836
824.949	23642
825.089	23741
825.228	23665
825.368	23421
825.508	23497
825.648	23398
825.787	23497
825.927	23558
826.067	23455
826.206	23444
826.346	23398
826.485	23486
826.625	23467
826.765	23467
826.904	23528
827.044	23235
827.183	23220
827.323	23079
827.462	23090
827.601	23143
827.741	23121
827.88	23121
828.02	23014
828.159	23143
828.298	23128
828.437	23220
828.577	23067
828.716	23227
828.855	23029
828.994	22877
829.134	22843
829.273	22873
829.412	22752
829.551	22797
829.69	22691
829.829	22812
829.968	22824
830.107	22885
830.246	22729
830.385	22626
830.524	22702
830.663	22603
830.802	22512
830.941	22295
831.08	22386
831.219	22504
831.357	22432
831.496	22481
831.635	22455
831.774	22280
831.913	22226
832.051	22158
832.19	22318
832.329	22223
832.467	22109
832.606	22109
832.744	22112
832.883	22238
833.022	22322
833.16	22169
833.299	22443
833.437	22443
833.576	22592
833.714	22679
833.852	22835
833.991	22805
834.129	22911
834.267	22942
834.406	22733
834.544	22774
834.682	22752
834.821	22592
834.959	22672
835.097	22386
835.235	22489
835.373	22352
835.511	22333
835.65	22086
835.788	22207
835.926	21941
836.064	21827
836.202	21785
836.34	22021
836.478	21994
836.615	21857
836.753	21778
836.891	21892
837.029	21895
837.167	21804
837.305	21717
837.443	21679
837.58	21842
837.718	21637
837.856	21713
837.993	21549
838.131	21694
838.269	21686
838.406	21595
838.544	21587
838.681	21329
838.819	21226
838.956	21199
839.094	21096
839.231	21199
839.369	21348
839.506	21469
839.643	21332
839.781	21226
839.918	20994
840.055	21157
840.193	21096
840.33	21085
840.467	21116
840.604	21055
840.742	21283
840.879	20956
841.016	20971
841.153	21039
841.29	21081
841.427	21036
841.564	21119
841.701	21195
841.838	21039
841.975	20941
842.112	20910
842.249	20864
842.385	20796
842.522	20929
842.659	20883
842.796	20785
842.933	20868
843.069	20743
843.206	20807
843.343	20891
843.479	20918
843.616	20971
843.752	20716
843.889	20739
844.025	21028
844.162	20815
844.298	20941
844.435	21028
844.571	20921
844.708	21348
844.844	21694
844.98	21945
845.117	22265
845.253	22968
845.389	24007
845.525	26294
845.661	30049
845.798	34660
845.934	38005
846.07	39713
846.206	38902
846.342	35764
846.478	31331
846.614	27233
846.75	24380
846.886	23094
847.022	22067
847.158	21435
847.294	21077
847.429	20826
847.565	20617
847.701	20758
847.837	20035
847.972	20084
848.108	20138
848.244	20016
848.379	19689
848.515	19856
848.65	19658
848.786	19795
848.921	19791
849.057	19951
849.192	19833
849.328	19715
849.463	19620
849.598	19575
849.734	19658
849.869	19491
850.004	19468
850.14	19400
850.275	19400
850.41	19335
850.545	19358
850.68	19304
850.815	19343
850.95	19388
851.085	19624
851.22	19590
851.355	19339
851.49	19331
851.625	19240
851.76	19422
851.895	19263
852.03	19190
852.165	19407
852.299	19449
852.434	19339
852.569	19403
852.703	19491
852.838	19445
852.973	19544
853.107	19643
853.242	19480
853.376	19316
853.511	19179
853.645	19339
853.78	19381
853.914	19537
854.048	19468
854.183	19445
854.317	19438
854.451	19738
854.585	19438
854.72	19476
854.854	19571
854.988	19365
855.122	19327
855.256	19202
855.39	19293
855.524	19392
855.658	19346
855.792	19175
855.926	19335
856.06	19301
856.194	19400
856.327	19209
856.461	19148
856.595	19179
856.729	19179
856.862	19251
856.996	19213
857.13	19274
857.263	19240
857.397	19232
857.53	19179
857.664	19126
857.797	19148
857.931	19126
858.064	19194
858.197	19263
858.331	19156
858.464	19019
858.597	18970
858.731	18996
858.864	18920
858.997	18989
859.13	19031
859.263	19080
859.396	19179
859.529	18901
859.662	19095
859.795	18863
859.928	19038
860.061	19194
860.194	19301
860.327	19012
860.46	18989
860.592	19129
860.725	19050
860.858	19240
860.99	19084
861.123	19000
861.256	18932
861.388	19023
861.521	19677
861.653	18966
861.786	18852
861.918	18806
862.05	18985
862.183	18996
862.315	19046
862.447	19137
862.58	19038
862.712	18776
862.844	18711
862.976	18814
863.108	18711
863.24	19137
863.372	18730
863.504	18692
863.636	18700
863.768	18764
863.9	18779
864.032	18703
864.164	18673
864.296	18730
864.428	18894
864.559	18776
864.691	18798
864.823	18722
864.954	18757
865.086	18745
865.217	18570
865.349	18559
865.48	18703
865.612	18711
865.743	18760
865.875	18677
866.006	18650
866.137	18673
866.269	18703
866.4	18620
866.531	18646
866.662	18627
866.793	18525
866.924	18555
867.055	18673
867.186	18589
867.317	18532
867.448	18582
867.579	18464
867.71	18521
867.841	18525
867.972	18589
868.103	18532
868.233	18654
868.364	18631
868.495	18585
868.625	18848
868.756	18913
868.886	18639
869.017	18837
869.147	18878
869.278	18890
869.408	18833
869.539	18924
869.669	18882
869.799	18928
869.929	19004
870.06	18958
870.19	19221
870.32	19145
870.45	19160
870.58	19152
870.71	19285
870.84	19354
870.97	19168
871.1	19293
871.23	19411
871.36	19563
871.489	19373
871.619	19419
871.749	19502
871.879	19616
872.008	19632
872.138	19620
872.267	19616
872.397	19415
872.526	19316
872.656	19430
872.785	19396
872.915	19632
873.044	19670
873.173	19696
873.303	19674
873.432	19788
873.561	19761
873.69	19700
873.819	19818
873.948	19826
874.077	19693
874.206	19746
874.335	19742
874.464	19982
874.593	20073
874.722	19982
874.851	20126
874.979	20035
875.108	20191
875.237	20111
875.365	20122
875.494	20199
875.623	20427
875.751	20259
875.88	20393
876.008	20461
876.136	20549
876.265	20937
876.393	20876
876.521	21009
876.65	20986
876.778	20876
876.906	20845
877.034	20956
877.162	20975
877.29	21024
877.418	21116
877.546	21249
877.674	21233
877.802	21245
877.93	21355
878.058	21526
878.185	21595
878.313	21762
878.441	22116
878.568	22166
878.696	22729
878.824	23223
878.951	24068
879.079	25038
879.206	26476
879.333	27854
879.461	28949
879.588	29901
879.715	29764
879.842	29288
879.97	27865
880.097	26404
880.224	25339
880.351	24388
880.478	23904
880.605	23478
880.732	23239
880.859	23296
880.986	23014
881.112	22892
881.239	22584
881.366	22512
881.493	22622
881.619	22360
881.746	22493
881.872	22455
881.999	22504
882.125	22481
882.252	22615
882.378	22615
882.505	22782
882.631	22348
882.757	22470
882.883	22394
883.01	22523
883.136	22360
883.262	22215
883.388	22173
883.514	22382
883.64	22459
883.766	22360
883.892	22109
884.018	22166
884.143	22398
884.269	22462
884.395	22196
884.52	22067
884.646	22128
884.772	22025
884.897	21953
885.023	22090
885.148	22070
885.274	22124
885.399	22139
885.524	21816
885.65	21945
885.775	21743
885.9	21538
886.025	21717
886.15	21500
886.275	21249
886.4	21241
886.525	21070
886.65	20933
886.775	20929
886.9	21036
887.025	21024
887.149	20876
887.274	20659
887.399	20431
887.523	20434
887.648	20347
887.773	20214
887.897	20404
888.021	20317
888.146	20271
888.27	20324
888.395	20256
888.519	20202
888.643	20214
888.767	20149
888.891	19868
889.015	19708
889.139	19932
889.263	19746
889.387	19883
889.511	19868
889.635	19830
889.759	19594
889.883	19575
890.006	19616
890.13	19597
890.254	19499
890.377	19460
890.501	19244
890.624	19251
890.748	19381
890.871	19107
890.995	18977
891.118	18894
891.241	19053
891.364	18977
891.488	19168
891.611	18947
891.734	18977
891.857	19012
891.98	18939
892.103	18894
892.226	18977
892.349	18867
892.471	18642
892.594	18791
892.717	18749
892.839	18734
892.962	18829
893.085	18772
893.207	18684
893.33	18582
893.452	18612
893.575	18776
893.697	18616
893.819	18814
893.941	18776
894.064	18722
894.186	18559
894.308	18422
894.43	18665
894.552	18601
894.674	18623
894.796	18384
894.918	18441
895.04	18540
895.161	18471
895.283	18433
895.405	18342
895.526	18384
895.648	18460
895.769	18399
895.891	18483
896.012	18563
896.134	18403
896.255	18437
896.376	18418
896.498	18460
896.619	18426
896.74	18388
896.861	18555
896.982	18776
897.103	18810
897.224	18627
897.345	18673
897.466	18483
897.587	18604
897.708	18658
897.828	18661
897.949	18479
898.07	18460
898.19	18448
898.311	18597
898.431	18597
898.552	18574
898.672	18669
898.792	18574
898.913	18650
899.033	18460
899.153	18330
899.273	18308
899.393	18338
899.513	18327
899.633	18452
899.753	18422
899.873	18338
899.993	18350
900.113	18277
900.232	18285
900.352	18315
900.472	18304
900.591	18114
900.711	18133
900.83	18053
900.95	18194
901.069	18254
901.189	18079
901.308	17859
901.427	17741
901.546	17756
901.665	17703
901.784	17745
901.904	17611
902.023	17581
902.141	17258
902.26	17250
902.379	17349
902.498	17223
902.617	17048
902.735	17242
902.854	17174
902.973	17064
903.091	16923
903.21	16793
903.328	16847
903.446	16828
903.565	16622
903.683	16687
903.801	16653
903.919	16687
904.038	16569
904.156	16432
904.274	16584
904.392	16451
904.51	16447
904.627	16485
904.745	16352
904.863	16489
904.981	16272
905.098	16040
905.216	16112
905.334	16093
905.451	16101
905.569	16112
905.686	16196
905.803	16124
905.921	15899
906.038	16032
906.155	15759
906.272	15797
906.389	15694
906.506	15652
906.623	15580
906.74	15610
906.857	15473
906.974	15542
907.091	15572
907.208	15709
907.324	15568
907.441	15443
907.557	15416
907.674	15435
907.79	15279
907.907	15268
908.023	15279
908.139	15340
908.256	15237
908.372	15173
908.488	15097
908.604	15013
908.72	14979
908.836	15085
908.952	14990
909.068	15047
909.184	15112
909.3	14967
909.415	15039
909.531	14971
909.647	14746
909.762	14754
909.878	14651
909.993	14697
910.108	14674
910.224	14629
910.339	14678
910.454	14689
910.57	14507
910.685	14457
910.8	14781
910.915	14651
911.03	14530
911.145	14362
911.259	14450
911.374	14271
911.489	14195
911.604	14317
911.718	14081
911.833	14092
911.947	13963
912.062	13887
912.176	14073
912.291	14077
912.405	14073
912.519	14294
912.633	14298
912.748	14157
912.862	13970
912.976	13932
913.09	13883
913.204	13833
913.318	13925
913.431	14069
913.545	13993
913.659	14020
913.772	13909
913.886	13734
914	13852
914.113	13837
914.226	13917
914.34	13837
914.453	13704
914.566	13700
914.68	13662
914.793	13655
914.906	13495
915.019	13411
915.132	13392
915.245	13518
915.358	13499
915.47	13407
915.583	13457
915.696	13468
915.809	13628
915.921	13533
916.034	13419
916.146	13350
916.259	13350
916.371	13487
916.483	13381
916.595	13232
916.708	13354
916.82	13365
916.932	13335
917.044	13354
917.156	13274
917.268	13217
917.38	13099
917.491	13152
917.603	13198
917.715	13247
917.826	13259
917.938	13187
918.049	13107
918.161	13118
918.272	13240
918.384	13209
918.495	13194
918.606	12951
918.717	12951
918.828	13088
918.939	12970
919.05	12749
919.161	12859
919.272	12620
919.383	12734
919.494	13000
919.604	13095
919.715	12958
919.826	12764
919.936	12791
920.047	12970
920.157	12875
920.267	12977
920.378	12867
920.488	12848
920.598	12935
920.708	13103
920.818	12954
920.928	12916
921.038	13110
921.148	13126
921.258	12821
921.368	12749
921.477	12677
921.587	12570
921.697	12559
921.806	12612
921.916	12490
922.025	12380
922.134	12315
922.244	12194
922.353	12296
922.462	12190
922.571	12167
922.68	11980
922.789	11969
922.898	12015
923.007	11980
923.116	11999
923.224	11973
923.333	11828
923.442	11798
923.55	11885
923.659	11737
923.767	11843
923.876	11790
923.984	11847
924.092	11722
924.201	11745
924.309	11809
924.417	11672
924.525	11661
924.633	11688
924.741	12414
924.849	11509
924.956	11657
925.064	11478
925.172	11444
925.279	11448
925.387	11539
925.494	11383
925.602	11566
925.709	11596
925.816	11452
925.924	11379
926.031	11497
926.138	11349
926.245	11459
926.352	11288
926.459	11497
926.566	11512
926.673	11349
926.779	11277
926.886	11280
926.993	11003
927.099	11014
927.206	11056
927.312	11033
927.419	11090
927.525	11083
927.631	11143
927.737	10915
927.843	10972
927.95	10809
928.056	11006
928.162	10953
928.267	11010
928.373	11562
928.479	11086
928.585	10790
928.69	10862
928.796	10896
928.901	10805
929.007	10698
929.112	10869
929.218	10755
929.323	10691
929.428	10645
929.533	10828
929.638	10618
929.743	10725
929.848	10736
929.953	10664
930.058	10573
930.163	10333
930.267	10402
930.372	10580
930.477	10470
930.581	10584
930.685	10493
930.79	10337
930.894	10242
930.998	10200
931.103	10402
931.207	10010
931.311	10017
931.415	9915
931.519	9667
931.623	9740
