Data from test_V78500241_811.txt Node
Date: Fri Mar 25 14:39:21 CST 2022
User: usil
Spectrometer: V785-0024
Trigger mode: 0
Integration Time (sec): 4.000000E-1
Scans to average: 1
Nonlinearity correction enabled: false
Boxcar width: 0
Storing dark spectrum: false
XAxis mode: Wavelengths
Number of Pixels in Spectrum: 1024
>>>>>Begin Spectral Data<<<<<
801.071	26431
801.214	26134
801.356	25913
801.499	25769
801.641	25776
801.783	25818
801.926	25814
802.068	25575
802.211	25479
802.353	25430
802.496	25175
802.638	25190
802.78	25137
802.923	25107
803.065	25000
803.208	24932
803.35	25072
803.492	25308
803.635	25327
803.777	25133
803.919	25312
804.061	25666
804.204	25487
804.346	25346
804.488	25266
804.63	25312
804.773	25263
804.915	25282
805.057	25476
805.199	25548
805.341	25700
805.483	25689
805.626	25639
805.768	25552
805.91	25894
806.052	25868
806.194	26027
806.336	26366
806.478	26199
806.62	26393
806.762	26636
806.904	26906
807.046	27389
807.188	27652
807.33	27994
807.472	28474
807.614	28866
807.756	29680
807.898	30311
808.04	31445
808.182	32975
808.324	35041
808.465	37316
808.607	39660
808.749	41790
808.891	43171
809.033	43388
809.174	42003
809.316	39819
809.458	37365
809.6	34862
809.741	32636
809.883	31164
810.025	30018
810.166	29159
810.308	28752
810.45	28196
810.591	27610
810.733	27207
810.875	26998
811.016	26575
811.158	26568
811.299	26488
811.441	26503
811.582	26218
811.724	26077
811.865	25966
812.007	25898
812.148	25818
812.29	25879
812.431	25982
812.573	26126
812.714	26008
812.855	26130
812.997	26180
813.138	26298
813.279	26111
813.421	26081
813.562	26005
813.703	25780
813.845	25556
813.986	25362
814.127	25072
814.268	24905
814.41	24840
814.551	24878
814.692	24935
814.833	24894
814.974	24863
815.115	24776
815.256	24669
815.397	24654
815.539	24612
815.68	24623
815.821	24296
815.962	24460
816.103	24578
816.244	24247
816.385	24289
816.526	24277
816.666	24003
816.807	23897
816.948	23813
817.089	23954
817.23	23870
817.371	23623
817.512	23809
817.653	23760
817.793	23718
817.934	23630
818.075	23771
818.216	23718
818.356	23676
818.497	23577
818.638	23421
818.778	23395
818.919	23436
819.06	23436
819.2	23448
819.341	23600
819.481	23714
819.622	23676
819.762	23874
819.903	23794
820.043	23718
820.184	23661
820.324	23589
820.465	23672
820.605	23551
820.746	23547
820.886	23459
821.026	23570
821.167	23627
821.307	23707
821.447	23345
821.588	23379
821.728	23181
821.868	23037
822.008	22869
822.149	22942
822.289	22835
822.429	22721
822.569	22698
822.709	22565
822.849	22379
822.99	22409
823.13	22303
823.27	22303
823.41	22272
823.55	22044
823.69	22204
823.83	22253
823.97	22048
824.11	22025
824.25	21854
824.389	21911
824.529	21918
824.669	21865
824.809	21983
824.949	21983
825.089	21972
825.228	21930
825.368	21804
825.508	21789
825.648	21785
825.787	21675
825.927	21701
826.067	21743
826.206	21625
826.346	21701
826.485	21774
826.625	21694
826.765	21861
826.904	21713
827.044	21389
827.183	21298
827.323	21321
827.462	21439
827.601	21351
827.741	21374
827.88	21348
828.02	21420
828.159	21348
828.298	21431
828.437	21386
828.577	21359
828.716	21351
828.855	21203
828.994	21036
829.134	21192
829.273	21203
829.412	20975
829.551	20910
829.69	21055
829.829	21043
829.968	21138
830.107	21195
830.246	20971
830.385	21051
830.524	20963
830.663	20830
830.802	20804
830.941	20648
831.08	20609
831.219	20754
831.357	20663
831.496	20982
831.635	20701
831.774	20530
831.913	20552
832.051	20507
832.19	20457
832.329	20503
832.467	20404
832.606	20309
832.744	20488
832.883	20583
833.022	20594
833.16	20667
833.299	20815
833.437	20796
833.576	21032
833.714	20960
833.852	21131
833.991	21317
834.129	21363
834.267	21245
834.406	21226
834.544	21275
834.682	21157
834.821	20990
834.959	21085
835.097	20750
835.235	20705
835.373	20644
835.511	20716
835.65	20393
835.788	20518
835.926	20248
836.064	20126
836.202	20069
836.34	20282
836.478	20267
836.615	20210
836.753	20221
836.891	20202
837.029	20168
837.167	20172
837.305	20115
837.443	20008
837.58	19982
837.718	20005
837.856	20001
837.993	20012
838.131	19947
838.269	20027
838.406	19860
838.544	19898
838.681	19651
838.819	19635
838.956	19582
839.094	19540
839.231	19487
839.369	19582
839.506	19928
839.643	19655
839.781	19422
839.918	19354
840.055	19563
840.193	19476
840.33	19400
840.467	19354
840.604	19468
840.742	19685
840.879	19362
841.016	19381
841.153	19324
841.29	19590
841.427	19552
841.564	19487
841.701	19392
841.838	19373
841.975	19346
842.112	19419
842.249	19259
842.385	19183
842.522	19381
842.659	19266
842.796	19190
842.933	19270
843.069	19232
843.206	19240
843.343	19270
843.479	19373
843.616	19350
843.752	19137
843.889	19369
844.025	19354
844.162	19377
844.298	19502
844.435	19514
844.571	19651
844.708	19871
844.844	20199
844.98	20530
845.117	20906
845.253	21686
845.389	22915
845.525	25491
845.661	29741
845.798	34888
845.934	38796
846.07	40398
846.206	39618
846.342	36076
846.478	30920
846.614	26568
846.75	23490
846.886	21720
847.022	20864
847.158	20122
847.294	19582
847.429	19293
847.565	19175
847.701	19236
847.837	18798
847.972	18658
848.108	18574
848.244	18608
848.379	18467
848.515	18251
848.65	18254
848.786	18258
848.921	18167
849.057	18350
849.192	18292
849.328	18232
849.463	18049
849.598	18068
849.734	18007
849.869	17958
850.004	17878
850.14	18045
850.275	17828
850.41	17775
850.545	17783
850.68	17813
850.815	17885
850.95	17923
851.085	18079
851.22	17775
851.355	17847
851.49	17764
851.625	17878
851.76	17843
851.895	17661
852.03	17775
852.165	17866
852.299	17889
852.434	17942
852.569	17897
852.703	17859
852.838	18072
852.973	17984
853.107	18091
853.242	17904
853.376	17874
853.511	17646
853.645	17874
853.78	18053
853.914	17882
854.048	18007
854.183	17809
854.317	18026
854.451	18083
854.585	17999
854.72	18140
854.854	17999
854.988	17836
855.122	17904
855.256	17638
855.39	17855
855.524	17912
855.658	17863
855.792	17794
855.926	17821
856.06	17745
856.194	17821
856.327	17745
856.461	17665
856.595	17733
856.729	17680
856.862	17794
856.996	17714
857.13	17802
857.263	17794
857.397	17748
857.53	17570
857.664	17630
857.797	17638
857.931	17699
858.064	17668
858.197	17684
858.331	17657
858.464	17623
858.597	17505
858.731	17638
858.864	17551
858.997	17516
859.13	17581
859.263	17554
859.396	17672
859.529	17497
859.662	17490
859.795	17566
859.928	17482
860.061	17623
860.194	17623
860.327	17589
860.46	17474
860.592	17600
860.725	17680
860.858	17608
860.99	17532
861.123	17421
861.256	17463
861.388	17676
861.521	18159
861.653	17364
861.786	17341
861.918	17429
862.05	17493
862.183	17573
862.315	17547
862.447	17505
862.58	17402
862.712	17273
862.844	17277
862.976	17360
863.108	17334
863.24	17684
863.372	17204
863.504	17216
863.636	17231
863.768	17322
863.9	17284
864.032	17231
864.164	17250
864.296	17250
864.428	17311
864.559	17379
864.691	17391
864.823	17269
864.954	17261
865.086	17288
865.217	17303
865.349	17128
865.48	17223
865.612	17223
865.743	17303
865.875	17273
866.006	17056
866.137	17212
866.269	17159
866.4	17242
866.531	17086
866.662	17132
866.793	17098
866.924	17159
867.055	17143
867.186	17159
867.317	17094
867.448	17056
867.579	17102
867.71	17155
867.841	17052
867.972	17170
868.103	17113
868.233	17220
868.364	17170
868.495	17212
868.625	17402
868.756	17455
868.886	17250
869.017	17391
869.147	17558
869.278	17592
869.408	17425
869.539	17322
869.669	17486
869.799	17516
869.929	17528
870.06	17520
870.19	17828
870.32	17729
870.45	17748
870.58	17843
870.71	17904
870.84	17958
870.97	17802
871.1	17809
871.23	18129
871.36	18030
871.489	18034
871.619	17939
871.749	18060
871.879	18117
872.008	18197
872.138	18121
872.267	18049
872.397	17973
872.526	18030
872.656	17866
872.785	17958
872.915	18266
873.044	18262
873.173	18311
873.303	18308
873.432	18270
873.561	18346
873.69	18254
873.819	18289
873.948	18403
874.077	18334
874.206	18346
874.335	18407
874.464	18486
874.593	18620
874.722	18677
874.851	18760
874.979	18795
875.108	18757
875.237	18779
875.365	18738
875.494	18878
875.623	18989
875.751	18688
875.88	19076
876.008	19160
876.136	19107
876.265	19400
876.393	19575
876.521	19441
876.65	19658
876.778	19613
876.906	19594
877.034	19700
877.162	19712
877.29	19818
877.418	19826
877.546	19875
877.674	20039
877.802	20092
877.93	20199
878.058	20256
878.185	20400
878.313	20716
878.441	21013
878.568	21104
878.696	21610
878.824	22226
878.951	23010
879.079	24342
879.206	25921
879.333	27321
879.461	28763
879.588	29486
879.715	29684
879.842	28885
879.97	27386
880.097	25769
880.224	24505
880.351	23615
880.478	22968
880.605	22516
880.732	22360
880.859	22261
880.986	21937
881.112	21808
881.239	21713
881.366	21485
881.493	21526
881.619	21408
881.746	21359
881.872	21408
881.999	21545
882.125	21458
882.252	21633
882.378	21572
882.505	21755
882.631	21458
882.757	21302
882.883	21500
883.01	21458
883.136	21393
883.262	21287
883.388	21214
883.514	21321
883.64	21549
883.766	21249
883.892	21119
884.018	21226
884.143	21241
884.269	21485
884.395	21161
884.52	21005
884.646	21127
884.772	21062
884.897	20937
885.023	21131
885.148	21142
885.274	21283
885.399	21119
885.524	20979
885.65	20785
885.775	20785
885.9	20617
886.025	20629
886.15	20427
886.275	20282
886.4	20092
886.525	20031
886.65	20027
886.775	19917
886.9	19909
887.025	19894
887.149	19677
887.274	19457
887.399	19343
887.523	19312
887.648	19129
887.773	19122
887.897	19171
888.021	19088
888.146	19019
888.27	19065
888.395	19164
888.519	19088
888.643	18966
888.767	18859
888.891	18795
889.015	18642
889.139	18578
889.263	18532
889.387	18669
889.511	18787
889.635	18703
889.759	18403
889.883	18384
890.006	18471
890.13	18536
890.254	18289
890.377	18247
890.501	18178
890.624	18110
890.748	18220
890.871	17942
890.995	17851
891.118	17843
891.241	17920
891.364	17874
891.488	17939
891.611	17657
891.734	17695
891.857	17790
891.98	17718
892.103	17748
892.226	17642
892.349	17596
892.471	17543
892.594	17528
892.717	17535
892.839	17615
892.962	17520
893.085	17573
893.207	17490
893.33	17395
893.452	17410
893.575	17463
893.697	17467
893.819	17387
893.941	17524
894.064	17474
894.186	17296
894.308	17261
894.43	17368
894.552	17360
894.674	17353
894.796	17113
894.918	17261
895.04	17280
895.161	17250
895.283	17292
895.405	17151
895.526	17208
895.648	17223
895.769	17208
895.891	17284
896.012	17242
896.134	17269
896.255	17265
896.376	17140
896.498	17113
896.619	17231
896.74	17071
896.861	17216
896.982	17509
897.103	17600
897.224	17482
897.345	17368
897.466	17299
897.587	17376
897.708	17509
897.828	17463
897.949	17383
898.07	17181
898.19	17379
898.311	17417
898.431	17269
898.552	17379
898.672	17429
898.792	17501
898.913	17467
899.033	17410
899.153	17231
899.273	17147
899.393	17162
899.513	17143
899.633	17235
899.753	17189
899.873	17181
899.993	17200
900.113	17220
900.232	17162
900.352	17170
900.472	17033
900.591	17060
900.711	16930
900.83	16923
900.95	17090
901.069	17121
901.189	16908
901.308	16664
901.427	16634
901.546	16744
901.665	16683
901.784	16721
901.904	16516
902.023	16382
902.141	16181
902.26	16032
902.379	16223
902.498	16101
902.617	16029
902.735	16059
902.854	16105
902.973	15888
903.091	15739
903.21	15759
903.328	15724
903.446	15572
903.565	15648
903.683	15648
903.801	15469
903.919	15454
904.038	15481
904.156	15256
904.274	15378
904.392	15291
904.51	15325
904.627	15351
904.745	15382
904.863	15344
904.981	15058
905.098	14952
905.216	14979
905.334	14956
905.451	15005
905.569	14864
905.686	15028
905.803	14933
905.921	14823
906.038	14857
906.155	14758
906.272	14648
906.389	14610
906.506	14454
906.623	14511
906.74	14511
906.857	14336
906.974	14412
907.091	14537
907.208	14731
907.324	14511
907.441	14438
907.557	14286
907.674	14221
907.79	14123
907.907	14195
908.023	14210
908.139	14206
908.256	14126
908.372	14161
908.488	14046
908.604	13902
908.72	13883
908.836	13898
908.952	13772
909.068	13898
909.184	13959
909.3	13795
909.415	13887
909.531	13887
909.647	13651
909.762	13639
909.878	13643
909.993	13628
910.108	13651
910.224	13674
910.339	13632
910.454	13578
910.57	13559
910.685	13476
910.8	13731
910.915	13636
911.03	13476
911.145	13377
911.259	13339
911.374	13384
911.489	13266
911.604	13168
911.718	12954
911.833	13076
911.947	12924
912.062	12916
912.176	13015
912.291	13095
912.405	13057
912.519	13190
912.633	13240
912.748	13031
912.862	13015
912.976	12985
913.09	12779
913.204	12882
913.318	13050
913.431	12966
913.545	12993
913.659	12981
913.772	12875
913.886	12840
914	12696
914.113	12856
914.226	12787
914.34	12863
914.453	12764
914.566	12791
914.68	12681
914.793	12745
914.906	12452
915.019	12502
915.132	12399
915.245	12429
915.358	12570
915.47	12479
915.583	12536
915.696	12528
915.809	12528
915.921	12734
916.034	12456
916.146	12357
916.259	12494
916.371	12593
916.483	12452
916.595	12380
916.708	12380
916.82	12426
916.932	12460
917.044	12346
917.156	12353
917.268	12270
917.38	12224
917.491	12270
917.603	12281
917.715	12350
917.826	12346
917.938	12159
918.049	12079
918.161	12228
918.272	12319
918.384	12247
918.495	12102
918.606	12026
918.717	12007
918.828	12110
918.939	12079
919.05	12015
919.161	11920
919.272	11866
919.383	11939
919.494	12091
919.604	12239
919.715	12034
919.826	11920
919.936	12068
920.047	11977
920.157	12003
920.267	12270
920.378	12098
920.488	11992
920.598	12197
920.708	12365
920.818	12129
920.928	12163
921.038	12357
921.148	12369
921.258	11954
921.368	11878
921.477	11832
921.587	11741
921.697	11646
921.806	11897
921.916	11691
922.025	11570
922.134	11467
922.244	11391
922.353	11444
922.462	11425
922.571	11322
922.68	11151
922.789	11174
922.898	11181
923.007	11128
923.116	11170
923.224	11140
923.333	11094
923.442	10972
923.55	10919
923.659	10968
923.767	10991
923.876	10949
923.984	10976
924.092	10938
924.201	10999
924.309	10934
924.417	10915
924.525	10858
924.633	10793
924.741	11790
924.849	10672
924.956	10873
925.064	10679
925.172	10649
925.279	10710
925.387	10702
925.494	10725
925.602	10793
925.709	10801
925.816	10596
925.924	10630
926.031	10721
926.138	10645
926.245	10698
926.352	10618
926.459	10763
926.566	10793
926.673	10603
926.779	10478
926.886	10565
926.993	10413
927.099	10371
927.206	10322
927.312	10394
927.419	10390
927.525	10344
927.631	10341
927.737	10276
927.843	10227
927.95	10097
928.056	10173
928.162	10223
928.267	10223
928.373	10889
928.479	10306
928.585	10036
928.69	10215
928.796	10249
928.901	10128
929.007	10021
929.112	10063
929.218	10059
929.323	10032
929.428	9960
929.533	10177
929.638	9911
929.743	9934
929.848	10013
929.953	9987
930.058	9850
930.163	9724
930.267	9778
930.372	9888
930.477	9732
930.581	9857
930.685	9846
930.79	9671
930.894	9606
930.998	9603
931.103	9797
931.207	9447
931.311	9351
931.415	9310
931.519	9127
931.623	9032
