Data from test_V78500241_3334.txt Node
Date: Fri Mar 25 14:56:55 CST 2022
User: usil
Spectrometer: V785-0024
Trigger mode: 0
Integration Time (sec): 4.000000E-1
Scans to average: 1
Nonlinearity correction enabled: false
Boxcar width: 0
Storing dark spectrum: false
XAxis mode: Wavelengths
Number of Pixels in Spectrum: 1024
>>>>>Begin Spectral Data<<<<<
801.071	21907
801.214	21968
801.356	21686
801.499	21568
801.641	21408
801.783	21287
801.926	21313
802.068	21279
802.211	21264
802.353	21020
802.496	21009
802.638	20838
802.78	20758
802.923	20613
803.065	20670
803.208	20488
803.35	20571
803.492	20773
803.635	20788
803.777	20735
803.919	20777
804.061	20921
804.204	20655
804.346	20720
804.488	20423
804.63	20613
804.773	20415
804.915	20640
805.057	20606
805.199	20568
805.341	20587
805.483	20693
805.626	20552
805.768	20461
805.91	20446
806.052	20598
806.194	20347
806.336	20674
806.478	20488
806.62	20530
806.762	20621
806.904	20655
807.046	20853
807.188	20941
807.33	20918
807.472	20948
807.614	20746
807.756	20674
807.898	20655
808.04	20549
808.182	20636
808.324	20697
808.465	20655
808.607	20960
808.749	20910
808.891	21001
809.033	21009
809.174	20986
809.316	20880
809.458	20899
809.6	20872
809.741	20971
809.883	20921
810.025	21123
810.166	21104
810.308	20933
810.45	20944
810.591	20872
810.733	20807
810.875	20781
811.016	20552
811.158	20537
811.299	20781
811.441	20689
811.582	20754
811.724	20644
811.865	20568
812.007	20575
812.148	20625
812.29	20697
812.431	20910
812.573	20998
812.714	20960
812.855	21192
812.997	21199
813.138	21424
813.279	21241
813.421	21176
813.562	21005
813.703	20891
813.845	20727
813.986	20552
814.127	20320
814.268	20313
814.41	20271
814.551	20134
814.692	20164
814.833	20206
814.974	20195
815.115	20195
815.256	20043
815.397	20016
815.539	19986
815.68	19909
815.821	19875
815.962	19944
816.103	19909
816.244	19841
816.385	19750
816.526	19708
816.666	19365
816.807	19453
816.948	19476
817.089	19529
817.23	19289
817.371	19339
817.512	19415
817.653	19415
817.793	19217
817.934	19339
818.075	19324
818.216	19259
818.356	19293
818.497	19145
818.638	18996
818.778	19019
818.919	19046
819.06	19027
819.2	19114
819.341	19148
819.481	19266
819.622	19304
819.762	19510
819.903	19495
820.043	19312
820.184	19343
820.324	19255
820.465	19266
820.605	19419
820.746	19289
820.886	19251
821.026	19209
821.167	19278
821.307	19221
821.447	19320
821.588	19118
821.728	19034
821.868	18939
822.008	18654
822.149	18825
822.289	18757
822.429	18521
822.569	18486
822.709	18483
822.849	18300
822.99	18273
823.13	18167
823.27	18159
823.41	17992
823.55	18003
823.69	18049
823.83	17946
823.97	17946
824.11	17939
824.25	17722
824.389	17851
824.529	17802
824.669	17882
824.809	17969
824.949	17802
825.089	17756
825.228	17870
825.368	17634
825.508	17497
825.648	17665
825.787	17627
825.927	17619
826.067	17459
826.206	17596
826.346	17570
826.485	17535
826.625	17539
826.765	17543
826.904	17627
827.044	17303
827.183	17299
827.323	17235
827.462	17227
827.601	17258
827.741	17258
827.88	17303
828.02	17025
828.159	17216
828.298	17353
828.437	17387
828.577	17231
828.716	17387
828.855	17265
828.994	17102
829.134	17079
829.273	17067
829.412	17048
829.551	16889
829.69	17056
829.829	17109
829.968	17170
830.107	17045
830.246	17067
830.385	16934
830.524	16900
830.663	16862
830.802	16729
830.941	16622
831.08	16584
831.219	16698
831.357	16786
831.496	16877
831.635	16668
831.774	16497
831.913	16577
832.051	16455
832.19	16367
832.329	16417
832.467	16371
832.606	16405
832.744	16341
832.883	16386
833.022	16325
833.16	16382
833.299	16314
833.437	16287
833.576	16459
833.714	16436
833.852	16459
833.991	16363
834.129	16523
834.267	16519
834.406	16421
834.544	16459
834.682	16424
834.821	16554
834.959	16497
835.097	16344
835.235	16504
835.373	16485
835.511	16424
835.65	16295
835.788	16318
835.926	16154
836.064	16055
836.202	16238
836.34	16348
836.478	16493
836.615	16310
836.753	16443
836.891	16344
837.029	16375
837.167	16386
837.305	16333
837.443	16200
837.58	16272
837.718	16249
837.856	16162
837.993	16177
838.131	16112
838.269	16200
838.406	16192
838.544	16219
838.681	15934
838.819	15797
838.956	15732
839.094	15846
839.231	15739
839.369	15937
839.506	16162
839.643	16044
839.781	15827
839.918	15720
840.055	15778
840.193	15804
840.33	15591
840.467	15819
840.604	15705
840.742	15945
840.879	15625
841.016	15637
841.153	15610
841.29	15964
841.427	15778
841.564	15869
841.701	15819
841.838	15679
841.975	15732
842.112	15652
842.249	15637
842.385	15507
842.522	15778
842.659	15542
842.796	15526
842.933	15584
843.069	15557
843.206	15553
843.343	15526
843.479	15500
843.616	15580
843.752	15310
843.889	15313
844.025	15538
844.162	15264
844.298	15408
844.435	15226
844.571	15332
844.708	15443
844.844	15462
844.98	15534
845.117	15515
845.253	15325
845.389	15127
845.525	15268
845.661	15241
845.798	15058
845.934	15268
846.07	15146
846.206	15192
846.342	15192
846.478	15097
846.614	14998
846.75	14937
846.886	14838
847.022	15032
847.158	14842
847.294	14826
847.429	14952
847.565	14861
847.701	15135
847.837	14682
847.972	14670
848.108	14773
848.244	14670
848.379	14579
848.515	14598
848.65	14457
848.786	14530
848.921	14476
849.057	14689
849.192	14552
849.328	14499
849.463	14556
849.598	14434
849.734	14495
849.869	14282
850.004	14286
850.14	14351
850.275	14298
850.41	14138
850.545	14161
850.68	14210
850.815	14233
850.95	14267
851.085	14400
851.22	14374
851.355	14294
851.49	14248
851.625	14259
851.76	14309
851.895	14065
852.03	14115
852.165	14263
852.299	14309
852.434	14347
852.569	14328
852.703	14267
852.838	14328
852.973	14450
853.107	14400
853.242	14256
853.376	14168
853.511	14130
853.645	14058
853.78	14172
853.914	14221
854.048	14096
854.183	14077
854.317	14199
854.451	14221
854.585	14107
854.72	14130
854.854	14164
854.988	14046
855.122	14103
855.256	14001
855.39	14119
855.524	14168
855.658	14233
855.792	14195
855.926	14206
856.06	14199
856.194	14214
856.327	14111
856.461	14111
856.595	14103
856.729	14161
856.862	14324
856.996	14248
857.13	14290
857.263	14168
857.397	14381
857.53	14191
857.664	14324
857.797	14305
857.931	14218
858.064	14183
858.197	14195
858.331	14100
858.464	14202
858.597	13978
858.731	14123
858.864	14035
858.997	14172
859.13	14153
859.263	14199
859.396	14199
859.529	14172
859.662	14065
859.795	14092
859.928	14111
860.061	14256
860.194	14362
860.327	14168
860.46	14237
860.592	14317
860.725	14259
860.858	14256
860.99	14157
861.123	14126
861.256	14031
861.388	14149
861.521	14925
861.653	14027
861.786	13932
861.918	13993
862.05	14123
862.183	14126
862.315	14130
862.447	14195
862.58	14088
862.712	13868
862.844	13982
862.976	13986
863.108	13944
863.24	14218
863.372	13830
863.504	13921
863.636	13951
863.768	14024
863.9	13959
864.032	13856
864.164	13845
864.296	14039
864.428	14092
864.559	13951
864.691	14050
864.823	13989
864.954	14005
865.086	13940
865.217	13887
865.349	13807
865.48	13921
865.612	13898
865.743	13997
865.875	13986
866.006	13883
866.137	13875
866.269	13898
866.4	13898
866.531	13898
866.662	13902
866.793	13765
866.924	13856
867.055	13951
867.186	13864
867.317	13940
867.448	13890
867.579	13830
867.71	13849
867.841	13849
867.972	13902
868.103	13913
868.233	13879
868.364	14005
868.495	13997
868.625	14187
868.756	14240
868.886	14081
869.017	14195
869.147	14199
869.278	14355
869.408	14248
869.539	14180
869.669	14294
869.799	14210
869.929	14244
870.06	14290
870.19	14427
870.32	14488
870.45	14556
870.58	14678
870.71	14613
870.84	14655
870.97	14571
871.1	14545
871.23	14712
871.36	14785
871.489	14765
871.619	14796
871.749	14716
871.879	14716
872.008	14902
872.138	14853
872.267	14838
872.397	14701
872.526	14583
872.656	14606
872.785	14640
872.915	14830
873.044	14887
873.173	14804
873.303	14880
873.432	14857
873.561	14906
873.69	14906
873.819	14826
873.948	14902
874.077	14819
874.206	14720
874.335	14864
874.464	15009
874.593	15039
874.722	15051
874.851	15188
874.979	15184
875.108	15150
875.237	15009
875.365	14986
875.494	15093
875.623	15195
875.751	15112
875.88	15104
876.008	15264
876.136	15302
876.265	15553
876.393	15675
876.521	15561
876.65	15644
876.778	15679
876.906	15488
877.034	15485
877.162	15568
877.29	15454
877.418	15485
877.546	15439
877.674	15496
877.802	15568
877.93	15622
878.058	15488
878.185	15526
878.313	15530
878.441	15625
878.568	15378
878.696	15538
878.824	15622
878.951	15637
879.079	15717
879.206	15861
879.333	15686
879.461	15507
879.588	15648
879.715	15739
879.842	15895
879.97	15622
880.097	15428
880.224	15348
880.351	15405
880.478	15367
880.605	15386
880.732	15389
880.859	15587
880.986	15424
881.112	15504
881.239	15348
881.366	15157
881.493	15100
881.619	14990
881.746	15108
881.872	15047
881.999	15066
882.125	15104
882.252	15135
882.378	15062
882.505	15294
882.631	14998
882.757	14815
882.883	14952
883.01	14891
883.136	14845
883.262	14823
883.388	14762
883.514	15009
883.64	14952
883.766	14952
883.892	14644
884.018	14678
884.143	14956
884.269	14941
884.395	14648
884.52	14583
884.646	14606
884.772	14461
884.897	14492
885.023	14564
885.148	14765
885.274	14769
885.399	14629
885.524	14598
885.65	14610
885.775	14613
885.9	14598
886.025	14697
886.15	14674
886.275	14610
886.4	14431
886.525	14575
886.65	14461
886.775	14476
886.9	14758
887.025	14823
887.149	14617
887.274	14465
887.399	14355
887.523	14389
887.648	14313
887.773	14355
887.897	14560
888.021	14488
888.146	14370
888.27	14507
888.395	14564
888.519	14511
888.643	14408
888.767	14507
888.891	14366
889.015	14229
889.139	14324
889.263	14305
889.387	14450
889.511	14370
889.635	14339
889.759	14290
889.883	14320
890.006	14339
890.13	14431
890.254	14218
890.377	14221
890.501	14157
890.624	14123
890.748	14252
890.871	14065
890.995	13890
891.118	13856
891.241	14020
891.364	13989
891.488	14077
891.611	14016
891.734	14012
891.857	14027
891.98	14138
892.103	14088
892.226	14077
892.349	14005
892.471	13849
892.594	13993
892.717	13993
892.839	13963
892.962	14058
893.085	14081
893.207	13963
893.33	13940
893.452	13890
893.575	14058
893.697	13955
893.819	14153
893.941	14225
894.064	14031
894.186	13936
894.308	13951
894.43	14199
894.552	14202
894.674	14069
894.796	14046
894.918	14012
895.04	14054
895.161	14039
895.283	14035
895.405	14069
895.526	14058
895.648	14043
895.769	14088
895.891	14142
896.012	14282
896.134	14096
896.255	14157
896.376	14043
896.498	14119
896.619	14298
896.74	14096
896.861	14252
896.982	14469
897.103	14746
897.224	14503
897.345	14434
897.466	14393
897.587	14427
897.708	14476
897.828	14476
897.949	14343
898.07	14347
898.19	14488
898.311	14594
898.431	14514
898.552	14484
898.672	14602
898.792	14560
898.913	14495
899.033	14465
899.153	14488
899.273	14275
899.393	14374
899.513	14343
899.633	14442
899.753	14442
899.873	14343
899.993	14396
900.113	14351
900.232	14332
900.352	14442
900.472	14271
900.591	14259
900.711	14176
900.83	14172
900.95	14343
901.069	14328
901.189	14126
901.308	13978
901.427	13864
901.546	13780
901.665	13902
901.784	13879
901.904	13723
902.023	13662
902.141	13457
902.26	13457
902.379	13548
902.498	13518
902.617	13403
902.735	13480
902.854	13483
902.973	13339
903.091	13190
903.21	13126
903.328	13263
903.446	13194
903.565	12966
903.683	13164
903.801	12947
903.919	13042
904.038	13065
904.156	12867
904.274	13015
904.392	12970
904.51	12882
904.627	12787
904.745	12928
904.863	12935
904.981	12692
905.098	12593
905.216	12502
905.334	12601
905.451	12665
905.569	12555
905.686	12551
905.803	12642
905.921	12350
906.038	12483
906.155	12372
906.272	12273
906.389	12258
906.506	12205
906.623	12152
906.74	12171
906.857	12015
906.974	12133
907.091	12182
907.208	12353
907.324	12163
907.441	12106
907.557	12038
907.674	11821
907.79	11843
907.907	11859
908.023	11977
908.139	11935
908.256	11851
908.372	11874
908.488	11832
908.604	11710
908.72	11676
908.836	11722
908.952	11642
909.068	11688
909.184	11836
909.3	11741
909.415	11707
909.531	11760
909.647	11459
909.762	11471
909.878	11337
909.993	11440
910.108	11497
910.224	11368
910.339	11395
910.454	11296
910.57	11315
910.685	11185
910.8	11471
910.915	11417
911.03	11292
911.145	11181
911.259	11155
911.374	11086
911.489	11025
911.604	10984
911.718	10866
911.833	10953
911.947	10809
912.062	10710
912.176	10900
912.291	10908
912.405	10896
912.519	11071
912.633	11086
912.748	10995
912.862	10965
912.976	10797
913.09	10672
913.204	10733
913.318	10759
913.431	10927
913.545	10854
913.659	10885
913.772	10828
913.886	10717
914	10527
914.113	10744
914.226	10763
914.34	10778
914.453	10607
914.566	10778
914.68	10599
914.793	10523
914.906	10485
915.019	10333
915.132	10390
915.245	10379
915.358	10440
915.47	10493
915.583	10402
915.696	10440
915.809	10535
915.921	10531
916.034	10367
916.146	10344
916.259	10402
916.371	10527
916.483	10478
916.595	10287
916.708	10337
916.82	10322
916.932	10329
917.044	10306
917.156	10337
917.268	10227
917.38	10272
917.491	10265
917.603	10322
917.715	10325
917.826	10348
917.938	10188
918.049	10010
918.161	10337
918.272	10405
918.384	10417
918.495	10352
918.606	10139
918.717	10029
918.828	10162
918.939	10185
919.05	10006
919.161	10112
919.272	9903
919.383	9972
919.494	10166
919.604	10333
919.715	10082
919.826	10059
919.936	10147
920.047	10234
920.157	10166
920.267	10341
920.378	10177
920.488	10112
920.598	10443
920.708	10512
920.818	10291
920.928	10382
921.038	10497
921.148	10497
921.258	10215
921.368	10162
921.477	9956
921.587	10002
921.697	9892
921.806	10010
921.916	9846
922.025	9762
922.134	9713
922.244	9671
922.353	9846
922.462	9618
922.571	9599
922.68	9420
922.789	9363
922.898	9439
923.007	9344
923.116	9393
923.224	9481
923.333	9332
923.442	9260
923.55	9279
923.659	9317
923.767	9329
923.876	9241
923.984	9275
924.092	9226
924.201	9268
924.309	9275
924.417	9260
924.525	9222
924.633	9245
924.741	10188
924.849	9028
924.956	9176
925.064	9036
925.172	8998
925.279	8910
925.387	9161
925.494	9112
925.602	9188
925.709	9104
925.816	8979
925.924	9043
926.031	9169
926.138	9039
926.245	9100
926.352	9017
926.459	9131
926.566	9154
926.673	8990
926.779	8876
926.886	8895
926.993	8785
927.099	8788
927.206	8754
927.312	8667
927.419	8724
927.525	8800
927.631	8838
927.737	8720
927.843	8606
927.95	8594
928.056	8678
928.162	8686
928.267	8697
928.373	9340
928.479	8762
928.585	8556
928.69	8587
928.796	8674
928.901	8632
929.007	8450
929.112	8632
929.218	8560
929.323	8469
929.428	8469
929.533	8606
929.638	8469
929.743	8518
929.848	8438
929.953	8476
930.058	8381
930.163	8161
930.267	8240
930.372	8408
930.477	8267
930.581	8454
930.685	8366
930.79	8187
930.894	8214
930.998	8229
931.103	8336
931.207	8031
931.311	7951
931.415	7902
931.519	7738
931.623	7723
