Data from test_V78500241_1566.txt Node
Date: Fri Mar 25 14:44:37 CST 2022
User: usil
Spectrometer: V785-0024
Trigger mode: 0
Integration Time (sec): 4.000000E-1
Scans to average: 1
Nonlinearity correction enabled: false
Boxcar width: 0
Storing dark spectrum: false
XAxis mode: Wavelengths
Number of Pixels in Spectrum: 1024
>>>>>Begin Spectral Data<<<<<
801.071	22352
801.214	22261
801.356	21960
801.499	21979
801.641	21816
801.783	21641
801.926	21675
802.068	21599
802.211	21622
802.353	21561
802.496	21336
802.638	21252
802.78	21226
802.923	21192
803.065	21154
803.208	21047
803.35	21020
803.492	21108
803.635	21203
803.777	21070
803.919	21199
804.061	21340
804.204	21173
804.346	20994
804.488	21009
804.63	21074
804.773	20994
804.915	20979
805.057	21100
805.199	21043
805.341	21070
805.483	21135
805.626	21142
805.768	20921
805.91	21028
806.052	20975
806.194	20929
806.336	21222
806.478	20956
806.62	21032
806.762	21066
806.904	21218
807.046	21431
807.188	21454
807.33	21428
807.472	21458
807.614	21329
807.756	21256
807.898	21325
808.04	21135
808.182	21230
808.324	21230
808.465	21275
808.607	21496
808.749	21553
808.891	21648
809.033	21679
809.174	21595
809.316	21488
809.458	21599
809.6	21538
809.741	21652
809.883	21504
810.025	21675
810.166	21644
810.308	21686
810.45	21504
810.591	21408
810.733	21405
810.875	21287
811.016	21112
811.158	21161
811.299	21180
811.441	21348
811.582	21374
811.724	21332
811.865	21180
812.007	21138
812.148	21165
812.29	21298
812.431	21378
812.573	21523
812.714	21660
812.855	21652
812.997	21709
813.138	21907
813.279	21709
813.421	21724
813.562	21701
813.703	21340
813.845	21317
813.986	21062
814.127	20880
814.268	20750
814.41	20796
814.551	20720
814.692	20853
814.833	20587
814.974	20708
815.115	20773
815.256	20609
815.397	20556
815.539	20537
815.68	20427
815.821	20370
815.962	20541
816.103	20320
816.244	20301
816.385	20328
816.526	20218
816.666	20145
816.807	19932
816.948	20027
817.089	20058
817.23	19989
817.371	19921
817.512	19887
817.653	19917
817.793	19727
817.934	19864
818.075	19951
818.216	19940
818.356	19852
818.497	19616
818.638	19544
818.778	19609
818.919	19575
819.06	19639
819.2	19791
819.341	19674
819.481	19723
819.622	19860
819.762	20103
819.903	19989
820.043	19970
820.184	19925
820.324	19837
820.465	19970
820.605	19845
820.746	19776
820.886	19837
821.026	19822
821.167	19868
821.307	19776
821.447	19769
821.588	19727
821.728	19567
821.868	19415
822.008	19320
822.149	19266
822.289	19175
822.429	18977
822.569	19107
822.709	18973
822.849	18802
822.99	18757
823.13	18787
823.27	18829
823.41	18490
823.55	18475
823.69	18547
823.83	18525
823.97	18627
824.11	18384
824.25	18308
824.389	18342
824.529	18467
824.669	18277
824.809	18410
824.949	18365
825.089	18369
825.228	18334
825.368	18197
825.508	18053
825.648	18114
825.787	18205
825.927	18182
826.067	18133
826.206	18045
826.346	18194
826.485	18087
826.625	18060
826.765	18155
826.904	18251
827.044	17912
827.183	17790
827.323	17699
827.462	17878
827.601	17893
827.741	17809
827.88	17771
828.02	17665
828.159	17771
828.298	17729
828.437	17885
828.577	17661
828.716	17965
828.855	17935
828.994	17547
829.134	17493
829.273	17615
829.412	17512
829.551	17532
829.69	17535
829.829	17505
829.968	17623
830.107	17566
830.246	17573
830.385	17528
830.524	17368
830.663	17395
830.802	17296
830.941	17174
831.08	17071
831.219	17284
831.357	17166
831.496	17425
831.635	17189
831.774	16976
831.913	17014
832.051	16885
832.19	16946
832.329	16949
832.467	16839
832.606	16797
832.744	16820
832.883	16843
833.022	16858
833.16	16896
833.299	16923
833.437	16820
833.576	16812
833.714	16869
833.852	16927
833.991	16942
834.129	16991
834.267	17029
834.406	16877
834.544	16919
834.682	16900
834.821	16820
834.959	17052
835.097	16752
835.235	16923
835.373	16790
835.511	16869
835.65	16805
835.788	16721
835.926	16763
836.064	16584
836.202	16618
836.34	16831
836.478	16938
836.615	16752
836.753	16755
836.891	16809
837.029	16877
837.167	16858
837.305	16664
837.443	16596
837.58	16542
837.718	16691
837.856	16622
837.993	16656
838.131	16641
838.269	16485
838.406	16497
838.544	16626
838.681	16417
838.819	16318
838.956	16207
839.094	16131
839.231	16344
839.369	16295
839.506	16535
839.643	16451
839.781	16097
839.918	16051
840.055	16139
840.193	16215
840.33	16112
840.467	16147
840.604	16128
840.742	16394
840.879	16036
841.016	16051
841.153	16029
841.29	16207
841.427	16215
841.564	16169
841.701	16158
841.838	16025
841.975	16150
842.112	16067
842.249	15907
842.385	15964
842.522	16204
842.659	16071
842.796	15930
842.933	15941
843.069	15998
843.206	15930
843.343	15956
843.479	15865
843.616	15998
843.752	15762
843.889	15759
844.025	15861
844.162	15675
844.298	15846
844.435	15701
844.571	15671
844.708	15717
844.844	15888
844.98	15922
845.117	15892
845.253	15724
845.389	15667
845.525	15751
845.661	15739
845.798	15599
845.934	15781
846.07	15728
846.206	15766
846.342	15747
846.478	15641
846.614	15462
846.75	15382
846.886	15325
847.022	15447
847.158	15386
847.294	15294
847.429	15313
847.565	15298
847.701	15458
847.837	15032
847.972	14998
848.108	15207
848.244	15150
848.379	14861
848.515	14807
848.65	14880
848.786	14861
848.921	14910
849.057	15013
849.192	14956
849.328	14941
849.463	14963
849.598	14937
849.734	14868
849.869	14785
850.004	14606
850.14	14735
850.275	14575
850.41	14606
850.545	14651
850.68	14587
850.815	14667
850.95	14556
851.085	14807
851.22	14765
851.355	14804
851.49	14617
851.625	14701
851.76	14606
851.895	14636
852.03	14495
852.165	14731
852.299	14648
852.434	14777
852.569	14701
852.703	14594
852.838	14815
852.973	14868
853.107	14792
853.242	14613
853.376	14594
853.511	14446
853.645	14507
853.78	14625
853.914	14488
854.048	14461
854.183	14575
854.317	14571
854.451	14670
854.585	14518
854.72	14465
854.854	14613
854.988	14404
855.122	14533
855.256	14495
855.39	14446
855.524	14556
855.658	14594
855.792	14598
855.926	14518
856.06	14613
856.194	14705
856.327	14484
856.461	14469
856.595	14503
856.729	14427
856.862	14712
856.996	14556
857.13	14651
857.263	14693
857.397	14625
857.53	14507
857.664	14526
857.797	14625
857.931	14697
858.064	14621
858.197	14644
858.331	14610
858.464	14511
858.597	14427
858.731	14556
858.864	14549
858.997	14469
859.13	14613
859.263	14541
859.396	14712
859.529	14533
859.662	14541
859.795	14454
859.928	14644
860.061	14648
860.194	14735
860.327	14518
860.46	14610
860.592	14663
860.725	14617
860.858	14701
860.99	14579
861.123	14438
861.256	14533
861.388	14594
861.521	15138
861.653	14438
861.786	14298
861.918	14419
862.05	14408
862.183	14431
862.315	14476
862.447	14552
862.58	14484
862.712	14377
862.844	14199
862.976	14423
863.108	14446
863.24	14674
863.372	14290
863.504	14229
863.636	14332
863.768	14438
863.9	14298
864.032	14259
864.164	14290
864.296	14393
864.428	14400
864.559	14419
864.691	14377
864.823	14377
864.954	14366
865.086	14389
865.217	14275
865.349	14244
865.48	14294
865.612	14282
865.743	14450
865.875	14301
866.006	14237
866.137	14317
866.269	14320
866.4	14191
866.531	14290
866.662	14218
866.793	14202
866.924	14294
867.055	14252
867.186	14275
867.317	14221
867.448	14240
867.579	14229
867.71	14103
867.841	14252
867.972	14237
868.103	14320
868.233	14252
868.364	14233
868.495	14473
868.625	14514
868.756	14583
868.886	14488
869.017	14579
869.147	14670
869.278	14571
869.408	14568
869.539	14564
869.669	14583
869.799	14537
869.929	14678
870.06	14568
870.19	14853
870.32	14788
870.45	14853
870.58	14918
870.71	15013
870.84	15039
870.97	14929
871.1	14906
871.23	15097
871.36	15150
871.489	15028
871.619	15131
871.749	15058
871.879	15127
872.008	15245
872.138	15146
872.267	15093
872.397	14990
872.526	14990
872.656	15001
872.785	15058
872.915	15150
873.044	15268
873.173	15116
873.303	15112
873.432	15131
873.561	15176
873.69	15180
873.819	15119
873.948	15268
874.077	15218
874.206	15150
874.335	15146
874.464	15313
874.593	15496
874.722	15351
874.851	15424
874.979	15496
875.108	15534
875.237	15462
875.365	15454
875.494	15500
875.623	15572
875.751	15447
875.88	15511
876.008	15717
876.136	15720
876.265	15918
876.393	16093
876.521	15903
876.65	16032
876.778	15972
876.906	15918
877.034	15876
877.162	15865
877.29	15747
877.418	15895
877.546	15892
877.674	15956
877.802	15972
877.93	15930
878.058	15850
878.185	15762
878.313	15854
878.441	15838
878.568	15785
878.696	15800
878.824	15835
878.951	16002
879.079	16196
879.206	16230
879.333	16128
879.461	16063
879.588	16071
879.715	16162
879.842	16204
879.97	16010
880.097	15835
880.224	15766
880.351	15835
880.478	15774
880.605	15641
880.732	15797
880.859	16021
880.986	15766
881.112	15755
881.239	15614
881.366	15515
881.493	15511
881.619	15325
881.746	15374
881.872	15378
881.999	15538
882.125	15344
882.252	15431
882.378	15443
882.505	15530
882.631	15462
882.757	15195
882.883	15264
883.01	15287
883.136	15119
883.262	15150
883.388	15138
883.514	15283
883.64	15241
883.766	15131
883.892	15100
884.018	15146
884.143	15249
884.269	15329
884.395	15116
884.52	14941
884.646	14933
884.772	14887
884.897	14826
885.023	14982
885.148	15055
885.274	15116
885.399	14944
885.524	14982
885.65	14944
885.775	14952
885.9	14986
886.025	15036
886.15	15039
886.275	14823
886.4	14762
886.525	14891
886.65	14887
886.775	14937
886.9	14998
887.025	15077
887.149	14895
887.274	14750
887.399	14777
887.523	14651
887.648	14716
887.773	14655
887.897	14910
888.021	14735
888.146	14667
888.27	14872
888.395	14872
888.519	14796
888.643	14811
888.767	14849
888.891	14629
889.015	14556
889.139	14636
889.263	14606
889.387	14640
889.511	14777
889.635	14674
889.759	14602
889.883	14659
890.006	14598
890.13	14663
890.254	14530
890.377	14598
890.501	14408
890.624	14358
890.748	14556
890.871	14362
890.995	14210
891.118	14259
891.241	14336
891.364	14324
891.488	14434
891.611	14305
891.734	14324
891.857	14328
891.98	14298
892.103	14317
892.226	14301
892.349	14286
892.471	14145
892.594	14237
892.717	14385
892.839	14358
892.962	14313
893.085	14317
893.207	14157
893.33	14240
893.452	14229
893.575	14377
893.697	14225
893.819	14465
893.941	14533
894.064	14419
894.186	14317
894.308	14328
894.43	14412
894.552	14396
894.674	14419
894.796	14176
894.918	14332
895.04	14301
895.161	14431
895.283	14446
895.405	14332
895.526	14461
895.648	14488
895.769	14461
895.891	14503
896.012	14423
896.134	14507
896.255	14408
896.376	14419
896.498	14427
896.619	14457
896.74	14469
896.861	14450
896.982	14762
897.103	14921
897.224	14697
897.345	14769
897.466	14583
897.587	14754
897.708	14906
897.828	14845
897.949	14712
898.07	14579
898.19	14659
898.311	14849
898.431	14705
898.552	14777
898.672	14944
898.792	14899
898.913	14902
899.033	14743
899.153	14674
899.273	14594
899.393	14644
899.513	14697
899.633	14606
899.753	14708
899.873	14655
899.993	14762
900.113	14583
900.232	14708
900.352	14625
900.472	14575
900.591	14606
900.711	14552
900.83	14442
900.95	14579
901.069	14735
901.189	14412
901.308	14362
901.427	14176
901.546	14145
901.665	14233
901.784	14256
901.904	14145
902.023	14039
902.141	13814
902.26	13833
902.379	13818
902.498	13856
902.617	13700
902.735	13788
902.854	13734
902.973	13693
903.091	13590
903.21	13597
903.328	13441
903.446	13426
903.565	13285
903.683	13381
903.801	13285
903.919	13304
904.038	13297
904.156	13164
904.274	13244
904.392	13164
904.51	13110
904.627	13137
904.745	13156
904.863	13149
904.981	13031
905.098	12890
905.216	12856
905.334	12798
905.451	12882
905.569	12802
905.686	12909
905.803	12890
905.921	12688
906.038	12776
906.155	12711
906.272	12563
906.389	12639
906.506	12407
906.623	12525
906.74	12448
906.857	12384
906.974	12372
907.091	12464
907.208	12551
907.324	12574
907.441	12277
907.557	12232
907.674	12197
907.79	12083
907.907	12133
908.023	12239
908.139	12251
908.256	12228
908.372	12041
908.488	11992
908.604	11988
908.72	11885
908.836	11893
908.952	11885
909.068	11939
909.184	12011
909.3	11878
909.415	11961
909.531	11950
909.647	11703
909.762	11695
909.878	11615
909.993	11668
910.108	11638
910.224	11573
910.339	11695
910.454	11707
910.57	11474
910.685	11558
910.8	11722
910.915	11726
911.03	11524
911.145	11410
911.259	11448
911.374	11395
911.489	11311
911.604	11261
911.718	11216
911.833	11136
911.947	11025
912.062	10991
912.176	11121
912.291	11128
912.405	11178
912.519	11353
912.633	11387
912.748	11254
912.862	11094
912.976	10984
913.09	10927
913.204	10927
913.318	10999
913.431	11223
913.545	11025
913.659	11124
913.772	11071
913.886	10911
914	10900
914.113	10946
914.226	11136
914.34	10980
914.453	10778
914.566	10930
914.68	10850
914.793	10828
914.906	10668
915.019	10611
915.132	10497
915.245	10535
915.358	10675
915.47	10675
915.583	10706
915.696	10702
915.809	10805
915.921	10774
916.034	10649
916.146	10565
916.259	10542
916.371	10694
916.483	10683
916.595	10550
916.708	10588
916.82	10580
916.932	10523
917.044	10519
917.156	10542
917.268	10371
917.38	10436
917.491	10409
917.603	10470
917.715	10596
917.826	10569
917.938	10398
918.049	10314
918.161	10413
918.272	10580
918.384	10573
918.495	10512
918.606	10322
918.717	10265
918.828	10348
918.939	10341
919.05	10261
919.161	10390
919.272	10101
919.383	10242
919.494	10443
919.604	10542
919.715	10329
919.826	10227
919.936	10276
920.047	10500
920.157	10360
920.267	10550
920.378	10394
920.488	10390
920.598	10538
920.708	10702
920.818	10618
920.928	10573
921.038	10691
921.148	10694
921.258	10386
921.368	10238
921.477	10219
921.587	10196
921.697	10082
921.806	10223
921.916	10063
922.025	9911
922.134	9956
922.244	9888
922.353	9987
922.462	9762
922.571	9770
922.68	9603
922.789	9660
922.898	9610
923.007	9561
923.116	9637
923.224	9629
923.333	9572
923.442	9519
923.55	9557
923.659	9454
923.767	9587
923.876	9507
923.984	9542
924.092	9439
924.201	9515
924.309	9477
924.417	9515
924.525	9488
924.633	9481
924.741	10371
924.849	9199
924.956	9408
925.064	9230
925.172	9176
925.279	9283
925.387	9310
925.494	9279
925.602	9428
925.709	9340
925.816	9195
925.924	9245
926.031	9351
926.138	9306
926.245	9291
926.352	9150
926.459	9241
926.566	9389
926.673	9195
926.779	9154
926.886	9112
926.993	9001
927.099	8963
927.206	8960
927.312	8921
927.419	8967
927.525	8994
927.631	8967
927.737	8845
927.843	8796
927.95	8800
928.056	8895
928.162	8849
928.267	8864
928.373	9458
928.479	8906
928.585	8659
928.69	8880
928.796	8796
928.901	8773
929.007	8636
929.112	8720
929.218	8807
929.323	8625
929.428	8678
929.533	8796
929.638	8621
929.743	8705
929.848	8659
929.953	8663
930.058	8541
930.163	8427
930.267	8461
930.372	8556
930.477	8442
930.581	8636
930.685	8446
930.79	8358
930.894	8488
930.998	8336
931.103	8495
931.207	8183
931.311	8168
931.415	8130
931.519	7875
931.623	7811
