Data from test_V78500241_269.txt Node
Date: Fri Mar 25 14:35:35 CST 2022
User: usil
Spectrometer: V785-0024
Trigger mode: 0
Integration Time (sec): 4.000000E-1
Scans to average: 1
Nonlinearity correction enabled: false
Boxcar width: 0
Storing dark spectrum: false
XAxis mode: Wavelengths
Number of Pixels in Spectrum: 1024
>>>>>Begin Spectral Data<<<<<
801.071	27412
801.214	27306
801.356	27165
801.499	26921
801.641	26929
801.783	26769
801.926	26914
802.068	26686
802.211	26590
802.353	26598
802.496	26453
802.638	26457
802.78	26244
802.923	26358
803.065	26218
803.208	26339
803.35	26199
803.492	26324
803.635	26309
803.777	26370
803.919	26434
804.061	26743
804.204	26393
804.346	26313
804.488	26301
804.63	26351
804.773	26237
804.915	26191
805.057	26423
805.199	26317
805.341	26476
805.483	26370
805.626	26469
805.768	26362
805.91	26415
806.052	26503
806.194	26320
806.336	26579
806.478	26324
806.62	26214
806.762	26556
806.904	26579
807.046	26872
807.188	26762
807.33	26857
807.472	26785
807.614	26773
807.756	26800
807.898	26495
808.04	26651
808.182	26533
808.324	26632
808.465	26617
808.607	26845
808.749	26940
808.891	27173
809.033	27233
809.174	27085
809.316	27043
809.458	27055
809.6	26918
809.741	26849
809.883	26883
810.025	27032
810.166	27089
810.308	27142
810.45	27001
810.591	27116
810.733	26807
810.875	26735
811.016	26602
811.158	26663
811.299	26872
811.441	26693
811.582	26708
811.724	26629
811.865	26746
812.007	26716
812.148	26781
812.29	26781
812.431	26811
812.573	26967
812.714	27108
812.855	27321
812.997	27192
813.138	27275
813.279	27450
813.421	27199
813.562	27237
813.703	27058
813.845	26872
813.986	26590
814.127	26533
814.268	26328
814.41	26317
814.551	26237
814.692	26374
814.833	26195
814.974	26191
815.115	26419
815.256	26142
815.397	26149
815.539	26100
815.68	26081
815.821	25917
815.962	26039
816.103	26054
816.244	25799
816.385	25811
816.526	25799
816.666	25616
816.807	25278
816.948	25533
817.089	25445
817.23	25464
817.371	25312
817.512	25396
817.653	25263
817.793	25278
817.934	25411
818.075	25594
818.216	25407
818.356	25217
818.497	25152
818.638	25103
818.778	25065
818.919	25221
819.06	25160
819.2	25274
819.341	25377
819.481	25346
819.622	25403
819.762	25605
819.903	25578
820.043	25506
820.184	25324
820.324	25472
820.465	25396
820.605	25388
820.746	25320
820.886	25198
821.026	25434
821.167	25293
821.307	25487
821.447	25183
821.588	25217
821.728	25076
821.868	24913
822.008	24700
822.149	24684
822.289	24601
822.429	24471
822.569	24456
822.709	24479
822.849	24220
822.99	24232
823.13	24136
823.27	24079
823.41	23980
823.55	23916
823.69	24034
823.83	23969
823.97	23961
824.11	23798
824.25	23707
824.389	23737
824.529	23809
824.669	23611
824.809	23802
824.949	23786
825.089	23878
825.228	23832
825.368	23581
825.508	23615
825.648	23577
825.787	23551
825.927	23512
826.067	23417
826.206	23493
826.346	23570
826.485	23516
826.625	23486
826.765	23653
826.904	23573
827.044	23254
827.183	23356
827.323	23166
827.462	23280
827.601	23128
827.741	23155
827.88	23170
828.02	23109
828.159	23315
828.298	23356
828.437	23056
828.577	23174
828.716	23151
828.855	23136
828.994	23006
829.134	22892
829.273	22987
829.412	22835
829.551	22744
829.69	22812
829.829	22835
829.968	23003
830.107	22949
830.246	22866
830.385	22835
830.524	22710
830.663	22809
830.802	22618
830.941	22371
831.08	22398
831.219	22630
831.357	22535
831.496	22641
831.635	22421
831.774	22291
831.913	22314
832.051	22173
832.19	22169
832.329	22306
832.467	22211
832.606	22067
832.744	22044
832.883	22063
833.022	21975
833.16	21991
833.299	22143
833.437	22097
833.576	22093
833.714	22070
833.852	22238
833.991	22139
834.129	22143
834.267	22131
834.406	22204
834.544	22143
834.682	22040
834.821	22128
834.959	22280
835.097	22086
835.235	22143
835.373	21998
835.511	22055
835.65	21869
835.788	21922
835.926	21789
836.064	21842
836.202	21846
836.34	21945
836.478	21968
836.615	21739
836.753	21960
836.891	21873
837.029	21979
837.167	21972
837.305	21983
837.443	21774
837.58	21819
837.718	21949
837.856	21846
837.993	21800
838.131	21766
838.269	21747
838.406	21675
838.544	21644
838.681	21367
838.819	21393
838.956	21272
839.094	21188
839.231	21275
839.369	21374
839.506	21515
839.643	21530
839.781	21173
839.918	21108
840.055	21176
840.193	21256
840.33	21142
840.467	21100
840.604	21180
840.742	21408
840.879	21005
841.016	21119
841.153	21001
841.29	21233
841.427	21237
841.564	21100
841.701	21214
841.838	20956
841.975	21001
842.112	20906
842.249	20948
842.385	20937
842.522	21043
842.659	20929
842.796	20895
842.933	20872
843.069	20815
843.206	20746
843.343	20948
843.479	20864
843.616	20819
843.752	20541
843.889	20644
844.025	20659
844.162	20507
844.298	20659
844.435	20568
844.571	20454
844.708	20686
844.844	20697
844.98	20613
845.117	20701
845.253	20537
845.389	20514
845.525	20621
845.661	20674
845.798	20454
845.934	20575
846.07	20396
846.206	20492
846.342	20670
846.478	20374
846.614	20263
846.75	20031
846.886	20031
847.022	20172
847.158	20027
847.294	20054
847.429	20012
847.565	20073
847.701	20282
847.837	19776
847.972	19723
848.108	19799
848.244	19818
848.379	19616
848.515	19525
848.65	19639
848.786	19586
848.921	19685
849.057	19753
849.192	19563
849.328	19624
849.463	19499
849.598	19529
849.734	19499
849.869	19525
850.004	19297
850.14	19407
850.275	19346
850.41	19354
850.545	19316
850.68	19255
850.815	19411
850.95	19369
851.085	19388
851.22	19460
851.355	19285
851.49	19293
851.625	19339
851.76	19308
851.895	19137
852.03	19183
852.165	19263
852.299	19278
852.434	19422
852.569	19259
852.703	19255
852.838	19304
852.973	19464
853.107	19388
853.242	19270
853.376	19179
853.511	19072
853.645	19118
853.78	19293
853.914	19255
854.048	19099
854.183	19095
854.317	19217
854.451	19225
854.585	19023
854.72	19164
854.854	19293
854.988	19095
855.122	19232
855.256	19088
855.39	19088
855.524	19141
855.658	19198
855.792	19228
855.926	19270
856.06	19228
856.194	19179
856.327	19179
856.461	19015
856.595	19110
856.729	19114
856.862	19247
856.996	19107
857.13	19160
857.263	19255
857.397	19206
857.53	19072
857.664	19198
857.797	19076
857.931	19225
858.064	19232
858.197	19107
858.331	19160
858.464	19103
858.597	18958
858.731	19072
858.864	18966
858.997	19069
859.13	19103
859.263	19183
859.396	19019
859.529	19015
859.662	19076
859.795	19012
859.928	18943
860.061	19160
860.194	19225
860.327	19080
860.46	19000
860.592	19122
860.725	19232
860.858	19145
860.99	19084
861.123	18958
861.256	19065
861.388	19053
861.521	19635
861.653	19023
861.786	18863
861.918	18993
862.05	18928
862.183	19027
862.315	19061
862.447	19126
862.58	19038
862.712	18825
862.844	18840
862.976	18852
863.108	18958
863.24	19148
863.372	18734
863.504	18787
863.636	18848
863.768	18719
863.9	18749
864.032	18593
864.164	18738
864.296	18688
864.428	18886
864.559	18810
864.691	18939
864.823	18848
864.954	18738
865.086	18798
865.217	18696
865.349	18563
865.48	18623
865.612	18715
865.743	18802
865.875	18726
866.006	18658
866.137	18711
866.269	18837
866.4	18692
866.531	18642
866.662	18696
866.793	18639
866.924	18669
867.055	18707
867.186	18574
867.317	18585
867.448	18620
867.579	18635
867.71	18597
867.841	18665
867.972	18635
868.103	18574
868.233	18700
868.364	18665
868.495	18585
868.625	18932
868.756	18943
868.886	18798
869.017	18753
869.147	18989
869.278	19072
869.408	18909
869.539	18871
869.669	18886
869.799	18924
869.929	18897
870.06	18966
870.19	19175
870.32	19187
870.45	19209
870.58	19164
870.71	19282
870.84	19373
870.97	19225
871.1	19266
871.23	19415
871.36	19457
871.489	19335
871.619	19388
871.749	19438
871.879	19491
872.008	19556
872.138	19438
872.267	19392
872.397	19362
872.526	19289
872.656	19244
872.785	19331
872.915	19422
873.044	19582
873.173	19426
873.303	19453
873.432	19548
873.561	19480
873.69	19483
873.819	19434
873.948	19571
874.077	19575
874.206	19434
874.335	19514
874.464	19635
874.593	19772
874.722	19738
874.851	19742
874.979	19776
875.108	19719
875.237	19750
875.365	19681
875.494	19700
875.623	19791
875.751	19734
875.88	19814
876.008	19925
876.136	20001
876.265	20172
876.393	20381
876.521	20305
876.65	20195
876.778	20153
876.906	20096
877.034	20225
877.162	20126
877.29	20103
877.418	20282
877.546	20282
877.674	20065
877.802	20233
877.93	20191
878.058	20168
878.185	20043
878.313	20111
878.441	20111
878.568	20046
878.696	19974
878.824	20271
878.951	20237
879.079	20317
879.206	20412
879.333	20434
879.461	20328
879.588	20412
879.715	20469
879.842	20552
879.97	20294
880.097	20043
880.224	20005
880.351	20016
880.478	20096
880.605	20065
880.732	20012
880.859	20202
880.986	19978
881.112	19928
881.239	19989
881.366	19715
881.493	19613
881.619	19567
881.746	19666
881.872	19670
881.999	19571
882.125	19544
882.252	19620
882.378	19601
882.505	19791
882.631	19552
882.757	19365
882.883	19415
883.01	19445
883.136	19384
883.262	19285
883.388	19206
883.514	19343
883.64	19331
883.766	19293
883.892	19221
884.018	19209
884.143	19400
884.269	19430
884.395	19114
884.52	18996
884.646	19053
884.772	19053
884.897	18886
885.023	19088
885.148	19110
885.274	19255
885.399	19114
885.524	18928
885.65	19065
885.775	19027
885.9	18913
886.025	19034
886.15	19107
886.275	18856
886.4	18901
886.525	18977
886.65	18935
886.775	18840
886.9	19038
887.025	19190
887.149	19114
887.274	18840
887.399	18802
887.523	18757
887.648	18757
887.773	18589
887.897	18779
888.021	18837
888.146	18700
888.27	18905
888.395	18871
888.519	18783
888.643	18821
888.767	18639
888.891	18696
889.015	18544
889.139	18692
889.263	18726
889.387	18673
889.511	18821
889.635	18597
889.759	18502
889.883	18513
890.006	18604
890.13	18646
890.254	18380
890.377	18407
890.501	18422
890.624	18323
890.748	18471
890.871	18254
890.995	18186
891.118	18140
891.241	18163
891.364	18171
891.488	18201
891.611	18030
891.734	18167
891.857	18216
891.98	18155
892.103	18258
892.226	18076
892.349	18178
892.471	18015
892.594	18087
892.717	18072
892.839	18087
892.962	18003
893.085	18194
893.207	18057
893.33	17931
893.452	17931
893.575	18140
893.697	18041
893.819	18308
893.941	18315
894.064	18281
894.186	18098
894.308	18095
894.43	18292
894.552	18216
894.674	18182
894.796	18095
894.918	18213
895.04	18072
895.161	18182
895.283	18133
895.405	18034
895.526	18083
895.648	18076
895.769	18159
895.891	18159
896.012	18232
896.134	18266
896.255	18190
896.376	18125
896.498	18148
896.619	18228
896.74	18197
896.861	18395
896.982	18498
897.103	18547
897.224	18448
897.345	18475
897.466	18426
897.587	18464
897.708	18479
897.828	18426
897.949	18350
898.07	18262
898.19	18342
898.311	18426
898.431	18300
898.552	18502
898.672	18498
898.792	18486
898.913	18399
899.033	18311
899.153	18159
899.273	18045
899.393	18144
899.513	18190
899.633	18239
899.753	18167
899.873	18232
899.993	18106
900.113	18186
900.232	18159
900.352	18022
900.472	17916
900.591	17916
900.711	18030
900.83	17958
900.95	18110
901.069	18019
901.189	17855
901.308	17638
901.427	17634
901.546	17630
901.665	17600
901.784	17589
901.904	17520
902.023	17414
902.141	17254
902.26	17246
902.379	17208
902.498	17075
902.617	17029
902.735	17094
902.854	17060
902.973	17022
903.091	16790
903.21	16725
903.328	16733
903.446	16664
903.565	16683
903.683	16641
903.801	16569
903.919	16618
904.038	16569
904.156	16424
904.274	16500
904.392	16409
904.51	16417
904.627	16379
904.745	16428
904.863	16474
904.981	16234
905.098	16166
905.216	15983
905.334	16063
905.451	15945
905.569	16101
905.686	16067
905.803	16002
905.921	15850
906.038	15972
906.155	15865
906.272	15732
906.389	15812
906.506	15519
906.623	15530
906.74	15580
906.857	15500
906.974	15629
907.091	15606
907.208	15694
907.324	15618
907.441	15469
907.557	15416
907.674	15252
907.79	15154
907.907	15218
908.023	15378
908.139	15275
908.256	15272
908.372	15169
908.488	15142
908.604	14963
908.72	15001
908.836	14990
908.952	14941
909.068	14986
909.184	15074
909.3	14990
909.415	14990
909.531	14910
909.647	14727
909.762	14701
909.878	14636
909.993	14693
910.108	14651
910.224	14625
910.339	14655
910.454	14651
910.57	14526
910.685	14488
910.8	14781
910.915	14655
911.03	14507
911.145	14286
911.259	14278
911.374	14317
911.489	14267
911.604	14168
911.718	14103
911.833	14073
911.947	13928
912.062	13837
912.176	14016
912.291	14024
912.405	14092
912.519	14218
912.633	14294
912.748	14123
912.862	14103
912.976	13921
913.09	13849
913.204	13902
913.318	13986
913.431	14027
913.545	13951
913.659	14088
913.772	13871
913.886	13731
914	13826
914.113	13814
914.226	13826
914.34	13757
914.453	13685
914.566	13712
914.68	13518
914.793	13609
914.906	13392
915.019	13354
915.132	13335
915.245	13339
915.358	13468
915.47	13430
915.583	13434
915.696	13373
915.809	13533
915.921	13521
916.034	13331
916.146	13384
916.259	13236
916.371	13403
916.483	13445
916.595	13217
916.708	13251
916.82	13289
916.932	13221
917.044	13255
917.156	13217
917.268	13000
917.38	13152
917.491	13095
917.603	13114
917.715	13145
917.826	13228
917.938	13034
918.049	13076
918.161	12993
918.272	13274
918.384	13194
918.495	12943
918.606	12920
918.717	12829
918.828	12875
918.939	12981
919.05	12726
919.161	12806
919.272	12707
919.383	12741
919.494	12970
919.604	13122
919.715	12840
919.826	12745
919.936	12882
920.047	12833
920.157	12802
920.267	13088
920.378	12913
920.488	12817
920.598	13019
920.708	13141
920.818	13061
920.928	13019
921.038	13118
921.148	13107
921.258	12878
921.368	12681
921.477	12715
921.587	12623
921.697	12395
921.806	12635
921.916	12498
922.025	12346
922.134	12315
922.244	12175
922.353	12296
922.462	12178
922.571	12102
922.68	11999
922.789	11882
922.898	12007
923.007	11935
923.116	11927
923.224	11904
923.333	11954
923.442	11783
923.55	11786
923.659	11828
923.767	11821
923.876	11691
923.984	11840
924.092	11680
924.201	11764
924.309	11775
924.417	11722
924.525	11703
924.633	11646
924.741	12578
924.849	11490
924.956	11608
925.064	11497
925.172	11383
925.279	11345
925.387	11509
925.494	11436
925.602	11566
925.709	11535
925.816	11296
925.924	11474
926.031	11516
926.138	11395
926.245	11467
926.352	11341
926.459	11452
926.566	11501
926.673	11356
926.779	11189
926.886	11242
926.993	11025
927.099	11124
927.206	10938
927.312	11094
927.419	11124
927.525	11022
927.631	11105
927.737	10938
927.843	10923
927.95	10839
928.056	10866
928.162	10885
928.267	10999
928.373	11459
928.479	10930
928.585	10759
928.69	10904
928.796	10820
928.901	10736
929.007	10744
929.112	10759
929.218	10755
929.323	10668
929.428	10672
929.533	10744
929.638	10645
929.743	10664
929.848	10679
929.953	10516
930.058	10459
930.163	10390
930.267	10390
930.372	10569
930.477	10341
930.581	10573
930.685	10485
930.79	10280
930.894	10325
930.998	10272
931.103	10405
931.207	10029
931.311	9899
931.415	9846
931.519	9709
931.623	9625
