Data from test_V78500241_695.txt Node
Date: Fri Mar 25 14:38:33 CST 2022
User: usil
Spectrometer: V785-0024
Trigger mode: 0
Integration Time (sec): 4.000000E-1
Scans to average: 1
Nonlinearity correction enabled: false
Boxcar width: 0
Storing dark spectrum: false
XAxis mode: Wavelengths
Number of Pixels in Spectrum: 1024
>>>>>Begin Spectral Data<<<<<
801.071	27922
801.214	27831
801.356	27587
801.499	27462
801.641	27287
801.783	27393
801.926	27431
802.068	27313
802.211	27127
802.353	27093
802.496	26960
802.638	26940
802.78	26864
802.923	26861
803.065	26720
803.208	26853
803.35	26861
803.492	26864
803.635	27009
803.777	27062
803.919	27089
804.061	27188
804.204	27108
804.346	27077
804.488	27039
804.63	27085
804.773	27028
804.915	27348
805.057	27370
805.199	27393
805.341	27408
805.483	27530
805.626	27622
805.768	27526
805.91	27739
806.052	27835
806.194	28017
806.336	28169
806.478	28367
806.62	28508
806.762	28919
806.904	29250
807.046	29832
807.188	30068
807.33	30574
807.472	31118
807.614	31700
807.756	32511
807.898	33778
808.04	35292
808.182	37381
808.324	40192
808.465	43076
808.607	46390
808.749	49301
808.891	51123
809.033	51260
809.174	49453
809.316	46607
809.458	43167
809.6	39808
809.741	36958
809.883	34896
810.025	33310
810.166	32214
810.308	31476
810.45	30616
810.591	30034
810.733	29528
810.875	29250
811.016	28888
811.158	28706
811.299	28683
811.441	28550
811.582	28280
811.724	28204
811.865	28063
812.007	27876
812.148	27888
812.29	27838
812.431	27903
812.573	27918
812.714	27983
812.855	27903
812.997	28036
813.138	28078
813.279	28105
813.421	27823
813.562	27812
813.703	27485
813.845	27450
813.986	27100
814.127	26944
814.268	26678
814.41	26872
814.551	26682
814.692	26693
814.833	26533
814.974	26480
815.115	26549
815.256	26427
815.397	26374
815.539	26381
815.68	26240
815.821	26195
815.962	26103
816.103	26073
816.244	25875
816.385	25772
816.526	25757
816.666	25681
816.807	25556
816.948	25639
817.089	25384
817.23	25483
817.371	25388
817.512	25434
817.653	25426
817.793	25312
817.934	25384
818.075	25415
818.216	25335
818.356	25270
818.497	25213
818.638	25072
818.778	25004
818.919	25088
819.06	25080
819.2	25217
819.341	25244
819.481	25247
819.622	25506
819.762	25594
819.903	25476
820.043	25502
820.184	25247
820.324	25190
820.465	25384
820.605	25164
820.746	25164
820.886	25000
821.026	25263
821.167	25053
821.307	25091
821.447	25107
821.588	24795
821.728	24863
821.868	24555
822.008	24540
822.149	24525
822.289	24403
822.429	24277
822.569	24136
822.709	24121
822.849	23977
822.99	23817
823.13	23897
823.27	23828
823.41	23802
823.55	23562
823.69	23684
823.83	23779
823.97	23543
824.11	23615
824.25	23440
824.389	23410
824.529	23444
824.669	23463
824.809	23585
824.949	23471
825.089	23482
825.228	23516
825.368	23398
825.508	23181
825.648	23341
825.787	23204
825.927	23242
826.067	23220
826.206	23246
826.346	23204
826.485	23307
826.625	23250
826.765	23280
826.904	23239
827.044	23041
827.183	22892
827.323	22953
827.462	23003
827.601	22942
827.741	22839
827.88	22858
828.02	22725
828.159	22892
828.298	22850
828.437	22854
828.577	22873
828.716	22908
828.855	22793
828.994	22550
829.134	22622
829.273	22573
829.412	22516
829.551	22596
829.69	22481
829.829	22531
829.968	22649
830.107	22523
830.246	22478
830.385	22519
830.524	22375
830.663	22363
830.802	22242
830.941	22238
831.08	22131
831.219	22246
831.357	22192
831.496	22379
831.635	22207
831.774	22070
831.913	22040
832.051	22013
832.19	22021
832.329	22010
832.467	21926
832.606	21998
832.744	22032
832.883	22139
833.022	22074
833.16	22272
833.299	22478
833.437	22618
833.576	22694
833.714	22797
833.852	22968
833.991	23083
834.129	23193
834.267	23147
834.406	23124
834.544	23105
834.682	22976
834.821	22641
834.959	22805
835.097	22390
835.235	22405
835.373	22287
835.511	22291
835.65	22059
835.788	21880
835.926	21812
836.064	21622
836.202	21667
836.34	21797
836.478	21766
836.615	21774
836.753	21800
836.891	21728
837.029	21686
837.167	21667
837.305	21633
837.443	21530
837.58	21488
837.718	21424
837.856	21401
837.993	21530
838.131	21473
838.269	21363
838.406	21382
838.544	21241
838.681	21119
838.819	21119
838.956	20986
839.094	20963
839.231	20948
839.369	21123
839.506	21298
839.643	21173
839.781	20902
839.918	20887
840.055	20944
840.193	20883
840.33	20895
840.467	20842
840.604	20880
840.742	21119
840.879	20720
841.016	20739
841.153	20830
841.29	21017
841.427	20815
841.564	20941
841.701	20883
841.838	20632
841.975	20788
842.112	20697
842.249	20663
842.385	20602
842.522	20804
842.659	20746
842.796	20697
842.933	20697
843.069	20674
843.206	20754
843.343	20746
843.479	20765
843.616	20792
843.752	20651
843.889	20785
844.025	20918
844.162	20857
844.298	21020
844.435	21024
844.571	21340
844.708	21660
844.844	21953
844.98	22497
845.117	23174
845.253	24095
845.389	25970
845.525	29543
845.661	35680
845.798	42665
845.934	47805
846.07	49407
846.206	48213
846.342	43274
846.478	36479
846.614	30426
846.75	26514
846.886	24262
847.022	22953
847.158	22025
847.294	21386
847.429	21074
847.565	20720
847.701	20712
847.837	20393
847.972	20020
848.108	20164
848.244	20096
848.379	19761
848.515	19685
848.65	19723
848.786	19696
848.921	19651
849.057	19693
849.192	19677
849.328	19727
849.463	19643
849.598	19460
849.734	19460
849.869	19392
850.004	19392
850.14	19270
850.275	19251
850.41	19221
850.545	19247
850.68	19225
850.815	19297
850.95	19354
851.085	19422
851.22	19304
851.355	19236
851.49	19110
851.625	19251
851.76	19312
851.895	19244
852.03	19289
852.165	19255
852.299	19221
852.434	19297
852.569	19468
852.703	19354
852.838	19480
852.973	19457
853.107	19533
853.242	19358
853.376	19247
853.511	19118
853.645	19335
853.78	19464
853.914	19449
854.048	19316
854.183	19434
854.317	19491
854.451	19658
854.585	19540
854.72	19472
854.854	19529
854.988	19289
855.122	19365
855.256	19327
855.39	19278
855.524	19270
855.658	19244
855.792	19160
855.926	19209
856.06	19266
856.194	19206
856.327	19141
856.461	18962
856.595	19031
856.729	19072
856.862	19179
856.996	19122
857.13	19076
857.263	19137
857.397	19126
857.53	19042
857.664	19072
857.797	19065
857.931	19141
858.064	19065
858.197	19080
858.331	18939
858.464	18867
858.597	18772
858.731	18962
858.864	18867
858.997	18932
859.13	18951
859.263	18901
859.396	18932
859.529	18810
859.662	18833
859.795	18840
859.928	18852
860.061	18920
860.194	18977
860.327	18859
860.46	18817
860.592	18875
860.725	18993
860.858	18935
860.99	18867
861.123	18764
861.256	18795
861.388	18821
861.521	19445
861.653	18623
861.786	18612
861.918	18711
862.05	18764
862.183	18783
862.315	18871
862.447	18977
862.58	18848
862.712	18665
862.844	18627
862.976	18658
863.108	18639
863.24	19008
863.372	18551
863.504	18502
863.636	18563
863.768	18593
863.9	18486
864.032	18483
864.164	18517
864.296	18589
864.428	18574
864.559	18536
864.691	18722
864.823	18601
864.954	18646
865.086	18551
865.217	18479
865.349	18490
865.48	18441
865.612	18513
865.743	18627
865.875	18502
866.006	18464
866.137	18452
866.269	18486
866.4	18540
866.531	18407
866.662	18372
866.793	18528
866.924	18441
867.055	18464
867.186	18604
867.317	18330
867.448	18281
867.579	18304
867.71	18380
867.841	18426
867.972	18464
868.103	18445
868.233	18490
868.364	18467
868.495	18593
868.625	18734
868.756	18692
868.886	18604
869.017	18696
869.147	18840
869.278	18837
869.408	18707
869.539	18878
869.669	18753
869.799	18776
869.929	18783
870.06	18821
870.19	19080
870.32	19126
870.45	18985
870.58	19080
870.71	19168
870.84	19236
870.97	19202
871.1	19206
871.23	19266
871.36	19457
871.489	19369
871.619	19426
871.749	19384
871.879	19422
872.008	19563
872.138	19430
872.267	19540
872.397	19324
872.526	19335
872.656	19392
872.785	19388
872.915	19563
873.044	19643
873.173	19552
873.303	19742
873.432	19677
873.561	19818
873.69	19776
873.819	19704
873.948	19822
874.077	19765
874.206	19708
874.335	19803
874.464	19932
874.593	20119
874.722	20046
874.851	20244
874.979	20195
875.108	20267
875.237	20210
875.365	20206
875.494	20320
875.623	20415
875.751	20434
875.88	20499
876.008	20765
876.136	20758
876.265	20998
876.393	21104
876.521	21138
876.65	21332
876.778	21123
876.906	21252
877.034	21222
877.162	21348
877.29	21348
877.418	21492
877.546	21576
877.674	21884
877.802	21850
877.93	22010
878.058	22025
878.185	22253
878.313	22584
878.441	22877
878.568	23200
878.696	23802
878.824	24768
878.951	25917
879.079	27507
879.206	29596
879.333	31693
879.461	33386
879.588	34577
879.715	34318
879.842	33644
879.97	31658
880.097	29474
880.224	27781
880.351	26720
880.478	25734
880.605	25160
880.732	24787
880.859	24589
880.986	24486
881.112	24281
881.239	24152
881.366	23912
881.493	23935
881.619	23851
881.746	23885
881.872	23847
881.999	23813
882.125	23840
882.252	24018
882.378	24034
882.505	24087
882.631	23973
882.757	23863
882.883	23885
883.01	24053
883.136	23775
883.262	23680
883.388	23665
883.514	23870
883.64	23741
883.766	23668
883.892	23535
884.018	23699
884.143	23813
884.269	23885
884.395	23596
884.52	23520
884.646	23615
884.772	23562
884.897	23452
885.023	23589
885.148	23653
885.274	23676
885.399	23547
885.524	23277
885.65	23246
885.775	23010
885.9	22984
886.025	22965
886.15	22637
886.275	22352
886.4	22230
886.525	22173
886.65	22078
886.775	21895
886.9	22067
887.025	21915
887.149	21557
887.274	21294
887.399	21214
887.523	21104
887.648	21093
887.773	20948
887.897	21085
888.021	20937
888.146	20819
888.27	20807
888.395	20701
888.519	20689
888.643	20644
888.767	20629
888.891	20355
889.015	20267
889.139	20332
889.263	20202
889.387	20305
889.511	20324
889.635	20164
889.759	20088
889.883	20054
890.006	20054
890.13	20058
890.254	19879
890.377	19925
890.501	19643
890.624	19715
890.748	19613
890.871	19453
890.995	19411
891.118	19343
891.241	19377
891.364	19335
891.488	19320
891.611	19209
891.734	19270
891.857	19240
891.98	19145
892.103	19232
892.226	19141
892.349	19148
892.471	18905
892.594	18905
892.717	18973
892.839	18928
892.962	19004
893.085	19004
893.207	18795
893.33	18700
893.452	18650
893.575	18901
893.697	18745
893.819	18905
893.941	18890
894.064	18810
894.186	18650
894.308	18536
894.43	18692
894.552	18779
894.674	18692
894.796	18544
894.918	18506
895.04	18403
895.161	18597
895.283	18536
895.405	18399
895.526	18437
895.648	18350
895.769	18418
895.891	18372
896.012	18506
896.134	18467
896.255	18407
896.376	18296
896.498	18357
896.619	18486
896.74	18365
896.861	18388
896.982	18544
897.103	18798
897.224	18593
897.345	18540
897.466	18399
897.587	18506
897.708	18627
897.828	18509
897.949	18357
898.07	18399
898.19	18475
898.311	18509
898.431	18467
898.552	18445
898.672	18528
898.792	18623
898.913	18555
899.033	18330
899.153	18407
899.273	18174
899.393	18228
899.513	18266
899.633	18289
899.753	18380
899.873	18201
899.993	18422
900.113	18251
900.232	18304
900.352	18277
900.472	18087
900.591	18068
900.711	18072
900.83	18007
900.95	18197
901.069	18152
901.189	18076
901.308	17764
901.427	17665
901.546	17729
901.665	17687
901.784	17611
901.904	17543
902.023	17349
902.141	17220
902.26	17235
902.379	17193
902.498	17117
902.617	17056
902.735	17029
902.854	17006
902.973	16972
903.091	16740
903.21	16698
903.328	16740
903.446	16565
903.565	16584
903.683	16637
903.801	16280
903.919	16417
904.038	16466
904.156	16333
904.274	16249
904.392	16261
904.51	16246
904.627	16329
904.745	16261
904.863	16272
904.981	16006
905.098	15911
905.216	15934
905.334	15941
905.451	15915
905.569	16025
905.686	15907
905.803	15903
905.921	15679
906.038	15747
906.155	15755
906.272	15595
906.389	15633
906.506	15397
906.623	15428
906.74	15313
906.857	15275
906.974	15355
907.091	15591
907.208	15568
907.324	15447
907.441	15252
907.557	15184
907.674	15135
907.79	15055
907.907	15138
908.023	15138
908.139	15104
908.256	14906
908.372	14979
908.488	15028
908.604	14902
908.72	14762
908.836	14861
908.952	14731
909.068	14914
909.184	14944
909.3	14845
909.415	14861
909.531	14773
909.647	14560
909.762	14613
909.878	14503
909.993	14636
910.108	14552
910.224	14492
910.339	14575
910.454	14404
910.57	14427
910.685	14286
910.8	14556
910.915	14602
911.03	14351
911.145	14206
911.259	14180
911.374	14206
911.489	14142
911.604	14062
911.718	13841
911.833	13906
911.947	13833
912.062	13727
912.176	13928
912.291	13902
912.405	13940
912.519	14016
912.633	14050
912.748	14005
912.862	13887
912.976	13818
913.09	13567
913.204	13693
913.318	13734
913.431	13826
913.545	13868
913.659	13902
913.772	13731
913.886	13715
914	13525
914.113	13693
914.226	13811
914.34	13708
914.453	13476
914.566	13639
914.68	13468
914.793	13502
914.906	13365
915.019	13339
915.132	13236
915.245	13236
915.358	13304
915.47	13343
915.583	13285
915.696	13346
915.809	13312
915.921	13548
916.034	13270
916.146	13270
916.259	13137
916.371	13365
916.483	13358
916.595	13221
916.708	13187
916.82	13206
916.932	13259
917.044	13168
917.156	13141
917.268	13080
917.38	13057
917.491	13004
917.603	12985
917.715	13114
917.826	13133
917.938	12996
918.049	12791
918.161	13000
918.272	13156
918.384	13057
918.495	13015
918.606	12859
918.717	12760
918.828	12882
918.939	12859
919.05	12673
919.161	12654
919.272	12627
919.383	12578
919.494	12798
919.604	12958
919.715	12741
919.826	12734
919.936	12814
920.047	12738
920.157	12772
920.267	12932
920.378	12802
920.488	12650
920.598	12916
920.708	13015
920.818	12924
920.928	12871
921.038	12958
921.148	12993
921.258	12688
921.368	12627
921.477	12578
921.587	12471
921.697	12418
921.806	12517
921.916	12407
922.025	12205
922.134	12125
922.244	12159
922.353	12270
922.462	12136
922.571	11996
922.68	11802
922.789	11809
922.898	11893
923.007	11756
923.116	11828
923.224	11760
923.333	11802
923.442	11745
923.55	11703
923.659	11688
923.767	11764
923.876	11661
923.984	11665
924.092	11589
924.201	11653
924.309	11615
924.417	11596
924.525	11577
924.633	11558
924.741	12479
924.849	11356
924.956	11532
925.064	11296
925.172	11311
925.279	11299
925.387	11368
925.494	11292
925.602	11493
925.709	11326
925.816	11189
925.924	11204
926.031	11353
926.138	11269
926.245	11356
926.352	11174
926.459	11296
926.566	11330
926.673	11178
926.779	11060
926.886	11124
926.993	11052
927.099	10976
927.206	10961
927.312	10908
927.419	10965
927.525	10957
927.631	10999
927.737	10862
927.843	10927
927.95	10649
928.056	10793
928.162	10828
928.267	10885
928.373	11341
928.479	10847
928.585	10653
928.69	10816
928.796	10858
928.901	10698
929.007	10622
929.112	10714
929.218	10706
929.323	10584
929.428	10508
929.533	10721
929.638	10538
929.743	10523
929.848	10622
929.953	10531
930.058	10455
930.163	10299
930.267	10303
930.372	10402
930.477	10329
930.581	10508
930.685	10371
930.79	10234
930.894	10242
930.998	10257
931.103	10341
931.207	9987
931.311	9934
931.415	9873
931.519	9724
931.623	9663
