Data from test_V78500241_3453.txt Node
Date: Fri Mar 25 14:57:45 CST 2022
User: usil
Spectrometer: V785-0024
Trigger mode: 0
Integration Time (sec): 4.000000E-1
Scans to average: 1
Nonlinearity correction enabled: false
Boxcar width: 0
Storing dark spectrum: false
XAxis mode: Wavelengths
Number of Pixels in Spectrum: 1024
>>>>>Begin Spectral Data<<<<<
801.071	21915
801.214	21713
801.356	21511
801.499	21469
801.641	21351
801.783	21313
801.926	21393
802.068	21237
802.211	21211
802.353	20944
802.496	20967
802.638	20830
802.78	20667
802.923	20686
803.065	20617
803.208	20526
803.35	20682
803.492	20693
803.635	20811
803.777	20769
803.919	20571
804.061	20956
804.204	20678
804.346	20629
804.488	20434
804.63	20617
804.773	20473
804.915	20454
805.057	20549
805.199	20560
805.341	20594
805.483	20640
805.626	20590
805.768	20492
805.91	20518
806.052	20552
806.194	20389
806.336	20735
806.478	20484
806.62	20438
806.762	20431
806.904	20754
807.046	20971
807.188	20952
807.33	20887
807.472	20937
807.614	20765
807.756	20777
807.898	20621
808.04	20644
808.182	20583
808.324	20522
808.465	20549
808.607	20777
808.749	20925
808.891	20990
809.033	21165
809.174	21062
809.316	20815
809.458	20853
809.6	20830
809.741	20864
809.883	20963
810.025	20998
810.166	21032
810.308	20971
810.45	20963
810.591	21001
810.733	20731
810.875	20708
811.016	20552
811.158	20537
811.299	20670
811.441	20701
811.582	20762
811.724	20625
811.865	20537
812.007	20609
812.148	20552
812.29	20693
812.431	20842
812.573	20811
812.714	20998
812.855	21161
812.997	21142
813.138	21306
813.279	21222
813.421	21188
813.562	20925
813.703	20902
813.845	20785
813.986	20507
814.127	20301
814.268	20282
814.41	20229
814.551	20180
814.692	20225
814.833	20100
814.974	20119
815.115	20081
815.256	19871
815.397	19974
815.539	20081
815.68	19921
815.821	19887
815.962	19902
816.103	19803
816.244	19784
816.385	19643
816.526	19540
816.666	19460
816.807	19316
816.948	19499
817.089	19343
817.23	19339
817.371	19308
817.512	19156
817.653	19346
817.793	19217
817.934	19251
818.075	19209
818.216	19354
818.356	19217
818.497	19095
818.638	19004
818.778	18943
818.919	19069
819.06	19023
819.2	19091
819.341	19168
819.481	19190
819.622	19263
819.762	19556
819.903	19400
820.043	19244
820.184	19282
820.324	19179
820.465	19304
820.605	19373
820.746	19369
820.886	19217
821.026	19255
821.167	19221
821.307	19289
821.447	19190
821.588	19129
821.728	18932
821.868	18856
822.008	18715
822.149	18764
822.289	18585
822.429	18479
822.569	18452
822.709	18448
822.849	18213
822.99	18213
823.13	18087
823.27	18076
823.41	18064
823.55	18057
823.69	17958
823.83	17977
823.97	17920
824.11	17737
824.25	17722
824.389	17802
824.529	17889
824.669	17718
824.809	17813
824.949	17882
825.089	17904
825.228	17707
825.368	17581
825.508	17562
825.648	17452
825.787	17528
825.927	17501
826.067	17459
826.206	17543
826.346	17436
826.485	17581
826.625	17478
826.765	17707
826.904	17585
827.044	17330
827.183	17391
827.323	17143
827.462	17303
827.601	17284
827.741	17307
827.88	17296
828.02	17105
828.159	17280
828.298	17174
828.437	17258
828.577	17185
828.716	17345
828.855	17052
828.994	17060
829.134	17018
829.273	17075
829.412	16961
829.551	16900
829.69	16999
829.829	17033
829.968	17018
830.107	17105
830.246	17071
830.385	16968
830.524	16881
830.663	16843
830.802	16748
830.941	16592
831.08	16580
831.219	16664
831.357	16687
831.496	16919
831.635	16546
831.774	16508
831.913	16519
832.051	16478
832.19	16504
832.329	16462
832.467	16367
832.606	16310
832.744	16284
832.883	16253
833.022	16310
833.16	16306
833.299	16333
833.437	16367
833.576	16287
833.714	16390
833.852	16363
833.991	16417
834.129	16402
834.267	16363
834.406	16352
834.544	16440
834.682	16436
834.821	16363
834.959	16523
835.097	16314
835.235	16409
835.373	16424
835.511	16375
835.65	16329
835.788	16272
835.926	16196
836.064	15975
836.202	16143
836.34	16329
836.478	16413
836.615	16215
836.753	16306
836.891	16440
837.029	16447
837.167	16238
837.305	16219
837.443	16223
837.58	16246
837.718	16257
837.856	16223
837.993	16143
838.131	16230
838.269	16158
838.406	16143
838.544	15991
838.681	15876
838.819	15899
838.956	15679
839.094	15644
839.231	15701
839.369	15884
839.506	16071
839.643	15960
839.781	15724
839.918	15705
840.055	15679
840.193	15770
840.33	15690
840.467	15766
840.604	15690
840.742	15991
840.879	15557
841.016	15667
841.153	15739
841.29	15842
841.427	15785
841.564	15762
841.701	15816
841.838	15561
841.975	15622
842.112	15797
842.249	15557
842.385	15408
842.522	15793
842.659	15477
842.796	15538
842.933	15515
843.069	15504
843.206	15386
843.343	15549
843.479	15564
843.616	15644
843.752	15329
843.889	15389
844.025	15488
844.162	15279
844.298	15370
844.435	15397
844.571	15355
844.708	15294
844.844	15424
844.98	15454
845.117	15481
845.253	15359
845.389	15222
845.525	15180
845.661	15176
845.798	15123
845.934	15119
846.07	14979
846.206	15085
846.342	15241
846.478	14998
846.614	14914
846.75	14895
846.886	14842
847.022	14842
847.158	14910
847.294	14861
847.429	14876
847.565	14845
847.701	15104
847.837	14617
847.972	14659
848.108	14773
848.244	14625
848.379	14518
848.515	14617
848.65	14412
848.786	14408
848.921	14530
849.057	14564
849.192	14575
849.328	14499
849.463	14537
849.598	14434
849.734	14362
849.869	14362
850.004	14271
850.14	14336
850.275	14256
850.41	14187
850.545	14214
850.68	14199
850.815	14263
850.95	14221
851.085	14442
851.22	14305
851.355	14256
851.49	14206
851.625	14206
851.76	14149
851.895	14119
852.03	14149
852.165	14282
852.299	14176
852.434	14324
852.569	14278
852.703	14294
852.838	14221
852.973	14366
853.107	14404
853.242	14164
853.376	14096
853.511	13940
853.645	14077
853.78	14259
853.914	14168
854.048	14050
854.183	14096
854.317	14172
854.451	14290
854.585	14058
854.72	14069
854.854	14164
854.988	14092
855.122	14054
855.256	13913
855.39	14077
855.524	14123
855.658	14126
855.792	14157
855.926	14157
856.06	14214
856.194	14164
856.327	14130
856.461	14134
856.595	14031
856.729	14161
856.862	14229
856.996	14233
857.13	14149
857.263	14195
857.397	14172
857.53	14069
857.664	14103
857.797	14259
857.931	14286
858.064	14218
858.197	14202
858.331	14115
858.464	14130
858.597	14100
858.731	14134
858.864	14149
858.997	14187
859.13	14084
859.263	14134
859.396	14187
859.529	14058
859.662	14050
859.795	13986
859.928	14176
860.061	14195
860.194	14275
860.327	14176
860.46	14153
860.592	14176
860.725	14206
860.858	14275
860.99	14115
861.123	14081
861.256	14016
861.388	14157
861.521	14838
861.653	14065
861.786	13944
861.918	13913
862.05	14050
862.183	14027
862.315	14195
862.447	14119
862.58	14077
862.712	13822
862.844	13856
862.976	13917
863.108	14054
863.24	14362
863.372	13799
863.504	13852
863.636	13845
863.768	13982
863.9	13936
864.032	13814
864.164	13917
864.296	13970
864.428	14046
864.559	13997
864.691	14001
864.823	13967
864.954	13890
865.086	13944
865.217	13925
865.349	13807
865.48	13909
865.612	13871
865.743	14073
865.875	13833
866.006	13860
866.137	13894
866.269	13913
866.4	13883
866.531	13830
866.662	13776
866.793	13871
866.924	13845
867.055	13921
867.186	13826
867.317	13822
867.448	13814
867.579	13841
867.71	13928
867.841	13795
867.972	13883
868.103	13890
868.233	13860
868.364	13906
868.495	14046
868.625	14142
868.756	14286
868.886	14088
869.017	14153
869.147	14252
869.278	14145
869.408	14145
869.539	14134
869.669	14229
869.799	14180
869.929	14214
870.06	14229
870.19	14511
870.32	14374
870.45	14511
870.58	14537
870.71	14663
870.84	14476
870.97	14454
871.1	14454
871.23	14682
871.36	14773
871.489	14587
871.619	14655
871.749	14758
871.879	14842
872.008	14952
872.138	14781
872.267	14613
872.397	14632
872.526	14590
872.656	14571
872.785	14598
872.915	14769
873.044	14792
873.173	14777
873.303	14754
873.432	14853
873.561	14895
873.69	14815
873.819	14785
873.948	14743
874.077	14887
874.206	14777
874.335	14864
874.464	15024
874.593	15077
874.722	14982
874.851	15154
874.979	15184
875.108	15180
875.237	15176
875.365	15001
875.494	15127
875.623	15157
875.751	15070
875.88	15252
876.008	15256
876.136	15351
876.265	15618
876.393	15606
876.521	15637
876.65	15595
876.778	15545
876.906	15633
877.034	15538
877.162	15595
877.29	15462
877.418	15542
877.546	15580
877.674	15568
877.802	15462
877.93	15542
878.058	15496
878.185	15393
878.313	15481
878.441	15530
878.568	15351
878.696	15481
878.824	15557
878.951	15603
879.079	15732
879.206	15808
879.333	15690
879.461	15595
879.588	15557
879.715	15648
879.842	15808
879.97	15610
880.097	15348
880.224	15252
880.351	15466
880.478	15408
880.605	15466
880.732	15389
880.859	15663
880.986	15389
881.112	15424
881.239	15252
881.366	15157
881.493	15085
881.619	15108
881.746	15081
881.872	15020
881.999	14941
882.125	15051
882.252	15066
882.378	15089
882.505	15199
882.631	14979
882.757	14887
882.883	14929
883.01	14914
883.136	14902
883.262	14667
883.388	14765
883.514	14921
883.64	14838
883.766	14762
883.892	14632
884.018	14701
884.143	14773
884.269	15005
884.395	14655
884.52	14579
884.646	14621
884.772	14560
884.897	14370
885.023	14571
885.148	14587
885.274	14796
885.399	14731
885.524	14533
885.65	14526
885.775	14621
885.9	14644
886.025	14560
886.15	14636
886.275	14590
886.4	14438
886.525	14522
886.65	14446
886.775	14370
886.9	14670
887.025	14769
887.149	14632
887.274	14431
887.399	14389
887.523	14347
887.648	14244
887.773	14278
887.897	14434
888.021	14450
888.146	14252
888.27	14480
888.395	14469
888.519	14473
888.643	14328
888.767	14488
888.891	14305
889.015	14218
889.139	14370
889.263	14263
889.387	14415
889.511	14446
889.635	14366
889.759	14271
889.883	14237
890.006	14286
890.13	14374
890.254	14225
890.377	14259
890.501	14103
890.624	14020
890.748	14001
890.871	14016
890.995	13909
891.118	13845
891.241	13989
891.364	14016
891.488	14069
891.611	13997
891.734	14027
891.857	13997
891.98	13921
892.103	14096
892.226	13993
892.349	13890
892.471	13807
892.594	13883
892.717	13970
892.839	13986
892.962	13932
893.085	14050
893.207	13902
893.33	13898
893.452	13856
893.575	13982
893.697	13932
893.819	14142
893.941	14202
894.064	14145
894.186	13989
894.308	13894
894.43	14088
894.552	14096
894.674	14062
894.796	13925
894.918	14050
895.04	13940
895.161	14145
895.283	14103
895.405	14084
895.526	14149
895.648	14206
895.769	14107
895.891	14145
896.012	14218
896.134	14138
896.255	14183
896.376	14096
896.498	14248
896.619	14225
896.74	14221
896.861	14191
896.982	14533
897.103	14682
897.224	14473
897.345	14415
897.466	14408
897.587	14332
897.708	14488
897.828	14522
897.949	14412
898.07	14278
898.19	14446
898.311	14473
898.431	14454
898.552	14446
898.672	14488
898.792	14602
898.913	14469
899.033	14484
899.153	14278
899.273	14218
899.393	14370
899.513	14351
899.633	14431
899.753	14396
899.873	14286
899.993	14415
900.113	14248
900.232	14358
900.352	14320
900.472	14358
900.591	14153
900.711	14210
900.83	14195
900.95	14214
901.069	14339
901.189	14206
901.308	13906
901.427	13868
901.546	13871
901.665	13887
901.784	13917
901.904	13830
902.023	13666
902.141	13491
902.26	13518
902.379	13578
902.498	13472
902.617	13438
902.735	13472
902.854	13453
902.973	13453
903.091	13168
903.21	13171
903.328	13164
903.446	13088
903.565	13069
903.683	13053
903.801	12928
903.919	13008
904.038	13023
904.156	12848
904.274	12928
904.392	12897
904.51	12795
904.627	12875
904.745	13023
904.863	12920
904.981	12684
905.098	12593
905.216	12521
905.334	12559
905.451	12631
905.569	12566
905.686	12544
905.803	12448
905.921	12357
906.038	12433
906.155	12372
906.272	12216
906.389	12376
906.506	12091
906.623	12121
906.74	12121
906.857	12019
906.974	11946
907.091	12346
907.208	12251
907.324	12167
907.441	12053
907.557	11874
907.674	11950
907.79	11828
907.907	11737
908.023	11878
908.139	11946
908.256	11878
908.372	11752
908.488	11726
908.604	11668
908.72	11497
908.836	11592
908.952	11703
909.068	11676
909.184	11733
909.3	11707
909.415	11764
909.531	11665
909.647	11448
909.762	11444
909.878	11440
909.993	11429
910.108	11395
910.224	11315
910.339	11448
910.454	11376
910.57	11162
910.685	11273
910.8	11547
910.915	11486
911.03	11292
911.145	11159
911.259	11079
911.374	11170
911.489	11083
911.604	11037
911.718	10877
911.833	10831
911.947	10763
912.062	10645
912.176	10812
912.291	10858
912.405	10911
912.519	11121
912.633	11105
912.748	11003
912.862	10938
912.976	10710
913.09	10706
913.204	10706
913.318	10797
913.431	10809
913.545	10873
913.659	10835
913.772	10736
913.886	10630
914	10649
914.113	10778
914.226	10801
914.34	10687
914.453	10611
914.566	10706
914.68	10649
914.793	10497
914.906	10402
915.019	10337
915.132	10329
915.245	10371
915.358	10360
915.47	10428
915.583	10379
915.696	10462
915.809	10558
915.921	10512
916.034	10371
916.146	10459
916.259	10322
916.371	10394
916.483	10424
916.595	10265
916.708	10341
916.82	10398
916.932	10314
917.044	10280
917.156	10344
917.268	10192
917.38	10276
917.491	10234
917.603	10211
917.715	10333
917.826	10291
917.938	10238
918.049	10071
918.161	10185
918.272	10295
918.384	10367
918.495	10276
918.606	10105
918.717	10032
918.828	10048
918.939	10101
919.05	10059
919.161	10112
919.272	9899
919.383	9899
919.494	10147
919.604	10314
919.715	10078
919.826	10021
919.936	10120
920.047	10196
920.157	10131
920.267	10329
920.378	10135
920.488	10082
920.598	10341
920.708	10379
920.818	10375
920.928	10386
921.038	10455
921.148	10504
921.258	10124
921.368	10109
921.477	9983
921.587	10044
921.697	9857
921.806	10036
921.916	9907
922.025	9759
922.134	9740
922.244	9629
922.353	9762
922.462	9587
922.571	9549
922.68	9374
922.789	9340
922.898	9412
923.007	9291
923.116	9374
923.224	9310
923.333	9424
923.442	9302
923.55	9222
923.659	9313
923.767	9332
923.876	9256
923.984	9279
924.092	9161
924.201	9249
924.309	9237
924.417	9237
924.525	9180
924.633	9203
924.741	10135
924.849	9036
924.956	9142
925.064	9047
925.172	8941
925.279	9001
925.387	9074
925.494	9039
925.602	9081
925.709	9077
925.816	8967
925.924	9032
926.031	9165
926.138	9100
926.245	9043
926.352	8960
926.459	9116
926.566	9192
926.673	8975
926.779	8944
926.886	8929
926.993	8819
927.099	8769
927.206	8735
927.312	8712
927.419	8792
927.525	8727
927.631	8804
927.737	8735
927.843	8674
927.95	8552
928.056	8655
928.162	8735
928.267	8686
928.373	9363
928.479	8788
928.585	8511
928.69	8651
928.796	8682
928.901	8571
929.007	8389
929.112	8613
929.218	8507
929.323	8488
929.428	8434
929.533	8644
929.638	8431
929.743	8465
929.848	8488
929.953	8450
930.058	8400
930.163	8275
930.267	8347
930.372	8415
930.477	8237
930.581	8450
930.685	8355
930.79	8206
930.894	8256
930.998	8164
931.103	8305
931.207	7982
931.311	7936
931.415	7868
931.519	7651
931.623	7674
