Data from test_V78500241_3244.txt Node
Date: Fri Mar 25 14:56:18 CST 2022
User: usil
Spectrometer: V785-0024
Trigger mode: 0
Integration Time (sec): 4.000000E-1
Scans to average: 1
Nonlinearity correction enabled: false
Boxcar width: 0
Storing dark spectrum: false
XAxis mode: Wavelengths
Number of Pixels in Spectrum: 1024
>>>>>Begin Spectral Data<<<<<
801.071	22017
801.214	21915
801.356	21736
801.499	21641
801.641	21496
801.783	21195
801.926	21408
802.068	21268
802.211	21226
802.353	21237
802.496	20918
802.638	20979
802.78	20857
802.923	20800
803.065	20674
803.208	20682
803.35	20678
803.492	20667
803.635	20921
803.777	20750
803.919	20792
804.061	20937
804.204	20769
804.346	20568
804.488	20594
804.63	20674
804.773	20583
804.915	20682
805.057	20754
805.199	20686
805.341	20739
805.483	20735
805.626	20598
805.768	20526
805.91	20693
806.052	20724
806.194	20552
806.336	20689
806.478	20629
806.62	20552
806.762	20701
806.904	20872
807.046	21169
807.188	20990
807.33	20861
807.472	21085
807.614	20902
807.756	20887
807.898	20815
808.04	20655
808.182	20807
808.324	20735
808.465	20724
808.607	20861
808.749	20979
808.891	21039
809.033	21043
809.174	21203
809.316	20941
809.458	21039
809.6	20929
809.741	21028
809.883	20960
810.025	21062
810.166	21093
810.308	21077
810.45	21131
810.591	21043
810.733	20887
810.875	20659
811.016	20640
811.158	20655
811.299	20773
811.441	20906
811.582	20887
811.724	20807
811.865	20743
812.007	20648
812.148	20705
812.29	20811
812.431	20944
812.573	21001
812.714	21096
812.855	21192
812.997	21351
813.138	21481
813.279	21329
813.421	21226
813.562	21135
813.703	21028
813.845	20853
813.986	20564
814.127	20396
814.268	20366
814.41	20290
814.551	20263
814.692	20385
814.833	20191
814.974	20339
815.115	20244
815.256	20050
815.397	20157
815.539	20168
815.68	20054
815.821	19982
815.962	20043
816.103	20020
816.244	19936
816.385	19655
816.526	19795
816.666	19567
816.807	19358
816.948	19533
817.089	19510
817.23	19400
817.371	19312
817.512	19491
817.653	19415
817.793	19445
817.934	19419
818.075	19426
818.216	19381
818.356	19316
818.497	19232
818.638	19027
818.778	19000
818.919	19069
819.06	19053
819.2	19217
819.341	19282
819.481	19350
819.622	19495
819.762	19647
819.903	19662
820.043	19392
820.184	19373
820.324	19449
820.465	19457
820.605	19434
820.746	19339
820.886	19343
821.026	19293
821.167	19221
821.307	19377
821.447	19335
821.588	19160
821.728	19145
821.868	18878
822.008	18787
822.149	18806
822.289	18715
822.429	18452
822.569	18547
822.709	18559
822.849	18350
822.99	18232
823.13	18300
823.27	18365
823.41	18068
823.55	18060
823.69	18049
823.83	18159
823.97	18045
824.11	17912
824.25	17836
824.389	17863
824.529	17840
824.669	17843
824.809	17988
824.949	17847
825.089	17855
825.228	17870
825.368	17665
825.508	17661
825.648	17665
825.787	17691
825.927	17733
826.067	17638
826.206	17562
826.346	17630
826.485	17687
826.625	17592
826.765	17733
826.904	17649
827.044	17345
827.183	17315
827.323	17265
827.462	17402
827.601	17318
827.741	17254
827.88	17353
828.02	17292
828.159	17280
828.298	17277
828.437	17425
828.577	17280
828.716	17436
828.855	17277
828.994	17071
829.134	17151
829.273	17174
829.412	17033
829.551	16980
829.69	17109
829.829	16934
829.968	17113
830.107	17140
830.246	17208
830.385	16930
830.524	17025
830.663	16946
830.802	16736
830.941	16649
831.08	16702
831.219	16752
831.357	16782
831.496	16900
831.635	16797
831.774	16596
831.913	16641
832.051	16508
832.19	16569
832.329	16519
832.467	16432
832.606	16424
832.744	16360
832.883	16371
833.022	16421
833.16	16440
833.299	16451
833.437	16386
833.576	16500
833.714	16382
833.852	16512
833.991	16455
834.129	16542
834.267	16478
834.406	16478
834.544	16394
834.682	16466
834.821	16428
834.959	16634
835.097	16424
835.235	16409
835.373	16398
835.511	16542
835.65	16356
835.788	16500
835.926	16268
836.064	16143
836.202	16158
836.34	16295
836.478	16474
836.615	16375
836.753	16310
836.891	16523
837.029	16382
837.167	16261
837.305	16230
837.443	16306
837.58	16124
837.718	16204
837.856	16207
837.993	16185
838.131	16246
838.269	16116
838.406	16192
838.544	16154
838.681	15956
838.819	15968
838.956	15724
839.094	15816
839.231	15846
839.369	15968
839.506	16223
839.643	16025
839.781	15861
839.918	15793
840.055	15857
840.193	15755
840.33	15766
840.467	15857
840.604	15819
840.742	16097
840.879	15637
841.016	15641
841.153	15656
841.29	15793
841.427	15793
841.564	15781
841.701	15816
841.838	15713
841.975	15759
842.112	15622
842.249	15648
842.385	15591
842.522	15804
842.659	15694
842.796	15603
842.933	15675
843.069	15599
843.206	15462
843.343	15564
843.479	15603
843.616	15572
843.752	15462
843.889	15272
844.025	15564
844.162	15313
844.298	15416
844.435	15420
844.571	15351
844.708	15397
844.844	15534
844.98	15553
845.117	15507
845.253	15272
845.389	15256
845.525	15275
845.661	15268
845.798	15047
845.934	15218
846.07	15074
846.206	15275
846.342	15272
846.478	15264
846.614	14990
846.75	14872
846.886	14895
847.022	15097
847.158	14906
847.294	14899
847.429	14941
847.565	14857
847.701	15100
847.837	14636
847.972	14568
848.108	14800
848.244	14674
848.379	14655
848.515	14583
848.65	14503
848.786	14571
848.921	14617
849.057	14613
849.192	14636
849.328	14530
849.463	14450
849.598	14499
849.734	14503
849.869	14385
850.004	14362
850.14	14374
850.275	14278
850.41	14214
850.545	14225
850.68	14183
850.815	14286
850.95	14256
851.085	14454
851.22	14336
851.355	14339
851.49	14214
851.625	14233
851.76	14282
851.895	14183
852.03	14210
852.165	14267
852.299	14259
852.434	14332
852.569	14332
852.703	14381
852.838	14355
852.973	14385
853.107	14366
853.242	14267
853.376	14191
853.511	13963
853.645	14103
853.78	14199
853.914	14202
854.048	14153
854.183	14084
854.317	14164
854.451	14328
854.585	14142
854.72	14161
854.854	14168
854.988	14012
855.122	14237
855.256	13959
855.39	14088
855.524	14210
855.658	14180
855.792	14256
855.926	14142
856.06	14259
856.194	14233
856.327	14138
856.461	14187
856.595	14020
856.729	14103
856.862	14271
856.996	14202
857.13	14218
857.263	14214
857.397	14180
857.53	14206
857.664	14218
857.797	14191
857.931	14229
858.064	14157
858.197	14301
858.331	14142
858.464	14024
858.597	14161
858.731	14126
858.864	14107
858.997	14130
859.13	14199
859.263	14153
859.396	14183
859.529	14164
859.662	14134
859.795	14119
859.928	14164
860.061	14259
860.194	14233
860.327	14195
860.46	14111
860.592	14248
860.725	14233
860.858	14275
860.99	14123
861.123	14005
861.256	14103
861.388	14058
861.521	14861
861.653	14008
861.786	14001
861.918	13963
862.05	14092
862.183	14088
862.315	14046
862.447	14149
862.58	14187
862.712	13970
862.844	13883
862.976	14012
863.108	13940
863.24	14282
863.372	13841
863.504	13967
863.636	13925
863.768	13902
863.9	14039
864.032	13879
864.164	13860
864.296	14065
864.428	14020
864.559	13993
864.691	14008
864.823	13970
864.954	13898
865.086	13955
865.217	13913
865.349	13788
865.48	13928
865.612	13959
865.743	14081
865.875	14012
866.006	13879
866.137	13951
866.269	13928
866.4	13940
866.531	13944
866.662	13917
866.793	13890
866.924	13978
867.055	13997
867.186	13906
867.317	13856
867.448	13879
867.579	13868
867.71	13841
867.841	13795
867.972	14016
868.103	13814
868.233	13967
868.364	13970
868.495	14001
868.625	14153
868.756	14282
868.886	14123
869.017	14119
869.147	14240
869.278	14305
869.408	14214
869.539	14164
869.669	14275
869.799	14259
869.929	14286
870.06	14263
870.19	14571
870.32	14446
870.45	14514
870.58	14556
870.71	14686
870.84	14693
870.97	14754
871.1	14552
871.23	14773
871.36	14807
871.489	14602
871.619	14765
871.749	14785
871.879	14788
872.008	14929
872.138	14811
872.267	14769
872.397	14621
872.526	14640
872.656	14708
872.785	14667
872.915	14830
873.044	14876
873.173	14853
873.303	14807
873.432	14857
873.561	14925
873.69	14758
873.819	14842
873.948	14933
874.077	14830
874.206	14849
874.335	14864
874.464	15005
874.593	15058
874.722	15066
874.851	15123
874.979	15222
875.108	15256
875.237	15081
875.365	15119
875.494	15154
875.623	15154
875.751	15142
875.88	15157
876.008	15348
876.136	15317
876.265	15504
876.393	15743
876.521	15656
876.65	15637
876.778	15652
876.906	15485
877.034	15374
877.162	15519
877.29	15477
877.418	15561
877.546	15641
877.674	15610
877.802	15564
877.93	15591
878.058	15485
878.185	15416
878.313	15515
878.441	15545
878.568	15488
878.696	15428
878.824	15614
878.951	15694
879.079	15747
879.206	15736
879.333	15755
879.461	15523
879.588	15625
879.715	15755
879.842	15736
879.97	15568
880.097	15389
880.224	15378
880.351	15408
880.478	15477
880.605	15447
880.732	15420
880.859	15652
880.986	15462
881.112	15424
881.239	15351
881.366	15146
881.493	15005
881.619	15047
881.746	15192
881.872	15051
881.999	14971
882.125	15001
882.252	15085
882.378	15142
882.505	15203
882.631	14998
882.757	14861
882.883	14937
883.01	14921
883.136	14845
883.262	14765
883.388	14716
883.514	14960
883.64	14948
883.766	14826
883.892	14644
884.018	14762
884.143	14876
884.269	14941
884.395	14648
884.52	14579
884.646	14560
884.772	14461
884.897	14431
885.023	14606
885.148	14686
885.274	14743
885.399	14651
885.524	14503
885.65	14575
885.775	14629
885.9	14533
886.025	14724
886.15	14697
886.275	14499
886.4	14415
886.525	14492
886.65	14495
886.775	14511
886.9	14758
887.025	14796
887.149	14583
887.274	14381
887.399	14434
887.523	14347
887.648	14351
887.773	14343
887.897	14518
888.021	14351
888.146	14389
888.27	14473
888.395	14564
888.519	14473
888.643	14446
888.767	14503
888.891	14309
889.015	14271
889.139	14370
889.263	14313
889.387	14393
889.511	14454
889.635	14404
889.759	14248
889.883	14286
890.006	14309
890.13	14377
890.254	14282
890.377	14248
890.501	14050
890.624	14050
890.748	14126
890.871	14016
890.995	13978
891.118	13894
891.241	14058
891.364	14005
891.488	14126
891.611	14046
891.734	14100
891.857	14054
891.98	13986
892.103	14119
892.226	14092
892.349	14069
892.471	13780
892.594	13963
892.717	13967
892.839	13947
892.962	13890
893.085	14134
893.207	13974
893.33	13833
893.452	13963
893.575	14062
893.697	13993
893.819	14088
893.941	14244
894.064	14244
894.186	13951
894.308	13928
894.43	14134
894.552	14206
894.674	14134
894.796	13986
894.918	14054
895.04	14058
895.161	14218
895.283	14138
895.405	13944
895.526	14130
895.648	14115
895.769	14164
895.891	14187
896.012	14240
896.134	14084
896.255	14259
896.376	14119
896.498	14145
896.619	14161
896.74	14161
896.861	14305
896.982	14419
897.103	14579
897.224	14446
897.345	14431
897.466	14320
897.587	14408
897.708	14583
897.828	14454
897.949	14446
898.07	14457
898.19	14442
898.311	14431
898.431	14461
898.552	14587
898.672	14549
898.792	14560
898.913	14564
899.033	14503
899.153	14427
899.273	14282
899.393	14377
899.513	14431
899.633	14355
899.753	14275
899.873	14454
899.993	14396
900.113	14408
900.232	14404
900.352	14278
900.472	14248
900.591	14248
900.711	14351
900.83	14214
900.95	14324
901.069	14358
901.189	14157
901.308	13986
901.427	13963
901.546	13860
901.665	13986
901.784	13860
901.904	13875
902.023	13742
902.141	13571
902.26	13597
902.379	13540
902.498	13491
902.617	13396
902.735	13548
902.854	13381
902.973	13381
903.091	13183
903.21	13221
903.328	13133
903.446	13137
903.565	13110
903.683	13072
903.801	12981
903.919	12989
904.038	13076
904.156	12817
904.274	12943
904.392	12814
904.51	12821
904.627	12897
904.745	12954
904.863	12924
904.981	12665
905.098	12525
905.216	12604
905.334	12574
905.451	12589
905.569	12597
905.686	12631
905.803	12555
905.921	12399
906.038	12464
906.155	12315
906.272	12247
906.389	12369
906.506	12159
906.623	12175
906.74	12148
906.857	12038
906.974	11965
907.091	12247
907.208	12289
907.324	12243
907.441	12133
907.557	11908
907.674	12041
907.79	11843
907.907	11843
908.023	11992
908.139	11946
908.256	11847
908.372	11840
908.488	11794
908.604	11665
908.72	11608
908.836	11745
908.952	11661
909.068	11691
909.184	11771
909.3	11741
909.415	11775
909.531	11649
909.647	11474
909.762	11444
909.878	11444
909.993	11395
910.108	11444
910.224	11490
910.339	11459
910.454	11356
910.57	11273
910.685	11216
910.8	11611
910.915	11490
911.03	11330
911.145	11086
911.259	11098
911.374	11208
911.489	11018
911.604	11018
911.718	10980
911.833	10824
911.947	10786
912.062	10820
912.176	10927
912.291	10896
912.405	11029
912.519	11052
912.633	11136
912.748	11022
912.862	10873
912.976	10778
913.09	10725
913.204	10752
913.318	10824
913.431	10831
913.545	10869
913.659	10930
913.772	10820
913.886	10717
914	10679
914.113	10729
914.226	10820
914.34	10736
914.453	10542
914.566	10736
914.68	10607
914.793	10611
914.906	10443
915.019	10363
915.132	10356
915.245	10478
915.358	10417
915.47	10485
915.583	10337
915.696	10436
915.809	10481
915.921	10584
916.034	10310
916.146	10379
916.259	10394
916.371	10402
916.483	10367
916.595	10314
916.708	10470
916.82	10360
916.932	10325
917.044	10379
917.156	10280
917.268	10303
917.38	10166
917.491	10162
917.603	10230
917.715	10306
917.826	10333
917.938	10150
918.049	10139
918.161	10280
918.272	10413
918.384	10447
918.495	10234
918.606	10120
918.717	10032
918.828	10074
918.939	10074
919.05	10093
919.161	10093
919.272	9918
919.383	10010
919.494	10196
919.604	10306
919.715	10135
919.826	9972
919.936	10105
920.047	10219
920.157	10219
920.267	10405
920.378	10192
920.488	10131
920.598	10413
920.708	10436
920.818	10360
920.928	10322
921.038	10554
921.148	10413
921.258	10166
921.368	10128
921.477	10074
921.587	9956
921.697	9918
921.806	9956
921.916	9903
922.025	9740
922.134	9701
922.244	9614
922.353	9709
922.462	9599
922.571	9504
922.68	9412
922.789	9367
922.898	9378
923.007	9313
923.116	9462
923.224	9363
923.333	9408
923.442	9294
923.55	9310
923.659	9260
923.767	9332
923.876	9272
923.984	9302
924.092	9176
924.201	9253
924.309	9325
924.417	9253
924.525	9222
924.633	9199
924.741	10150
924.849	8960
924.956	9203
925.064	8971
925.172	8967
925.279	8994
925.387	9081
925.494	9085
925.602	9199
925.709	9169
925.816	9055
925.924	9020
926.031	9142
926.138	9062
926.245	9097
926.352	9009
926.459	9119
926.566	9093
926.673	9001
926.779	8952
926.886	8921
926.993	8785
927.099	8735
927.206	8773
927.312	8743
927.419	8804
927.525	8762
927.631	8819
927.737	8674
927.843	8659
927.95	8533
928.056	8655
928.162	8689
928.267	8796
928.373	9176
928.479	8754
928.585	8568
928.69	8629
928.796	8746
928.901	8610
929.007	8533
929.112	8636
929.218	8564
929.323	8552
929.428	8533
929.533	8636
929.638	8434
929.743	8465
929.848	8537
929.953	8427
930.058	8412
930.163	8298
930.267	8282
930.372	8412
930.477	8248
930.581	8484
930.685	8309
930.79	8191
930.894	8206
930.998	8202
931.103	8374
931.207	7944
931.311	7928
931.415	7894
931.519	7757
931.623	7685
