Data from test_V78500241_2367.txt Node
Date: Fri Mar 25 14:50:11 CST 2022
User: usil
Spectrometer: V785-0024
Trigger mode: 0
Integration Time (sec): 4.000000E-1
Scans to average: 1
Nonlinearity correction enabled: false
Boxcar width: 0
Storing dark spectrum: false
XAxis mode: Wavelengths
Number of Pixels in Spectrum: 1024
>>>>>Begin Spectral Data<<<<<
801.071	22131
801.214	22017
801.356	21819
801.499	21625
801.641	21614
801.783	21431
801.926	21538
802.068	21393
802.211	21439
802.353	21241
802.496	20998
802.638	20914
802.78	20998
802.923	20891
803.065	20842
803.208	20750
803.35	20796
803.492	20853
803.635	21066
803.777	20872
803.919	20899
804.061	21104
804.204	20910
804.346	20758
804.488	20739
804.63	20902
804.773	20800
804.915	20720
805.057	20864
805.199	20834
805.341	20887
805.483	20872
805.626	20781
805.768	20781
805.91	20804
806.052	20830
806.194	20648
806.336	20910
806.478	20815
806.62	20716
806.762	20777
806.904	20933
807.046	21150
807.188	21138
807.33	21104
807.472	21119
807.614	21024
807.756	21058
807.898	20864
808.04	20769
808.182	20944
808.324	20963
808.465	20948
808.607	21062
808.749	21173
808.891	21431
809.033	21279
809.174	21249
809.316	21108
809.458	21146
809.6	21222
809.741	21294
809.883	21310
810.025	21306
810.166	21325
810.308	21218
810.45	21313
810.591	21055
810.733	21085
810.875	20929
811.016	20857
811.158	20811
811.299	20807
811.441	21036
811.582	21013
811.724	20994
811.865	20716
812.007	20861
812.148	20899
812.29	20929
812.431	21024
812.573	21108
812.714	21332
812.855	21462
812.997	21462
813.138	21606
813.279	21492
813.421	21507
813.562	21378
813.703	21291
813.845	21066
813.986	20807
814.127	20644
814.268	20522
814.41	20480
814.551	20427
814.692	20495
814.833	20320
814.974	20412
815.115	20454
815.256	20317
815.397	20351
815.539	20385
815.68	20142
815.821	20244
815.962	20275
816.103	20199
816.244	20046
816.385	19947
816.526	19898
816.666	19772
816.807	19681
816.948	19556
817.089	19723
817.23	19685
817.371	19639
817.512	19510
817.653	19632
817.793	19415
817.934	19578
818.075	19556
818.216	19674
818.356	19495
818.497	19415
818.638	19297
818.778	19240
818.919	19327
819.06	19362
819.2	19514
819.341	19468
819.481	19487
819.622	19605
819.762	19868
819.903	19594
820.043	19715
820.184	19575
820.324	19571
820.465	19757
820.605	19601
820.746	19563
820.886	19502
821.026	19537
821.167	19445
821.307	19559
821.447	19483
821.588	19362
821.728	19259
821.868	19168
822.008	18993
822.149	19069
822.289	18924
822.429	18703
822.569	18608
822.709	18585
822.849	18483
822.99	18361
823.13	18460
823.27	18475
823.41	18334
823.55	18171
823.69	18281
823.83	18235
823.97	18140
824.11	18026
824.25	18053
824.389	17874
824.529	18140
824.669	17980
824.809	18095
824.949	18133
825.089	18136
825.228	17988
825.368	17939
825.508	17847
825.648	17790
825.787	17802
825.927	17840
826.067	17672
826.206	17824
826.346	17775
826.485	17794
826.625	17802
826.765	17874
826.904	17794
827.044	17585
827.183	17585
827.323	17448
827.462	17547
827.601	17395
827.741	17501
827.88	17558
828.02	17337
828.159	17334
828.298	17532
828.437	17604
828.577	17322
828.716	17589
828.855	17452
828.994	17296
829.134	17246
829.273	17303
829.412	17178
829.551	17071
829.69	17277
829.829	17269
829.968	17273
830.107	17387
830.246	17261
830.385	17261
830.524	17162
830.663	17098
830.802	17025
830.941	16854
831.08	16900
831.219	16843
831.357	16961
831.496	17029
831.635	16866
831.774	16733
831.913	16649
832.051	16641
832.19	16558
832.329	16698
832.467	16565
832.606	16527
832.744	16592
832.883	16485
833.022	16588
833.16	16603
833.299	16550
833.437	16550
833.576	16660
833.714	16481
833.852	16641
833.991	16580
834.129	16702
834.267	16664
834.406	16554
834.544	16558
834.682	16641
834.821	16611
834.959	16786
835.097	16577
835.235	16622
835.373	16516
835.511	16546
835.65	16451
835.788	16455
835.926	16344
836.064	16234
836.202	16379
836.34	16531
836.478	16500
836.615	16573
836.753	16523
836.891	16599
837.029	16489
837.167	16493
837.305	16409
837.443	16375
837.58	16363
837.718	16363
837.856	16405
837.993	16257
838.131	16421
838.269	16337
838.406	16226
838.544	16226
838.681	16090
838.819	15964
838.956	15915
839.094	15911
839.231	16025
839.369	16086
839.506	16322
839.643	16112
839.781	15937
839.918	15857
840.055	15797
840.193	15899
840.33	15922
840.467	15823
840.604	15903
840.742	16234
840.879	15743
841.016	15793
841.153	15690
841.29	16040
841.427	15945
841.564	15873
841.701	15975
841.838	15846
841.975	15819
842.112	15812
842.249	15694
842.385	15603
842.522	15899
842.659	15679
842.796	15652
842.933	15656
843.069	15561
843.206	15576
843.343	15762
843.479	15652
843.616	15675
843.752	15538
843.889	15439
844.025	15557
844.162	15393
844.298	15538
844.435	15466
844.571	15500
844.708	15511
844.844	15686
844.98	15686
845.117	15549
845.253	15412
845.389	15325
845.525	15313
845.661	15420
845.798	15275
845.934	15313
846.07	15135
846.206	15351
846.342	15382
846.478	15351
846.614	15009
846.75	14925
846.886	15077
847.022	15062
847.158	15062
847.294	15097
847.429	15055
847.565	14929
847.701	15264
847.837	14868
847.972	14708
848.108	14853
848.244	14743
848.379	14716
848.515	14632
848.65	14503
848.786	14648
848.921	14636
849.057	14796
849.192	14739
849.328	14644
849.463	14678
849.598	14670
849.734	14511
849.869	14480
850.004	14393
850.14	14332
850.275	14328
850.41	14377
850.545	14301
850.68	14438
850.815	14469
850.95	14469
851.085	14594
851.22	14374
851.355	14419
851.49	14393
851.625	14377
851.76	14278
851.895	14336
852.03	14271
852.165	14305
852.299	14343
852.434	14461
852.569	14419
852.703	14427
852.838	14492
852.973	14556
853.107	14594
853.242	14442
853.376	14221
853.511	14214
853.645	14263
853.78	14377
853.914	14248
854.048	14271
854.183	14256
854.317	14214
854.451	14457
854.585	14202
854.72	14161
854.854	14313
854.988	14119
855.122	14115
855.256	14153
855.39	14301
855.524	14370
855.658	14275
855.792	14267
855.926	14324
856.06	14351
856.194	14381
856.327	14244
856.461	14237
856.595	14214
856.729	14256
856.862	14351
856.996	14313
857.13	14434
857.263	14320
857.397	14404
857.53	14290
857.664	14351
857.797	14377
857.931	14404
858.064	14206
858.197	14332
858.331	14259
858.464	14206
858.597	14126
858.731	14286
858.864	14221
858.997	14290
859.13	14259
859.263	14294
859.396	14351
859.529	14267
859.662	14237
859.795	14286
859.928	14313
860.061	14442
860.194	14526
860.327	14252
860.46	14282
860.592	14377
860.725	14381
860.858	14374
860.99	14221
861.123	14183
861.256	14294
861.388	14233
861.521	14887
861.653	14062
861.786	14115
861.918	14134
862.05	14202
862.183	14145
862.315	14248
862.447	14320
862.58	14210
862.712	13989
862.844	13928
862.976	14077
863.108	14149
863.24	14324
863.372	14016
863.504	14020
863.636	13982
863.768	14069
863.9	13997
864.032	13921
864.164	13970
864.296	14050
864.428	14176
864.559	14214
864.691	14138
864.823	14088
864.954	14153
865.086	14088
865.217	14096
865.349	14001
865.48	13932
865.612	14027
865.743	14195
865.875	14046
866.006	14005
866.137	14073
866.269	14043
866.4	14062
866.531	13944
866.662	13932
866.793	13955
866.924	13887
867.055	14100
867.186	13917
867.317	13978
867.448	13894
867.579	13989
867.71	13921
867.841	13894
867.972	14024
868.103	14016
868.233	14039
868.364	14092
868.495	14096
868.625	14218
868.756	14362
868.886	14259
869.017	14263
869.147	14366
869.278	14355
869.408	14290
869.539	14225
869.669	14366
869.799	14320
869.929	14461
870.06	14343
870.19	14629
870.32	14594
870.45	14632
870.58	14716
870.71	14758
870.84	14773
870.97	14773
871.1	14632
871.23	14872
871.36	14883
871.489	14857
871.619	14845
871.749	14792
871.879	14811
872.008	14963
872.138	14914
872.267	14910
872.397	14762
872.526	14765
872.656	14640
872.785	14758
872.915	14872
873.044	14914
873.173	14933
873.303	14925
873.432	14883
873.561	15036
873.69	14906
873.819	14937
873.948	15024
874.077	14929
874.206	14857
874.335	14960
874.464	15100
874.593	15260
874.722	15146
874.851	15203
874.979	15302
875.108	15272
875.237	15104
875.365	15184
875.494	15165
875.623	15283
875.751	15127
875.88	15329
876.008	15367
876.136	15443
876.265	15652
876.393	15701
876.521	15739
876.65	15705
876.778	15686
876.906	15584
877.034	15618
877.162	15504
877.29	15584
877.418	15523
877.546	15629
877.674	15591
877.802	15584
877.93	15538
878.058	15587
878.185	15504
878.313	15709
878.441	15671
878.568	15504
878.696	15614
878.824	15690
878.951	15701
879.079	15876
879.206	15880
879.333	15667
879.461	15705
879.588	15778
879.715	15838
879.842	15888
879.97	15766
880.097	15523
880.224	15469
880.351	15530
880.478	15538
880.605	15431
880.732	15401
880.859	15823
880.986	15481
881.112	15572
881.239	15291
881.366	15344
881.493	15066
881.619	15138
881.746	15104
881.872	15135
881.999	15138
882.125	15161
882.252	15317
882.378	15211
882.505	15230
882.631	15066
882.757	14952
882.883	14933
883.01	14967
883.136	14853
883.262	14891
883.388	14826
883.514	15043
883.64	14960
883.766	14941
883.892	14857
884.018	14849
884.143	14963
884.269	14960
884.395	14735
884.52	14739
884.646	14617
884.772	14522
884.897	14575
885.023	14724
885.148	14849
885.274	14826
885.399	14842
885.524	14712
885.65	14804
885.775	14678
885.9	14693
886.025	14781
886.15	14785
886.275	14663
886.4	14575
886.525	14663
886.65	14686
886.775	14648
886.9	14705
887.025	14876
887.149	14724
887.274	14476
887.399	14461
887.523	14583
887.648	14423
887.773	14343
887.897	14629
888.021	14579
888.146	14522
888.27	14571
888.395	14640
888.519	14629
888.643	14530
888.767	14602
888.891	14434
889.015	14282
889.139	14431
889.263	14263
889.387	14465
889.511	14644
889.635	14499
889.759	14419
889.883	14415
890.006	14427
890.13	14537
890.254	14347
890.377	14351
890.501	14199
890.624	14103
890.748	14271
890.871	14130
890.995	14005
891.118	13978
891.241	14145
891.364	14069
891.488	14161
891.611	14088
891.734	14119
891.857	14138
891.98	14077
892.103	14100
892.226	14027
892.349	14145
892.471	13997
892.594	14081
892.717	14092
892.839	14024
892.962	14008
893.085	14145
893.207	14092
893.33	14024
893.452	13974
893.575	14069
893.697	14096
893.819	14237
893.941	14286
894.064	14263
894.186	14008
894.308	14001
894.43	14248
894.552	14275
894.674	14195
894.796	14027
894.918	14115
895.04	14168
895.161	14202
895.283	14126
895.405	14081
895.526	14233
895.648	14259
895.769	14172
895.891	14164
896.012	14233
896.134	14381
896.255	14248
896.376	14256
896.498	14259
896.619	14339
896.74	14282
896.861	14305
896.982	14587
897.103	14598
897.224	14552
897.345	14530
897.466	14423
897.587	14518
897.708	14682
897.828	14670
897.949	14556
898.07	14446
898.19	14381
898.311	14625
898.431	14587
898.552	14705
898.672	14678
898.792	14746
898.913	14670
899.033	14499
899.153	14457
899.273	14374
899.393	14461
899.513	14442
899.633	14419
899.753	14488
899.873	14480
899.993	14556
900.113	14442
900.232	14446
900.352	14431
900.472	14408
900.591	14286
900.711	14358
900.83	14317
900.95	14545
901.069	14461
901.189	14240
901.308	14096
901.427	14054
901.546	14035
901.665	14016
901.784	14054
901.904	13879
902.023	13841
902.141	13696
902.26	13537
902.379	13605
902.498	13605
902.617	13594
902.735	13632
902.854	13533
902.973	13445
903.091	13369
903.21	13312
903.328	13289
903.446	13194
903.565	13099
903.683	13149
903.801	12951
903.919	13061
904.038	13057
904.156	12985
904.274	13065
904.392	12966
904.51	12886
904.627	12916
904.745	12935
904.863	13019
904.981	12806
905.098	12597
905.216	12696
905.334	12696
905.451	12669
905.569	12669
905.686	12734
905.803	12642
905.921	12517
906.038	12620
906.155	12445
906.272	12456
906.389	12410
906.506	12311
906.623	12304
906.74	12194
906.857	12152
906.974	12201
907.091	12330
907.208	12399
907.324	12289
907.441	12125
907.557	11969
907.674	12011
907.79	11912
907.907	11927
908.023	12057
908.139	12057
908.256	11961
908.372	12030
908.488	11859
908.604	11752
908.72	11672
908.836	11885
908.952	11779
909.068	11805
909.184	11885
909.3	11726
909.415	11805
909.531	11703
909.647	11482
909.762	11577
909.878	11543
909.993	11528
910.108	11429
910.224	11455
910.339	11543
910.454	11364
910.57	11376
910.685	11364
910.8	11547
910.915	11467
911.03	11356
911.145	11220
911.259	11067
911.374	11181
911.489	11155
911.604	11132
911.718	10980
911.833	11018
911.947	10908
912.062	10877
912.176	10984
912.291	11033
912.405	11075
912.519	11090
912.633	11147
912.748	10957
912.862	10919
912.976	10767
913.09	10740
913.204	10847
913.318	10771
913.431	10915
913.545	10885
913.659	11025
913.772	10839
913.886	10740
914	10706
914.113	10862
914.226	10881
914.34	10831
914.453	10637
914.566	10816
914.68	10744
914.793	10660
914.906	10489
915.019	10516
915.132	10348
915.245	10523
915.358	10569
915.47	10497
915.583	10478
915.696	10565
915.809	10607
915.921	10641
916.034	10409
916.146	10527
916.259	10344
916.371	10531
916.483	10516
916.595	10421
916.708	10390
916.82	10348
916.932	10409
917.044	10337
917.156	10344
917.268	10287
917.38	10310
917.491	10268
917.603	10325
917.715	10402
917.826	10421
917.938	10329
918.049	10223
918.161	10360
918.272	10402
918.384	10455
918.495	10348
918.606	10139
918.717	10040
918.828	10200
918.939	10223
919.05	10101
919.161	10116
919.272	10048
919.383	10082
919.494	10219
919.604	10417
919.715	10227
919.826	10139
919.936	10147
920.047	10196
920.157	10200
920.267	10390
920.378	10223
920.488	10200
920.598	10329
920.708	10580
920.818	10417
920.928	10421
921.038	10584
921.148	10500
921.258	10291
921.368	10185
921.477	10051
921.587	10139
921.697	9964
921.806	10059
921.916	9994
922.025	9903
922.134	9812
922.244	9755
922.353	9774
922.462	9671
922.571	9603
922.68	9447
922.789	9447
922.898	9416
923.007	9393
923.116	9515
923.224	9496
923.333	9431
923.442	9416
923.55	9283
923.659	9344
923.767	9466
923.876	9287
923.984	9351
924.092	9325
924.201	9336
924.309	9306
924.417	9389
924.525	9241
924.633	9321
924.741	10051
924.849	9043
924.956	9214
925.064	9157
925.172	8979
925.279	9081
925.387	9165
925.494	9116
925.602	9279
925.709	9161
925.816	9089
925.924	9123
926.031	9138
926.138	9119
926.245	9176
926.352	9089
926.459	9207
926.566	9195
926.673	9051
926.779	8990
926.886	8998
926.993	8830
927.099	8853
927.206	8804
927.312	8731
927.419	8895
927.525	8883
927.631	8819
927.737	8743
927.843	8727
927.95	8598
928.056	8735
928.162	8640
928.267	8804
928.373	9393
928.479	8781
928.585	8590
928.69	8773
928.796	8830
928.901	8625
929.007	8492
929.112	8693
929.218	8587
929.323	8533
929.428	8514
929.533	8663
929.638	8526
929.743	8526
929.848	8556
929.953	8522
930.058	8492
930.163	8317
930.267	8431
930.372	8476
930.477	8256
930.581	8575
930.685	8336
930.79	8256
930.894	8267
930.998	8244
931.103	8404
931.207	8092
931.311	8005
931.415	7894
931.519	7734
931.623	7776
