Data from test_V78500241_128.txt Node
Date: Fri Mar 25 14:34:36 CST 2022
User: usil
Spectrometer: V785-0024
Trigger mode: 0
Integration Time (sec): 4.000000E-1
Scans to average: 1
Nonlinearity correction enabled: false
Boxcar width: 0
Storing dark spectrum: false
XAxis mode: Wavelengths
Number of Pixels in Spectrum: 1024
>>>>>Begin Spectral Data<<<<<
801.071	30022
801.214	29855
801.356	29707
801.499	29551
801.641	29482
801.783	29318
801.926	29395
802.068	29258
802.211	29261
802.353	29277
802.496	28995
802.638	29216
802.78	28980
802.923	28866
803.065	28961
803.208	29037
803.35	29075
803.492	29098
803.635	29239
803.777	29197
803.919	29303
804.061	29615
804.204	29353
804.346	29132
804.488	29185
804.63	29143
804.773	29155
804.915	29330
805.057	29570
805.199	29547
805.341	29646
805.483	29680
805.626	29790
805.768	29741
805.91	29802
806.052	29897
806.194	29893
806.336	30270
806.478	30376
806.62	30319
806.762	30661
806.904	30924
807.046	31491
807.188	31556
807.33	32016
807.472	32609
807.614	32887
807.756	33690
807.898	34554
808.04	35687
808.182	37171
808.324	39112
808.465	41478
808.607	43776
808.749	45953
808.891	47105
809.033	47288
809.174	46105
809.316	43715
809.458	41417
809.6	38788
809.741	36696
809.883	35048
810.025	34181
810.166	33348
810.308	32613
810.45	32039
810.591	31898
810.733	31422
810.875	31015
811.016	30840
811.158	30521
811.299	30631
811.441	30589
811.582	30403
811.724	30136
811.865	30220
812.007	30197
812.148	29973
812.29	30159
812.431	30098
812.573	30201
812.714	30205
812.855	30076
812.997	30391
813.138	30620
813.279	30311
813.421	30117
813.562	30079
813.703	29912
813.845	29783
813.986	29334
814.127	29090
814.268	29189
814.41	29220
814.551	29162
814.692	29105
814.833	28873
814.974	28991
815.115	28953
815.256	28820
815.397	28812
815.539	28702
815.68	28672
815.821	28744
815.962	28603
816.103	28618
816.244	28519
816.385	28314
816.526	28318
816.666	28097
816.807	27979
816.948	28025
817.089	27998
817.23	27956
817.371	27922
817.512	28006
817.653	27880
817.793	27781
817.934	27880
818.075	27922
818.216	27819
818.356	27850
818.497	27743
818.638	27454
818.778	27485
818.919	27614
819.06	27667
819.2	27743
819.341	27808
819.481	27804
819.622	27956
819.762	28173
819.903	27983
820.043	27991
820.184	27800
820.324	27793
820.465	27739
820.605	27686
820.746	27629
820.886	27553
821.026	27603
821.167	27534
821.307	27682
821.447	27690
821.588	27534
821.728	27401
821.868	27131
822.008	27093
822.149	26914
822.289	26910
822.429	26735
822.569	26689
822.709	26571
822.849	26404
822.99	26412
823.13	26225
823.27	26294
823.41	26012
823.55	26130
823.69	26252
823.83	26164
823.97	26164
824.11	25974
824.25	25871
824.389	25982
824.529	26005
824.669	26103
824.809	26039
824.949	25959
825.089	26069
825.228	25959
825.368	25750
825.508	25742
825.648	25795
825.787	25803
825.927	25784
826.067	25632
826.206	25674
826.346	25784
826.485	25826
826.625	25571
826.765	25902
826.904	25601
827.044	25537
827.183	25426
827.323	25350
827.462	25476
827.601	25506
827.741	25426
827.88	25362
828.02	25232
828.159	25426
828.298	25285
828.437	25453
828.577	25373
828.716	25396
828.855	25320
828.994	25031
829.134	25141
829.273	25168
829.412	24973
829.551	24989
829.69	24989
829.829	25057
829.968	25110
830.107	25091
830.246	24932
830.385	24916
830.524	24852
830.663	24779
830.802	24627
830.941	24722
831.08	24555
831.219	24707
831.357	24783
831.496	24753
831.635	24544
831.774	24703
831.913	24547
832.051	24388
832.19	24582
832.329	24467
832.467	24350
832.606	24361
832.744	24338
832.883	24498
833.022	24582
833.16	24540
833.299	24673
833.437	24700
833.576	24829
833.714	24966
833.852	25084
833.991	25160
834.129	25228
834.267	25202
834.406	25133
834.544	25122
834.682	25110
834.821	24856
834.959	25019
835.097	24669
835.235	24738
835.373	24502
835.511	24376
835.65	24452
835.788	24300
835.926	24064
836.064	23980
836.202	23973
836.34	24140
836.478	24110
836.615	24030
836.753	24098
836.891	24144
837.029	24106
837.167	23992
837.305	23889
837.443	23908
837.58	23893
837.718	23984
837.856	23767
837.993	23786
838.131	23809
838.269	23596
838.406	23733
838.544	23577
838.681	23490
838.819	23482
838.956	23181
839.094	23337
839.231	23280
839.369	23421
839.506	23505
839.643	23482
839.781	23208
839.918	23159
840.055	23086
840.193	23178
840.33	23048
840.467	23216
840.604	23227
840.742	23471
840.879	22946
841.016	23071
841.153	22942
841.29	23353
841.427	23162
841.564	23067
841.701	23143
841.838	23143
841.975	22946
842.112	23010
842.249	22957
842.385	22995
842.522	23067
842.659	22938
842.796	22892
842.933	22919
843.069	22831
843.206	22797
843.343	23022
843.479	23064
843.616	23079
843.752	22854
843.889	22908
844.025	23041
844.162	22908
844.298	23170
844.435	23102
844.571	23246
844.708	23486
844.844	23859
844.98	24068
845.117	24563
845.253	25324
845.389	26693
845.525	29197
845.661	33587
845.798	38632
845.934	42566
846.07	44267
846.206	43122
846.342	39922
846.478	34607
846.614	29889
846.75	26986
846.886	25434
847.022	24376
847.158	23729
847.294	23178
847.429	23048
847.565	22759
847.701	22824
847.837	22398
847.972	22017
848.108	22192
848.244	22086
848.379	21846
848.515	21743
848.65	21686
848.786	21701
848.921	21698
849.057	21888
849.192	21850
849.328	21690
849.463	21724
849.598	21648
849.734	21663
849.869	21583
850.004	21477
850.14	21443
850.275	21568
850.41	21359
850.545	21359
850.68	21374
850.815	21275
850.95	21488
851.085	21564
851.22	21488
851.355	21420
851.49	21386
851.625	21313
851.76	21374
851.895	21344
852.03	21249
852.165	21359
852.299	21416
852.434	21443
852.569	21488
852.703	21397
852.838	21439
852.973	21564
853.107	21488
853.242	21431
853.376	21279
853.511	21256
853.645	21283
853.78	21485
853.914	21492
854.048	21488
854.183	21408
854.317	21504
854.451	21656
854.585	21332
854.72	21568
854.854	21557
854.988	21408
855.122	21416
855.256	21310
855.39	21393
855.524	21287
855.658	21233
855.792	21195
855.926	21287
856.06	21298
856.194	21199
856.327	21131
856.461	21074
856.595	21207
856.729	21047
856.862	21180
856.996	21047
857.13	21199
857.263	21173
857.397	21184
857.53	21108
857.664	21123
857.797	21203
857.931	21230
858.064	21077
858.197	21233
858.331	21142
858.464	20975
858.597	20944
858.731	20883
858.864	20994
858.997	21013
859.13	20990
859.263	21005
859.396	21173
859.529	21017
859.662	21017
859.795	21017
859.928	21043
860.061	21142
860.194	21135
860.327	20998
860.46	21032
860.592	21013
860.725	21214
860.858	21043
860.99	20990
861.123	20918
861.256	20914
861.388	21055
861.521	21663
861.653	20785
861.786	20750
861.918	20883
862.05	20963
862.183	21001
862.315	20914
862.447	21028
862.58	20895
862.712	20792
862.844	20606
862.976	20746
863.108	20796
863.24	21032
863.372	20564
863.504	20636
863.636	20587
863.768	20746
863.9	20689
864.032	20522
864.164	20587
864.296	20590
864.428	20689
864.559	20670
864.691	20735
864.823	20663
864.954	20609
865.086	20560
865.217	20518
865.349	20484
865.48	20454
865.612	20511
865.743	20651
865.875	20556
866.006	20450
866.137	20537
866.269	20545
866.4	20545
866.531	20518
866.662	20393
866.793	20450
866.924	20552
867.055	20495
867.186	20541
867.317	20461
867.448	20366
867.579	20434
867.71	20351
867.841	20336
867.972	20552
868.103	20404
868.233	20499
868.364	20495
868.495	20598
868.625	20663
868.756	20834
868.886	20545
869.017	20651
869.147	20804
869.278	20868
869.408	20689
869.539	20716
869.669	20727
869.799	20712
869.929	20788
870.06	20743
870.19	21032
870.32	20967
870.45	21043
870.58	21154
870.71	21157
870.84	21256
870.97	21112
871.1	21135
871.23	21291
871.36	21439
871.489	21321
871.619	21412
871.749	21526
871.879	21431
872.008	21545
872.138	21580
872.267	21526
872.397	21279
872.526	21393
872.656	21272
872.785	21306
872.915	21538
873.044	21549
873.173	21473
873.303	21568
873.432	21591
873.561	21701
873.69	21610
873.819	21656
873.948	21679
874.077	21759
874.206	21774
874.335	21747
874.464	21861
874.593	21994
874.722	21873
874.851	21956
874.979	22048
875.108	22101
875.237	22055
875.365	22067
875.494	22204
875.623	22348
875.751	22154
875.88	22291
876.008	22405
876.136	22485
876.265	22694
876.393	22767
876.521	22908
876.65	22976
876.778	22793
876.906	22915
877.034	22873
877.162	22999
877.29	22930
877.418	23151
877.546	23242
877.674	23258
877.802	23292
877.93	23463
878.058	23653
878.185	23680
878.313	23897
878.441	24239
878.568	24300
878.696	24837
878.824	25491
878.951	26355
879.079	27545
879.206	29102
879.333	30738
879.461	31963
879.588	32861
879.715	32701
879.842	32317
879.97	30620
880.097	28976
880.224	27690
880.351	26979
880.478	26351
880.605	25693
880.732	25438
880.859	25563
880.986	25240
881.112	25126
881.239	25027
881.366	24802
881.493	24719
881.619	24620
881.746	24726
881.872	24802
881.999	24692
882.125	24684
882.252	24856
882.378	24875
882.505	24840
882.631	24882
882.757	24745
882.883	24719
883.01	24505
883.136	24471
883.262	24327
883.388	24410
883.514	24616
883.64	24589
883.766	24467
883.892	24346
884.018	24441
884.143	24357
884.269	24673
884.395	24330
884.52	24365
884.646	24209
884.772	24148
884.897	24243
885.023	24133
885.148	24338
885.274	24365
885.399	24174
885.524	24030
885.65	24095
885.775	23821
885.9	23722
886.025	23767
886.15	23558
886.275	23425
886.4	23174
886.525	23265
886.65	23151
886.775	22904
886.9	23102
887.025	23105
887.149	22885
887.274	22527
887.399	22592
887.523	22493
887.648	22204
887.773	22112
887.897	22379
888.021	22223
888.146	22021
888.27	22215
888.395	22166
888.519	22017
888.643	22059
888.767	21911
888.891	21857
889.015	21671
889.139	21641
889.263	21656
889.387	21618
889.511	21572
889.635	21564
889.759	21492
889.883	21469
890.006	21519
890.13	21481
890.254	21344
890.377	21237
890.501	21039
890.624	21070
890.748	21203
890.871	20864
890.995	20876
891.118	20826
891.241	20830
891.364	20804
891.488	20826
891.611	20712
891.734	20750
891.857	20743
891.98	20750
892.103	20750
892.226	20629
892.349	20659
892.471	20389
892.594	20602
892.717	20560
892.839	20469
892.962	20518
893.085	20454
893.207	20396
893.33	20237
893.452	20358
893.575	20393
893.697	20313
893.819	20530
893.941	20526
894.064	20438
894.186	20176
894.308	20065
894.43	20176
894.552	20336
894.674	20385
894.796	20172
894.918	20024
895.04	20168
895.161	20164
895.283	20020
895.405	20069
895.526	20005
895.648	20161
895.769	20016
895.891	20027
896.012	20138
896.134	20142
896.255	20073
896.376	20111
896.498	20031
896.619	20054
896.74	20008
896.861	20103
896.982	20286
897.103	20362
897.224	20202
897.345	20259
897.466	20153
897.587	20157
897.708	20282
897.828	20240
897.949	20195
898.07	20024
898.19	20111
898.311	20145
898.431	20145
898.552	20218
898.672	20267
898.792	20210
898.913	20115
899.033	20065
899.153	19917
899.273	19807
899.393	20020
899.513	19830
899.633	19989
899.753	19841
899.873	19818
899.993	19833
900.113	19811
900.232	19906
900.352	19715
900.472	19655
900.591	19582
900.711	19666
900.83	19643
900.95	19677
901.069	19700
901.189	19571
901.308	19244
901.427	19179
901.546	19251
901.665	19255
901.784	19255
901.904	19084
902.023	18913
902.141	18772
902.26	18760
902.379	18825
902.498	18707
902.617	18574
902.735	18665
902.854	18536
902.973	18486
903.091	18220
903.21	18308
903.328	18300
903.446	18144
903.565	18049
903.683	18159
903.801	18019
903.919	18011
904.038	17942
904.156	17859
904.274	17885
904.392	17847
904.51	17832
904.627	17794
904.745	17714
904.863	17840
904.981	17581
905.098	17383
905.216	17436
905.334	17417
905.451	17368
905.569	17345
905.686	17444
905.803	17497
905.921	17140
906.038	17368
906.155	17231
906.272	17075
906.389	17048
906.506	17075
906.623	16873
906.74	16904
906.857	16759
906.974	16778
907.091	17090
907.208	17052
907.324	16892
907.441	16816
907.557	16649
907.674	16611
907.79	16607
907.907	16561
908.023	16565
908.139	16679
908.256	16523
908.372	16462
908.488	16394
908.604	16360
908.72	16215
908.836	16318
908.952	16226
909.068	16230
909.184	16348
909.3	16280
909.415	16363
909.531	16200
909.647	15979
909.762	16059
909.878	16017
909.993	16048
910.108	16036
910.224	15994
910.339	15884
910.454	15842
910.57	15793
910.685	15652
910.8	15934
910.915	16006
911.03	15766
911.145	15667
911.259	15656
911.374	15709
911.489	15603
911.604	15477
911.718	15367
911.833	15507
911.947	15329
912.062	15199
912.176	15317
912.291	15192
912.405	15306
912.519	15492
912.633	15526
912.748	15393
912.862	15370
912.976	15275
913.09	15024
913.204	15112
913.318	15188
913.431	15222
913.545	15329
913.659	15241
913.772	15093
913.886	15047
914	14979
914.113	15138
914.226	15214
914.34	15127
914.453	14891
914.566	14975
914.68	14883
914.793	14731
914.906	14606
915.019	14613
915.132	14556
915.245	14587
915.358	14522
915.47	14655
915.583	14636
915.696	14667
915.809	14781
915.921	14705
916.034	14632
916.146	14499
916.259	14617
916.371	14727
916.483	14552
916.595	14396
916.708	14442
916.82	14488
916.932	14461
917.044	14457
917.156	14393
917.268	14309
917.38	14434
917.491	14244
917.603	14218
917.715	14294
917.826	14351
917.938	14286
918.049	14073
918.161	14088
918.272	14351
918.384	14294
918.495	14248
918.606	14012
918.717	14058
918.828	13963
918.939	14081
919.05	13997
919.161	13906
919.272	13727
919.383	13852
919.494	14039
919.604	14126
919.715	13902
919.826	13917
919.936	13917
920.047	14016
920.157	13917
920.267	14111
920.378	13986
920.488	13951
920.598	14058
920.708	14252
920.818	14123
920.928	14073
921.038	14271
921.148	14161
921.258	13890
921.368	13906
921.477	13712
921.587	13727
921.697	13616
921.806	13662
921.916	13506
922.025	13411
922.134	13369
922.244	13213
922.353	13377
922.462	13114
922.571	13156
922.68	12973
922.789	13008
922.898	12951
923.007	12920
923.116	12973
923.224	12894
923.333	12928
923.442	12837
923.55	12734
923.659	12867
923.767	12856
923.876	12696
923.984	12810
924.092	12646
924.201	12776
924.309	12654
924.417	12764
924.525	12631
924.633	12642
924.741	13529
924.849	12445
924.956	12623
925.064	12445
925.172	12300
925.279	12433
925.387	12410
925.494	12391
925.602	12544
925.709	12403
925.816	12372
925.924	12308
926.031	12456
926.138	12289
926.245	12346
926.352	12319
926.459	12323
926.566	12475
926.673	12228
926.779	12148
926.886	12117
926.993	12057
927.099	11984
927.206	11878
927.312	11920
927.419	12015
927.525	11996
927.631	12079
927.737	11942
927.843	11840
927.95	11703
928.056	11783
928.162	11821
928.267	11908
928.373	12357
928.479	11923
928.585	11642
928.69	11737
928.796	11809
928.901	11665
929.007	11611
929.112	11657
929.218	11676
929.323	11585
929.428	11535
929.533	11672
929.638	11516
929.743	11455
929.848	11516
929.953	11410
930.058	11356
930.163	11189
930.267	11242
930.372	11391
930.477	11239
930.581	11372
930.685	11288
930.79	11075
930.894	11155
930.998	11048
931.103	11208
931.207	10809
931.311	10835
931.415	10740
931.519	10462
931.623	10500
