Data from test_V78500241_1217.txt Node
Date: Fri Mar 25 14:42:11 CST 2022
User: usil
Spectrometer: V785-0024
Trigger mode: 0
Integration Time (sec): 4.000000E-1
Scans to average: 1
Nonlinearity correction enabled: false
Boxcar width: 0
Storing dark spectrum: false
XAxis mode: Wavelengths
Number of Pixels in Spectrum: 1024
>>>>>Begin Spectral Data<<<<<
801.071	22382
801.214	22154
801.356	22051
801.499	21800
801.641	21804
801.783	21800
801.926	21762
802.068	21724
802.211	21599
802.353	21511
802.496	21252
802.638	21363
802.78	21150
802.923	21131
803.065	20944
803.208	21119
803.35	21028
803.492	21279
803.635	21214
803.777	21157
803.919	21233
804.061	21428
804.204	21260
804.346	21066
804.488	21074
804.63	21108
804.773	20902
804.915	20975
805.057	21154
805.199	21062
805.341	21116
805.483	21119
805.626	21001
805.768	20986
805.91	21077
806.052	21005
806.194	20906
806.336	21138
806.478	21089
806.62	20994
806.762	21028
806.904	21192
807.046	21431
807.188	21412
807.33	21264
807.472	21397
807.614	21329
807.756	21363
807.898	21199
808.04	21195
808.182	21123
808.324	21043
808.465	21218
808.607	21401
808.749	21412
808.891	21606
809.033	21553
809.174	21568
809.316	21439
809.458	21466
809.6	21363
809.741	21492
809.883	21530
810.025	21572
810.166	21580
810.308	21679
810.45	21603
810.591	21336
810.733	21233
810.875	21359
811.016	21009
811.158	21119
811.299	21298
811.441	21294
811.582	21397
811.724	21154
811.865	21203
812.007	21157
812.148	21135
812.29	21214
812.431	21439
812.573	21545
812.714	21629
812.855	21679
812.997	21831
813.138	21835
813.279	21751
813.421	21717
813.562	21549
813.703	21397
813.845	21367
813.986	21116
814.127	20990
814.268	20773
814.41	20769
814.551	20792
814.692	20804
814.833	20670
814.974	20743
815.115	20697
815.256	20526
815.397	20587
815.539	20632
815.68	20526
815.821	20457
815.962	20564
816.103	20442
816.244	20320
816.385	20244
816.526	20206
816.666	20115
816.807	19974
816.948	19997
817.089	20058
817.23	20008
817.371	19883
817.512	19944
817.653	19864
817.793	19807
817.934	19856
818.075	19913
818.216	19875
818.356	19932
818.497	19666
818.638	19575
818.778	19601
818.919	19628
819.06	19651
819.2	19746
819.341	19811
819.481	19727
819.622	19875
819.762	20115
819.903	19913
820.043	19932
820.184	19818
820.324	19803
820.465	19921
820.605	19871
820.746	19887
820.886	19814
821.026	19833
821.167	19788
821.307	19947
821.447	19696
821.588	19601
821.728	19441
821.868	19457
822.008	19225
822.149	19312
822.289	19297
822.429	19004
822.569	18947
822.709	18958
822.849	18814
822.99	18837
823.13	18650
823.27	18798
823.41	18612
823.55	18506
823.69	18646
823.83	18589
823.97	18490
824.11	18353
824.25	18369
824.389	18452
824.529	18327
824.669	18369
824.809	18479
824.949	18555
825.089	18502
825.228	18384
825.368	18235
825.508	18296
825.648	18205
825.787	18209
825.927	18296
826.067	18167
826.206	18159
826.346	18342
826.485	18258
826.625	17916
826.765	18395
826.904	18251
827.044	17931
827.183	17927
827.323	17855
827.462	17893
827.601	17851
827.741	17893
827.88	17851
828.02	17718
828.159	17809
828.298	17878
828.437	17882
828.577	17756
828.716	17958
828.855	17866
828.994	17630
829.134	17558
829.273	17649
829.412	17676
829.551	17577
829.69	17532
829.829	17691
829.968	17615
830.107	17600
830.246	17577
830.385	17604
830.524	17490
830.663	17391
830.802	17376
830.941	17166
831.08	17185
831.219	17277
831.357	17280
831.496	17417
831.635	17254
831.774	17140
831.913	17113
832.051	17056
832.19	16942
832.329	17105
832.467	17045
832.606	16930
832.744	16953
832.883	16991
833.022	16873
833.16	16934
833.299	17022
833.437	16972
833.576	16953
833.714	16972
833.852	16919
833.991	16968
834.129	17060
834.267	17018
834.406	17010
834.544	16999
834.682	17018
834.821	16923
834.959	17239
835.097	16915
835.235	17098
835.373	17025
835.511	17060
835.65	16866
835.788	16782
835.926	16729
836.064	16797
836.202	16778
836.34	16843
836.478	16991
836.615	16831
836.753	17033
836.891	17018
837.029	17037
837.167	16896
837.305	16816
837.443	16877
837.58	16687
837.718	16805
837.856	16896
837.993	16748
838.131	16805
838.269	16721
838.406	16691
838.544	16653
838.681	16485
838.819	16382
838.956	16276
839.094	16257
839.231	16348
839.369	16421
839.506	16641
839.643	16478
839.781	16481
839.918	16299
840.055	16371
840.193	16246
840.33	16352
840.467	16341
840.604	16360
840.742	16645
840.879	16185
841.016	16333
841.153	16265
841.29	16356
841.427	16329
841.564	16474
841.701	16386
841.838	16268
841.975	16097
842.112	16261
842.249	16154
842.385	16025
842.522	16280
842.659	15983
842.796	16074
842.933	16101
843.069	16147
843.206	15994
843.343	16150
843.479	16063
843.616	16162
843.752	15968
843.889	15907
844.025	15979
844.162	15922
844.298	15915
844.435	15804
844.571	15812
844.708	16025
844.844	16120
844.98	15991
845.117	16021
845.253	15880
845.389	15675
845.525	15854
845.661	15907
845.798	15713
845.934	15861
846.07	15804
846.206	15850
846.342	15956
846.478	15785
846.614	15542
846.75	15469
846.886	15382
847.022	15454
847.158	15496
847.294	15500
847.429	15485
847.565	15492
847.701	15656
847.837	15256
847.972	15108
848.108	15329
848.244	15211
848.379	15123
848.515	15051
848.65	14895
848.786	15005
848.921	15032
849.057	15188
849.192	15161
849.328	15020
849.463	14979
849.598	15066
849.734	14971
849.869	14918
850.004	14838
850.14	14891
850.275	14826
850.41	14720
850.545	14663
850.68	14659
850.815	14849
850.95	14758
851.085	15066
851.22	14921
851.355	14842
851.49	14883
851.625	14705
851.76	14804
851.895	14701
852.03	14674
852.165	14838
852.299	14883
852.434	14823
852.569	14826
852.703	14785
852.838	14838
852.973	14918
853.107	15005
853.242	14853
853.376	14731
853.511	14579
853.645	14678
853.78	14796
853.914	14746
854.048	14701
854.183	14701
854.317	14640
854.451	14834
854.585	14610
854.72	14488
854.854	14762
854.988	14545
855.122	14594
855.256	14492
855.39	14701
855.524	14712
855.658	14754
855.792	14705
855.926	14697
856.06	14670
856.194	14785
856.327	14663
856.461	14594
856.595	14701
856.729	14701
856.862	14807
856.996	14769
857.13	14762
857.263	14868
857.397	14887
857.53	14750
857.664	14708
857.797	14796
857.931	14785
858.064	14792
858.197	14807
858.331	14701
858.464	14625
858.597	14522
858.731	14659
858.864	14632
858.997	14594
859.13	14686
859.263	14716
859.396	14716
859.529	14579
859.662	14598
859.795	14648
859.928	14625
860.061	14769
860.194	14830
860.327	14735
860.46	14689
860.592	14815
860.725	14819
860.858	14830
860.99	14651
861.123	14708
861.256	14590
861.388	14651
861.521	15424
861.653	14560
861.786	14549
861.918	14602
862.05	14659
862.183	14598
862.315	14514
862.447	14697
862.58	14598
862.712	14465
862.844	14434
862.976	14545
863.108	14518
863.24	15020
863.372	14476
863.504	14374
863.636	14442
863.768	14469
863.9	14518
864.032	14351
864.164	14415
864.296	14469
864.428	14587
864.559	14499
864.691	14495
864.823	14484
864.954	14457
865.086	14454
865.217	14434
865.349	14313
865.48	14446
865.612	14457
865.743	14629
865.875	14492
866.006	14355
866.137	14351
866.269	14438
866.4	14347
866.531	14415
866.662	14404
866.793	14366
866.924	14389
867.055	14450
867.186	14564
867.317	14362
867.448	14313
867.579	14332
867.71	14396
867.841	14389
867.972	14503
868.103	14438
868.233	14454
868.364	14385
868.495	14522
868.625	14636
868.756	14712
868.886	14564
869.017	14720
869.147	14838
869.278	14716
869.408	14777
869.539	14701
869.669	14788
869.799	14746
869.929	14777
870.06	14777
870.19	15028
870.32	14956
870.45	15013
870.58	15055
870.71	15237
870.84	15085
870.97	15070
871.1	15104
871.23	15378
871.36	15302
871.489	15180
871.619	15245
871.749	15233
871.879	15408
872.008	15378
872.138	15294
872.267	15222
872.397	15142
872.526	15131
872.656	15085
872.785	15150
872.915	15321
873.044	15401
873.173	15340
873.303	15420
873.432	15336
873.561	15321
873.69	15321
873.819	15386
873.948	15462
874.077	15351
874.206	15279
874.335	15363
874.464	15515
874.593	15622
874.722	15580
874.851	15694
874.979	15732
875.108	15705
875.237	15504
875.365	15595
875.494	15660
875.623	15819
875.751	15553
875.88	15679
876.008	15789
876.136	15899
876.265	16067
876.393	16158
876.521	16082
876.65	16147
876.778	16021
876.906	16059
877.034	15876
877.162	15895
877.29	15975
877.418	16074
877.546	15953
877.674	15956
877.802	15987
877.93	16109
878.058	16010
878.185	15903
878.313	16055
878.441	16086
878.568	15975
878.696	15956
878.824	16097
878.951	16238
879.079	16276
879.206	16386
879.333	16223
879.461	16124
879.588	16257
879.715	16219
879.842	16394
879.97	16207
880.097	15876
880.224	15903
880.351	15911
880.478	15892
880.605	15880
880.732	15831
880.859	16128
880.986	15994
881.112	16013
881.239	15846
881.366	15663
881.493	15641
881.619	15553
881.746	15587
881.872	15660
881.999	15557
882.125	15542
882.252	15572
882.378	15587
882.505	15595
882.631	15530
882.757	15428
882.883	15542
883.01	15408
883.136	15302
883.262	15321
883.388	15195
883.514	15416
883.64	15397
883.766	15389
883.892	15237
884.018	15203
884.143	15275
884.269	15496
884.395	15104
884.52	15081
884.646	15074
884.772	14929
884.897	14990
885.023	15074
885.148	15138
885.274	15226
885.399	15154
885.524	14941
885.65	15089
885.775	15146
885.9	15047
886.025	15142
886.15	15150
886.275	15108
886.4	14937
886.525	15085
886.65	15020
886.775	14998
886.9	15195
887.025	15256
887.149	15047
887.274	14849
887.399	14868
887.523	14902
887.648	14880
887.773	14845
887.897	14956
888.021	14994
888.146	14769
888.27	14979
888.395	15043
888.519	14887
888.643	14849
888.767	14910
888.891	14861
889.015	14785
889.139	14800
889.263	14705
889.387	14876
889.511	14979
889.635	14876
889.759	14648
889.883	14750
890.006	14754
890.13	14941
890.254	14693
890.377	14712
890.501	14636
890.624	14533
890.748	14579
890.871	14495
890.995	14412
891.118	14412
891.241	14473
891.364	14412
891.488	14587
891.611	14446
891.734	14469
891.857	14518
891.98	14476
892.103	14450
892.226	14511
892.349	14362
892.471	14294
892.594	14495
892.717	14511
892.839	14393
892.962	14446
893.085	14484
893.207	14362
893.33	14332
893.452	14366
893.575	14488
893.697	14393
893.819	14602
893.941	14670
894.064	14590
894.186	14377
894.308	14427
894.43	14655
894.552	14651
894.674	14629
894.796	14286
894.918	14476
895.04	14549
895.161	14606
895.283	14545
895.405	14450
895.526	14587
895.648	14602
895.769	14568
895.891	14587
896.012	14693
896.134	14655
896.255	14545
896.376	14571
896.498	14560
896.619	14629
896.74	14560
896.861	14667
896.982	15051
897.103	15062
897.224	14929
897.345	14800
897.466	14815
897.587	14853
897.708	14929
897.828	14883
897.949	14773
898.07	14693
898.19	14720
898.311	14948
898.431	14857
898.552	14933
898.672	15009
898.792	15062
898.913	14979
899.033	14739
899.153	14830
899.273	14632
899.393	14705
899.513	14849
899.633	14777
899.753	14712
899.873	14807
899.993	14762
900.113	14765
900.232	14807
900.352	14777
900.472	14689
900.591	14621
900.711	14667
900.83	14636
900.95	14746
901.069	14781
901.189	14632
901.308	14320
901.427	14332
901.546	14336
901.665	14393
901.784	14259
901.904	14199
902.023	14046
902.141	13928
902.26	13936
902.379	13879
902.498	13761
902.617	13837
902.735	13959
902.854	13932
902.973	13731
903.091	13597
903.21	13552
903.328	13666
903.446	13499
903.565	13403
903.683	13419
903.801	13381
903.919	13396
904.038	13434
904.156	13278
904.274	13339
904.392	13232
904.51	13266
904.627	13202
904.745	13209
904.863	13282
904.981	13027
905.098	12981
905.216	12966
905.334	13008
905.451	13000
905.569	12916
905.686	12913
905.803	12924
905.921	12776
906.038	12924
906.155	12806
906.272	12597
906.389	12726
906.506	12585
906.623	12517
906.74	12490
906.857	12441
906.974	12483
907.091	12540
907.208	12566
907.324	12597
907.441	12384
907.557	12338
907.674	12281
907.79	12209
907.907	12190
908.023	12388
908.139	12323
908.256	12232
908.372	12190
908.488	12163
908.604	12072
908.72	11977
908.836	12076
908.952	11988
909.068	12038
909.184	12087
909.3	12034
909.415	12133
909.531	12049
909.647	11885
909.762	11855
909.878	11786
909.993	11866
910.108	11904
910.224	11828
910.339	11699
910.454	11653
910.57	11585
910.685	11592
910.8	11870
910.915	11847
911.03	11672
911.145	11535
911.259	11482
911.374	11509
911.489	11482
911.604	11417
911.718	11284
911.833	11231
911.947	11185
912.062	11018
912.176	11288
912.291	11227
912.405	11254
912.519	11288
912.633	11467
912.748	11303
912.862	11296
912.976	11189
913.09	11056
913.204	11132
913.318	11128
913.431	11201
913.545	11239
913.659	11261
913.772	11094
913.886	11025
914	10995
914.113	11140
914.226	11193
914.34	11041
914.453	10965
914.566	11090
914.68	11048
914.793	10873
914.906	10714
915.019	10721
915.132	10634
915.245	10771
915.358	10714
915.47	10744
915.583	10744
915.696	10809
915.809	10869
915.921	10927
916.034	10717
916.146	10660
916.259	10637
916.371	10824
916.483	10714
916.595	10694
916.708	10683
916.82	10694
916.932	10596
917.044	10668
917.156	10634
917.268	10554
917.38	10641
917.491	10493
917.603	10546
917.715	10603
917.826	10656
917.938	10565
918.049	10455
918.161	10569
918.272	10656
918.384	10675
918.495	10637
918.606	10478
918.717	10405
918.828	10485
918.939	10489
919.05	10360
919.161	10405
919.272	10344
919.383	10325
919.494	10531
919.604	10622
919.715	10519
919.826	10337
919.936	10493
920.047	10531
920.157	10470
920.267	10626
920.378	10519
920.488	10497
920.598	10561
920.708	10744
920.818	10634
920.928	10645
921.038	10816
921.148	10752
921.258	10474
921.368	10371
921.477	10371
921.587	10341
921.697	10196
921.806	10318
921.916	10185
922.025	10006
922.134	9991
922.244	9953
922.353	10017
922.462	9850
922.571	9812
922.68	9698
922.789	9629
922.898	9667
923.007	9618
923.116	9713
923.224	9736
923.333	9660
923.442	9595
923.55	9523
923.659	9553
923.767	9656
923.876	9500
923.984	9633
924.092	9435
924.201	9572
924.309	9526
924.417	9564
924.525	9477
924.633	9469
924.741	10242
924.849	9313
924.956	9466
925.064	9351
925.172	9260
925.279	9332
925.387	9332
925.494	9348
925.602	9424
925.709	9412
925.816	9283
925.924	9359
926.031	9401
926.138	9340
926.245	9310
926.352	9211
926.459	9348
926.566	9393
926.673	9237
926.779	9161
926.886	9207
926.993	9085
927.099	9077
927.206	9005
927.312	9062
927.419	9085
927.525	9055
927.631	9146
927.737	8883
927.843	8868
927.95	8823
928.056	8895
928.162	8861
928.267	9032
928.373	9526
928.479	8994
928.585	8826
928.69	8952
928.796	8948
928.901	8857
929.007	8750
929.112	8883
929.218	8826
929.323	8720
929.428	8750
929.533	8880
929.638	8724
929.743	8617
929.848	8735
929.953	8617
930.058	8651
930.163	8530
930.267	8503
930.372	8644
930.477	8484
930.581	8705
930.685	8594
930.79	8465
930.894	8476
930.998	8419
931.103	8507
931.207	8252
931.311	8233
931.415	8081
931.519	7967
931.623	7974
