Data from test_V78500241_2080.txt Node
Date: Fri Mar 25 14:48:11 CST 2022
User: usil
Spectrometer: V785-0024
Trigger mode: 0
Integration Time (sec): 4.000000E-1
Scans to average: 1
Nonlinearity correction enabled: false
Boxcar width: 0
Storing dark spectrum: false
XAxis mode: Wavelengths
Number of Pixels in Spectrum: 1024
>>>>>Begin Spectral Data<<<<<
801.071	22124
801.214	21911
801.356	21682
801.499	21652
801.641	21481
801.783	21401
801.926	21504
802.068	21447
802.211	21275
802.353	21237
802.496	21074
802.638	20975
802.78	20960
802.923	20876
803.065	20705
803.208	20743
803.35	20933
803.492	20891
803.635	20842
803.777	20800
803.919	20910
804.061	21116
804.204	20941
804.346	20731
804.488	20693
804.63	20842
804.773	20739
804.915	20708
805.057	20819
805.199	20629
805.341	20838
805.483	20739
805.626	20762
805.768	20606
805.91	20781
806.052	20689
806.194	20670
806.336	20845
806.478	20727
806.62	20617
806.762	20743
806.904	20849
807.046	21066
807.188	21165
807.33	21001
807.472	21062
807.614	21039
807.756	20933
807.898	20811
808.04	20838
808.182	20617
808.324	20834
808.465	20914
808.607	20986
808.749	21070
808.891	21249
809.033	21310
809.174	21214
809.316	20971
809.458	20994
809.6	21100
809.741	21249
809.883	21195
810.025	21313
810.166	21222
810.308	21233
810.45	21074
810.591	21184
810.733	21074
810.875	20948
811.016	20823
811.158	20663
811.299	20842
811.441	20891
811.582	20921
811.724	20853
811.865	20933
812.007	20826
812.148	20880
812.29	20963
812.431	20956
812.573	21135
812.714	21230
812.855	21367
812.997	21450
813.138	21492
813.279	21507
813.421	21424
813.562	21272
813.703	21176
813.845	20982
813.986	20674
814.127	20545
814.268	20469
814.41	20457
814.551	20431
814.692	20495
814.833	20336
814.974	20404
815.115	20404
815.256	20229
815.397	20298
815.539	20248
815.68	20187
815.821	20046
815.962	20195
816.103	20115
816.244	19936
816.385	19925
816.526	19879
816.666	19761
816.807	19502
816.948	19666
817.089	19632
817.23	19567
817.371	19396
817.512	19620
817.653	19491
817.793	19552
817.934	19495
818.075	19582
818.216	19544
818.356	19483
818.497	19422
818.638	19331
818.778	19209
818.919	19263
819.06	19304
819.2	19270
819.341	19327
819.481	19483
819.622	19575
819.762	19674
819.903	19620
820.043	19575
820.184	19544
820.324	19476
820.465	19639
820.605	19624
820.746	19472
820.886	19400
821.026	19575
821.167	19460
821.307	19670
821.447	19578
821.588	19297
821.728	19293
821.868	19114
822.008	18970
822.149	18924
822.289	19027
822.429	18806
822.569	18582
822.709	18612
822.849	18525
822.99	18308
823.13	18369
823.27	18323
823.41	18201
823.55	18213
823.69	18228
823.83	18235
823.97	18232
824.11	18060
824.25	18064
824.389	17916
824.529	18045
824.669	17988
824.809	18144
824.949	18007
825.089	18057
825.228	18015
825.368	17817
825.508	17958
825.648	17710
825.787	17946
825.927	17893
826.067	17733
826.206	17722
826.346	17885
826.485	17897
826.625	17790
826.765	17912
826.904	17885
827.044	17672
827.183	17501
827.323	17505
827.462	17581
827.601	17360
827.741	17387
827.88	17493
828.02	17395
828.159	17425
828.298	17455
828.437	17474
828.577	17364
828.716	17684
828.855	17452
828.994	17178
829.134	17311
829.273	17277
829.412	17208
829.551	17121
829.69	17265
829.829	17265
829.968	17360
830.107	17315
830.246	17364
830.385	17197
830.524	17079
830.663	17045
830.802	16904
830.941	16809
831.08	16866
831.219	16938
831.357	16957
831.496	17124
831.635	16866
831.774	16710
831.913	16694
832.051	16596
832.19	16630
832.329	16744
832.467	16618
832.606	16466
832.744	16516
832.883	16516
833.022	16573
833.16	16584
833.299	16550
833.437	16542
833.576	16607
833.714	16641
833.852	16710
833.991	16569
834.129	16637
834.267	16694
834.406	16649
834.544	16607
834.682	16588
834.821	16561
834.959	16782
835.097	16519
835.235	16748
835.373	16538
835.511	16523
835.65	16478
835.788	16497
835.926	16341
836.064	16253
836.202	16329
836.34	16516
836.478	16634
836.615	16500
836.753	16535
836.891	16580
837.029	16546
837.167	16500
837.305	16535
837.443	16367
837.58	16306
837.718	16493
837.856	16455
837.993	16299
838.131	16390
838.269	16371
838.406	16246
838.544	16200
838.681	16124
838.819	16017
838.956	15854
839.094	15968
839.231	16013
839.369	16082
839.506	16329
839.643	16112
839.781	15934
839.918	15937
840.055	15854
840.193	15895
840.33	15876
840.467	15991
840.604	15907
840.742	16219
840.879	15873
841.016	15804
841.153	15804
841.29	16029
841.427	15960
841.564	15987
841.701	15949
841.838	16048
841.975	15884
842.112	15903
842.249	15770
842.385	15778
842.522	15865
842.659	15690
842.796	15705
842.933	15675
843.069	15698
843.206	15603
843.343	15861
843.479	15747
843.616	15679
843.752	15462
843.889	15431
844.025	15728
844.162	15428
844.298	15622
844.435	15523
844.571	15511
844.708	15622
844.844	15637
844.98	15705
845.117	15584
845.253	15488
845.389	15428
845.525	15401
845.661	15408
845.798	15291
845.934	15336
846.07	15313
846.206	15268
846.342	15397
846.478	15344
846.614	15077
846.75	15062
846.886	14998
847.022	15108
847.158	15009
847.294	15176
847.429	15089
847.565	15043
847.701	15310
847.837	14838
847.972	14735
848.108	14857
848.244	14963
848.379	14686
848.515	14720
848.65	14731
848.786	14716
848.921	14632
849.057	14754
849.192	14792
849.328	14682
849.463	14781
849.598	14644
849.734	14617
849.869	14583
850.004	14476
850.14	14499
850.275	14454
850.41	14271
850.545	14438
850.68	14370
850.815	14415
850.95	14465
851.085	14689
851.22	14556
851.355	14545
851.49	14404
851.625	14370
851.76	14465
851.895	14377
852.03	14332
852.165	14389
852.299	14469
852.434	14423
852.569	14461
852.703	14484
852.838	14442
852.973	14511
853.107	14598
853.242	14427
853.376	14317
853.511	14172
853.645	14355
853.78	14370
853.914	14248
854.048	14282
854.183	14290
854.317	14339
854.451	14461
854.585	14328
854.72	14259
854.854	14370
854.988	14210
855.122	14263
855.256	14130
855.39	14355
855.524	14355
855.658	14282
855.792	14282
855.926	14298
856.06	14343
856.194	14415
856.327	14355
856.461	14282
856.595	14328
856.729	14187
856.862	14476
856.996	14366
857.13	14469
857.263	14434
857.397	14389
857.53	14320
857.664	14419
857.797	14396
857.931	14499
858.064	14347
858.197	14438
858.331	14252
858.464	14206
858.597	14176
858.731	14309
858.864	14271
858.997	14328
859.13	14282
859.263	14294
859.396	14393
859.529	14278
859.662	14199
859.795	14278
859.928	14309
860.061	14389
860.194	14503
860.327	14305
860.46	14301
860.592	14454
860.725	14438
860.858	14434
860.99	14278
861.123	14153
861.256	14229
861.388	14294
861.521	14925
861.653	14244
861.786	14138
861.918	14092
862.05	14252
862.183	14252
862.315	14355
862.447	14278
862.58	14210
862.712	14035
862.844	14096
862.976	14278
863.108	14103
863.24	14507
863.372	13947
863.504	13982
863.636	14081
863.768	14115
863.9	14096
864.032	14016
864.164	14039
864.296	14012
864.428	14130
864.559	14218
864.691	14301
864.823	14244
864.954	14271
865.086	14138
865.217	14115
865.349	14039
865.48	14065
865.612	14062
865.743	14138
865.875	14134
866.006	14054
866.137	14001
866.269	14103
866.4	14088
866.531	14020
866.662	13909
866.793	13963
866.924	13997
867.055	14115
867.186	14035
867.317	14077
867.448	13936
867.579	13955
867.71	13959
867.841	13982
867.972	14145
868.103	13989
868.233	14103
868.364	14145
868.495	14119
868.625	14305
868.756	14343
868.886	14168
869.017	14317
869.147	14317
869.278	14419
869.408	14362
869.539	14278
869.669	14423
869.799	14404
869.929	14454
870.06	14366
870.19	14697
870.32	14724
870.45	14621
870.58	14724
870.71	14845
870.84	14746
870.97	14746
871.1	14872
871.23	14861
871.36	15028
871.489	14800
871.619	14883
871.749	14883
871.879	14929
872.008	15039
872.138	14902
872.267	14853
872.397	14826
872.526	14693
872.656	14735
872.785	14746
872.915	15020
873.044	15017
873.173	14895
873.303	14994
873.432	15051
873.561	15032
873.69	14975
873.819	14921
873.948	15112
874.077	14937
874.206	14861
874.335	15036
874.464	15127
874.593	15214
874.722	15154
874.851	15351
874.979	15313
875.108	15408
875.237	15275
875.365	15173
875.494	15233
875.623	15374
875.751	15275
875.88	15291
876.008	15435
876.136	15515
876.265	15694
876.393	15732
876.521	15656
876.65	15865
876.778	15713
876.906	15606
877.034	15663
877.162	15595
877.29	15747
877.418	15663
877.546	15625
877.674	15686
877.802	15667
877.93	15747
878.058	15656
878.185	15561
878.313	15637
878.441	15732
878.568	15568
878.696	15610
878.824	15648
878.951	15850
879.079	15907
879.206	16067
879.333	15808
879.461	15724
879.588	15751
879.715	15842
879.842	15994
879.97	15778
880.097	15644
880.224	15405
880.351	15530
880.478	15629
880.605	15584
880.732	15511
880.859	15774
880.986	15622
881.112	15511
881.239	15469
881.366	15363
881.493	15317
881.619	15203
881.746	15169
881.872	15298
881.999	15351
882.125	15256
882.252	15241
882.378	15211
882.505	15401
882.631	15093
882.757	15043
882.883	15127
883.01	15085
883.136	14994
883.262	14918
883.388	14834
883.514	15020
883.64	15085
883.766	15020
883.892	14804
884.018	14777
884.143	15005
884.269	15058
884.395	14785
884.52	14724
884.646	14807
884.772	14632
884.897	14621
885.023	14777
885.148	14830
885.274	14872
885.399	14826
885.524	14689
885.65	14613
885.775	14735
885.9	14731
886.025	14788
886.15	14864
886.275	14735
886.4	14708
886.525	14686
886.65	14560
886.775	14670
886.9	14819
887.025	14990
887.149	14686
887.274	14492
887.399	14526
887.523	14442
887.648	14484
887.773	14412
887.897	14541
888.021	14705
888.146	14488
888.27	14598
888.395	14682
888.519	14602
888.643	14594
888.767	14545
888.891	14469
889.015	14419
889.139	14415
889.263	14370
889.387	14606
889.511	14610
889.635	14469
889.759	14408
889.883	14355
890.006	14328
890.13	14526
890.254	14400
890.377	14389
890.501	14195
890.624	14256
890.748	14259
890.871	14244
890.995	14119
891.118	13982
891.241	14008
891.364	14058
891.488	14214
891.611	14130
891.734	14103
891.857	14195
891.98	14134
892.103	14111
892.226	14202
892.349	14096
892.471	13989
892.594	14065
892.717	14065
892.839	14069
892.962	14145
893.085	14130
893.207	14130
893.33	13944
893.452	14020
893.575	14187
893.697	14054
893.819	14275
893.941	14305
894.064	14218
894.186	14069
894.308	14096
894.43	14191
894.552	14221
894.674	14218
894.796	14161
894.918	14119
895.04	14142
895.161	14225
895.283	14149
895.405	14164
895.526	14191
895.648	14142
895.769	14168
895.891	14282
896.012	14244
896.134	14252
896.255	14271
896.376	14138
896.498	14290
896.619	14374
896.74	14290
896.861	14415
896.982	14598
897.103	14819
897.224	14625
897.345	14518
897.466	14507
897.587	14552
897.708	14701
897.828	14594
897.949	14571
898.07	14492
898.19	14689
898.311	14765
898.431	14568
898.552	14667
898.672	14743
898.792	14777
898.913	14693
899.033	14625
899.153	14541
899.273	14408
899.393	14518
899.513	14514
899.633	14503
899.753	14434
899.873	14545
899.993	14507
900.113	14526
900.232	14583
900.352	14465
900.472	14286
900.591	14347
900.711	14446
900.83	14343
900.95	14408
901.069	14454
901.189	14252
901.308	14065
901.427	13978
901.546	13947
901.665	14016
901.784	14115
901.904	14016
902.023	13852
902.141	13704
902.26	13620
902.379	13613
902.498	13575
902.617	13502
902.735	13658
902.854	13578
902.973	13563
903.091	13346
903.21	13358
903.328	13343
903.446	13354
903.565	13160
903.683	13236
903.801	13122
903.919	13156
904.038	13179
904.156	13038
904.274	13053
904.392	12996
904.51	12993
904.627	12939
904.745	12958
904.863	12981
904.981	12715
905.098	12646
905.216	12608
905.334	12696
905.451	12726
905.569	12707
905.686	12658
905.803	12726
905.921	12486
906.038	12551
906.155	12555
906.272	12391
906.389	12460
906.506	12342
906.623	12239
906.74	12342
906.857	12163
906.974	12175
907.091	12384
907.208	12448
907.324	12281
907.441	12163
907.557	12060
907.674	12057
907.79	11916
907.907	11942
908.023	12034
908.139	12034
908.256	11950
908.372	11980
908.488	11920
908.604	11794
908.72	11699
908.836	11794
908.952	11741
909.068	11786
909.184	11920
909.3	11726
909.415	11802
909.531	11794
909.647	11589
909.762	11539
909.878	11463
909.993	11482
910.108	11566
910.224	11501
910.339	11577
910.454	11440
910.57	11398
910.685	11379
910.8	11653
910.915	11490
911.03	11402
911.145	11170
911.259	11246
911.374	11216
911.489	11159
911.604	11006
911.718	11025
911.833	11029
911.947	10892
912.062	10869
912.176	10908
912.291	11048
912.405	10987
912.519	11170
912.633	11223
912.748	11048
912.862	11018
912.976	10866
913.09	10778
913.204	10854
913.318	10850
913.431	10972
913.545	10999
913.659	10953
913.772	10801
913.886	10740
914	10733
914.113	10854
914.226	10911
914.34	10839
914.453	10691
914.566	10900
914.68	10702
914.793	10694
914.906	10561
915.019	10459
915.132	10386
915.245	10455
915.358	10500
915.47	10432
915.583	10489
915.696	10573
915.809	10611
915.921	10615
916.034	10485
916.146	10550
916.259	10413
916.371	10580
916.483	10504
916.595	10367
916.708	10531
916.82	10508
916.932	10390
917.044	10367
917.156	10390
917.268	10299
917.38	10375
917.491	10333
917.603	10413
917.715	10424
917.826	10421
917.938	10325
918.049	10219
918.161	10443
918.272	10459
918.384	10504
918.495	10356
918.606	10204
918.717	10101
918.828	10188
918.939	10287
919.05	10093
919.161	10223
919.272	10055
919.383	10082
919.494	10230
919.604	10481
919.715	10276
919.826	10093
919.936	10192
920.047	10261
920.157	10200
920.267	10504
920.378	10253
920.488	10272
920.598	10390
920.708	10561
920.818	10447
920.928	10436
921.038	10558
921.148	10538
921.258	10268
921.368	10234
921.477	10090
921.587	10017
921.697	10017
921.806	10128
921.916	10036
922.025	9690
922.134	9789
922.244	9713
922.353	9880
922.462	9656
922.571	9625
922.68	9557
922.789	9492
922.898	9492
923.007	9382
923.116	9538
923.224	9443
923.333	9481
923.442	9348
923.55	9340
923.659	9393
923.767	9431
923.876	9382
923.984	9424
924.092	9329
924.201	9416
924.309	9466
924.417	9348
924.525	9226
924.633	9325
924.741	10272
924.849	9070
924.956	9272
925.064	9119
925.172	9119
925.279	9150
925.387	9184
925.494	9157
925.602	9268
925.709	9211
925.816	9055
925.924	9104
926.031	9298
926.138	9142
926.245	9199
926.352	9116
926.459	9230
926.566	9195
926.673	9085
926.779	8998
926.886	8971
926.993	8868
927.099	8880
927.206	8785
927.312	8773
927.419	8868
927.525	8823
927.631	8883
927.737	8781
927.843	8716
927.95	8648
928.056	8697
928.162	8739
928.267	8800
928.373	9428
928.479	8857
928.585	8636
928.69	8617
928.796	8769
928.901	8697
929.007	8480
929.112	8659
929.218	8594
929.323	8602
929.428	8552
929.533	8712
929.638	8492
929.743	8602
929.848	8594
929.953	8541
930.058	8431
930.163	8328
930.267	8374
930.372	8381
930.477	8366
930.581	8579
930.685	8400
930.79	8271
930.894	8336
930.998	8282
931.103	8400
931.207	8039
931.311	7940
931.415	7986
931.519	7826
931.623	7795
