Data from test_V78500241_1120.txt Node
Date: Fri Mar 25 14:41:30 CST 2022
User: usil
Spectrometer: V785-0024
Trigger mode: 0
Integration Time (sec): 4.000000E-1
Scans to average: 1
Nonlinearity correction enabled: false
Boxcar width: 0
Storing dark spectrum: false
XAxis mode: Wavelengths
Number of Pixels in Spectrum: 1024
>>>>>Begin Spectral Data<<<<<
801.071	22596
801.214	22645
801.356	22363
801.499	22177
801.641	22101
801.783	21994
801.926	21945
802.068	21899
802.211	21686
802.353	21728
802.496	21515
802.638	21458
802.78	21564
802.923	21462
803.065	21241
803.208	21302
803.35	21310
803.492	21481
803.635	21488
803.777	21230
803.919	21454
804.061	21622
804.204	21420
804.346	21283
804.488	21108
804.63	21302
804.773	21131
804.915	21256
805.057	21374
805.199	21268
805.341	21355
805.483	21310
805.626	21397
805.768	21100
805.91	21294
806.052	21302
806.194	21192
806.336	21428
806.478	21195
806.62	21287
806.762	21332
806.904	21488
807.046	21686
807.188	21629
807.33	21671
807.472	21739
807.614	21564
807.756	21603
807.898	21428
808.04	21557
808.182	21606
808.324	21542
808.465	21713
808.607	21819
808.749	21899
808.891	22093
809.033	22074
809.174	22074
809.316	21907
809.458	21934
809.6	21846
809.741	21850
809.883	21911
810.025	21895
810.166	21922
810.308	21816
810.45	21880
810.591	21698
810.733	21542
810.875	21515
811.016	21386
811.158	21424
811.299	21603
811.441	21686
811.582	21576
811.724	21511
811.865	21355
812.007	21485
812.148	21466
812.29	21564
812.431	21610
812.573	21907
812.714	21835
812.855	21926
812.997	22029
813.138	22230
813.279	22074
813.421	21960
813.562	21899
813.703	21686
813.845	21637
813.986	21348
814.127	21256
814.268	21051
814.41	21039
814.551	21100
814.692	21005
814.833	20914
814.974	20876
815.115	21055
815.256	20796
815.397	20895
815.539	20720
815.68	20746
815.821	20731
815.962	20781
816.103	20693
816.244	20617
816.385	20476
816.526	20469
816.666	20328
816.807	20126
816.948	20206
817.089	20294
817.23	20248
817.371	20069
817.512	20240
817.653	20126
817.793	20084
817.934	20122
818.075	20263
818.216	20145
818.356	20122
818.497	19887
818.638	19849
818.778	19906
818.919	19951
819.06	19955
819.2	19906
819.341	20096
819.481	20115
819.622	20206
819.762	20332
819.903	20290
820.043	20111
820.184	20119
820.324	20088
820.465	20195
820.605	20142
820.746	20126
820.886	19856
821.026	20286
821.167	20164
821.307	20168
821.447	20043
821.588	19970
821.728	19841
821.868	19601
822.008	19563
822.149	19499
822.289	19472
822.429	19274
822.569	19282
822.709	19179
822.849	19038
822.99	19027
823.13	18970
823.27	19000
823.41	18825
823.55	18776
823.69	18795
823.83	18928
823.97	18848
824.11	18692
824.25	18540
824.389	18559
824.529	18684
824.669	18612
824.809	18616
824.949	18677
825.089	18772
825.228	18620
825.368	18384
825.508	18429
825.648	18422
825.787	18483
825.927	18369
826.067	18391
826.206	18361
826.346	18376
826.485	18399
826.625	18304
826.765	18509
826.904	18388
827.044	18155
827.183	18049
827.323	18117
827.462	18197
827.601	18213
827.741	18110
827.88	18060
828.02	17977
828.159	18068
828.298	18087
828.437	18152
828.577	18003
828.716	18277
828.855	17984
828.994	17847
829.134	17805
829.273	17942
829.412	17870
829.551	17756
829.69	17904
829.829	17870
829.968	17965
830.107	17847
830.246	17942
830.385	17813
830.524	17741
830.663	17646
830.802	17596
830.941	17539
831.08	17448
831.219	17505
831.357	17589
831.496	17695
831.635	17372
831.774	17330
831.913	17277
832.051	17212
832.19	17239
832.329	17379
832.467	17193
832.606	17052
832.744	17094
832.883	17193
833.022	17128
833.16	17197
833.299	17299
833.437	17208
833.576	17239
833.714	17193
833.852	17254
833.991	17303
834.129	17265
834.267	17273
834.406	17200
834.544	17159
834.682	17208
834.821	17162
834.959	17459
835.097	17231
835.235	17345
835.373	17273
835.511	17200
835.65	17132
835.788	17083
835.926	16961
836.064	16961
836.202	16942
836.34	17140
836.478	17227
836.615	17147
836.753	17105
836.891	17166
837.029	17140
837.167	17022
837.305	17033
837.443	16938
837.58	17033
837.718	17033
837.856	16942
837.993	17022
838.131	16995
838.269	16866
838.406	16896
838.544	16866
838.681	16824
838.819	16729
838.956	16481
839.094	16470
839.231	16554
839.369	16672
839.506	16881
839.643	16786
839.781	16558
839.918	16398
840.055	16481
840.193	16432
840.33	16417
840.467	16542
840.604	16421
840.742	16744
840.879	16398
841.016	16390
841.153	16421
841.29	16649
841.427	16569
841.564	16459
841.701	16474
841.838	16440
841.975	16417
842.112	16382
842.249	16299
842.385	16185
842.522	16497
842.659	16306
842.796	16223
842.933	16265
843.069	16287
843.206	16226
843.343	16363
843.479	16325
843.616	16375
843.752	16078
843.889	16078
844.025	16158
844.162	15975
844.298	16192
844.435	16002
844.571	16032
844.708	16135
844.844	16314
844.98	16276
845.117	16230
845.253	16120
845.389	16025
845.525	16044
845.661	16200
845.798	16131
845.934	16147
846.07	16223
846.206	16265
846.342	16348
846.478	16131
846.614	15770
846.75	15679
846.886	15538
847.022	15751
847.158	15694
847.294	15667
847.429	15667
847.565	15542
847.701	15835
847.837	15401
847.972	15382
848.108	15450
848.244	15332
848.379	15317
848.515	15325
848.65	15192
848.786	15226
848.921	15222
849.057	15249
849.192	15382
849.328	15298
849.463	15222
849.598	15230
849.734	15119
849.869	15104
850.004	15051
850.14	15085
850.275	14975
850.41	14807
850.545	14891
850.68	14982
850.815	15081
850.95	14925
851.085	15161
851.22	15070
851.355	15028
851.49	14952
851.625	14895
851.76	14963
851.895	14910
852.03	14849
852.165	14986
852.299	15036
852.434	15036
852.569	14975
852.703	15024
852.838	15039
852.973	15108
853.107	15074
853.242	14921
853.376	14880
853.511	14754
853.645	14845
853.78	14979
853.914	14880
854.048	14765
854.183	14914
854.317	14941
854.451	15055
854.585	14823
854.72	14819
854.854	14883
854.988	14610
855.122	14800
855.256	14712
855.39	14868
855.524	14834
855.658	14921
855.792	14971
855.926	14899
856.06	14910
856.194	14982
856.327	14800
856.461	14701
856.595	14792
856.729	14811
856.862	14929
856.996	14868
857.13	14918
857.263	14941
857.397	14902
857.53	14845
857.664	14811
857.797	14948
857.931	14979
858.064	14819
858.197	14986
858.331	14895
858.464	14781
858.597	14655
858.731	14815
858.864	14861
858.997	14807
859.13	14876
859.263	14804
859.396	14891
859.529	14819
859.662	14826
859.795	14819
859.928	14895
860.061	14944
860.194	15032
860.327	14861
860.46	14880
860.592	14941
860.725	15055
860.858	14971
860.99	14868
861.123	14754
861.256	14811
861.388	14868
861.521	15538
861.653	14765
861.786	14731
861.918	14659
862.05	14750
862.183	14781
862.315	14921
862.447	14804
862.58	14838
862.712	14659
862.844	14583
862.976	14823
863.108	14731
863.24	15157
863.372	14495
863.504	14682
863.636	14720
863.768	14632
863.9	14594
864.032	14606
864.164	14621
864.296	14678
864.428	14792
864.559	14670
864.691	14727
864.823	14686
864.954	14731
865.086	14701
865.217	14670
865.349	14568
865.48	14613
865.612	14743
865.743	14792
865.875	14659
866.006	14625
866.137	14602
866.269	14682
866.4	14579
866.531	14583
866.662	14602
866.793	14644
866.924	14712
867.055	14663
867.186	14674
867.317	14636
867.448	14545
867.579	14651
867.71	14564
867.841	14610
867.972	14682
868.103	14606
868.233	14670
868.364	14701
868.495	14625
868.625	14880
868.756	15066
868.886	14758
869.017	14921
869.147	15017
869.278	15100
869.408	14956
869.539	15009
869.669	15013
869.799	14963
869.929	15028
870.06	14960
870.19	15173
870.32	15207
870.45	15211
870.58	15283
870.71	15367
870.84	15336
870.97	15230
871.1	15131
871.23	15431
871.36	15515
871.489	15382
871.619	15428
871.749	15431
871.879	15561
872.008	15614
872.138	15519
872.267	15496
872.397	15397
872.526	15256
872.656	15351
872.785	15287
872.915	15466
873.044	15614
873.173	15538
873.303	15553
873.432	15587
873.561	15614
873.69	15553
873.819	15534
873.948	15622
874.077	15587
874.206	15519
874.335	15580
874.464	15789
874.593	15770
874.722	15690
874.851	15835
874.979	15873
875.108	15865
875.237	15785
875.365	15785
875.494	15812
875.623	15888
875.751	15835
875.88	15869
876.008	15915
876.136	16090
876.265	16147
876.393	16367
876.521	16371
876.65	16318
876.778	16154
876.906	16185
877.034	16257
877.162	16219
877.29	16215
877.418	16318
877.546	16280
877.674	16238
877.802	16322
877.93	16287
878.058	16128
878.185	16044
878.313	16265
878.441	16287
878.568	16109
878.696	16234
878.824	16303
878.951	16314
879.079	16493
879.206	16824
879.333	16561
879.461	16462
879.588	16588
879.715	16618
879.842	16717
879.97	16500
880.097	16238
880.224	16204
880.351	16169
880.478	16109
880.605	16105
880.732	16181
880.859	16417
880.986	16139
881.112	16147
881.239	16097
881.366	15850
881.493	15736
881.619	15804
881.746	15895
881.872	15857
881.999	15774
882.125	15793
882.252	15698
882.378	15930
882.505	15930
882.631	15743
882.757	15458
882.883	15644
883.01	15584
883.136	15454
883.262	15519
883.388	15485
883.514	15667
883.64	15675
883.766	15572
883.892	15405
884.018	15492
884.143	15564
884.269	15717
884.395	15386
884.52	15272
884.646	15279
884.772	15252
884.897	15157
885.023	15230
885.148	15348
885.274	15439
885.399	15389
885.524	15287
885.65	15294
885.775	15393
885.9	15291
886.025	15401
886.15	15401
886.275	15207
886.4	15245
886.525	15249
886.65	15214
886.775	15256
886.9	15515
887.025	15545
887.149	15264
887.274	15146
887.399	15085
887.523	15017
887.648	15062
887.773	15062
887.897	15195
888.021	15199
888.146	15058
888.27	15226
888.395	15169
888.519	15188
888.643	15173
888.767	15260
888.891	15062
889.015	14895
889.139	14933
889.263	14845
889.387	15127
889.511	15154
889.635	15001
889.759	14891
889.883	14792
890.006	14994
890.13	15043
890.254	14785
890.377	14910
890.501	14845
890.624	14739
890.748	14830
890.871	14731
890.995	14644
891.118	14492
891.241	14632
891.364	14598
891.488	14712
891.611	14541
891.734	14503
891.857	14731
891.98	14587
892.103	14686
892.226	14746
892.349	14537
892.471	14545
892.594	14579
892.717	14598
892.839	14590
892.962	14693
893.085	14663
893.207	14583
893.33	14549
893.452	14651
893.575	14731
893.697	14564
893.819	14765
893.941	14804
894.064	14796
894.186	14560
894.308	14575
894.43	14697
894.552	14899
894.674	14800
894.796	14564
894.918	14788
895.04	14583
895.161	14739
895.283	14819
895.405	14674
895.526	14773
895.648	14724
895.769	14773
895.891	14682
896.012	14887
896.134	14929
896.255	14781
896.376	14792
896.498	14796
896.619	14887
896.74	14781
896.861	14834
896.982	15093
897.103	15245
897.224	15093
897.345	15001
897.466	14937
897.587	15074
897.708	15146
897.828	15070
897.949	15081
898.07	14887
898.19	15013
898.311	15207
898.431	15085
898.552	14952
898.672	15150
898.792	15176
898.913	15119
899.033	15066
899.153	14918
899.273	14929
899.393	14963
899.513	15001
899.633	14883
899.753	14868
899.873	14902
899.993	15017
900.113	14967
900.232	15020
900.352	15005
900.472	14910
900.591	14746
900.711	14853
900.83	14762
900.95	14868
901.069	14849
901.189	14788
901.308	14537
901.427	14438
901.546	14579
901.665	14556
901.784	14511
901.904	14404
902.023	14202
902.141	14111
902.26	14065
902.379	14115
902.498	14016
902.617	13978
902.735	13993
902.854	14001
902.973	13921
903.091	13833
903.21	13746
903.328	13852
903.446	13677
903.565	13571
903.683	13647
903.801	13480
903.919	13658
904.038	13537
904.156	13434
904.274	13468
904.392	13445
904.51	13377
904.627	13369
904.745	13518
904.863	13495
904.981	13187
905.098	13023
905.216	13190
905.334	13145
905.451	13194
905.569	13065
905.686	13171
905.803	13126
905.921	13023
906.038	13034
906.155	12989
906.272	12844
906.389	12825
906.506	12700
906.623	12783
906.74	12654
906.857	12593
906.974	12631
907.091	12745
907.208	12825
907.324	12757
907.441	12547
907.557	12380
907.674	12445
907.79	12456
907.907	12330
908.023	12467
908.139	12403
908.256	12353
908.372	12350
908.488	12361
908.604	12125
908.72	12171
908.836	12175
908.952	12178
909.068	12194
909.184	12213
909.3	12258
909.415	12194
909.531	12205
909.647	12045
909.762	11961
909.878	11897
909.993	11969
910.108	11908
910.224	11923
910.339	11885
910.454	11889
910.57	11802
910.685	11733
910.8	11946
910.915	11927
911.03	11764
911.145	11688
911.259	11589
911.374	11638
911.489	11554
911.604	11570
911.718	11383
911.833	11406
911.947	11353
912.062	11193
912.176	11364
912.291	11474
912.405	11322
912.519	11486
912.633	11577
912.748	11520
912.862	11334
912.976	11235
913.09	11159
913.204	11223
913.318	11166
913.431	11341
913.545	11337
913.659	11372
913.772	11284
913.886	11109
914	11170
914.113	11231
914.226	11235
914.34	11220
914.453	11098
914.566	11193
914.68	11071
914.793	10991
914.906	10927
915.019	10930
915.132	10847
915.245	10877
915.358	10850
915.47	10919
915.583	10934
915.696	10942
915.809	11025
915.921	10980
916.034	10729
916.146	10828
916.259	10782
916.371	10847
916.483	10839
916.595	10797
916.708	10820
916.82	10824
916.932	10771
917.044	10801
917.156	10634
917.268	10626
917.38	10733
917.491	10809
917.603	10687
917.715	10752
917.826	10790
917.938	10664
918.049	10519
918.161	10691
918.272	10858
918.384	10755
918.495	10774
918.606	10615
918.717	10432
918.828	10584
918.939	10516
919.05	10459
919.161	10550
919.272	10451
919.383	10367
919.494	10565
919.604	10717
919.715	10592
919.826	10474
919.936	10535
920.047	10656
920.157	10538
920.267	10771
920.378	10596
920.488	10519
920.598	10824
920.708	10854
920.818	10733
920.928	10683
921.038	10896
921.148	10820
921.258	10607
921.368	10474
921.477	10424
921.587	10394
921.697	10272
921.806	10485
921.916	10344
922.025	10105
922.134	10120
922.244	9979
922.353	10128
922.462	9960
922.571	9987
922.68	9797
922.789	9793
922.898	9778
923.007	9793
923.116	9778
923.224	9842
923.333	9823
923.442	9660
923.55	9656
923.659	9709
923.767	9682
923.876	9720
923.984	9804
924.092	9625
924.201	9717
924.309	9660
924.417	9625
924.525	9675
924.633	9667
924.741	10436
924.849	9412
924.956	9629
925.064	9447
925.172	9374
925.279	9447
925.387	9443
925.494	9389
925.602	9584
925.709	9492
925.816	9306
925.924	9485
926.031	9496
926.138	9428
926.245	9462
926.352	9325
926.459	9534
926.566	9584
926.673	9355
926.779	9249
926.886	9302
926.993	9104
927.099	9233
927.206	9032
927.312	9066
927.419	9165
927.525	9112
927.631	9097
927.737	9001
927.843	8982
927.95	8845
928.056	9051
928.162	9039
928.267	9138
928.373	9717
928.479	9165
928.585	8910
928.69	8986
928.796	9100
928.901	8906
929.007	8781
929.112	8986
929.218	8872
929.323	8910
929.428	8918
929.533	9032
929.638	8754
929.743	8781
929.848	8902
929.953	8872
930.058	8735
930.163	8556
930.267	8659
930.372	8819
930.477	8514
930.581	8830
930.685	8705
930.79	8480
930.894	8629
930.998	8575
931.103	8735
931.207	8358
931.311	8301
931.415	8195
931.519	8016
931.623	8069
