Data from test_V78500241_3253.txt Node
Date: Fri Mar 25 14:56:21 CST 2022
User: usil
Spectrometer: V785-0024
Trigger mode: 0
Integration Time (sec): 4.000000E-1
Scans to average: 1
Nonlinearity correction enabled: false
Boxcar width: 0
Storing dark spectrum: false
XAxis mode: Wavelengths
Number of Pixels in Spectrum: 1024
>>>>>Begin Spectral Data<<<<<
801.071	21876
801.214	21903
801.356	21599
801.499	21553
801.641	21317
801.783	21306
801.926	21355
802.068	21264
802.211	21241
802.353	21096
802.496	20887
802.638	20845
802.78	20826
802.923	20724
803.065	20651
803.208	20613
803.35	20632
803.492	20716
803.635	20811
803.777	20659
803.919	20819
804.061	21081
804.204	20804
804.346	20549
804.488	20583
804.63	20686
804.773	20476
804.915	20583
805.057	20663
805.199	20556
805.341	20659
805.483	20750
805.626	20644
805.768	20552
805.91	20579
806.052	20716
806.194	20594
806.336	20708
806.478	20598
806.62	20560
806.762	20701
806.904	20883
807.046	20910
807.188	20914
807.33	20830
807.472	20842
807.614	20823
807.756	20937
807.898	20739
808.04	20575
808.182	20655
808.324	20735
808.465	20743
808.607	20880
808.749	20941
808.891	20948
809.033	21119
809.174	20967
809.316	20910
809.458	20941
809.6	20921
809.741	21017
809.883	20906
810.025	21123
810.166	21104
810.308	21199
810.45	20979
810.591	20941
810.733	20781
810.875	20659
811.016	20804
811.158	20617
811.299	20773
811.441	20960
811.582	20857
811.724	20743
811.865	20697
812.007	20826
812.148	20697
812.29	20769
812.431	20826
812.573	21047
812.714	21142
812.855	21211
812.997	21310
813.138	21416
813.279	21241
813.421	21252
813.562	21123
813.703	20819
813.845	20792
813.986	20602
814.127	20328
814.268	20317
814.41	20301
814.551	20233
814.692	20240
814.833	20103
814.974	20313
815.115	20301
815.256	19940
815.397	20161
815.539	20122
815.68	19959
815.821	19925
815.962	20111
816.103	19989
816.244	19799
816.385	19674
816.526	19681
816.666	19594
816.807	19339
816.948	19582
817.089	19533
817.23	19407
817.371	19381
817.512	19343
817.653	19392
817.793	19308
817.934	19251
818.075	19419
818.216	19270
818.356	19373
818.497	19209
818.638	19088
818.778	19027
818.919	19069
819.06	19133
819.2	19187
819.341	19289
819.481	19270
819.622	19449
819.762	19616
819.903	19468
820.043	19460
820.184	19400
820.324	19293
820.465	19419
820.605	19384
820.746	19415
820.886	19285
821.026	19213
821.167	19301
821.307	19270
821.447	19206
821.588	19228
821.728	19053
821.868	18989
822.008	18734
822.149	18715
822.289	18802
822.429	18456
822.569	18498
822.709	18452
822.849	18216
822.99	18334
823.13	18372
823.27	18262
823.41	18098
823.55	17988
823.69	18114
823.83	18095
823.97	17923
824.11	17836
824.25	17741
824.389	17794
824.529	17912
824.669	17851
824.809	17931
824.949	17908
825.089	17942
825.228	17843
825.368	17722
825.508	17653
825.648	17570
825.787	17714
825.927	17596
826.067	17482
826.206	17611
826.346	17509
826.485	17577
826.625	17577
826.765	17760
826.904	17672
827.044	17398
827.183	17299
827.323	17307
827.462	17334
827.601	17383
827.741	17174
827.88	17151
828.02	17166
828.159	17231
828.298	17368
828.437	17318
828.577	17299
828.716	17448
828.855	17231
828.994	17197
829.134	17071
829.273	17056
829.412	17052
829.551	17056
829.69	17025
829.829	17025
829.968	17143
830.107	17083
830.246	17132
830.385	17056
830.524	16953
830.663	16839
830.802	16809
830.941	16790
831.08	16577
831.219	16763
831.357	16725
831.496	16930
831.635	16649
831.774	16561
831.913	16675
832.051	16527
832.19	16398
832.329	16538
832.467	16379
832.606	16367
832.744	16352
832.883	16402
833.022	16352
833.16	16451
833.299	16329
833.437	16371
833.576	16394
833.714	16253
833.852	16440
833.991	16375
834.129	16489
834.267	16402
834.406	16394
834.544	16428
834.682	16405
834.821	16409
834.959	16493
835.097	16363
835.235	16588
835.373	16382
835.511	16443
835.65	16386
835.788	16360
835.926	16318
836.064	16249
836.202	16234
836.34	16417
836.478	16504
836.615	16325
836.753	16390
836.891	16436
837.029	16379
837.167	16329
837.305	16310
837.443	16169
837.58	16169
837.718	16272
837.856	16192
837.993	16215
838.131	16242
838.269	16040
838.406	16223
838.544	16139
838.681	16040
838.819	15816
838.956	15804
839.094	15835
839.231	15827
839.369	16013
839.506	16211
839.643	16002
839.781	15804
839.918	15827
840.055	15789
840.193	15732
840.33	15675
840.467	15804
840.604	15835
840.742	16048
840.879	15633
841.016	15724
841.153	15679
841.29	15861
841.427	15755
841.564	15857
841.701	15808
841.838	15728
841.975	15705
842.112	15701
842.249	15568
842.385	15572
842.522	15762
842.659	15603
842.796	15473
842.933	15618
843.069	15504
843.206	15526
843.343	15572
843.479	15603
843.616	15576
843.752	15420
843.889	15378
844.025	15587
844.162	15230
844.298	15466
844.435	15340
844.571	15351
844.708	15431
844.844	15454
844.98	15458
845.117	15374
845.253	15359
845.389	15184
845.525	15214
845.661	15169
845.798	15047
845.934	15195
846.07	15150
846.206	15176
846.342	15275
846.478	15108
846.614	14982
846.75	14929
846.886	14807
847.022	14967
847.158	14914
847.294	14899
847.429	14960
847.565	14921
847.701	15169
847.837	14674
847.972	14682
848.108	14758
848.244	14686
848.379	14587
848.515	14446
848.65	14495
848.786	14511
848.921	14537
849.057	14648
849.192	14469
849.328	14594
849.463	14530
849.598	14518
849.734	14454
849.869	14286
850.004	14317
850.14	14324
850.275	14286
850.41	14275
850.545	14240
850.68	14244
850.815	14396
850.95	14343
851.085	14404
851.22	14450
851.355	14351
851.49	14199
851.625	14244
851.76	14244
851.895	14145
852.03	14164
852.165	14073
852.299	14248
852.434	14366
852.569	14286
852.703	14229
852.838	14351
852.973	14507
853.107	14480
853.242	14256
853.376	14096
853.511	14005
853.645	14111
853.78	14202
853.914	14157
854.048	14218
854.183	14058
854.317	14206
854.451	14324
854.585	14199
854.72	14199
854.854	14206
854.988	13993
855.122	14111
855.256	13913
855.39	14119
855.524	14286
855.658	14153
855.792	14111
855.926	14172
856.06	14267
856.194	14328
856.327	14161
856.461	14001
856.595	14069
856.729	14016
856.862	14202
856.996	14256
857.13	14180
857.263	14218
857.397	14286
857.53	14134
857.664	14233
857.797	14275
857.931	14301
858.064	14214
858.197	14233
858.331	14092
858.464	14153
858.597	14084
858.731	14142
858.864	14206
858.997	14130
859.13	14176
859.263	14153
859.396	14313
859.529	14001
859.662	14244
859.795	14126
859.928	14161
860.061	14244
860.194	14385
860.327	14180
860.46	14081
860.592	14275
860.725	14328
860.858	14180
860.99	14115
861.123	14062
861.256	14096
861.388	14161
861.521	14861
861.653	14012
861.786	13982
861.918	14050
862.05	14126
862.183	14271
862.315	14161
862.447	14180
862.58	14134
862.712	13909
862.844	13780
862.976	13963
863.108	14035
863.24	14172
863.372	13864
863.504	13989
863.636	14024
863.768	13940
863.9	13978
864.032	13860
864.164	13906
864.296	13967
864.428	13993
864.559	14088
864.691	14016
864.823	13993
864.954	13879
865.086	13944
865.217	13917
865.349	13830
865.48	13887
865.612	13906
865.743	14043
865.875	13879
866.006	13917
866.137	13921
866.269	13879
866.4	13921
866.531	13921
866.662	13883
866.793	13841
866.924	13944
867.055	13982
867.186	13879
867.317	13814
867.448	13738
867.579	13845
867.71	13883
867.841	13780
867.972	13906
868.103	13936
868.233	13883
868.364	13978
868.495	14016
868.625	14142
868.756	14298
868.886	14191
869.017	14176
869.147	14324
869.278	14240
869.408	14252
869.539	14202
869.669	14271
869.799	14393
869.929	14415
870.06	14377
870.19	14480
870.32	14461
870.45	14526
870.58	14640
870.71	14796
870.84	14674
870.97	14644
871.1	14571
871.23	14746
871.36	14796
871.489	14876
871.619	14804
871.749	14853
871.879	14826
872.008	14952
872.138	14769
872.267	14777
872.397	14701
872.526	14697
872.656	14674
872.785	14689
872.915	14792
873.044	14906
873.173	14807
873.303	14971
873.432	14872
873.561	14971
873.69	14906
873.819	14845
873.948	14975
874.077	14941
874.206	14891
874.335	14918
874.464	15032
874.593	15150
874.722	15097
874.851	15150
874.979	15154
875.108	15211
875.237	15089
875.365	15142
875.494	15138
875.623	15199
875.751	15169
875.88	15344
876.008	15359
876.136	15367
876.265	15679
876.393	15656
876.521	15648
876.65	15637
876.778	15557
876.906	15530
877.034	15530
877.162	15660
877.29	15614
877.418	15545
877.546	15572
877.674	15656
877.802	15644
877.93	15523
878.058	15587
878.185	15534
878.313	15553
878.441	15424
878.568	15523
878.696	15526
878.824	15591
878.951	15690
879.079	15804
879.206	15934
879.333	15778
879.461	15553
879.588	15694
879.715	15774
879.842	15873
879.97	15720
880.097	15424
880.224	15458
880.351	15485
880.478	15507
880.605	15492
880.732	15348
880.859	15671
880.986	15424
881.112	15454
881.239	15325
881.366	15294
881.493	15077
881.619	15070
881.746	15051
881.872	15199
881.999	15138
882.125	15051
882.252	15218
882.378	14998
882.505	15184
882.631	15009
882.757	14887
882.883	14967
883.01	14883
883.136	14834
883.262	14765
883.388	14689
883.514	14925
883.64	14990
883.766	14906
883.892	14807
884.018	14743
884.143	14929
884.269	15009
884.395	14743
884.52	14629
884.646	14659
884.772	14590
884.897	14602
885.023	14644
885.148	14750
885.274	14826
885.399	14769
885.524	14701
885.65	14648
885.775	14632
885.9	14659
886.025	14727
886.15	14781
886.275	14594
886.4	14571
886.525	14617
886.65	14412
886.775	14579
886.9	14769
887.025	14815
887.149	14598
887.274	14396
887.399	14442
887.523	14415
887.648	14400
887.773	14351
887.897	14530
888.021	14518
888.146	14366
888.27	14552
888.395	14610
888.519	14473
888.643	14526
888.767	14530
888.891	14381
889.015	14332
889.139	14396
889.263	14282
889.387	14446
889.511	14514
889.635	14507
889.759	14301
889.883	14320
890.006	14454
890.13	14495
890.254	14218
890.377	14290
890.501	14233
890.624	14103
890.748	14233
890.871	14096
890.995	13925
891.118	13936
891.241	14031
891.364	14058
891.488	14100
891.611	14115
891.734	14024
891.857	14031
891.98	14111
892.103	14115
892.226	14020
892.349	13959
892.471	13909
892.594	14073
892.717	14012
892.839	14035
892.962	14050
893.085	14107
893.207	13997
893.33	13925
893.452	14046
893.575	14092
893.697	14012
893.819	14195
893.941	14214
894.064	14092
894.186	14027
894.308	13982
894.43	14142
894.552	14259
894.674	14237
894.796	14001
894.918	14142
895.04	13967
895.161	14115
895.283	14153
895.405	14123
895.526	14100
895.648	14195
895.769	14267
895.891	14153
896.012	14301
896.134	14210
896.255	14130
896.376	14176
896.498	14244
896.619	14320
896.74	14176
896.861	14237
896.982	14541
897.103	14568
897.224	14495
897.345	14393
897.466	14320
897.587	14442
897.708	14537
897.828	14495
897.949	14400
898.07	14309
898.19	14450
898.311	14571
898.431	14530
898.552	14503
898.672	14583
898.792	14708
898.913	14594
899.033	14385
899.153	14415
899.273	14263
899.393	14362
899.513	14377
899.633	14389
899.753	14400
899.873	14332
899.993	14537
900.113	14309
900.232	14476
900.352	14415
900.472	14290
900.591	14240
900.711	14343
900.83	14187
900.95	14389
901.069	14412
901.189	14237
901.308	14039
901.427	13959
901.546	13947
901.665	14035
901.784	13993
901.904	13818
902.023	13807
902.141	13487
902.26	13540
902.379	13586
902.498	13518
902.617	13537
902.735	13464
902.854	13426
902.973	13464
903.091	13343
903.21	13285
903.328	13293
903.446	13225
903.565	13038
903.683	13183
903.801	12947
903.919	13034
904.038	13091
904.156	12943
904.274	12951
904.392	12958
904.51	12977
904.627	12833
904.745	12882
904.863	12970
904.981	12791
905.098	12544
905.216	12669
905.334	12635
905.451	12639
905.569	12536
905.686	12608
905.803	12582
905.921	12391
906.038	12525
906.155	12456
906.272	12262
906.389	12346
906.506	12182
906.623	12247
906.74	12205
906.857	12083
906.974	12136
907.091	12277
907.208	12273
907.324	12201
907.441	12098
907.557	12030
907.674	11942
907.79	11908
907.907	11832
908.023	11984
908.139	12030
908.256	11882
908.372	11897
908.488	11912
908.604	11741
908.72	11619
908.836	11672
908.952	11726
909.068	11668
909.184	11859
909.3	11691
909.415	11779
909.531	11665
909.647	11429
909.762	11459
909.878	11467
909.993	11368
910.108	11414
910.224	11459
910.339	11440
910.454	11376
910.57	11299
910.685	11170
910.8	11543
910.915	11528
911.03	11307
911.145	11204
911.259	11178
911.374	11185
911.489	10991
911.604	11056
911.718	10919
911.833	10968
911.947	10900
912.062	10771
912.176	10942
912.291	10968
912.405	10904
912.519	11117
912.633	11166
912.748	10995
912.862	10889
912.976	10797
913.09	10710
913.204	10816
913.318	10786
913.431	10873
913.545	10904
913.659	10984
913.772	10771
913.886	10729
914	10645
914.113	10752
914.226	10771
914.34	10733
914.453	10558
914.566	10771
914.68	10653
914.793	10641
914.906	10421
915.019	10360
915.132	10356
915.245	10390
915.358	10379
915.47	10478
915.583	10508
915.696	10512
915.809	10569
915.921	10584
916.034	10356
916.146	10291
916.259	10322
916.371	10512
916.483	10455
916.595	10360
916.708	10360
916.82	10417
916.932	10421
917.044	10322
917.156	10314
917.268	10219
917.38	10246
917.491	10188
917.603	10246
917.715	10402
917.826	10394
917.938	10238
918.049	10143
918.161	10291
918.272	10303
918.384	10344
918.495	10291
918.606	10139
918.717	10074
918.828	10223
918.939	10169
919.05	10040
919.161	10059
919.272	9953
919.383	10013
919.494	10204
919.604	10306
919.715	10219
919.826	10048
919.936	10059
920.047	10280
920.157	10150
920.267	10322
920.378	10215
920.488	10200
920.598	10413
920.708	10527
920.818	10379
920.928	10344
921.038	10538
921.148	10527
921.258	10181
921.368	10169
921.477	10032
921.587	9979
921.697	9930
921.806	10105
921.916	9907
922.025	9759
922.134	9724
922.244	9644
922.353	9789
922.462	9648
922.571	9496
922.68	9447
922.789	9374
922.898	9389
923.007	9447
923.116	9515
923.224	9393
923.333	9382
923.442	9264
923.55	9241
923.659	9306
923.767	9367
923.876	9306
923.984	9378
924.092	9237
924.201	9329
924.309	9218
924.417	9275
924.525	9268
924.633	9283
924.741	10131
924.849	9047
924.956	9264
925.064	9062
925.172	8990
925.279	9074
925.387	9085
925.494	9123
925.602	9245
925.709	9150
925.816	9051
925.924	9093
926.031	9135
926.138	9024
926.245	9173
926.352	8998
926.459	9188
926.566	9173
926.673	9055
926.779	8963
926.886	8902
926.993	8762
927.099	8785
927.206	8659
927.312	8724
927.419	8853
927.525	8861
927.631	8864
927.737	8735
927.843	8659
927.95	8590
928.056	8689
928.162	8708
928.267	8739
928.373	9245
928.479	8766
928.585	8568
928.69	8689
928.796	8773
928.901	8610
929.007	8419
929.112	8632
929.218	8632
929.323	8495
929.428	8457
929.533	8693
929.638	8450
929.743	8473
929.848	8533
929.953	8511
930.058	8465
930.163	8279
930.267	8313
930.372	8404
930.477	8168
930.581	8465
930.685	8381
930.79	8256
930.894	8282
930.998	8183
931.103	8370
931.207	8054
931.311	7921
931.415	7898
931.519	7750
931.623	7719
