Data from test_V78500241_1555.txt Node
Date: Fri Mar 25 14:44:32 CST 2022
User: usil
Spectrometer: V785-0024
Trigger mode: 0
Integration Time (sec): 4.000000E-1
Scans to average: 1
Nonlinearity correction enabled: false
Boxcar width: 0
Storing dark spectrum: false
XAxis mode: Wavelengths
Number of Pixels in Spectrum: 1024
>>>>>Begin Spectral Data<<<<<
801.071	22265
801.214	22329
801.356	21994
801.499	21918
801.641	21736
801.783	21789
801.926	21739
802.068	21686
802.211	21614
802.353	21557
802.496	21283
802.638	21310
802.78	21207
802.923	21142
803.065	21077
803.208	21100
803.35	21180
803.492	21123
803.635	21291
803.777	21195
803.919	21203
804.061	21420
804.204	21104
804.346	21013
804.488	21047
804.63	21005
804.773	20834
804.915	21001
805.057	21093
805.199	21001
805.341	21135
805.483	21157
805.626	21173
805.768	21047
805.91	21036
806.052	21074
806.194	20994
806.336	21142
806.478	20941
806.62	20921
806.762	21032
806.904	21279
807.046	21466
807.188	21397
807.33	21458
807.472	21329
807.614	21298
807.756	21500
807.898	21306
808.04	21066
808.182	21173
808.324	21348
808.465	21218
808.607	21485
808.749	21492
808.891	21732
809.033	21762
809.174	21663
809.316	21450
809.458	21572
809.6	21382
809.741	21488
809.883	21618
810.025	21549
810.166	21587
810.308	21644
810.45	21496
810.591	21496
810.733	21336
810.875	21214
811.016	21222
811.158	21055
811.299	21192
811.441	21462
811.582	21348
811.724	21306
811.865	21074
812.007	21173
812.148	21062
812.29	21268
812.431	21428
812.573	21561
812.714	21557
812.855	21682
812.997	21698
813.138	21926
813.279	21766
813.421	21747
813.562	21534
813.703	21363
813.845	21382
813.986	21096
814.127	20838
814.268	20769
814.41	20887
814.551	20724
814.692	20804
814.833	20632
814.974	20575
815.115	20708
815.256	20613
815.397	20655
815.539	20663
815.68	20396
815.821	20313
815.962	20564
816.103	20541
816.244	20313
816.385	20221
816.526	20199
816.666	20138
816.807	19849
816.948	20005
817.089	20035
817.23	19909
817.371	19959
817.512	19887
817.653	19887
817.793	19814
817.934	19879
818.075	19856
818.216	19917
818.356	19822
818.497	19635
818.638	19506
818.778	19556
818.919	19601
819.06	19613
819.2	19803
819.341	19753
819.481	19685
819.622	19890
819.762	20016
819.903	19993
820.043	19879
820.184	19902
820.324	19936
820.465	19921
820.605	19940
820.746	19826
820.886	19696
821.026	19826
821.167	19818
821.307	19879
821.447	19788
821.588	19788
821.728	19616
821.868	19476
822.008	19324
822.149	19259
822.289	19171
822.429	19080
822.569	19019
822.709	18943
822.849	18760
822.99	18814
823.13	18673
823.27	18578
823.41	18673
823.55	18471
823.69	18574
823.83	18597
823.97	18525
824.11	18342
824.25	18308
824.389	18372
824.529	18483
824.669	18388
824.809	18418
824.949	18414
825.089	18399
825.228	18422
825.368	18239
825.508	18159
825.648	18273
825.787	18235
825.927	18239
826.067	18197
826.206	18049
826.346	18178
826.485	18178
826.625	18003
826.765	18239
826.904	18152
827.044	18049
827.183	17908
827.323	17805
827.462	17942
827.601	17847
827.741	17882
827.88	17809
828.02	17684
828.159	17813
828.298	17855
828.437	17946
828.577	17764
828.716	17939
828.855	17805
828.994	17623
829.134	17672
829.273	17634
829.412	17528
829.551	17501
829.69	17539
829.829	17600
829.968	17627
830.107	17687
830.246	17532
830.385	17524
830.524	17551
830.663	17421
830.802	17284
830.941	17143
831.08	17223
831.219	17349
831.357	17261
831.496	17459
831.635	17159
831.774	17052
831.913	17067
832.051	16919
832.19	16976
832.329	16965
832.467	16908
832.606	16835
832.744	16801
832.883	16934
833.022	16801
833.16	16999
833.299	16850
833.437	16812
833.576	16987
833.714	16919
833.852	16923
833.991	17018
834.129	17045
834.267	17010
834.406	16862
834.544	17018
834.682	16835
834.821	16927
834.959	17079
835.097	16862
835.235	16972
835.373	16862
835.511	16972
835.65	16850
835.788	16812
835.926	16656
836.064	16675
836.202	16637
836.34	16885
836.478	16919
836.615	16752
836.753	16843
836.891	16885
837.029	16885
837.167	16774
837.305	16702
837.443	16675
837.58	16672
837.718	16694
837.856	16653
837.993	16584
838.131	16596
838.269	16573
838.406	16637
838.544	16398
838.681	16333
838.819	16200
838.956	16192
839.094	16112
839.231	16204
839.369	16287
839.506	16611
839.643	16474
839.781	16192
839.918	16147
840.055	16204
840.193	16230
840.33	16287
840.467	16238
840.604	16230
840.742	16489
840.879	16139
841.016	16143
841.153	16025
841.29	16318
841.427	16177
841.564	16246
841.701	16215
841.838	16051
841.975	16150
842.112	16242
842.249	15979
842.385	16002
842.522	16200
842.659	15937
842.796	15922
842.933	15979
843.069	15937
843.206	15903
843.343	16071
843.479	15918
843.616	15895
843.752	15785
843.889	15819
844.025	15949
844.162	15774
844.298	15869
844.435	15732
844.571	15663
844.708	15831
844.844	16032
844.98	15937
845.117	15869
845.253	15686
845.389	15709
845.525	15743
845.661	15709
845.798	15629
845.934	15854
846.07	15709
846.206	15892
846.342	15804
846.478	15705
846.614	15511
846.75	15359
846.886	15283
847.022	15397
847.158	15408
847.294	15389
847.429	15367
847.565	15374
847.701	15492
847.837	15051
847.972	14971
848.108	15207
848.244	15245
848.379	15009
848.515	14921
848.65	14861
848.786	14883
848.921	14956
849.057	15013
849.192	15039
849.328	14902
849.463	14982
849.598	14830
849.734	14880
849.869	14765
850.004	14720
850.14	14720
850.275	14876
850.41	14625
850.545	14663
850.68	14701
850.815	14762
850.95	14606
851.085	14853
851.22	14773
851.355	14670
851.49	14598
851.625	14632
851.76	14598
851.895	14484
852.03	14575
852.165	14617
852.299	14727
852.434	14693
852.569	14746
852.703	14712
852.838	14708
852.973	14845
853.107	14796
853.242	14731
853.376	14530
853.511	14526
853.645	14473
853.78	14693
853.914	14644
854.048	14537
854.183	14571
854.317	14549
854.451	14743
854.585	14514
854.72	14514
854.854	14625
854.988	14366
855.122	14632
855.256	14415
855.39	14556
855.524	14549
855.658	14682
855.792	14663
855.926	14659
856.06	14663
856.194	14625
856.327	14537
856.461	14518
856.595	14575
856.729	14503
856.862	14583
856.996	14632
857.13	14587
857.263	14746
857.397	14712
857.53	14651
857.664	14663
857.797	14686
857.931	14670
858.064	14484
858.197	14735
858.331	14590
858.464	14522
858.597	14408
858.731	14408
858.864	14541
858.997	14522
859.13	14659
859.263	14629
859.396	14571
859.529	14606
859.662	14488
859.795	14514
859.928	14587
860.061	14762
860.194	14689
860.327	14610
860.46	14495
860.592	14708
860.725	14678
860.858	14754
860.99	14670
861.123	14492
861.256	14450
861.388	14655
861.521	15119
861.653	14480
861.786	14431
861.918	14454
862.05	14427
862.183	14469
862.315	14632
862.447	14648
862.58	14533
862.712	14358
862.844	14271
862.976	14343
863.108	14499
863.24	14834
863.372	14240
863.504	14290
863.636	14290
863.768	14427
863.9	14374
864.032	14347
864.164	14313
864.296	14358
864.428	14434
864.559	14423
864.691	14488
864.823	14404
864.954	14343
865.086	14294
865.217	14267
865.349	14240
865.48	14362
865.612	14347
865.743	14446
865.875	14347
866.006	14256
866.137	14358
866.269	14317
866.4	14244
866.531	14237
866.662	14259
866.793	14210
866.924	14229
867.055	14385
867.186	14362
867.317	14267
867.448	14191
867.579	14225
867.71	14244
867.841	14252
867.972	14366
868.103	14355
868.233	14328
868.364	14389
868.495	14400
868.625	14621
868.756	14705
868.886	14446
869.017	14454
869.147	14678
869.278	14606
869.408	14594
869.539	14571
869.669	14625
869.799	14514
869.929	14689
870.06	14693
870.19	14857
870.32	14899
870.45	14872
870.58	14971
870.71	15070
870.84	15024
870.97	14883
871.1	14906
871.23	15161
871.36	15161
871.489	15043
871.619	15184
871.749	15211
871.879	15138
872.008	15165
872.138	15047
872.267	15142
872.397	14986
872.526	15039
872.656	14872
872.785	15047
872.915	15085
873.044	15230
873.173	15252
873.303	15222
873.432	15230
873.561	15275
873.69	15214
873.819	15180
873.948	15291
874.077	15203
874.206	15161
874.335	15199
874.464	15321
874.593	15591
874.722	15485
874.851	15584
874.979	15488
875.108	15530
875.237	15534
875.365	15431
875.494	15389
875.623	15606
875.751	15431
875.88	15492
876.008	15564
876.136	15755
876.265	15812
876.393	16101
876.521	15979
876.65	16063
876.778	15884
876.906	15930
877.034	15831
877.162	15918
877.29	15770
877.418	15918
877.546	15854
877.674	15964
877.802	15895
877.93	15915
878.058	15838
878.185	15713
878.313	15915
878.441	15949
878.568	15747
878.696	15823
878.824	16078
878.951	16101
879.079	16143
879.206	16295
879.333	16211
879.461	15964
879.588	16150
879.715	16166
879.842	16322
879.97	16169
880.097	15797
880.224	15705
880.351	15785
880.478	15964
880.605	15785
880.732	15781
880.859	16002
880.986	15850
881.112	15747
881.239	15827
881.366	15545
881.493	15523
881.619	15382
881.746	15386
881.872	15378
881.999	15462
882.125	15435
882.252	15492
882.378	15507
882.505	15572
882.631	15386
882.757	15218
882.883	15401
883.01	15272
883.136	15112
883.262	15104
883.388	15097
883.514	15264
883.64	15302
883.766	15272
883.892	15043
884.018	15100
884.143	15199
884.269	15458
884.395	15051
884.52	14861
884.646	14952
884.772	14967
884.897	14849
885.023	14933
885.148	15024
885.274	15093
885.399	15005
885.524	14876
885.65	15032
885.775	14899
885.9	15074
886.025	15104
886.15	15020
886.275	14948
886.4	14906
886.525	14906
886.65	14804
886.775	14853
886.9	15051
887.025	15165
887.149	14986
887.274	14762
887.399	14720
887.523	14720
887.648	14777
887.773	14670
887.897	14853
888.021	14788
888.146	14689
888.27	14826
888.395	14788
888.519	14880
888.643	14872
888.767	14838
888.891	14651
889.015	14560
889.139	14625
889.263	14651
889.387	14727
889.511	14899
889.635	14792
889.759	14632
889.883	14590
890.006	14575
890.13	14762
890.254	14575
890.377	14587
890.501	14415
890.624	14381
890.748	14446
890.871	14358
890.995	14305
891.118	14214
891.241	14362
891.364	14343
891.488	14404
891.611	14282
891.734	14221
891.857	14355
891.98	14415
892.103	14434
892.226	14358
892.349	14427
892.471	14202
892.594	14389
892.717	14309
892.839	14332
892.962	14328
893.085	14339
893.207	14237
893.33	14244
893.452	14218
893.575	14278
893.697	14248
893.819	14499
893.941	14575
894.064	14427
894.186	14305
894.308	14240
894.43	14385
894.552	14556
894.674	14522
894.796	14309
894.918	14278
895.04	14305
895.161	14446
895.283	14389
895.405	14305
895.526	14415
895.648	14404
895.769	14374
895.891	14507
896.012	14579
896.134	14473
896.255	14461
896.376	14549
896.498	14514
896.619	14503
896.74	14461
896.861	14568
896.982	14819
897.103	14921
897.224	14769
897.345	14750
897.466	14735
897.587	14739
897.708	14891
897.828	14765
897.949	14701
898.07	14606
898.19	14724
898.311	14941
898.431	14849
898.552	14861
898.672	14887
898.792	14876
898.913	14857
899.033	14667
899.153	14632
899.273	14693
899.393	14674
899.513	14758
899.633	14689
899.753	14716
899.873	14678
899.993	14792
900.113	14648
900.232	14708
900.352	14632
900.472	14640
900.591	14629
900.711	14629
900.83	14552
900.95	14678
901.069	14697
901.189	14492
901.308	14248
901.427	14164
901.546	14259
901.665	14305
901.784	14259
901.904	14115
902.023	14096
902.141	13894
902.26	13769
902.379	13849
902.498	13765
902.617	13795
902.735	13791
902.854	13772
902.973	13685
903.091	13483
903.21	13567
903.328	13578
903.446	13453
903.565	13388
903.683	13457
903.801	13343
903.919	13350
904.038	13240
904.156	13183
904.274	13209
904.392	13190
904.51	13168
904.627	13149
904.745	13213
904.863	13320
904.981	12993
905.098	12844
905.216	12852
905.334	12837
905.451	12920
905.569	12878
905.686	12878
905.803	12787
905.921	12646
906.038	12654
906.155	12692
906.272	12601
906.389	12521
906.506	12395
906.623	12483
906.74	12506
906.857	12262
906.974	12388
907.091	12506
907.208	12585
907.324	12456
907.441	12395
907.557	12171
907.674	12247
907.79	12144
907.907	12159
908.023	12186
908.139	12197
908.256	12117
908.372	12076
908.488	12098
908.604	11897
908.72	11950
908.836	11965
908.952	11874
909.068	11939
909.184	12057
909.3	11954
909.415	12053
909.531	11893
909.647	11699
909.762	11718
909.878	11668
909.993	11745
910.108	11718
910.224	11680
910.339	11657
910.454	11566
910.57	11566
910.685	11486
910.8	11866
910.915	11714
911.03	11619
911.145	11433
911.259	11406
911.374	11349
911.489	11368
911.604	11212
911.718	11204
911.833	11258
911.947	11025
912.062	11029
912.176	11098
912.291	11178
912.405	11277
912.519	11349
912.633	11254
912.748	11269
912.862	11178
912.976	11102
913.09	10961
913.204	10999
913.318	11132
913.431	11102
913.545	11113
913.659	11117
913.772	11132
913.886	10984
914	10866
914.113	11022
914.226	11006
914.34	11052
914.453	10835
914.566	10915
914.68	10869
914.793	10869
914.906	10664
915.019	10588
915.132	10542
915.245	10645
915.358	10656
915.47	10679
915.583	10702
915.696	10702
915.809	10866
915.921	10805
916.034	10535
916.146	10580
916.259	10527
916.371	10694
916.483	10725
916.595	10626
916.708	10554
916.82	10599
916.932	10561
917.044	10516
917.156	10569
917.268	10440
917.38	10455
917.491	10424
917.603	10485
917.715	10535
917.826	10546
917.938	10436
918.049	10367
918.161	10436
918.272	10561
918.384	10546
918.495	10500
918.606	10299
918.717	10219
918.828	10371
918.939	10497
919.05	10265
919.161	10341
919.272	10112
919.383	10238
919.494	10409
919.604	10592
919.715	10413
919.826	10227
919.936	10333
920.047	10470
920.157	10417
920.267	10531
920.378	10493
920.488	10352
920.598	10478
920.708	10736
920.818	10523
920.928	10535
921.038	10733
921.148	10683
921.258	10394
921.368	10398
921.477	10166
921.587	10207
921.697	10002
921.806	10211
921.916	10181
922.025	9903
922.134	9918
922.244	9842
922.353	9949
922.462	9804
922.571	9740
922.68	9660
922.789	9599
922.898	9644
923.007	9507
923.116	9633
923.224	9686
923.333	9660
923.442	9496
923.55	9424
923.659	9477
923.767	9622
923.876	9370
923.984	9492
924.092	9393
924.201	9420
924.309	9542
924.417	9485
924.525	9393
924.633	9401
924.741	10440
924.849	9283
924.956	9408
925.064	9237
925.172	9173
925.279	9192
925.387	9348
925.494	9211
925.602	9370
925.709	9302
925.816	9226
925.924	9233
926.031	9336
926.138	9260
926.245	9275
926.352	9195
926.459	9298
926.566	9302
926.673	9135
926.779	9176
926.886	9142
926.993	9070
927.099	9005
927.206	8899
927.312	8925
927.419	8979
927.525	8921
927.631	8929
927.737	8872
927.843	8910
927.95	8845
928.056	8800
928.162	8944
928.267	8929
928.373	9340
928.479	8956
928.585	8659
928.69	8902
928.796	8944
928.901	8823
929.007	8598
929.112	8781
929.218	8769
929.323	8712
929.428	8651
929.533	8785
929.638	8617
929.743	8674
929.848	8697
929.953	8712
930.058	8613
930.163	8419
930.267	8446
930.372	8568
930.477	8427
930.581	8686
930.685	8556
930.79	8336
930.894	8446
930.998	8324
931.103	8533
931.207	8180
931.311	8058
931.415	8123
931.519	7856
931.623	7849
