Data from test_V78500241_3309.txt Node
Date: Fri Mar 25 14:56:45 CST 2022
User: usil
Spectrometer: V785-0024
Trigger mode: 0
Integration Time (sec): 4.000000E-1
Scans to average: 1
Nonlinearity correction enabled: false
Boxcar width: 0
Storing dark spectrum: false
XAxis mode: Wavelengths
Number of Pixels in Spectrum: 1024
>>>>>Begin Spectral Data<<<<<
801.071	21911
801.214	21842
801.356	21614
801.499	21542
801.641	21226
801.783	21374
801.926	21424
802.068	21241
802.211	21150
802.353	21089
802.496	20895
802.638	20773
802.78	20788
802.923	20743
803.065	20765
803.208	20579
803.35	20830
803.492	20796
803.635	20773
803.777	20621
803.919	20689
804.061	21020
804.204	20735
804.346	20674
804.488	20492
804.63	20587
804.773	20590
804.915	20545
805.057	20743
805.199	20484
805.341	20613
805.483	20678
805.626	20625
805.768	20636
805.91	20708
806.052	20526
806.194	20473
806.336	20682
806.478	20541
806.62	20514
806.762	20575
806.904	20838
807.046	20944
807.188	20887
807.33	20921
807.472	20982
807.614	20785
807.756	20792
807.898	20754
808.04	20609
808.182	20640
808.324	20708
808.465	20716
808.607	20800
808.749	21032
808.891	21017
809.033	21150
809.174	20998
809.316	20823
809.458	20918
809.6	20800
809.741	20883
809.883	21066
810.025	21017
810.166	21112
810.308	21032
810.45	20857
810.591	20925
810.733	20811
810.875	20849
811.016	20541
811.158	20514
811.299	20727
811.441	20644
811.582	20823
811.724	20602
811.865	20598
812.007	20659
812.148	20754
812.29	20712
812.431	20769
812.573	21001
812.714	21036
812.855	21096
812.997	21173
813.138	21363
813.279	21176
813.421	21055
813.562	21077
813.703	20914
813.845	20849
813.986	20583
814.127	20473
814.268	20244
814.41	20267
814.551	20187
814.692	20248
814.833	20142
814.974	20168
815.115	20244
815.256	20134
815.397	19997
815.539	20073
815.68	20035
815.821	19856
815.962	19982
816.103	19925
816.244	19693
816.385	19658
816.526	19624
816.666	19464
816.807	19377
816.948	19407
817.089	19419
817.23	19354
817.371	19308
817.512	19263
817.653	19369
817.793	19236
817.934	19324
818.075	19400
818.216	19301
818.356	19202
818.497	19244
818.638	18985
818.778	19065
818.919	19065
819.06	19046
819.2	19141
819.341	19236
819.481	19221
819.622	19320
819.762	19548
819.903	19457
820.043	19316
820.184	19343
820.324	19358
820.465	19339
820.605	19255
820.746	19365
820.886	19206
821.026	19384
821.167	19346
821.307	19301
821.447	19263
821.588	19110
821.728	19141
821.868	18802
822.008	18753
822.149	18798
822.289	18730
822.429	18517
822.569	18361
822.709	18441
822.849	18174
822.99	18262
823.13	18251
823.27	18186
823.41	18038
823.55	18064
823.69	18167
823.83	18022
823.97	17965
824.11	17847
824.25	17691
824.389	17847
824.529	17851
824.669	17779
824.809	17878
824.949	17893
825.089	17950
825.228	17866
825.368	17668
825.508	17600
825.648	17630
825.787	17668
825.927	17604
826.067	17573
826.206	17547
826.346	17608
826.485	17577
826.625	17623
826.765	17638
826.904	17703
827.044	17459
827.183	17299
827.323	17250
827.462	17395
827.601	17288
827.741	17261
827.88	17311
828.02	17261
828.159	17269
828.298	17307
828.437	17421
828.577	17204
828.716	17387
828.855	17261
828.994	17117
829.134	17067
829.273	17064
829.412	17003
829.551	16927
829.69	16923
829.829	17124
829.968	17174
830.107	17033
830.246	17159
830.385	17064
830.524	16934
830.663	16930
830.802	16786
830.941	16698
831.08	16672
831.219	16740
831.357	16740
831.496	16949
831.635	16702
831.774	16550
831.913	16493
832.051	16455
832.19	16504
832.329	16573
832.467	16398
832.606	16322
832.744	16310
832.883	16341
833.022	16360
833.16	16363
833.299	16500
833.437	16409
833.576	16462
833.714	16386
833.852	16440
833.991	16421
834.129	16459
834.267	16535
834.406	16367
834.544	16508
834.682	16470
834.821	16421
834.959	16550
835.097	16504
835.235	16546
835.373	16405
835.511	16379
835.65	16314
835.788	16303
835.926	16158
836.064	16135
836.202	16078
836.34	16360
836.478	16485
836.615	16295
836.753	16371
836.891	16413
837.029	16325
837.167	16291
837.305	16268
837.443	16223
837.58	16128
837.718	16249
837.856	16173
837.993	16109
838.131	16181
838.269	16162
838.406	16154
838.544	16143
838.681	16006
838.819	15918
838.956	15667
839.094	15774
839.231	15873
839.369	15968
839.506	16181
839.643	16082
839.781	15679
839.918	15701
840.055	15789
840.193	15774
840.33	15717
840.467	15778
840.604	15762
840.742	15994
840.879	15603
841.016	15618
841.153	15652
841.29	15907
841.427	15736
841.564	15785
841.701	15770
841.838	15793
841.975	15724
842.112	15747
842.249	15561
842.385	15587
842.522	15637
842.659	15542
842.796	15523
842.933	15526
843.069	15378
843.206	15511
843.343	15614
843.479	15526
843.616	15591
843.752	15332
843.889	15329
844.025	15549
844.162	15245
844.298	15405
844.435	15321
844.571	15195
844.708	15325
844.844	15428
844.98	15557
845.117	15389
845.253	15180
845.389	15214
845.525	15268
845.661	15275
845.798	15165
845.934	15184
846.07	15020
846.206	15165
846.342	15226
846.478	15169
846.614	14925
846.75	14887
846.886	14876
847.022	14941
847.158	14880
847.294	14986
847.429	14990
847.565	14971
847.701	15142
847.837	14663
847.972	14667
848.108	14674
848.244	14670
848.379	14606
848.515	14575
848.65	14541
848.786	14427
848.921	14465
849.057	14651
849.192	14602
849.328	14617
849.463	14579
849.598	14476
849.734	14404
849.869	14362
850.004	14301
850.14	14332
850.275	14218
850.41	14161
850.545	14233
850.68	14252
850.815	14252
850.95	14244
851.085	14431
851.22	14358
851.355	14343
851.49	14206
851.625	14259
851.76	14149
851.895	14187
852.03	14206
852.165	14248
852.299	14355
852.434	14351
852.569	14313
852.703	14336
852.838	14339
852.973	14419
853.107	14404
853.242	14271
853.376	14084
853.511	14058
853.645	14103
853.78	14256
853.914	14077
854.048	14100
854.183	14039
854.317	14138
854.451	14195
854.585	14206
854.72	14065
854.854	14157
854.988	14149
855.122	14142
855.256	14084
855.39	14054
855.524	14168
855.658	14233
855.792	14256
855.926	14107
856.06	14202
856.194	14237
856.327	14191
856.461	14039
856.595	14145
856.729	14191
856.862	14164
856.996	14221
857.13	14157
857.263	14267
857.397	14271
857.53	14111
857.664	14168
857.797	14210
857.931	14275
858.064	14202
858.197	14218
858.331	14172
858.464	14043
858.597	14027
858.731	14100
858.864	14153
858.997	14035
859.13	14199
859.263	14126
859.396	14282
859.529	14073
859.662	14111
859.795	14107
859.928	14126
860.061	14233
860.194	14339
860.327	14142
860.46	14115
860.592	14191
860.725	14275
860.858	14286
860.99	14100
861.123	14069
861.256	14035
861.388	14138
861.521	15017
861.653	14024
861.786	14012
861.918	14039
862.05	14027
862.183	14077
862.315	14138
862.447	14096
862.58	13993
862.712	13921
862.844	13833
862.976	14077
863.108	13951
863.24	14256
863.372	13822
863.504	13909
863.636	13826
863.768	13989
863.9	13944
864.032	13826
864.164	13849
864.296	13902
864.428	14084
864.559	14027
864.691	14035
864.823	13978
864.954	13986
865.086	13936
865.217	13849
865.349	13795
865.48	13864
865.612	13852
865.743	14092
865.875	13852
866.006	13868
866.137	14005
866.269	13814
866.4	13967
866.531	13788
866.662	13818
866.793	13833
866.924	13932
867.055	13890
867.186	13890
867.317	13784
867.448	13799
867.579	13841
867.71	13845
867.841	13875
867.972	13940
868.103	13860
868.233	14054
868.364	13921
868.495	13982
868.625	14157
868.756	14248
868.886	14035
869.017	14210
869.147	14298
869.278	14332
869.408	14225
869.539	14199
869.669	14218
869.799	14214
869.929	14336
870.06	14263
870.19	14419
870.32	14362
870.45	14480
870.58	14610
870.71	14644
870.84	14724
870.97	14533
871.1	14552
871.23	14648
871.36	14754
871.489	14655
871.619	14697
871.749	14693
871.879	14708
872.008	14975
872.138	14773
872.267	14807
872.397	14651
872.526	14526
872.656	14587
872.785	14575
872.915	14834
873.044	14864
873.173	14765
873.303	14861
873.432	14781
873.561	14853
873.69	14880
873.819	14823
873.948	14925
874.077	14864
874.206	14762
874.335	14804
874.464	14876
874.593	15081
874.722	15051
874.851	15097
874.979	15138
875.108	15241
875.237	15119
875.365	15123
875.494	15157
875.623	15180
875.751	15180
875.88	15116
876.008	15249
876.136	15359
876.265	15542
876.393	15595
876.521	15629
876.65	15667
876.778	15572
876.906	15481
877.034	15538
877.162	15549
877.29	15435
877.418	15553
877.546	15648
877.674	15523
877.802	15572
877.93	15542
878.058	15485
878.185	15458
878.313	15416
878.441	15614
878.568	15359
878.696	15477
878.824	15564
878.951	15629
879.079	15698
879.206	15850
879.333	15648
879.461	15652
879.588	15770
879.715	15827
879.842	15831
879.97	15587
880.097	15515
880.224	15447
880.351	15344
880.478	15511
880.605	15329
880.732	15359
880.859	15675
880.986	15447
881.112	15462
881.239	15321
881.366	15184
881.493	15085
881.619	15093
881.746	15058
881.872	15100
881.999	15036
882.125	15028
882.252	15089
882.378	15043
882.505	15150
882.631	14948
882.757	14861
882.883	14986
883.01	14994
883.136	14902
883.262	14663
883.388	14701
883.514	14853
883.64	14864
883.766	14826
883.892	14762
884.018	14712
884.143	14891
884.269	14918
884.395	14648
884.52	14594
884.646	14545
884.772	14438
884.897	14427
885.023	14556
885.148	14670
885.274	14758
885.399	14651
885.524	14526
885.65	14629
885.775	14587
885.9	14636
886.025	14716
886.15	14594
886.275	14526
886.4	14533
886.525	14541
886.65	14454
886.775	14454
886.9	14720
887.025	14739
887.149	14541
887.274	14492
887.399	14438
887.523	14438
887.648	14366
887.773	14324
887.897	14556
888.021	14518
888.146	14404
888.27	14442
888.395	14594
888.519	14492
888.643	14454
888.767	14518
888.891	14286
889.015	14343
889.139	14282
889.263	14218
889.387	14438
889.511	14549
889.635	14469
889.759	14282
889.883	14263
890.006	14275
890.13	14442
890.254	14294
890.377	14244
890.501	14161
890.624	14126
890.748	14164
890.871	14043
890.995	14001
891.118	13890
891.241	13993
891.364	13982
891.488	14084
891.611	14077
891.734	13894
891.857	14100
891.98	13970
892.103	14119
892.226	13970
892.349	13940
892.471	13776
892.594	13906
892.717	14126
892.839	13982
892.962	14012
893.085	14050
893.207	14062
893.33	13898
893.452	13932
893.575	14077
893.697	13940
893.819	14142
893.941	14221
894.064	14153
894.186	13974
894.308	13932
894.43	14119
894.552	14161
894.674	14138
894.796	13902
894.918	13928
895.04	13936
895.161	14111
895.283	14111
895.405	14020
895.526	14046
895.648	14164
895.769	14111
895.891	14153
896.012	14229
896.134	14172
896.255	14111
896.376	14062
896.498	14100
896.619	14161
896.74	14168
896.861	14256
896.982	14560
897.103	14686
897.224	14499
897.345	14396
897.466	14320
897.587	14457
897.708	14545
897.828	14518
897.949	14396
898.07	14305
898.19	14396
898.311	14613
898.431	14522
898.552	14469
898.672	14545
898.792	14629
898.913	14533
899.033	14404
899.153	14332
899.273	14343
899.393	14355
899.513	14351
899.633	14343
899.753	14427
899.873	14355
899.993	14480
900.113	14389
900.232	14431
900.352	14492
900.472	14294
900.591	14191
900.711	14301
900.83	14199
900.95	14374
901.069	14298
901.189	14161
901.308	13928
901.427	13890
901.546	13986
901.665	13951
901.784	13963
901.904	13830
902.023	13689
902.141	13533
902.26	13438
902.379	13624
902.498	13472
902.617	13426
902.735	13544
902.854	13506
902.973	13476
903.091	13168
903.21	13190
903.328	13244
903.446	13129
903.565	13065
903.683	13046
903.801	13004
903.919	13080
904.038	13019
904.156	12924
904.274	13008
904.392	12833
904.51	12863
904.627	12871
904.745	12844
904.863	12932
904.981	12757
905.098	12578
905.216	12479
905.334	12589
905.451	12566
905.569	12532
905.686	12578
905.803	12612
905.921	12380
906.038	12403
906.155	12429
906.272	12247
906.389	12323
906.506	12163
906.623	12167
906.74	12186
906.857	12038
906.974	12129
907.091	12216
907.208	12251
907.324	12167
907.441	12015
907.557	11912
907.674	11939
907.79	11897
907.907	11859
908.023	11950
908.139	11939
908.256	11893
908.372	11817
908.488	11786
908.604	11710
908.72	11657
908.836	11634
908.952	11646
909.068	11627
909.184	11790
909.3	11745
909.415	11688
909.531	11688
909.647	11493
909.762	11402
909.878	11444
909.993	11497
910.108	11395
910.224	11417
910.339	11459
910.454	11353
910.57	11261
910.685	11159
910.8	11592
910.915	11406
911.03	11223
911.145	11128
911.259	11105
911.374	11140
911.489	11048
911.604	10999
911.718	10896
911.833	10923
911.947	10721
912.062	10691
912.176	10866
912.291	10820
912.405	10919
912.519	11083
912.633	11086
912.748	10972
912.862	10847
912.976	10869
913.09	10626
913.204	10774
913.318	10736
913.431	10927
913.545	10877
913.659	10900
913.772	10801
913.886	10596
914	10668
914.113	10740
914.226	10767
914.34	10717
914.453	10516
914.566	10755
914.68	10660
914.793	10637
914.906	10432
915.019	10390
915.132	10344
915.245	10455
915.358	10481
915.47	10443
915.583	10466
915.696	10508
915.809	10554
915.921	10618
916.034	10443
916.146	10337
916.259	10230
916.371	10451
916.483	10409
916.595	10318
916.708	10257
916.82	10310
916.932	10322
917.044	10310
917.156	10272
917.268	10257
917.38	10287
917.491	10158
917.603	10280
917.715	10360
917.826	10314
917.938	10261
918.049	10120
918.161	10253
918.272	10375
918.384	10386
918.495	10306
918.606	10063
918.717	10051
918.828	10131
918.939	10188
919.05	10051
919.161	10093
919.272	9869
919.383	10002
919.494	10086
919.604	10314
919.715	10154
919.826	10051
919.936	10071
920.047	10154
920.157	10135
920.267	10306
920.378	10204
920.488	10109
920.598	10318
920.708	10516
920.818	10322
920.928	10402
921.038	10523
921.148	10436
921.258	10223
921.368	10082
921.477	10025
921.587	9937
921.697	9903
921.806	10074
921.916	9899
922.025	9797
922.134	9736
922.244	9671
922.353	9759
922.462	9606
922.571	9561
922.68	9431
922.789	9329
922.898	9397
923.007	9351
923.116	9485
923.224	9443
923.333	9367
923.442	9283
923.55	9291
923.659	9294
923.767	9367
923.876	9317
923.984	9237
924.092	9272
924.201	9184
924.309	9332
924.417	9245
924.525	9203
924.633	9268
924.741	10120
924.849	9036
924.956	9135
925.064	9085
925.172	8994
925.279	8960
925.387	9131
925.494	9043
925.602	9169
925.709	9058
925.816	9009
925.924	9024
926.031	9116
926.138	9058
926.245	9135
926.352	9017
926.459	9123
926.566	9150
926.673	9070
926.779	8906
926.886	8937
926.993	8769
927.099	8800
927.206	8750
927.312	8686
927.419	8819
927.525	8864
927.631	8815
927.737	8754
927.843	8674
927.95	8598
928.056	8610
928.162	8682
928.267	8727
928.373	9393
928.479	8739
928.585	8571
928.69	8610
928.796	8716
928.901	8629
929.007	8423
929.112	8629
929.218	8564
929.323	8488
929.428	8438
929.533	8640
929.638	8362
929.743	8454
929.848	8530
929.953	8507
930.058	8415
930.163	8237
930.267	8282
930.372	8480
930.477	8233
930.581	8526
930.685	8381
930.79	8180
930.894	8225
930.998	8202
931.103	8324
931.207	8043
931.311	7925
931.415	7833
931.519	7731
931.623	7708
