Data from test_V78500241_1957.txt Node
Date: Fri Mar 25 14:47:20 CST 2022
User: usil
Spectrometer: V785-0024
Trigger mode: 0
Integration Time (sec): 4.000000E-1
Scans to average: 1
Nonlinearity correction enabled: false
Boxcar width: 0
Storing dark spectrum: false
XAxis mode: Wavelengths
Number of Pixels in Spectrum: 1024
>>>>>Begin Spectral Data<<<<<
801.071	22078
801.214	21960
801.356	21736
801.499	21629
801.641	21557
801.783	21454
801.926	21416
802.068	21431
802.211	21298
802.353	21245
802.496	21081
802.638	21005
802.78	20944
802.923	20781
803.065	20777
803.208	20708
803.35	20739
803.492	20899
803.635	20971
803.777	20785
803.919	20823
804.061	21066
804.204	20906
804.346	20731
804.488	20602
804.63	20731
804.773	20651
804.915	20682
805.057	20788
805.199	20708
805.341	20838
805.483	20861
805.626	20773
805.768	20663
805.91	20712
806.052	20758
806.194	20693
806.336	20769
806.478	20617
806.62	20537
806.762	20785
806.904	20899
807.046	21108
807.188	20990
807.33	21085
807.472	21108
807.614	20883
807.756	20941
807.898	20739
808.04	20758
808.182	20868
808.324	20845
808.465	20762
808.607	20899
808.749	21112
808.891	21173
809.033	21329
809.174	21146
809.316	21043
809.458	21085
809.6	21047
809.741	21036
809.883	21119
810.025	21268
810.166	21268
810.308	21188
810.45	21161
810.591	21100
810.733	20979
810.875	20902
811.016	20762
811.158	20636
811.299	20876
811.441	21028
811.582	20921
811.724	20838
811.865	20887
812.007	20804
812.148	20849
812.29	20754
812.431	21032
812.573	21116
812.714	21279
812.855	21401
812.997	21428
813.138	21485
813.279	21469
813.421	21317
813.562	21378
813.703	21096
813.845	20769
813.986	20735
814.127	20507
814.268	20351
814.41	20389
814.551	20431
814.692	20457
814.833	20339
814.974	20332
815.115	20351
815.256	20183
815.397	20183
815.539	20259
815.68	20142
815.821	20084
815.962	20077
816.103	20043
816.244	19898
816.385	19811
816.526	19841
816.666	19666
816.807	19674
816.948	19670
817.089	19616
817.23	19632
817.371	19480
817.512	19499
817.653	19613
817.793	19426
817.934	19548
818.075	19556
818.216	19480
818.356	19419
818.497	19373
818.638	19251
818.778	19164
818.919	19259
819.06	19240
819.2	19445
819.341	19350
819.481	19388
819.622	19559
819.762	19693
819.903	19586
820.043	19468
820.184	19578
820.324	19510
820.465	19563
820.605	19491
820.746	19480
820.886	19316
821.026	19468
821.167	19521
821.307	19658
821.447	19396
821.588	19312
821.728	19247
821.868	19061
822.008	18939
822.149	18837
822.289	18962
822.429	18635
822.569	18608
822.709	18627
822.849	18369
822.99	18418
823.13	18372
823.27	18372
823.41	18224
823.55	18171
823.69	18311
823.83	18152
823.97	18079
824.11	17950
824.25	17874
824.389	18022
824.529	18060
824.669	18026
824.809	18072
824.949	18163
825.089	17965
825.228	18091
825.368	17840
825.508	17836
825.648	17756
825.787	17813
825.927	17817
826.067	17699
826.206	17710
826.346	17866
826.485	17843
826.625	17703
826.765	17779
826.904	17847
827.044	17551
827.183	17581
827.323	17570
827.462	17562
827.601	17455
827.741	17402
827.88	17532
828.02	17372
828.159	17429
828.298	17516
828.437	17497
828.577	17505
828.716	17589
828.855	17440
828.994	17178
829.134	17318
829.273	17220
829.412	17216
829.551	17086
829.69	17258
829.829	17197
829.968	17360
830.107	17280
830.246	17242
830.385	17109
830.524	17098
830.663	17124
830.802	16889
830.941	16710
831.08	16854
831.219	17037
831.357	16900
831.496	17102
831.635	16858
831.774	16759
831.913	16797
832.051	16615
832.19	16618
832.329	16626
832.467	16634
832.606	16607
832.744	16523
832.883	16481
833.022	16436
833.16	16573
833.299	16504
833.437	16497
833.576	16580
833.714	16577
833.852	16653
833.991	16649
834.129	16672
834.267	16630
834.406	16622
834.544	16637
834.682	16675
834.821	16561
834.959	16774
835.097	16500
835.235	16691
835.373	16645
835.511	16645
835.65	16512
835.788	16516
835.926	16303
836.064	16310
836.202	16428
836.34	16504
836.478	16516
836.615	16500
836.753	16618
836.891	16558
837.029	16588
837.167	16455
837.305	16417
837.443	16470
837.58	16375
837.718	16440
837.856	16390
837.993	16367
838.131	16337
838.269	16287
838.406	16268
838.544	16276
838.681	16063
838.819	16143
838.956	15994
839.094	15926
839.231	15983
839.369	16025
839.506	16314
839.643	16238
839.781	15876
839.918	15934
840.055	15911
840.193	16021
840.33	15930
840.467	15953
840.604	15972
840.742	16261
840.879	15793
841.016	15854
841.153	15743
841.29	16040
841.427	15964
841.564	15991
841.701	16021
841.838	15842
841.975	15880
842.112	15869
842.249	15675
842.385	15637
842.522	16017
842.659	15633
842.796	15671
842.933	15705
843.069	15606
843.206	15667
843.343	15705
843.479	15724
843.616	15720
843.752	15458
843.889	15564
844.025	15644
844.162	15450
844.298	15469
844.435	15587
844.571	15515
844.708	15542
844.844	15622
844.98	15682
845.117	15633
845.253	15443
845.389	15504
845.525	15530
845.661	15412
845.798	15241
845.934	15351
846.07	15321
846.206	15317
846.342	15420
846.478	15321
846.614	15195
846.75	15028
846.886	15077
847.022	15043
847.158	14986
847.294	15116
847.429	15123
847.565	15058
847.701	15283
847.837	14880
847.972	14758
848.108	14849
848.244	14834
848.379	14651
848.515	14682
848.65	14697
848.786	14746
848.921	14602
849.057	14796
849.192	14777
849.328	14807
849.463	14735
849.598	14724
849.734	14670
849.869	14575
850.004	14465
850.14	14507
850.275	14438
850.41	14362
850.545	14393
850.68	14351
850.815	14381
850.95	14442
851.085	14499
851.22	14640
851.355	14514
851.49	14362
851.625	14465
851.76	14400
851.895	14358
852.03	14324
852.165	14434
852.299	14495
852.434	14537
852.569	14514
852.703	14488
852.838	14590
852.973	14655
853.107	14552
853.242	14423
853.376	14366
853.511	14161
853.645	14294
853.78	14355
853.914	14332
854.048	14294
854.183	14244
854.317	14336
854.451	14514
854.585	14282
854.72	14419
854.854	14309
854.988	14275
855.122	14309
855.256	14119
855.39	14248
855.524	14389
855.658	14332
855.792	14404
855.926	14366
856.06	14377
856.194	14495
856.327	14355
856.461	14210
856.595	14229
856.729	14248
856.862	14446
856.996	14358
857.13	14385
857.263	14419
857.397	14522
857.53	14324
857.664	14339
857.797	14450
857.931	14450
858.064	14320
858.197	14351
858.331	14286
858.464	14153
858.597	14183
858.731	14309
858.864	14271
858.997	14275
859.13	14263
859.263	14396
859.396	14423
859.529	14309
859.662	14301
859.795	14305
859.928	14271
860.061	14518
860.194	14499
860.327	14305
860.46	14267
860.592	14408
860.725	14404
860.858	14377
860.99	14370
861.123	14240
861.256	14328
861.388	14358
861.521	14982
861.653	14183
861.786	14103
861.918	14157
862.05	14252
862.183	14259
862.315	14290
862.447	14362
862.58	14282
862.712	14020
862.844	13978
862.976	14138
863.108	14176
863.24	14438
863.372	14024
863.504	14024
863.636	14077
863.768	14172
863.9	14145
864.032	14016
864.164	14024
864.296	14142
864.428	14176
864.559	14119
864.691	14195
864.823	14172
864.954	14195
865.086	14153
865.217	14081
865.349	14035
865.48	14187
865.612	14153
865.743	14210
865.875	14081
866.006	14008
866.137	14187
866.269	14077
866.4	14024
866.531	14149
866.662	13974
866.793	13993
866.924	13974
867.055	14073
867.186	14046
867.317	14050
867.448	13989
867.579	14039
867.71	13951
867.841	13967
867.972	14077
868.103	14107
868.233	14073
868.364	14065
868.495	14168
868.625	14313
868.756	14351
868.886	14187
869.017	14313
869.147	14492
869.278	14454
869.408	14275
869.539	14336
869.669	14370
869.799	14370
869.929	14484
870.06	14457
870.19	14587
870.32	14693
870.45	14651
870.58	14731
870.71	14834
870.84	14788
870.97	14655
871.1	14693
871.23	14918
871.36	14857
871.489	14781
871.619	14921
871.749	14986
871.879	14948
872.008	15024
872.138	15005
872.267	14826
872.397	14777
872.526	14735
872.656	14579
872.785	14887
872.915	14967
873.044	15055
873.173	15001
873.303	15039
873.432	14986
873.561	14986
873.69	14967
873.819	14929
873.948	14994
874.077	14994
874.206	14906
874.335	15112
874.464	15119
874.593	15275
874.722	15214
874.851	15275
874.979	15325
875.108	15272
875.237	15283
875.365	15199
875.494	15203
875.623	15389
875.751	15351
875.88	15351
876.008	15447
876.136	15504
876.265	15648
876.393	15903
876.521	15831
876.65	15770
876.778	15739
876.906	15629
877.034	15667
877.162	15618
877.29	15671
877.418	15789
877.546	15747
877.674	15797
877.802	15637
877.93	15759
878.058	15648
878.185	15477
878.313	15701
878.441	15755
878.568	15477
878.696	15694
878.824	15785
878.951	15819
879.079	15903
879.206	16021
879.333	15747
879.461	15793
879.588	15778
879.715	15899
879.842	15998
879.97	15720
880.097	15538
880.224	15549
880.351	15591
880.478	15618
880.605	15606
880.732	15454
880.859	15686
880.986	15641
881.112	15595
881.239	15466
881.366	15412
881.493	15230
881.619	15233
881.746	15245
881.872	15241
881.999	15180
882.125	15150
882.252	15218
882.378	15245
882.505	15302
882.631	15272
882.757	15009
882.883	15017
883.01	14998
883.136	14948
883.262	14918
883.388	14910
883.514	15028
883.64	15161
883.766	14937
883.892	14910
884.018	14785
884.143	15017
884.269	15127
884.395	14739
884.52	14777
884.646	14682
884.772	14735
884.897	14720
885.023	14708
885.148	14853
885.274	14937
885.399	14895
885.524	14636
885.65	14804
885.775	14781
885.9	14746
886.025	14849
886.15	14826
886.275	14640
886.4	14655
886.525	14724
886.65	14602
886.775	14724
886.9	14914
887.025	15005
887.149	14693
887.274	14587
887.399	14518
887.523	14526
887.648	14442
887.773	14434
887.897	14663
888.021	14693
888.146	14507
888.27	14674
888.395	14705
888.519	14640
888.643	14708
888.767	14686
888.891	14514
889.015	14423
889.139	14408
889.263	14400
889.387	14568
889.511	14625
889.635	14575
889.759	14423
889.883	14419
890.006	14507
890.13	14613
890.254	14404
890.377	14408
890.501	14123
890.624	14210
890.748	14343
890.871	14130
890.995	14069
891.118	13982
891.241	14119
891.364	14115
891.488	14320
891.611	14092
891.734	14065
891.857	14210
891.98	14195
892.103	14130
892.226	14172
892.349	14172
892.471	14039
892.594	14100
892.717	14168
892.839	14065
892.962	14176
893.085	14278
893.207	14214
893.33	14035
893.452	14027
893.575	14199
893.697	14126
893.819	14332
893.941	14370
894.064	14282
894.186	14145
894.308	13986
894.43	14267
894.552	14332
894.674	14389
894.796	14134
894.918	14153
895.04	14214
895.161	14275
895.283	14221
895.405	14183
895.526	14206
895.648	14145
895.769	14305
895.891	14339
896.012	14355
896.134	14301
896.255	14313
896.376	14199
896.498	14301
896.619	14351
896.74	14328
896.861	14282
896.982	14663
897.103	14819
897.224	14648
897.345	14530
897.466	14454
897.587	14499
897.708	14788
897.828	14602
897.949	14476
898.07	14408
898.19	14514
898.311	14724
898.431	14667
898.552	14655
898.672	14610
898.792	14674
898.913	14617
899.033	14518
899.153	14492
899.273	14427
899.393	14457
899.513	14541
899.633	14450
899.753	14564
899.873	14396
899.993	14465
900.113	14480
900.232	14526
900.352	14415
900.472	14412
900.591	14339
900.711	14431
900.83	14343
900.95	14381
901.069	14355
901.189	14351
901.308	14088
901.427	14043
901.546	14046
901.665	14024
901.784	14096
901.904	13925
902.023	13913
902.141	13548
902.26	13590
902.379	13689
902.498	13647
902.617	13586
902.735	13613
902.854	13552
902.973	13594
903.091	13384
903.21	13263
903.328	13320
903.446	13285
903.565	13209
903.683	13282
903.801	13038
903.919	13080
904.038	13015
904.156	13118
904.274	13069
904.392	12977
904.51	13004
904.627	13012
904.745	13057
904.863	12996
904.981	12798
905.098	12692
905.216	12566
905.334	12741
905.451	12791
905.569	12627
905.686	12707
905.803	12639
905.921	12494
906.038	12604
906.155	12506
906.272	12407
906.389	12426
906.506	12289
906.623	12319
906.74	12292
906.857	12144
906.974	12270
907.091	12300
907.208	12376
907.324	12338
907.441	12251
907.557	12022
907.674	11988
907.79	11988
907.907	11996
908.023	12049
908.139	11965
908.256	11923
908.372	12003
908.488	12011
908.604	11805
908.72	11737
908.836	11832
908.952	11779
909.068	11832
909.184	11821
909.3	11729
909.415	11927
909.531	11863
909.647	11615
909.762	11512
909.878	11505
909.993	11516
910.108	11558
910.224	11532
910.339	11497
910.454	11436
910.57	11410
910.685	11337
910.8	11699
910.915	11543
911.03	11474
911.145	11334
911.259	11189
911.374	11307
911.489	11220
911.604	11045
911.718	11037
911.833	10999
911.947	10923
912.062	10771
912.176	10995
912.291	11003
912.405	10999
912.519	11174
912.633	11132
912.748	11071
912.862	10991
912.976	10900
913.09	10733
913.204	10805
913.318	10847
913.431	11018
913.545	10946
913.659	10995
913.772	10904
913.886	10835
914	10717
914.113	10793
914.226	10892
914.34	10820
914.453	10675
914.566	10904
914.68	10675
914.793	10759
914.906	10558
915.019	10538
915.132	10459
915.245	10516
915.358	10516
915.47	10489
915.583	10508
915.696	10535
915.809	10634
915.921	10714
916.034	10413
916.146	10508
916.259	10413
916.371	10577
916.483	10478
916.595	10440
916.708	10493
916.82	10478
916.932	10481
917.044	10432
917.156	10367
917.268	10352
917.38	10341
917.491	10310
917.603	10306
917.715	10421
917.826	10478
917.938	10284
918.049	10295
918.161	10417
918.272	10481
918.384	10478
918.495	10413
918.606	10173
918.717	10147
918.828	10284
918.939	10242
919.05	10097
919.161	10238
919.272	10017
919.383	10090
919.494	10242
919.604	10447
919.715	10272
919.826	10185
919.936	10192
920.047	10295
920.157	10219
920.267	10428
920.378	10265
920.488	10227
920.598	10440
920.708	10622
920.818	10421
920.928	10462
921.038	10611
921.148	10630
921.258	10306
921.368	10181
921.477	10105
921.587	10109
921.697	9876
921.806	10166
921.916	9945
922.025	9770
922.134	9793
922.244	9667
922.353	9854
922.462	9698
922.571	9660
922.68	9473
922.789	9447
922.898	9466
923.007	9458
923.116	9572
923.224	9488
923.333	9469
923.442	9359
923.55	9405
923.659	9363
923.767	9469
923.876	9367
923.984	9424
924.092	9260
924.201	9351
924.309	9340
924.417	9359
924.525	9298
924.633	9310
924.741	10188
924.849	9165
924.956	9207
925.064	9195
925.172	9081
925.279	9108
925.387	9150
925.494	9142
925.602	9332
925.709	9256
925.816	9074
925.924	9093
926.031	9195
926.138	9089
926.245	9279
926.352	9058
926.459	9150
926.566	9245
926.673	9089
926.779	9055
926.886	8986
926.993	8887
927.099	8838
927.206	8796
927.312	8785
927.419	8944
927.525	8861
927.631	8830
927.737	8773
927.843	8781
927.95	8659
928.056	8701
928.162	8731
928.267	8807
928.373	9405
928.479	8834
928.585	8606
928.69	8686
928.796	8777
928.901	8670
929.007	8533
929.112	8648
929.218	8598
929.323	8610
929.428	8552
929.533	8731
929.638	8434
929.743	8476
929.848	8590
929.953	8556
930.058	8457
930.163	8320
930.267	8423
930.372	8461
930.477	8267
930.581	8537
930.685	8389
930.79	8259
930.894	8248
930.998	8313
931.103	8377
931.207	8115
931.311	8035
931.415	7936
931.519	7788
931.623	7784
