Data from test_V78500241_3665.txt Node
Date: Fri Mar 25 14:59:14 CST 2022
User: usil
Spectrometer: V785-0024
Trigger mode: 0
Integration Time (sec): 4.000000E-1
Scans to average: 1
Nonlinearity correction enabled: false
Boxcar width: 0
Storing dark spectrum: false
XAxis mode: Wavelengths
Number of Pixels in Spectrum: 1024
>>>>>Begin Spectral Data<<<<<
801.071	21854
801.214	21812
801.356	21545
801.499	21420
801.641	21420
801.783	21192
801.926	21321
802.068	21241
802.211	21081
802.353	21123
802.496	20853
802.638	20758
802.78	20686
802.923	20663
803.065	20571
803.208	20564
803.35	20636
803.492	20648
803.635	20792
803.777	20537
803.919	20712
804.061	20929
804.204	20659
804.346	20545
804.488	20423
804.63	20465
804.773	20522
804.915	20457
805.057	20644
805.199	20415
805.341	20526
805.483	20621
805.626	20564
805.768	20438
805.91	20526
806.052	20488
806.194	20514
806.336	20670
806.478	20499
806.62	20431
806.762	20511
806.904	20686
807.046	20746
807.188	20868
807.33	20895
807.472	20849
807.614	20693
807.756	20765
807.898	20682
808.04	20590
808.182	20632
808.324	20530
808.465	20492
808.607	20807
808.749	20720
808.891	21013
809.033	21112
809.174	21001
809.316	20788
809.458	20880
809.6	20849
809.741	20845
809.883	20937
810.025	20979
810.166	20963
810.308	20956
810.45	20918
810.591	20826
810.733	20765
810.875	20625
811.016	20362
811.158	20495
811.299	20701
811.441	20720
811.582	20762
811.724	20560
811.865	20556
812.007	20457
812.148	20571
812.29	20621
812.431	20861
812.573	20998
812.714	20952
812.855	21020
812.997	21161
813.138	21344
813.279	21173
813.421	21085
813.562	21028
813.703	21017
813.845	20754
813.986	20499
814.127	20256
814.268	20252
814.41	20161
814.551	20134
814.692	20191
814.833	20122
814.974	20077
815.115	20138
815.256	20077
815.397	19989
815.539	19974
815.68	19826
815.821	19833
815.962	19921
816.103	19769
816.244	19655
816.385	19628
816.526	19525
816.666	19476
816.807	19343
816.948	19419
817.089	19441
817.23	19339
817.371	19301
817.512	19407
817.653	19312
817.793	19247
817.934	19209
818.075	19335
818.216	19278
818.356	19187
818.497	19027
818.638	18954
818.778	19015
818.919	18901
819.06	18939
819.2	19019
819.341	19152
819.481	19217
819.622	19255
819.762	19396
819.903	19453
820.043	19304
820.184	19266
820.324	19285
820.465	19491
820.605	19251
820.746	19175
820.886	19156
821.026	19103
821.167	19175
821.307	19282
821.447	19179
821.588	19076
821.728	18958
821.868	18894
822.008	18719
822.149	18597
822.289	18688
822.429	18414
822.569	18357
822.709	18471
822.849	18144
822.99	18167
823.13	18201
823.27	18041
823.41	18057
823.55	17885
823.69	17859
823.83	18003
823.97	17863
824.11	17748
824.25	17767
824.389	17752
824.529	17813
824.669	17741
824.809	17824
824.949	17813
825.089	17752
825.228	17672
825.368	17608
825.508	17585
825.648	17490
825.787	17535
825.927	17558
826.067	17520
826.206	17417
826.346	17566
826.485	17627
826.625	17585
826.765	17551
826.904	17520
827.044	17349
827.183	17261
827.323	17273
827.462	17303
827.601	17204
827.741	17105
827.88	17258
828.02	17105
828.159	17239
828.298	17292
828.437	17292
828.577	17220
828.716	17193
828.855	17162
828.994	16961
829.134	17025
829.273	17022
829.412	16900
829.551	16934
829.69	16965
829.829	16980
829.968	17132
830.107	17041
830.246	16923
830.385	16984
830.524	16847
830.663	16759
830.802	16683
830.941	16573
831.08	16607
831.219	16660
831.357	16664
831.496	16900
831.635	16516
831.774	16440
831.913	16531
832.051	16344
832.19	16428
832.329	16409
832.467	16306
832.606	16230
832.744	16295
832.883	16306
833.022	16348
833.16	16337
833.299	16333
833.437	16360
833.576	16303
833.714	16310
833.852	16344
833.991	16348
834.129	16500
834.267	16440
834.406	16337
834.544	16417
834.682	16291
834.821	16299
834.959	16462
835.097	16268
835.235	16493
835.373	16329
835.511	16329
835.65	16314
835.788	16238
835.926	16105
836.064	16116
836.202	16021
836.34	16280
836.478	16390
836.615	16272
836.753	16204
836.891	16333
837.029	16268
837.167	16276
837.305	16128
837.443	16234
837.58	16051
837.718	16215
837.856	16253
837.993	16059
838.131	16207
838.269	16063
838.406	16067
838.544	16006
838.681	15823
838.819	15857
838.956	15755
839.094	15622
839.231	15747
839.369	15831
839.506	16116
839.643	16021
839.781	15770
839.918	15717
840.055	15717
840.193	15694
840.33	15637
840.467	15751
840.604	15591
840.742	15930
840.879	15561
841.016	15648
841.153	15694
841.29	15816
841.427	15743
841.564	15804
841.701	15698
841.838	15770
841.975	15595
842.112	15545
842.249	15553
842.385	15454
842.522	15713
842.659	15526
842.796	15458
842.933	15538
843.069	15545
843.206	15439
843.343	15641
843.479	15492
843.616	15504
843.752	15329
843.889	15279
844.025	15416
844.162	15313
844.298	15370
844.435	15306
844.571	15127
844.708	15431
844.844	15344
844.98	15435
845.117	15401
845.253	15207
845.389	15108
845.525	15230
845.661	15260
845.798	15005
845.934	15123
846.07	15066
846.206	15157
846.342	15123
846.478	15081
846.614	14899
846.75	14944
846.886	14743
847.022	14876
847.158	14838
847.294	14895
847.429	14929
847.565	14887
847.701	15131
847.837	14571
847.972	14579
848.108	14720
848.244	14686
848.379	14522
848.515	14442
848.65	14412
848.786	14461
848.921	14454
849.057	14541
849.192	14549
849.328	14457
849.463	14438
849.598	14408
849.734	14336
849.869	14301
850.004	14248
850.14	14176
850.275	14218
850.41	14199
850.545	14206
850.68	14214
850.815	14309
850.95	14214
851.085	14374
851.22	14282
851.355	14240
851.49	14248
851.625	14229
851.76	14294
851.895	14134
852.03	14142
852.165	14259
852.299	14240
852.434	14347
852.569	14210
852.703	14107
852.838	14358
852.973	14381
853.107	14324
853.242	14218
853.376	14088
853.511	14016
853.645	14046
853.78	14278
853.914	14043
854.048	14103
854.183	14031
854.317	14153
854.451	14229
854.585	14115
854.72	14115
854.854	14206
854.988	14065
855.122	14142
855.256	14020
855.39	14027
855.524	14244
855.658	14172
855.792	14088
855.926	14172
856.06	14168
856.194	14149
856.327	14092
856.461	14096
856.595	14096
856.729	14050
856.862	14202
856.996	14062
857.13	14225
857.263	14183
857.397	14225
857.53	14088
857.664	14096
857.797	14210
857.931	14176
858.064	14134
858.197	14240
858.331	14237
858.464	14073
858.597	14035
858.731	14092
858.864	14142
858.997	14088
859.13	14202
859.263	14100
859.396	14199
859.529	14077
859.662	14100
859.795	14058
859.928	14202
860.061	14248
860.194	14206
860.327	14115
860.46	14145
860.592	14237
860.725	14229
860.858	14218
860.99	14043
861.123	14016
861.256	14046
861.388	14024
861.521	14834
861.653	13951
861.786	13833
861.918	13970
862.05	13982
862.183	14016
862.315	14183
862.447	14126
862.58	13986
862.712	13849
862.844	13864
862.976	13982
863.108	13898
863.24	14278
863.372	13909
863.504	13879
863.636	13887
863.768	13963
863.9	13974
864.032	13913
864.164	13852
864.296	13887
864.428	13978
864.559	14005
864.691	14069
864.823	13959
864.954	13959
865.086	13936
865.217	13856
865.349	13807
865.48	13849
865.612	13879
865.743	13986
865.875	13913
866.006	13856
866.137	13940
866.269	13921
866.4	13833
866.531	13898
866.662	13803
866.793	13753
866.924	13860
867.055	13909
867.186	13841
867.317	13879
867.448	13742
867.579	13742
867.71	13757
867.841	13731
867.972	13909
868.103	13887
868.233	13898
868.364	13902
868.495	13925
868.625	14031
868.756	14256
868.886	14088
869.017	14191
869.147	14214
869.278	14271
869.408	14145
869.539	14145
869.669	14240
869.799	14153
869.929	14294
870.06	14225
870.19	14374
870.32	14503
870.45	14480
870.58	14571
870.71	14724
870.84	14598
870.97	14617
871.1	14457
871.23	14773
871.36	14781
871.489	14617
871.619	14682
871.749	14754
871.879	14804
872.008	14861
872.138	14640
872.267	14670
872.397	14636
872.526	14492
872.656	14473
872.785	14583
872.915	14701
873.044	14826
873.173	14804
873.303	14876
873.432	14819
873.561	14925
873.69	14788
873.819	14811
873.948	14967
874.077	14777
874.206	14697
874.335	14826
874.464	14952
874.593	15085
874.722	14975
874.851	15188
874.979	15119
875.108	15207
875.237	15089
875.365	15039
875.494	15104
875.623	15184
875.751	15097
875.88	15066
876.008	15199
876.136	15302
876.265	15557
876.393	15652
876.521	15564
876.65	15580
876.778	15542
876.906	15561
877.034	15443
877.162	15477
877.29	15408
877.418	15530
877.546	15492
877.674	15511
877.802	15370
877.93	15523
878.058	15485
878.185	15397
878.313	15492
878.441	15458
878.568	15291
878.696	15504
878.824	15523
878.951	15572
879.079	15690
879.206	15934
879.333	15675
879.461	15542
879.588	15576
879.715	15736
879.842	15880
879.97	15656
880.097	15344
880.224	15363
880.351	15378
880.478	15374
880.605	15310
880.732	15298
880.859	15660
880.986	15405
881.112	15374
881.239	15264
881.366	15123
881.493	15062
881.619	14944
881.746	15024
881.872	15013
881.999	14918
882.125	15020
882.252	15093
882.378	15077
882.505	15135
882.631	14994
882.757	14929
882.883	14887
883.01	14788
883.136	14830
883.262	14720
883.388	14651
883.514	14834
883.64	14902
883.766	14762
883.892	14629
884.018	14686
884.143	14777
884.269	14918
884.395	14663
884.52	14648
884.646	14495
884.772	14579
884.897	14473
885.023	14495
885.148	14686
885.274	14670
885.399	14667
885.524	14583
885.65	14545
885.775	14564
885.9	14537
886.025	14712
886.15	14579
886.275	14522
886.4	14427
886.525	14442
886.65	14495
886.775	14568
886.9	14648
887.025	14762
887.149	14533
887.274	14396
887.399	14404
887.523	14320
887.648	14320
887.773	14210
887.897	14484
888.021	14461
888.146	14332
888.27	14465
888.395	14473
888.519	14454
888.643	14465
888.767	14400
888.891	14324
889.015	14229
889.139	14290
889.263	14199
889.387	14309
889.511	14480
889.635	14362
889.759	14134
889.883	14286
890.006	14332
890.13	14347
890.254	14229
890.377	14100
890.501	14027
890.624	14069
890.748	14046
890.871	14081
890.995	14001
891.118	13879
891.241	13959
891.364	13986
891.488	14088
891.611	13875
891.734	13879
891.857	13959
891.98	14035
892.103	14043
892.226	14027
892.349	13925
892.471	13814
892.594	13989
892.717	14084
892.839	13967
892.962	13974
893.085	14001
893.207	13909
893.33	13761
893.452	13917
893.575	13967
893.697	13921
893.819	14199
893.941	14088
894.064	14100
894.186	13940
894.308	13883
894.43	14043
894.552	14145
894.674	14149
894.796	13970
894.918	13963
895.04	13986
895.161	14092
895.283	14103
895.405	14012
895.526	13955
895.648	14134
895.769	14126
895.891	14054
896.012	14202
896.134	14111
896.255	14199
896.376	14103
896.498	14153
896.619	14168
896.74	14157
896.861	14149
896.982	14473
897.103	14602
897.224	14457
897.345	14412
897.466	14385
897.587	14457
897.708	14518
897.828	14438
897.949	14332
898.07	14339
898.19	14339
898.311	14590
898.431	14347
898.552	14514
898.672	14552
898.792	14526
898.913	14533
899.033	14469
899.153	14332
899.273	14233
899.393	14389
899.513	14328
899.633	14339
899.753	14400
899.873	14267
899.993	14400
900.113	14290
900.232	14419
900.352	14233
900.472	14259
900.591	14153
900.711	14263
900.83	14130
900.95	14229
901.069	14229
901.189	14054
901.308	13856
901.427	13746
901.546	13849
901.665	13913
901.784	13928
901.904	13830
902.023	13719
902.141	13464
902.26	13499
902.379	13506
902.498	13449
902.617	13396
902.735	13533
902.854	13426
902.973	13415
903.091	13099
903.21	13145
903.328	13133
903.446	13076
903.565	12996
903.683	13061
903.801	12981
903.919	12951
904.038	13057
904.156	12882
904.274	12947
904.392	12833
904.51	12852
904.627	12852
904.745	12901
904.863	12935
904.981	12681
905.098	12585
905.216	12582
905.334	12612
905.451	12528
905.569	12544
905.686	12540
905.803	12544
905.921	12369
906.038	12323
906.155	12338
906.272	12247
906.389	12289
906.506	12163
906.623	12060
906.74	12133
906.857	11916
906.974	11999
907.091	12152
907.208	12220
907.324	12136
907.441	12007
907.557	11908
907.674	11904
907.79	11840
907.907	11885
908.023	11855
908.139	11885
908.256	11794
908.372	11805
908.488	11752
908.604	11672
908.72	11611
908.836	11653
908.952	11600
909.068	11653
909.184	11699
909.3	11619
909.415	11676
909.531	11623
909.647	11421
909.762	11379
909.878	11353
909.993	11398
910.108	11395
910.224	11398
910.339	11379
910.454	11334
910.57	11299
910.685	11208
910.8	11444
910.915	11417
911.03	11239
911.145	11128
911.259	11113
911.374	11121
911.489	10972
911.604	11079
911.718	10889
911.833	10911
911.947	10755
912.062	10675
912.176	10843
912.291	10835
912.405	10908
912.519	11083
912.633	11090
912.748	10889
912.862	10987
912.976	10736
913.09	10637
913.204	10767
913.318	10733
913.431	10824
913.545	10812
913.659	10889
913.772	10793
913.886	10668
914	10569
914.113	10752
914.226	10687
914.34	10717
914.453	10508
914.566	10744
914.68	10607
914.793	10573
914.906	10390
915.019	10363
915.132	10287
915.245	10341
915.358	10409
915.47	10466
915.583	10443
915.696	10489
915.809	10466
915.921	10565
916.034	10398
916.146	10344
916.259	10398
916.371	10519
916.483	10432
916.595	10276
916.708	10344
916.82	10363
916.932	10242
917.044	10291
917.156	10272
917.268	10128
917.38	10234
917.491	10177
917.603	10329
917.715	10314
917.826	10272
917.938	10272
918.049	10120
918.161	10188
918.272	10341
918.384	10413
918.495	10284
918.606	10124
918.717	10032
918.828	10150
918.939	10082
919.05	10021
919.161	10105
919.272	9869
919.383	9911
919.494	10131
919.604	10287
919.715	10116
919.826	10059
919.936	10112
920.047	10173
920.157	10173
920.267	10322
920.378	10150
920.488	10128
920.598	10265
920.708	10417
920.818	10287
920.928	10314
921.038	10421
921.148	10447
921.258	10166
921.368	10029
921.477	10021
921.587	9911
921.697	9899
921.806	9979
921.916	9812
922.025	9713
922.134	9633
922.244	9705
922.353	9679
922.462	9515
922.571	9488
922.68	9393
922.789	9405
922.898	9443
923.007	9321
923.116	9363
923.224	9408
923.333	9382
923.442	9298
923.55	9222
923.659	9310
923.767	9336
923.876	9199
923.984	9355
924.092	9165
924.201	9272
924.309	9283
924.417	9253
924.525	9184
924.633	9222
924.741	10021
924.849	9039
924.956	9245
925.064	8921
925.172	8937
925.279	8982
925.387	9081
925.494	9039
925.602	9211
925.709	9154
925.816	9024
925.924	8990
926.031	9173
926.138	9074
926.245	9138
926.352	8929
926.459	9100
926.566	9150
926.673	8998
926.779	8853
926.886	8834
926.993	8777
927.099	8720
927.206	8727
927.312	8686
927.419	8853
927.525	8762
927.631	8857
927.737	8670
927.843	8632
927.95	8484
928.056	8629
928.162	8705
928.267	8651
928.373	9203
928.479	8720
928.585	8522
928.69	8693
928.796	8705
928.901	8590
929.007	8412
929.112	8568
929.218	8488
929.323	8465
929.428	8396
929.533	8587
929.638	8415
929.743	8434
929.848	8473
929.953	8549
930.058	8332
930.163	8176
930.267	8328
930.372	8377
930.477	8244
930.581	8457
930.685	8294
930.79	8168
930.894	8244
930.998	8180
931.103	8301
931.207	8012
931.311	7913
931.415	7887
931.519	7708
931.623	7746
