Data from test_V78500241_3427.txt Node
Date: Fri Mar 25 14:57:34 CST 2022
User: usil
Spectrometer: V785-0024
Trigger mode: 0
Integration Time (sec): 4.000000E-1
Scans to average: 1
Nonlinearity correction enabled: false
Boxcar width: 0
Storing dark spectrum: false
XAxis mode: Wavelengths
Number of Pixels in Spectrum: 1024
>>>>>Begin Spectral Data<<<<<
801.071	21915
801.214	21846
801.356	21545
801.499	21564
801.641	21355
801.783	21275
801.926	21302
802.068	21336
802.211	21294
802.353	21230
802.496	20891
802.638	20826
802.78	20750
802.923	20823
803.065	20556
803.208	20594
803.35	20697
803.492	20773
803.635	20857
803.777	20720
803.919	20731
804.061	20944
804.204	20693
804.346	20648
804.488	20492
804.63	20473
804.773	20511
804.915	20549
805.057	20705
805.199	20541
805.341	20568
805.483	20735
805.626	20663
805.768	20522
805.91	20564
806.052	20495
806.194	20446
806.336	20743
806.478	20537
806.62	20670
806.762	20545
806.904	20815
807.046	20800
807.188	20902
807.33	20815
807.472	20883
807.614	20838
807.756	20788
807.898	20674
808.04	20579
808.182	20537
808.324	20579
808.465	20575
808.607	20792
808.749	20834
808.891	21051
809.033	21017
809.174	20914
809.316	20868
809.458	20918
809.6	20796
809.741	20902
809.883	21024
810.025	21131
810.166	21013
810.308	21108
810.45	20857
810.591	20914
810.733	20842
810.875	20659
811.016	20583
811.158	20556
811.299	20663
811.441	20765
811.582	20834
811.724	20731
811.865	20667
812.007	20644
812.148	20743
812.29	20640
812.431	20754
812.573	21020
812.714	21123
812.855	21100
812.997	21226
813.138	21435
813.279	21272
813.421	21119
813.562	21077
813.703	20830
813.845	20830
813.986	20404
814.127	20290
814.268	20313
814.41	20149
814.551	20183
814.692	20183
814.833	20024
814.974	20180
815.115	20145
815.256	19982
815.397	19963
815.539	20012
815.68	20005
815.821	19894
815.962	19883
816.103	19944
816.244	19658
816.385	19681
816.526	19776
816.666	19552
816.807	19297
816.948	19441
817.089	19453
817.23	19304
817.371	19259
817.512	19316
817.653	19293
817.793	19285
817.934	19388
818.075	19369
818.216	19282
818.356	19293
818.497	19168
818.638	19015
818.778	19034
818.919	18985
819.06	18973
819.2	19050
819.341	19240
819.481	19206
819.622	19217
819.762	19480
819.903	19407
820.043	19411
820.184	19369
820.324	19343
820.465	19362
820.605	19308
820.746	19278
820.886	19213
821.026	19331
821.167	19266
821.307	19251
821.447	19194
821.588	19027
821.728	19023
821.868	18890
822.008	18745
822.149	18749
822.289	18650
822.429	18486
822.569	18380
822.709	18471
822.849	18213
822.99	18140
823.13	18167
823.27	18136
823.41	17992
823.55	17977
823.69	17935
823.83	18057
823.97	17999
824.11	17756
824.25	17642
824.389	17760
824.529	17912
824.669	17764
824.809	17939
824.949	17908
825.089	17843
825.228	17748
825.368	17623
825.508	17558
825.648	17608
825.787	17558
825.927	17608
826.067	17539
826.206	17570
826.346	17558
826.485	17467
826.625	17512
826.765	17745
826.904	17573
827.044	17425
827.183	17280
827.323	17349
827.462	17261
827.601	17311
827.741	17239
827.88	17269
828.02	17193
828.159	17292
828.298	17185
828.437	17303
828.577	17242
828.716	17414
828.855	17391
828.994	17010
829.134	17018
829.273	17056
829.412	16900
829.551	16885
829.69	17102
829.829	17037
829.968	17121
830.107	17155
830.246	16976
830.385	17064
830.524	16900
830.663	17014
830.802	16801
830.941	16615
831.08	16615
831.219	16767
831.357	16649
831.496	16839
831.635	16580
831.774	16535
831.913	16634
832.051	16481
832.19	16356
832.329	16394
832.467	16375
832.606	16333
832.744	16268
832.883	16447
833.022	16284
833.16	16242
833.299	16413
833.437	16409
833.576	16329
833.714	16356
833.852	16424
833.991	16413
834.129	16493
834.267	16455
834.406	16382
834.544	16447
834.682	16550
834.821	16402
834.959	16554
835.097	16409
835.235	16535
835.373	16462
835.511	16402
835.65	16291
835.788	16276
835.926	16276
836.064	16143
836.202	16109
836.34	16303
836.478	16436
836.615	16310
836.753	16363
836.891	16424
837.029	16382
837.167	16367
837.305	16265
837.443	16291
837.58	16109
837.718	16306
837.856	16192
837.993	16257
838.131	16253
838.269	16101
838.406	16166
838.544	16048
838.681	15987
838.819	15930
838.956	15766
839.094	15823
839.231	15759
839.369	15911
839.506	16185
839.643	16032
839.781	15808
839.918	15713
840.055	15713
840.193	15739
840.33	15690
840.467	15755
840.604	15797
840.742	16002
840.879	15622
841.016	15576
841.153	15660
841.29	15835
841.427	15808
841.564	15762
841.701	15644
841.838	15652
841.975	15686
842.112	15743
842.249	15572
842.385	15568
842.522	15679
842.659	15606
842.796	15504
842.933	15534
843.069	15435
843.206	15511
843.343	15660
843.479	15519
843.616	15572
843.752	15310
843.889	15428
844.025	15473
844.162	15245
844.298	15408
844.435	15382
844.571	15291
844.708	15428
844.844	15492
844.98	15336
845.117	15454
845.253	15241
845.389	15188
845.525	15169
845.661	15230
845.798	15017
845.934	15173
846.07	15017
846.206	15131
846.342	15272
846.478	15036
846.614	15051
846.75	14891
846.886	14872
847.022	15036
847.158	14960
847.294	14868
847.429	14963
847.565	14902
847.701	15119
847.837	14686
847.972	14552
848.108	14727
848.244	14727
848.379	14556
848.515	14537
848.65	14552
848.786	14560
848.921	14492
849.057	14617
849.192	14602
849.328	14511
849.463	14571
849.598	14518
849.734	14507
849.869	14351
850.004	14317
850.14	14256
850.275	14233
850.41	14157
850.545	14233
850.68	14271
850.815	14301
850.95	14218
851.085	14488
851.22	14457
851.355	14233
851.49	14237
851.625	14199
851.76	14278
851.895	14210
852.03	14233
852.165	14187
852.299	14343
852.434	14362
852.569	14362
852.703	14351
852.838	14381
852.973	14503
853.107	14366
853.242	14294
853.376	14145
853.511	14138
853.645	14035
853.78	14286
853.914	14183
854.048	14054
854.183	14115
854.317	14248
854.451	14339
854.585	14240
854.72	14088
854.854	14259
854.988	14081
855.122	14115
855.256	14008
855.39	14180
855.524	14221
855.658	14214
855.792	14176
855.926	14161
856.06	14240
856.194	14309
856.327	14157
856.461	14168
856.595	14123
856.729	14164
856.862	14275
856.996	14214
857.13	14229
857.263	14332
857.397	14301
857.53	14244
857.664	14256
857.797	14252
857.931	14240
858.064	14153
858.197	14290
858.331	14206
858.464	14142
858.597	14100
858.731	14138
858.864	14111
858.997	14187
859.13	14187
859.263	14187
859.396	14172
859.529	14134
859.662	14119
859.795	14062
859.928	14271
860.061	14366
860.194	14320
860.327	14271
860.46	14237
860.592	14343
860.725	14328
860.858	14282
860.99	14240
861.123	14073
861.256	14081
861.388	14168
861.521	14842
861.653	14024
861.786	13970
861.918	14126
862.05	14039
862.183	14271
862.315	14225
862.447	14172
862.58	14100
862.712	14016
862.844	13902
862.976	14050
863.108	14024
863.24	14377
863.372	13826
863.504	14005
863.636	13887
863.768	14016
863.9	13967
864.032	13940
864.164	13856
864.296	13986
864.428	14107
864.559	14001
864.691	13986
864.823	14035
864.954	13967
865.086	13936
865.217	13951
865.349	13852
865.48	13955
865.612	13921
865.743	14024
865.875	14001
866.006	13898
866.137	13963
866.269	13833
866.4	13940
866.531	13951
866.662	13887
866.793	13875
866.924	13928
867.055	13967
867.186	13932
867.317	13849
867.448	13761
867.579	13925
867.71	13761
867.841	13849
867.972	13909
868.103	13852
868.233	13921
868.364	13887
868.495	14054
868.625	14206
868.756	14328
868.886	14073
869.017	14088
869.147	14294
869.278	14301
869.408	14233
869.539	14237
869.669	14145
869.799	14199
869.929	14298
870.06	14305
870.19	14495
870.32	14404
870.45	14495
870.58	14629
870.71	14823
870.84	14777
870.97	14587
871.1	14552
871.23	14712
871.36	14785
871.489	14610
871.619	14758
871.749	14743
871.879	14796
872.008	14849
872.138	14861
872.267	14674
872.397	14697
872.526	14674
872.656	14705
872.785	14655
872.915	14883
873.044	14918
873.173	14777
873.303	14899
873.432	14880
873.561	14933
873.69	14792
873.819	14842
873.948	14883
874.077	14849
874.206	14853
874.335	14807
874.464	15047
874.593	15142
874.722	15097
874.851	15150
874.979	15077
875.108	15268
875.237	15097
875.365	15116
875.494	15013
875.623	15249
875.751	15131
875.88	15192
876.008	15420
876.136	15367
876.265	15542
876.393	15739
876.521	15603
876.65	15595
876.778	15622
876.906	15443
877.034	15485
877.162	15603
877.29	15519
877.418	15591
877.546	15572
877.674	15614
877.802	15606
877.93	15530
878.058	15443
878.185	15492
878.313	15504
878.441	15488
878.568	15340
878.696	15450
878.824	15523
878.951	15671
879.079	15785
879.206	15983
879.333	15633
879.461	15572
879.588	15618
879.715	15743
879.842	15941
879.97	15675
880.097	15454
880.224	15466
880.351	15500
880.478	15481
880.605	15519
880.732	15329
880.859	15618
880.986	15401
881.112	15450
881.239	15329
881.366	15154
881.493	15165
881.619	15142
881.746	15081
881.872	15085
881.999	15036
882.125	14967
882.252	15112
882.378	15127
882.505	15260
882.631	15055
882.757	14864
882.883	15032
883.01	14921
883.136	14838
883.262	14826
883.388	14815
883.514	14933
883.64	14967
883.766	14823
883.892	14796
884.018	14746
884.143	14921
884.269	14914
884.395	14556
884.52	14655
884.646	14610
884.772	14629
884.897	14507
885.023	14568
885.148	14746
885.274	14792
885.399	14781
885.524	14606
885.65	14629
885.775	14708
885.9	14629
886.025	14670
886.15	14636
886.275	14731
886.4	14541
886.525	14541
886.65	14575
886.775	14423
886.9	14697
887.025	14746
887.149	14613
887.274	14377
887.399	14400
887.523	14476
887.648	14343
887.773	14457
887.897	14511
888.021	14499
888.146	14385
888.27	14571
888.395	14579
888.519	14495
888.643	14480
888.767	14533
888.891	14275
889.015	14317
889.139	14259
889.263	14278
889.387	14381
889.511	14442
889.635	14423
889.759	14290
889.883	14317
890.006	14404
890.13	14381
890.254	14199
890.377	14313
890.501	14115
890.624	14123
890.748	14164
890.871	14092
890.995	14008
891.118	14027
891.241	14050
891.364	14054
891.488	14024
891.611	14054
891.734	13986
891.857	14050
891.98	14039
892.103	14119
892.226	14103
892.349	13936
892.471	13944
892.594	13967
892.717	14100
892.839	14005
892.962	14050
893.085	14100
893.207	14115
893.33	13947
893.452	13864
893.575	14062
893.697	13921
893.819	14126
893.941	14119
894.064	14115
894.186	13951
894.308	13944
894.43	14172
894.552	14206
894.674	14183
894.796	13951
894.918	14046
895.04	14107
895.161	14221
895.283	14092
895.405	14020
895.526	14024
895.648	14100
895.769	14153
895.891	14065
896.012	14202
896.134	14225
896.255	14233
896.376	14088
896.498	14062
896.619	14286
896.74	14240
896.861	14229
896.982	14469
897.103	14617
897.224	14518
897.345	14389
897.466	14396
897.587	14503
897.708	14640
897.828	14461
897.949	14438
898.07	14351
898.19	14377
898.311	14610
898.431	14465
898.552	14575
898.672	14610
898.792	14575
898.913	14594
899.033	14438
899.153	14374
899.273	14336
899.393	14336
899.513	14381
899.633	14396
899.753	14370
899.873	14396
899.993	14393
900.113	14419
900.232	14423
900.352	14396
900.472	14328
900.591	14157
900.711	14309
900.83	14229
900.95	14366
901.069	14374
901.189	14149
901.308	14020
901.427	13894
901.546	13856
901.665	13982
901.784	14005
901.904	13818
902.023	13696
902.141	13426
902.26	13457
902.379	13491
902.498	13400
902.617	13354
902.735	13506
902.854	13419
902.973	13480
903.091	13350
903.21	13247
903.328	13282
903.446	13091
903.565	13152
903.683	13069
903.801	12875
903.919	13080
904.038	13053
904.156	12806
904.274	12951
904.392	12905
904.51	12844
904.627	12840
904.745	12920
904.863	12886
904.981	12703
905.098	12589
905.216	12486
905.334	12700
905.451	12517
905.569	12574
905.686	12669
905.803	12631
905.921	12353
906.038	12490
906.155	12410
906.272	12159
906.389	12266
906.506	12136
906.623	12144
906.74	12087
906.857	12011
906.974	12076
907.091	12220
907.208	12323
907.324	12133
907.441	12079
907.557	11946
907.674	11855
907.79	11885
907.907	11889
908.023	11931
908.139	11912
908.256	11912
908.372	11805
908.488	11805
908.604	11684
908.72	11585
908.836	11676
908.952	11611
909.068	11657
909.184	11794
909.3	11600
909.415	11783
909.531	11688
909.647	11493
909.762	11436
909.878	11383
909.993	11387
910.108	11436
910.224	11368
910.339	11429
910.454	11307
910.57	11254
910.685	11246
910.8	11425
910.915	11478
911.03	11368
911.145	11143
911.259	11174
911.374	11151
911.489	11025
911.604	10976
911.718	10900
911.833	10854
911.947	10828
912.062	10805
912.176	10805
912.291	10927
912.405	10866
912.519	11155
912.633	11140
912.748	11022
912.862	10862
912.976	10820
913.09	10668
913.204	10778
913.318	10752
913.431	10885
913.545	10869
913.659	10862
913.772	10725
913.886	10672
914	10660
914.113	10725
914.226	10771
914.34	10771
914.453	10622
914.566	10755
914.68	10611
914.793	10622
914.906	10352
915.019	10356
915.132	10360
915.245	10390
915.358	10421
915.47	10428
915.583	10424
915.696	10341
915.809	10611
915.921	10558
916.034	10356
916.146	10344
916.259	10337
916.371	10451
916.483	10504
916.595	10242
916.708	10333
916.82	10329
916.932	10417
917.044	10322
917.156	10268
917.268	10139
917.38	10238
917.491	10135
917.603	10310
917.715	10348
917.826	10344
917.938	10257
918.049	10192
918.161	10299
918.272	10470
918.384	10398
918.495	10348
918.606	10147
918.717	10006
918.828	10207
918.939	10211
919.05	10120
919.161	10166
919.272	9838
919.383	9998
919.494	10230
919.604	10447
919.715	10131
919.826	10063
919.936	10154
920.047	10253
920.157	10185
920.267	10329
920.378	10150
920.488	10143
920.598	10303
920.708	10466
920.818	10337
920.928	10314
921.038	10493
921.148	10413
921.258	10192
921.368	10185
921.477	10032
921.587	10074
921.697	9876
921.806	9968
921.916	9846
922.025	9781
922.134	9625
922.244	9679
922.353	9778
922.462	9534
922.571	9538
922.68	9435
922.789	9408
922.898	9363
923.007	9329
923.116	9454
923.224	9431
923.333	9363
923.442	9329
923.55	9211
923.659	9233
923.767	9401
923.876	9302
923.984	9302
924.092	9199
924.201	9237
924.309	9317
924.417	9287
924.525	9157
924.633	9180
924.741	10097
924.849	9020
924.956	9218
925.064	9066
925.172	9043
925.279	8956
925.387	9097
925.494	9093
925.602	9207
925.709	9089
925.816	9047
925.924	8956
926.031	9192
926.138	9077
926.245	9104
926.352	8967
926.459	9157
926.566	9142
926.673	8963
926.779	8979
926.886	8960
926.993	8800
927.099	8792
927.206	8758
927.312	8689
927.419	8834
927.525	8724
927.631	8758
927.737	8750
927.843	8663
927.95	8549
928.056	8579
928.162	8644
928.267	8750
928.373	9344
928.479	8785
928.585	8495
928.69	8629
928.796	8735
928.901	8594
929.007	8465
929.112	8552
929.218	8556
929.323	8511
929.428	8457
929.533	8636
929.638	8362
929.743	8457
929.848	8579
929.953	8522
930.058	8389
930.163	8256
930.267	8263
930.372	8469
930.477	8275
930.581	8552
930.685	8317
930.79	8157
930.894	8237
930.998	8164
931.103	8404
931.207	7978
931.311	7989
931.415	7887
931.519	7742
931.623	7746
