Data from test_V78500241_2674.txt Node
Date: Fri Mar 25 14:52:20 CST 2022
User: usil
Spectrometer: V785-0024
Trigger mode: 0
Integration Time (sec): 4.000000E-1
Scans to average: 1
Nonlinearity correction enabled: false
Boxcar width: 0
Storing dark spectrum: false
XAxis mode: Wavelengths
Number of Pixels in Spectrum: 1024
>>>>>Begin Spectral Data<<<<<
801.071	21998
801.214	21922
801.356	21564
801.499	21492
801.641	21367
801.783	21329
801.926	21401
802.068	21367
802.211	21150
802.353	21142
802.496	20937
802.638	20826
802.78	20872
802.923	20807
803.065	20621
803.208	20587
803.35	20693
803.492	20743
803.635	20815
803.777	20655
803.919	20773
804.061	21020
804.204	20739
804.346	20632
804.488	20469
804.63	20686
804.773	20454
804.915	20651
805.057	20609
805.199	20606
805.341	20621
805.483	20606
805.626	20670
805.768	20571
805.91	20522
806.052	20594
806.194	20541
806.336	20701
806.478	20594
806.62	20518
806.762	20511
806.904	20796
807.046	20998
807.188	20925
807.33	20842
807.472	20979
807.614	20925
807.756	20796
807.898	20769
808.04	20727
808.182	20579
808.324	20625
808.465	20720
808.607	20872
808.749	20929
808.891	21108
809.033	20986
809.174	21055
809.316	20861
809.458	21001
809.6	20891
809.741	20921
809.883	20979
810.025	21017
810.166	21119
810.308	21116
810.45	20952
810.591	20933
810.733	20868
810.875	20823
811.016	20819
811.158	20629
811.299	20644
811.441	20880
811.582	20918
811.724	20712
811.865	20621
812.007	20686
812.148	20655
812.29	20670
812.431	20990
812.573	21157
812.714	21024
812.855	21222
812.997	21367
813.138	21431
813.279	21287
813.421	21116
813.562	21123
813.703	21055
813.845	20895
813.986	20727
814.127	20469
814.268	20393
814.41	20309
814.551	20267
814.692	20256
814.833	20248
814.974	20172
815.115	20252
815.256	20206
815.397	20058
815.539	20031
815.68	19997
815.821	19928
815.962	20043
816.103	20020
816.244	19822
816.385	19814
816.526	19712
816.666	19441
816.807	19449
816.948	19495
817.089	19499
817.23	19548
817.371	19316
817.512	19392
817.653	19415
817.793	19358
817.934	19430
818.075	19384
818.216	19335
818.356	19407
818.497	19263
818.638	19080
818.778	19198
818.919	19031
819.06	19103
819.2	19247
819.341	19320
819.481	19327
819.622	19491
819.762	19677
819.903	19548
820.043	19441
820.184	19343
820.324	19377
820.465	19552
820.605	19445
820.746	19362
820.886	19228
821.026	19396
821.167	19304
821.307	19411
821.447	19304
821.588	19297
821.728	19183
821.868	19023
822.008	18734
822.149	18757
822.289	18764
822.429	18540
822.569	18494
822.709	18380
822.849	18247
822.99	18228
823.13	18296
823.27	18182
823.41	18213
823.55	18011
823.69	18159
823.83	18057
823.97	18015
824.11	17851
824.25	17866
824.389	17824
824.529	17912
824.669	17794
824.809	17935
824.949	17859
825.089	17935
825.228	17843
825.368	17634
825.508	17608
825.648	17745
825.787	17646
825.927	17707
826.067	17649
826.206	17539
826.346	17684
826.485	17748
826.625	17596
826.765	17680
826.904	17657
827.044	17360
827.183	17436
827.323	17360
827.462	17395
827.601	17387
827.741	17307
827.88	17360
828.02	17178
828.159	17242
828.298	17478
828.437	17448
828.577	17261
828.716	17383
828.855	17239
828.994	17166
829.134	17079
829.273	17086
829.412	17200
829.551	16980
829.69	17143
829.829	17185
829.968	17181
830.107	17178
830.246	17223
830.385	17033
830.524	16946
830.663	16850
830.802	16839
830.941	16702
831.08	16729
831.219	16706
831.357	16767
831.496	17067
831.635	16580
831.774	16679
831.913	16554
832.051	16531
832.19	16466
832.329	16554
832.467	16497
832.606	16443
832.744	16424
832.883	16432
833.022	16360
833.16	16497
833.299	16424
833.437	16455
833.576	16489
833.714	16535
833.852	16508
833.991	16470
834.129	16523
834.267	16569
834.406	16481
834.544	16512
834.682	16497
834.821	16379
834.959	16649
835.097	16447
835.235	16603
835.373	16584
835.511	16497
835.65	16451
835.788	16386
835.926	16135
836.064	16158
836.202	16173
836.34	16367
836.478	16523
836.615	16523
836.753	16405
836.891	16474
837.029	16481
837.167	16246
837.305	16310
837.443	16356
837.58	16276
837.718	16363
837.856	16348
837.993	16192
838.131	16344
838.269	16211
838.406	16135
838.544	16090
838.681	15930
838.819	15816
838.956	15774
839.094	15759
839.231	15899
839.369	15895
839.506	16188
839.643	16063
839.781	15831
839.918	15838
840.055	15903
840.193	15751
840.33	15808
840.467	15953
840.604	15903
840.742	16143
840.879	15610
841.016	15644
841.153	15789
841.29	15983
841.427	15873
841.564	15911
841.701	15831
841.838	15827
841.975	15823
842.112	15759
842.249	15511
842.385	15542
842.522	15759
842.659	15618
842.796	15568
842.933	15629
843.069	15526
843.206	15599
843.343	15648
843.479	15644
843.616	15660
843.752	15382
843.889	15348
844.025	15561
844.162	15332
844.298	15553
844.435	15302
844.571	15298
844.708	15523
844.844	15587
844.98	15572
845.117	15500
845.253	15313
845.389	15325
845.525	15313
845.661	15237
845.798	15062
845.934	15241
846.07	15161
846.206	15150
846.342	15355
846.478	15165
846.614	15043
846.75	14876
846.886	14899
847.022	15112
847.158	15066
847.294	14941
847.429	14967
847.565	14982
847.701	15195
847.837	14746
847.972	14556
848.108	14842
848.244	14727
848.379	14606
848.515	14514
848.65	14590
848.786	14476
848.921	14537
849.057	14613
849.192	14674
849.328	14545
849.463	14457
849.598	14484
849.734	14507
849.869	14389
850.004	14381
850.14	14362
850.275	14309
850.41	14309
850.545	14259
850.68	14408
850.815	14389
850.95	14412
851.085	14568
851.22	14492
851.355	14351
851.49	14328
851.625	14259
851.76	14183
851.895	14221
852.03	14187
852.165	14317
852.299	14431
852.434	14476
852.569	14358
852.703	14374
852.838	14499
852.973	14556
853.107	14552
853.242	14347
853.376	14221
853.511	14172
853.645	14202
853.78	14408
853.914	14278
854.048	14195
854.183	14130
854.317	14237
854.451	14328
854.585	14191
854.72	14180
854.854	14286
854.988	14077
855.122	14187
855.256	14088
855.39	14214
855.524	14252
855.658	14240
855.792	14336
855.926	14317
856.06	14267
856.194	14233
856.327	14195
856.461	14081
856.595	14191
856.729	14202
856.862	14343
856.996	14336
857.13	14195
857.263	14240
857.397	14301
857.53	14187
857.664	14229
857.797	14381
857.931	14347
858.064	14259
858.197	14275
858.331	14138
858.464	14168
858.597	14092
858.731	14115
858.864	14263
858.997	14138
859.13	14244
859.263	14221
859.396	14294
859.529	14214
859.662	14138
859.795	14202
859.928	14153
860.061	14290
860.194	14518
860.327	14168
860.46	14278
860.592	14324
860.725	14328
860.858	14347
860.99	14126
861.123	14218
861.256	14126
861.388	14278
861.521	14861
861.653	14035
861.786	13974
861.918	14134
862.05	14115
862.183	14168
862.315	14168
862.447	14267
862.58	14115
862.712	14035
862.844	13795
862.976	14115
863.108	14062
863.24	14282
863.372	13917
863.504	13951
863.636	13947
863.768	13947
863.9	14126
864.032	13932
864.164	13959
864.296	14020
864.428	14096
864.559	14054
864.691	14058
864.823	14111
864.954	14103
865.086	13944
865.217	14168
865.349	13928
865.48	13894
865.612	13974
865.743	14046
865.875	14035
866.006	13974
866.137	13997
866.269	13978
866.4	13928
866.531	13967
866.662	13875
866.793	13989
866.924	13788
867.055	13932
867.186	13902
867.317	13967
867.448	13830
867.579	13944
867.71	13898
867.841	13921
867.972	13940
868.103	14027
868.233	13997
868.364	14005
868.495	14050
868.625	14191
868.756	14320
868.886	14187
869.017	14210
869.147	14309
869.278	14400
869.408	14244
869.539	14252
869.669	14385
869.799	14244
869.929	14347
870.06	14320
870.19	14579
870.32	14545
870.45	14488
870.58	14640
870.71	14807
870.84	14644
870.97	14636
871.1	14625
871.23	14792
871.36	14838
871.489	14644
871.619	14750
871.749	14804
871.879	14842
872.008	14941
872.138	14834
872.267	14849
872.397	14689
872.526	14678
872.656	14625
872.785	14769
872.915	14807
873.044	14883
873.173	14819
873.303	14925
873.432	15001
873.561	15001
873.69	14887
873.819	14864
873.948	15017
874.077	14891
874.206	14853
874.335	14880
874.464	15051
874.593	15173
874.722	15058
874.851	15150
874.979	15294
875.108	15279
875.237	15154
875.365	15081
875.494	15173
875.623	15264
875.751	15169
875.88	15226
876.008	15367
876.136	15351
876.265	15667
876.393	15804
876.521	15694
876.65	15652
876.778	15637
876.906	15557
877.034	15622
877.162	15507
877.29	15538
877.418	15694
877.546	15580
877.674	15603
877.802	15701
877.93	15629
878.058	15633
878.185	15477
878.313	15717
878.441	15686
878.568	15496
878.696	15633
878.824	15671
878.951	15732
879.079	15762
879.206	15968
879.333	15781
879.461	15698
879.588	15755
879.715	15778
879.842	15892
879.97	15709
880.097	15500
880.224	15500
880.351	15530
880.478	15447
880.605	15485
880.732	15545
880.859	15663
880.986	15447
881.112	15580
881.239	15443
881.366	15264
881.493	15199
881.619	15077
881.746	15176
881.872	15256
881.999	15062
882.125	15017
882.252	15154
882.378	15222
882.505	15294
882.631	15070
882.757	14941
882.883	15036
883.01	14971
883.136	14944
883.262	14868
883.388	14823
883.514	15009
883.64	15051
883.766	14895
883.892	14697
884.018	14838
884.143	14975
884.269	15161
884.395	14708
884.52	14739
884.646	14769
884.772	14579
884.897	14537
885.023	14731
885.148	14746
885.274	14864
885.399	14845
885.524	14640
885.65	14602
885.775	14727
885.9	14746
886.025	14857
886.15	14762
886.275	14655
886.4	14552
886.525	14625
886.65	14693
886.775	14598
886.9	14800
887.025	14876
887.149	14743
887.274	14568
887.399	14434
887.523	14480
887.648	14503
887.773	14412
887.897	14590
888.021	14579
888.146	14484
888.27	14598
888.395	14697
888.519	14518
888.643	14469
888.767	14526
888.891	14442
889.015	14332
889.139	14385
889.263	14339
889.387	14427
889.511	14583
889.635	14541
889.759	14473
889.883	14339
890.006	14385
890.13	14408
890.254	14324
890.377	14404
890.501	14172
890.624	14088
890.748	14290
890.871	14119
890.995	14005
891.118	13925
891.241	14069
891.364	14062
891.488	14195
891.611	14058
891.734	14012
891.857	14176
891.98	14191
892.103	14195
892.226	14126
892.349	13928
892.471	13936
892.594	14092
892.717	14096
892.839	14046
892.962	14050
893.085	14126
893.207	14069
893.33	13909
893.452	13986
893.575	14092
893.697	14107
893.819	14240
893.941	14210
894.064	14176
894.186	14062
894.308	14054
894.43	14237
894.552	14267
894.674	14172
894.796	14016
894.918	14149
895.04	14043
895.161	14183
895.283	14142
895.405	14096
895.526	14229
895.648	14240
895.769	14229
895.891	14176
896.012	14343
896.134	14282
896.255	14298
896.376	14183
896.498	14278
896.619	14256
896.74	14214
896.861	14324
896.982	14606
897.103	14781
897.224	14613
897.345	14495
897.466	14484
897.587	14518
897.708	14693
897.828	14545
897.949	14412
898.07	14438
898.19	14366
898.311	14674
898.431	14568
898.552	14480
898.672	14678
898.792	14758
898.913	14598
899.033	14598
899.153	14507
899.273	14343
899.393	14427
899.513	14374
899.633	14396
899.753	14457
899.873	14457
899.993	14469
900.113	14427
900.232	14511
900.352	14404
900.472	14324
900.591	14218
900.711	14339
900.83	14218
900.95	14366
901.069	14374
901.189	14324
901.308	14039
901.427	14046
901.546	14008
901.665	13913
901.784	14039
901.904	13864
902.023	13814
902.141	13639
902.26	13586
902.379	13586
902.498	13525
902.617	13525
902.735	13544
902.854	13529
902.973	13476
903.091	13320
903.21	13244
903.328	13331
903.446	13190
903.565	13050
903.683	13072
903.801	12966
903.919	13069
904.038	13152
904.156	12962
904.274	12996
904.392	12897
904.51	12985
904.627	12954
904.745	12913
904.863	12973
904.981	12696
905.098	12597
905.216	12692
905.334	12700
905.451	12608
905.569	12574
905.686	12734
905.803	12578
905.921	12486
906.038	12536
906.155	12509
906.272	12395
906.389	12292
906.506	12190
906.623	12194
906.74	12251
906.857	12098
906.974	12125
907.091	12327
907.208	12315
907.324	12266
907.441	12224
907.557	12003
907.674	11965
907.79	11893
907.907	11984
908.023	12060
908.139	11977
908.256	11961
908.372	11961
908.488	11882
908.604	11775
908.72	11775
908.836	11737
908.952	11707
909.068	11828
909.184	11828
909.3	11722
909.415	11760
909.531	11802
909.647	11478
909.762	11493
909.878	11455
909.993	11562
910.108	11509
910.224	11448
910.339	11512
910.454	11455
910.57	11372
910.685	11345
910.8	11672
910.915	11516
911.03	11410
911.145	11273
911.259	11227
911.374	11261
911.489	11075
911.604	11083
911.718	10961
911.833	10930
911.947	10942
912.062	10824
912.176	10987
912.291	10968
912.405	10965
912.519	11201
912.633	11140
912.748	11014
912.862	10923
912.976	10862
913.09	10736
913.204	10816
913.318	10854
913.431	10942
913.545	10965
913.659	10987
913.772	10805
913.886	10736
914	10660
914.113	10793
914.226	10824
914.34	10828
914.453	10599
914.566	10717
914.68	10649
914.793	10603
914.906	10500
915.019	10500
915.132	10466
915.245	10554
915.358	10493
915.47	10493
915.583	10519
915.696	10485
915.809	10596
915.921	10660
916.034	10493
916.146	10489
916.259	10398
916.371	10596
916.483	10462
916.595	10348
916.708	10436
916.82	10409
916.932	10382
917.044	10333
917.156	10451
917.268	10280
917.38	10261
917.491	10215
917.603	10322
917.715	10375
917.826	10497
917.938	10276
918.049	10227
918.161	10291
918.272	10375
918.384	10436
918.495	10371
918.606	10204
918.717	10044
918.828	10196
918.939	10219
919.05	10055
919.161	10147
919.272	9926
919.383	10162
919.494	10249
919.604	10386
919.715	10166
919.826	10116
919.936	10124
920.047	10242
920.157	10246
920.267	10421
920.378	10299
920.488	10188
920.598	10382
920.708	10550
920.818	10371
920.928	10371
921.038	10538
921.148	10542
921.258	10341
921.368	10211
921.477	10044
921.587	10048
921.697	9880
921.806	10128
921.916	9918
922.025	9781
922.134	9778
922.244	9724
922.353	9850
922.462	9629
922.571	9591
922.68	9553
922.789	9481
922.898	9454
923.007	9363
923.116	9492
923.224	9454
923.333	9416
923.442	9393
923.55	9291
923.659	9374
923.767	9401
923.876	9275
923.984	9306
924.092	9325
924.201	9363
924.309	9302
924.417	9317
924.525	9253
924.633	9283
924.741	10040
924.849	9119
924.956	9294
925.064	9089
925.172	9089
925.279	9043
925.387	9119
925.494	9100
925.602	9249
925.709	9188
925.816	9062
925.924	9066
926.031	9192
926.138	9085
926.245	9211
926.352	9036
926.459	9146
926.566	9173
926.673	9112
926.779	8963
926.886	9005
926.993	8857
927.099	8750
927.206	8830
927.312	8746
927.419	8891
927.525	8842
927.631	8872
927.737	8708
927.843	8785
927.95	8571
928.056	8663
928.162	8716
928.267	8769
928.373	9393
928.479	8746
928.585	8579
928.69	8659
928.796	8773
928.901	8594
929.007	8560
929.112	8632
929.218	8556
929.323	8533
929.428	8560
929.533	8720
929.638	8511
929.743	8492
929.848	8560
929.953	8476
930.058	8492
930.163	8259
930.267	8320
930.372	8480
930.477	8324
930.581	8507
930.685	8336
930.79	8294
930.894	8279
930.998	8248
931.103	8419
931.207	7978
931.311	7978
931.415	7974
931.519	7833
931.623	7696
