Data from test_V78500241_1928.txt Node
Date: Fri Mar 25 14:47:08 CST 2022
User: usil
Spectrometer: V785-0024
Trigger mode: 0
Integration Time (sec): 4.000000E-1
Scans to average: 1
Nonlinearity correction enabled: false
Boxcar width: 0
Storing dark spectrum: false
XAxis mode: Wavelengths
Number of Pixels in Spectrum: 1024
>>>>>Begin Spectral Data<<<<<
801.071	22074
801.214	21956
801.356	21656
801.499	21709
801.641	21370
801.783	21447
801.926	21454
802.068	21355
802.211	21294
802.353	21321
802.496	20990
802.638	20975
802.78	20944
802.923	20819
803.065	20727
803.208	20765
803.35	20788
803.492	20720
803.635	20830
803.777	20765
803.919	20872
804.061	21047
804.204	20906
804.346	20739
804.488	20667
804.63	20777
804.773	20621
804.915	20842
805.057	20804
805.199	20594
805.341	20697
805.483	20868
805.626	20659
805.768	20720
805.91	20724
806.052	20743
806.194	20564
806.336	20864
806.478	20686
806.62	20701
806.762	20739
806.904	20914
807.046	21127
807.188	20914
807.33	20925
807.472	21058
807.614	20944
807.756	20952
807.898	20891
808.04	20746
808.182	20716
808.324	20765
808.465	20731
808.607	20990
808.749	20963
808.891	21199
809.033	21310
809.174	21116
809.316	20971
809.458	21085
809.6	20952
809.741	21188
809.883	21024
810.025	21252
810.166	21298
810.308	21142
810.45	21043
810.591	20986
810.733	20925
810.875	20876
811.016	20743
811.158	20727
811.299	20819
811.441	20880
811.582	20883
811.724	20876
811.865	20724
812.007	20777
812.148	20750
812.29	20880
812.431	21009
812.573	21211
812.714	21180
812.855	21211
812.997	21389
813.138	21466
813.279	21473
813.421	21367
813.562	21222
813.703	21001
813.845	21089
813.986	20655
814.127	20537
814.268	20480
814.41	20396
814.551	20400
814.692	20370
814.833	20259
814.974	20240
815.115	20351
815.256	20195
815.397	20240
815.539	20168
815.68	20100
815.821	20065
815.962	20138
816.103	20062
816.244	19978
816.385	19875
816.526	19837
816.666	19696
816.807	19480
816.948	19670
817.089	19696
817.23	19582
817.371	19533
817.512	19525
817.653	19491
817.793	19578
817.934	19590
818.075	19540
818.216	19582
818.356	19483
818.497	19282
818.638	19202
818.778	19225
818.919	19244
819.06	19244
819.2	19213
819.341	19430
819.481	19358
819.622	19438
819.762	19628
819.903	19712
820.043	19582
820.184	19487
820.324	19594
820.465	19590
820.605	19514
820.746	19487
820.886	19320
821.026	19460
821.167	19480
821.307	19430
821.447	19616
821.588	19354
821.728	19225
821.868	19042
822.008	18939
822.149	18837
822.289	18848
822.429	18646
822.569	18711
822.709	18479
822.849	18311
822.99	18357
823.13	18342
823.27	18353
823.41	18300
823.55	18247
823.69	18251
823.83	18190
823.97	18197
824.11	17969
824.25	17977
824.389	17977
824.529	18011
824.669	17908
824.809	18041
824.949	18053
825.089	17961
825.228	18053
825.368	17832
825.508	17729
825.648	17824
825.787	17836
825.927	17729
826.067	17680
826.206	17695
826.346	17741
826.485	17923
826.625	17672
826.765	17832
826.904	17817
827.044	17684
827.183	17566
827.323	17376
827.462	17482
827.601	17444
827.741	17387
827.88	17512
828.02	17337
828.159	17402
828.298	17455
828.437	17558
828.577	17421
828.716	17619
828.855	17387
828.994	17296
829.134	17181
829.273	17174
829.412	17155
829.551	17200
829.69	17254
829.829	17155
829.968	17326
830.107	17220
830.246	17250
830.385	17170
830.524	17162
830.663	17029
830.802	16877
830.941	16828
831.08	16946
831.219	16987
831.357	16919
831.496	17006
831.635	16824
831.774	16752
831.913	16729
832.051	16645
832.19	16637
832.329	16649
832.467	16527
832.606	16569
832.744	16580
832.883	16546
833.022	16516
833.16	16550
833.299	16466
833.437	16462
833.576	16599
833.714	16577
833.852	16637
833.991	16607
834.129	16736
834.267	16603
834.406	16523
834.544	16611
834.682	16653
834.821	16622
834.959	16713
835.097	16531
835.235	16797
835.373	16565
835.511	16607
835.65	16474
835.788	16531
835.926	16337
836.064	16295
836.202	16314
836.34	16523
836.478	16603
836.615	16337
836.753	16512
836.891	16618
837.029	16447
837.167	16478
837.305	16451
837.443	16375
837.58	16268
837.718	16440
837.856	16451
837.993	16402
838.131	16440
838.269	16325
838.406	16280
838.544	16188
838.681	15975
838.819	16135
838.956	15968
839.094	15983
839.231	15983
839.369	16109
839.506	16246
839.643	16246
839.781	15930
839.918	15960
840.055	15983
840.193	15903
840.33	15895
840.467	15983
840.604	15994
840.742	16139
840.879	15842
841.016	15800
841.153	15880
841.29	16074
841.427	16051
841.564	15831
841.701	15926
841.838	15937
841.975	15819
842.112	15915
842.249	15717
842.385	15701
842.522	15846
842.659	15675
842.796	15663
842.933	15663
843.069	15618
843.206	15755
843.343	15701
843.479	15724
843.616	15705
843.752	15606
843.889	15428
844.025	15774
844.162	15500
844.298	15618
844.435	15507
844.571	15515
844.708	15603
844.844	15785
844.98	15625
845.117	15584
845.253	15439
845.389	15332
845.525	15431
845.661	15485
845.798	15252
845.934	15523
846.07	15302
846.206	15401
846.342	15443
846.478	15287
846.614	15123
846.75	15074
846.886	15081
847.022	15249
847.158	15131
847.294	15074
847.429	15116
847.565	15013
847.701	15252
847.837	14739
847.972	14826
848.108	14975
848.244	14899
848.379	14777
848.515	14602
848.65	14686
848.786	14621
848.921	14640
849.057	14769
849.192	14807
849.328	14686
849.463	14796
849.598	14621
849.734	14659
849.869	14579
850.004	14511
850.14	14610
850.275	14495
850.41	14298
850.545	14461
850.68	14419
850.815	14518
850.95	14412
851.085	14632
851.22	14533
851.355	14492
851.49	14438
851.625	14431
851.76	14492
851.895	14290
852.03	14336
852.165	14366
852.299	14434
852.434	14465
852.569	14541
852.703	14530
852.838	14526
852.973	14503
853.107	14670
853.242	14400
853.376	14434
853.511	14187
853.645	14351
853.78	14393
853.914	14248
854.048	14313
854.183	14385
854.317	14374
854.451	14492
854.585	14282
854.72	14233
854.854	14377
854.988	14263
855.122	14320
855.256	14252
855.39	14317
855.524	14446
855.658	14431
855.792	14514
855.926	14328
856.06	14412
856.194	14450
856.327	14355
856.461	14248
856.595	14294
856.729	14301
856.862	14431
856.996	14465
857.13	14305
857.263	14457
857.397	14480
857.53	14374
857.664	14336
857.797	14381
857.931	14488
858.064	14419
858.197	14442
858.331	14313
858.464	14267
858.597	14233
858.731	14256
858.864	14317
858.997	14320
859.13	14404
859.263	14324
859.396	14446
859.529	14313
859.662	14256
859.795	14351
859.928	14431
860.061	14522
860.194	14556
860.327	14351
860.46	14305
860.592	14358
860.725	14457
860.858	14370
860.99	14237
861.123	14282
861.256	14286
861.388	14278
861.521	15009
861.653	14237
861.786	14092
861.918	14168
862.05	14240
862.183	14320
862.315	14313
862.447	14419
862.58	14267
862.712	14046
862.844	14092
862.976	14218
863.108	14191
863.24	14419
863.372	14050
863.504	14024
863.636	14058
863.768	14172
863.9	14123
864.032	14050
864.164	14065
864.296	14103
864.428	14164
864.559	14157
864.691	14126
864.823	14195
864.954	14142
865.086	14111
865.217	14084
865.349	14043
865.48	14130
865.612	14100
865.743	14202
865.875	14092
866.006	14164
866.137	14123
866.269	14107
866.4	14088
866.531	14058
866.662	13978
866.793	13974
866.924	14005
867.055	14069
867.186	14100
867.317	14031
867.448	13986
867.579	14069
867.71	14031
867.841	13963
867.972	14065
868.103	14077
868.233	14050
868.364	14050
868.495	14229
868.625	14358
868.756	14434
868.886	14221
869.017	14358
869.147	14442
869.278	14480
869.408	14320
869.539	14370
869.669	14473
869.799	14404
869.929	14339
870.06	14499
870.19	14686
870.32	14518
870.45	14731
870.58	14823
870.71	14823
870.84	14956
870.97	14727
871.1	14731
871.23	14895
871.36	14906
871.489	14834
871.619	14952
871.749	14872
871.879	14868
872.008	15001
872.138	14967
872.267	14994
872.397	14883
872.526	14746
872.656	14731
872.785	14758
872.915	15001
873.044	14986
873.173	14944
873.303	15108
873.432	15017
873.561	15055
873.69	15013
873.819	14982
873.948	15028
874.077	14948
874.206	14990
874.335	15005
874.464	15100
874.593	15329
874.722	15275
874.851	15355
874.979	15340
875.108	15412
875.237	15378
875.365	15233
875.494	15287
875.623	15363
875.751	15287
875.88	15412
876.008	15545
876.136	15568
876.265	15778
876.393	15907
876.521	15781
876.65	15876
876.778	15736
876.906	15724
877.034	15652
877.162	15644
877.29	15671
877.418	15686
877.546	15701
877.674	15633
877.802	15717
877.93	15698
878.058	15747
878.185	15610
878.313	15690
878.441	15698
878.568	15587
878.696	15580
878.824	15770
878.951	15861
879.079	15899
879.206	16021
879.333	15873
879.461	15732
879.588	15869
879.715	15903
879.842	15953
879.97	15770
880.097	15557
880.224	15549
880.351	15603
880.478	15580
880.605	15473
880.732	15587
880.859	15789
880.986	15553
881.112	15606
881.239	15431
881.366	15389
881.493	15306
881.619	15272
881.746	15256
881.872	15222
881.999	15127
882.125	15272
882.252	15222
882.378	15230
882.505	15416
882.631	15245
882.757	14990
882.883	15051
883.01	15047
883.136	15032
883.262	14910
883.388	14861
883.514	15055
883.64	15112
883.766	14918
883.892	14773
884.018	14838
884.143	15085
884.269	15116
884.395	14845
884.52	14800
884.646	14708
884.772	14598
884.897	14495
885.023	14811
885.148	14872
885.274	14910
885.399	14823
885.524	14678
885.65	14746
885.775	14754
885.9	14678
886.025	14925
886.15	14819
886.275	14731
886.4	14640
886.525	14750
886.65	14701
886.775	14727
886.9	14872
887.025	14960
887.149	14750
887.274	14556
887.399	14518
887.523	14549
887.648	14522
887.773	14446
887.897	14682
888.021	14640
888.146	14541
888.27	14617
888.395	14636
888.519	14575
888.643	14689
888.767	14636
888.891	14545
889.015	14404
889.139	14541
889.263	14408
889.387	14594
889.511	14571
889.635	14518
889.759	14461
889.883	14442
890.006	14454
890.13	14495
890.254	14370
890.377	14412
890.501	14210
890.624	14244
890.748	14237
890.871	14256
890.995	14107
891.118	14027
891.241	14237
891.364	14100
891.488	14233
891.611	14183
891.734	14187
891.857	14210
891.98	14214
892.103	14202
892.226	14145
892.349	14134
892.471	13997
892.594	14077
892.717	14073
892.839	14088
892.962	14062
893.085	14214
893.207	14145
893.33	14027
893.452	14027
893.575	14153
893.697	14157
893.819	14294
893.941	14320
894.064	14282
894.186	14069
894.308	14123
894.43	14252
894.552	14233
894.674	14267
894.796	14138
894.918	14145
895.04	14183
895.161	14301
895.283	14271
895.405	14088
895.526	14218
895.648	14229
895.769	14259
895.891	14328
896.012	14374
896.134	14347
896.255	14252
896.376	14221
896.498	14313
896.619	14301
896.74	14282
896.861	14434
896.982	14613
897.103	14792
897.224	14674
897.345	14514
897.466	14484
897.587	14518
897.708	14602
897.828	14552
897.949	14579
898.07	14442
898.19	14507
898.311	14708
898.431	14632
898.552	14640
898.672	14686
898.792	14769
898.913	14689
899.033	14590
899.153	14480
899.273	14370
899.393	14423
899.513	14450
899.633	14541
899.753	14514
899.873	14427
899.993	14560
900.113	14507
900.232	14514
900.352	14476
900.472	14396
900.591	14324
900.711	14412
900.83	14267
900.95	14492
901.069	14377
901.189	14294
901.308	14050
901.427	14024
901.546	14153
901.665	14130
901.784	14119
901.904	13879
902.023	13837
902.141	13594
902.26	13601
902.379	13727
902.498	13559
902.617	13563
902.735	13525
902.854	13533
902.973	13540
903.091	13354
903.21	13236
903.328	13411
903.446	13251
903.565	13225
903.683	13244
903.801	13129
903.919	13118
904.038	13202
904.156	13023
904.274	13034
904.392	12939
904.51	12962
904.627	13004
904.745	13000
904.863	13152
904.981	12722
905.098	12722
905.216	12639
905.334	12692
905.451	12646
905.569	12673
905.686	12688
905.803	12745
905.921	12593
906.038	12642
906.155	12521
906.272	12460
906.389	12369
906.506	12262
906.623	12232
906.74	12213
906.857	12171
906.974	12213
907.091	12372
907.208	12445
907.324	12323
907.441	12197
907.557	12083
907.674	12030
907.79	11999
907.907	11958
908.023	12068
908.139	12045
908.256	11958
908.372	12011
908.488	11935
908.604	11901
908.72	11794
908.836	11817
908.952	11760
909.068	11748
909.184	11824
909.3	11764
909.415	11882
909.531	11805
909.647	11577
909.762	11589
909.878	11547
909.993	11558
910.108	11577
910.224	11554
910.339	11573
910.454	11440
910.57	11395
910.685	11345
910.8	11649
910.915	11455
911.03	11417
911.145	11216
911.259	11189
911.374	11220
911.489	11162
911.604	11086
911.718	10999
911.833	11048
911.947	10961
912.062	10831
912.176	10968
912.291	11018
912.405	10980
912.519	11235
912.633	11185
912.748	11022
912.862	10968
912.976	10889
913.09	10797
913.204	10809
913.318	10843
913.431	10984
913.545	10957
913.659	11003
913.772	10873
913.886	10797
914	10759
914.113	10850
914.226	10869
914.34	10869
914.453	10767
914.566	10805
914.68	10748
914.793	10714
914.906	10554
915.019	10512
915.132	10470
915.245	10516
915.358	10546
915.47	10474
915.583	10538
915.696	10637
915.809	10641
915.921	10744
916.034	10421
916.146	10398
916.259	10485
916.371	10489
916.483	10546
916.595	10443
916.708	10402
916.82	10428
916.932	10489
917.044	10398
917.156	10382
917.268	10344
917.38	10341
917.491	10306
917.603	10371
917.715	10481
917.826	10443
917.938	10295
918.049	10287
918.161	10382
918.272	10417
918.384	10527
918.495	10428
918.606	10268
918.717	10181
918.828	10188
918.939	10272
919.05	10211
919.161	10200
919.272	10067
919.383	10067
919.494	10295
919.604	10352
919.715	10196
919.826	10200
919.936	10200
920.047	10329
920.157	10200
920.267	10466
920.378	10367
920.488	10204
920.598	10375
920.708	10622
920.818	10470
920.928	10356
921.038	10607
921.148	10561
921.258	10265
921.368	10219
921.477	10150
921.587	10063
921.697	9960
921.806	10143
921.916	9922
922.025	9778
922.134	9861
922.244	9797
922.353	9865
922.462	9720
922.571	9679
922.68	9454
922.789	9466
922.898	9511
923.007	9485
923.116	9557
923.224	9515
923.333	9450
923.442	9405
923.55	9348
923.659	9450
923.767	9458
923.876	9382
923.984	9405
924.092	9291
924.201	9420
924.309	9359
924.417	9344
924.525	9306
924.633	9332
924.741	10268
924.849	9108
924.956	9264
925.064	9142
925.172	9024
925.279	9032
925.387	9131
925.494	9165
925.602	9279
925.709	9222
925.816	9074
925.924	9104
926.031	9260
926.138	9161
926.245	9165
926.352	9104
926.459	9199
926.566	9180
926.673	9165
926.779	8952
926.886	8990
926.993	8895
927.099	8800
927.206	8766
927.312	8819
927.419	8952
927.525	8941
927.631	8902
927.737	8830
927.843	8735
927.95	8648
928.056	8735
928.162	8743
928.267	8853
928.373	9393
928.479	8823
928.585	8651
928.69	8792
928.796	8686
928.901	8613
929.007	8507
929.112	8693
929.218	8613
929.323	8629
929.428	8621
929.533	8769
929.638	8530
929.743	8518
929.848	8602
929.953	8583
930.058	8473
930.163	8347
930.267	8385
930.372	8499
930.477	8282
930.581	8590
930.685	8427
930.79	8275
930.894	8324
930.998	8309
931.103	8404
931.207	8081
931.311	8039
931.415	7928
931.519	7807
931.623	7738
