Data from test_V78500241_2821.txt Node
Date: Fri Mar 25 14:53:21 CST 2022
User: usil
Spectrometer: V785-0024
Trigger mode: 0
Integration Time (sec): 4.000000E-1
Scans to average: 1
Nonlinearity correction enabled: false
Boxcar width: 0
Storing dark spectrum: false
XAxis mode: Wavelengths
Number of Pixels in Spectrum: 1024
>>>>>Begin Spectral Data<<<<<
801.071	21968
801.214	21808
801.356	21732
801.499	21660
801.641	21412
801.783	21378
801.926	21454
802.068	21355
802.211	21287
802.353	21226
802.496	21013
802.638	20914
802.78	20895
802.923	20861
803.065	20807
803.208	20716
803.35	20838
803.492	20800
803.635	20849
803.777	20834
803.919	20853
804.061	21119
804.204	20701
804.346	20762
804.488	20712
804.63	20777
804.773	20602
804.915	20636
805.057	20842
805.199	20651
805.341	20667
805.483	20777
805.626	20739
805.768	20598
805.91	20670
806.052	20667
806.194	20537
806.336	20796
806.478	20613
806.62	20632
806.762	20815
806.904	20777
807.046	20994
807.188	20982
807.33	20948
807.472	21058
807.614	20883
807.756	20921
807.898	20765
808.04	20670
808.182	20629
808.324	20739
808.465	20731
808.607	20998
808.749	21127
808.891	21241
809.033	21150
809.174	21123
809.316	21062
809.458	21028
809.6	20994
809.741	21077
809.883	21062
810.025	21226
810.166	21108
810.308	21100
810.45	21157
810.591	21005
810.733	20754
810.875	20857
811.016	20712
811.158	20670
811.299	20807
811.441	20994
811.582	20971
811.724	20796
811.865	20788
812.007	20887
812.148	20720
812.29	20883
812.431	20842
812.573	21074
812.714	21081
812.855	21348
812.997	21367
813.138	21587
813.279	21378
813.421	21382
813.562	21252
813.703	21077
813.845	20960
813.986	20655
814.127	20457
814.268	20286
814.41	20473
814.551	20294
814.692	20514
814.833	20240
814.974	20221
815.115	20339
815.256	20244
815.397	20119
815.539	20195
815.68	20012
815.821	20103
815.962	20073
816.103	20077
816.244	19913
816.385	19875
816.526	19849
816.666	19734
816.807	19457
816.948	19563
817.089	19597
817.23	19537
817.371	19590
817.512	19582
817.653	19434
817.793	19384
817.934	19502
818.075	19438
818.216	19407
818.356	19514
818.497	19236
818.638	19050
818.778	19171
818.919	19171
819.06	19148
819.2	19381
819.341	19392
819.481	19247
819.622	19578
819.762	19601
819.903	19529
820.043	19590
820.184	19438
820.324	19510
820.465	19445
820.605	19415
820.746	19453
820.886	19301
821.026	19377
821.167	19533
821.307	19403
821.447	19426
821.588	19228
821.728	19183
821.868	19000
822.008	18871
822.149	18989
822.289	18817
822.429	18555
822.569	18555
822.709	18601
822.849	18429
822.99	18319
823.13	18296
823.27	18319
823.41	18136
823.55	18098
823.69	18155
823.83	18190
823.97	18064
824.11	17942
824.25	17866
824.389	17954
824.529	18045
824.669	17863
824.809	18038
824.949	17946
825.089	18049
825.228	17920
825.368	17653
825.508	17714
825.648	17729
825.787	17745
825.927	17802
826.067	17756
826.206	17703
826.346	17714
826.485	17748
826.625	17684
826.765	17790
826.904	17695
827.044	17547
827.183	17577
827.323	17235
827.462	17360
827.601	17429
827.741	17368
827.88	17406
828.02	17307
828.159	17429
828.298	17391
828.437	17406
828.577	17368
828.716	17528
828.855	17337
828.994	17155
829.134	17151
829.273	17204
829.412	17136
829.551	17086
829.69	17113
829.829	17204
829.968	17227
830.107	17189
830.246	17132
830.385	17029
830.524	16946
830.663	17029
830.802	16881
830.941	16793
831.08	16774
831.219	16873
831.357	16850
831.496	16892
831.635	16660
831.774	16641
831.913	16596
832.051	16577
832.19	16588
832.329	16645
832.467	16538
832.606	16417
832.744	16512
832.883	16512
833.022	16413
833.16	16459
833.299	16417
833.437	16512
833.576	16489
833.714	16523
833.852	16588
833.991	16500
834.129	16637
834.267	16550
834.406	16569
834.544	16527
834.682	16637
834.821	16481
834.959	16630
835.097	16440
835.235	16653
835.373	16535
835.511	16554
835.65	16432
835.788	16318
835.926	16303
836.064	16234
836.202	16188
836.34	16436
836.478	16558
836.615	16394
836.753	16424
836.891	16462
837.029	16447
837.167	16405
837.305	16436
837.443	16295
837.58	16268
837.718	16386
837.856	16226
837.993	16344
838.131	16253
838.269	16234
838.406	16196
838.544	16128
838.681	16059
838.819	15899
838.956	15949
839.094	15884
839.231	15819
839.369	15915
839.506	16169
839.643	16025
839.781	15911
839.918	15778
840.055	15812
840.193	15842
840.33	15823
840.467	15819
840.604	15827
840.742	16135
840.879	15663
841.016	15766
841.153	15781
841.29	15926
841.427	15888
841.564	15880
841.701	15876
841.838	15686
841.975	15667
842.112	15747
842.249	15622
842.385	15538
842.522	15728
842.659	15781
842.796	15652
842.933	15663
843.069	15679
843.206	15587
843.343	15663
843.479	15637
843.616	15709
843.752	15477
843.889	15450
844.025	15519
844.162	15439
844.298	15488
844.435	15424
844.571	15241
844.708	15412
844.844	15568
844.98	15568
845.117	15549
845.253	15386
845.389	15256
845.525	15378
845.661	15306
845.798	15119
845.934	15233
846.07	15146
846.206	15218
846.342	15348
846.478	15169
846.614	15058
846.75	14902
846.886	14872
847.022	15188
847.158	15020
847.294	15039
847.429	15039
847.565	14910
847.701	15218
847.837	14705
847.972	14674
848.108	14807
848.244	14853
848.379	14568
848.515	14587
848.65	14556
848.786	14655
848.921	14583
849.057	14636
849.192	14705
849.328	14598
849.463	14610
849.598	14568
849.734	14419
849.869	14427
850.004	14393
850.14	14393
850.275	14317
850.41	14233
850.545	14301
850.68	14332
850.815	14320
850.95	14396
851.085	14541
851.22	14419
851.355	14393
851.49	14244
851.625	14298
851.76	14290
851.895	14275
852.03	14275
852.165	14275
852.299	14305
852.434	14415
852.569	14282
852.703	14313
852.838	14358
852.973	14484
853.107	14438
853.242	14309
853.376	14244
853.511	14020
853.645	14229
853.78	14317
853.914	14252
854.048	14123
854.183	14233
854.317	14214
854.451	14339
854.585	14278
854.72	14191
854.854	14267
854.988	14164
855.122	14176
855.256	14024
855.39	14172
855.524	14290
855.658	14328
855.792	14290
855.926	14408
856.06	14240
856.194	14400
856.327	14218
856.461	14172
856.595	14244
856.729	14248
856.862	14347
856.996	14290
857.13	14324
857.263	14202
857.397	14317
857.53	14191
857.664	14309
857.797	14278
857.931	14244
858.064	14301
858.197	14290
858.331	14210
858.464	14172
858.597	14100
858.731	14138
858.864	14259
858.997	14278
859.13	14324
859.263	14145
859.396	14309
859.529	14202
859.662	14027
859.795	14229
859.928	14187
860.061	14419
860.194	14427
860.327	14229
860.46	14180
860.592	14286
860.725	14442
860.858	14332
860.99	14225
861.123	14096
861.256	14134
861.388	14206
861.521	14762
861.653	14161
861.786	14081
861.918	14073
862.05	14229
862.183	14191
862.315	14237
862.447	14180
862.58	14142
862.712	13978
862.844	13978
862.976	14119
863.108	14008
863.24	14495
863.372	13955
863.504	14054
863.636	13959
863.768	14103
863.9	13955
864.032	14012
864.164	13944
864.296	14039
864.428	14210
864.559	14081
864.691	14081
864.823	14069
864.954	14103
865.086	13993
865.217	14001
865.349	13947
865.48	14020
865.612	14016
865.743	14081
865.875	13951
866.006	13982
866.137	13955
866.269	13944
866.4	13921
866.531	14001
866.662	13894
866.793	13928
866.924	13890
867.055	14001
867.186	13913
867.317	14012
867.448	13837
867.579	13970
867.71	13902
867.841	13849
867.972	14043
868.103	13993
868.233	13959
868.364	14050
868.495	14062
868.625	14256
868.756	14347
868.886	14073
869.017	14221
869.147	14351
869.278	14313
869.408	14199
869.539	14145
869.669	14259
869.799	14339
869.929	14324
870.06	14370
870.19	14568
870.32	14537
870.45	14537
870.58	14678
870.71	14663
870.84	14796
870.97	14629
871.1	14667
871.23	14868
871.36	14800
871.489	14792
871.619	14648
871.749	14826
871.879	14975
872.008	14876
872.138	14811
872.267	14838
872.397	14724
872.526	14663
872.656	14663
872.785	14644
872.915	14891
873.044	14933
873.173	14811
873.303	14902
873.432	14933
873.561	14895
873.69	14857
873.819	14910
873.948	14910
874.077	14849
874.206	14792
874.335	14956
874.464	15036
874.593	15165
874.722	15131
874.851	15245
874.979	15245
875.108	15165
875.237	15119
875.365	15123
875.494	15127
875.623	15214
875.751	15176
875.88	15237
876.008	15336
876.136	15485
876.265	15587
876.393	15720
876.521	15694
876.65	15694
876.778	15614
876.906	15515
877.034	15545
877.162	15523
877.29	15481
877.418	15564
877.546	15610
877.674	15713
877.802	15644
877.93	15553
878.058	15618
878.185	15462
878.313	15679
878.441	15629
878.568	15477
878.696	15576
878.824	15580
878.951	15652
879.079	15857
879.206	15994
879.333	15717
879.461	15644
879.588	15591
879.715	15895
879.842	15918
879.97	15667
880.097	15454
880.224	15428
880.351	15488
880.478	15485
880.605	15439
880.732	15431
880.859	15641
880.986	15519
881.112	15450
881.239	15283
881.366	15256
881.493	15123
881.619	15066
881.746	15108
881.872	15097
881.999	15047
882.125	15066
882.252	15112
882.378	15199
882.505	15302
882.631	15089
882.757	14891
882.883	14891
883.01	14937
883.136	14826
883.262	14845
883.388	14777
883.514	14956
883.64	15005
883.766	14868
883.892	14708
884.018	14792
884.143	14899
884.269	14944
884.395	14769
884.52	14644
884.646	14640
884.772	14625
884.897	14617
885.023	14697
885.148	14682
885.274	14739
885.399	14788
885.524	14697
885.65	14663
885.775	14693
885.9	14640
886.025	14708
886.15	14705
886.275	14533
886.4	14514
886.525	14602
886.65	14503
886.775	14503
886.9	14735
887.025	14864
887.149	14560
887.274	14476
887.399	14374
887.523	14381
887.648	14412
887.773	14393
887.897	14526
888.021	14454
888.146	14370
888.27	14602
888.395	14461
888.519	14556
888.643	14465
888.767	14499
888.891	14381
889.015	14339
889.139	14259
889.263	14339
889.387	14469
889.511	14571
889.635	14355
889.759	14370
889.883	14237
890.006	14358
890.13	14396
890.254	14252
890.377	14267
890.501	14134
890.624	14199
890.748	14119
890.871	14058
890.995	13928
891.118	13890
891.241	13970
891.364	14039
891.488	14161
891.611	14027
891.734	14001
891.857	14142
891.98	14020
892.103	14096
892.226	14077
892.349	14092
892.471	13826
892.594	14005
892.717	14092
892.839	14050
892.962	14043
893.085	14092
893.207	14050
893.33	13993
893.452	13898
893.575	14100
893.697	14081
893.819	14168
893.941	14275
894.064	14221
894.186	13993
894.308	13944
894.43	14107
894.552	14229
894.674	14130
894.796	14020
894.918	14092
895.04	14077
895.161	14142
895.283	14172
895.405	14100
895.526	14134
895.648	14119
895.769	14142
895.891	14164
896.012	14263
896.134	14126
896.255	14172
896.376	14248
896.498	14218
896.619	14286
896.74	14164
896.861	14351
896.982	14568
897.103	14674
897.224	14469
897.345	14431
897.466	14374
897.587	14396
897.708	14571
897.828	14560
897.949	14351
898.07	14366
898.19	14385
898.311	14686
898.431	14518
898.552	14583
898.672	14526
898.792	14644
898.913	14602
899.033	14552
899.153	14385
899.273	14355
899.393	14336
899.513	14454
899.633	14473
899.753	14480
899.873	14412
899.993	14484
900.113	14469
900.232	14457
900.352	14358
900.472	14324
900.591	14206
900.711	14290
900.83	14233
900.95	14351
901.069	14507
901.189	14244
901.308	14134
901.427	14005
901.546	13986
901.665	13993
901.784	14005
901.904	13887
902.023	13864
902.141	13597
902.26	13559
902.379	13689
902.498	13674
902.617	13495
902.735	13620
902.854	13514
902.973	13487
903.091	13327
903.21	13354
903.328	13388
903.446	13266
903.565	13103
903.683	13240
903.801	13046
903.919	13091
904.038	13110
904.156	13012
904.274	13000
904.392	12951
904.51	12928
904.627	12954
904.745	12989
904.863	13046
904.981	12810
905.098	12608
905.216	12711
905.334	12669
905.451	12715
905.569	12612
905.686	12791
905.803	12578
905.921	12422
906.038	12635
906.155	12528
906.272	12350
906.389	12369
906.506	12254
906.623	12254
906.74	12205
906.857	12148
906.974	12311
907.091	12357
907.208	12391
907.324	12342
907.441	12152
907.557	11954
907.674	12068
907.79	11923
907.907	11908
908.023	12030
908.139	11939
908.256	11885
908.372	11897
908.488	11809
908.604	11691
908.72	11821
908.836	11752
908.952	11790
909.068	11794
909.184	11840
909.3	11668
909.415	11840
909.531	11737
909.647	11577
909.762	11524
909.878	11452
909.993	11520
910.108	11490
910.224	11493
910.339	11497
910.454	11455
910.57	11421
910.685	11318
910.8	11653
910.915	11532
911.03	11474
911.145	11246
911.259	11189
911.374	11231
911.489	11162
911.604	11124
911.718	10984
911.833	11018
911.947	10900
912.062	10793
912.176	10957
912.291	10968
912.405	10972
912.519	11132
912.633	11193
912.748	10999
912.862	10923
912.976	10843
913.09	10721
913.204	10835
913.318	10843
913.431	10927
913.545	10873
913.659	11018
913.772	10942
913.886	10733
914	10687
914.113	10793
914.226	10820
914.34	10835
914.453	10561
914.566	10812
914.68	10683
914.793	10611
914.906	10481
915.019	10398
915.132	10428
915.245	10417
915.358	10504
915.47	10527
915.583	10470
915.696	10634
915.809	10611
915.921	10668
916.034	10459
916.146	10421
916.259	10382
916.371	10542
916.483	10489
916.595	10402
916.708	10398
916.82	10409
916.932	10424
917.044	10333
917.156	10356
917.268	10234
917.38	10348
917.491	10310
917.603	10287
917.715	10360
917.826	10398
917.938	10272
918.049	10158
918.161	10223
918.272	10421
918.384	10413
918.495	10398
918.606	10169
918.717	10109
918.828	10249
918.939	10295
919.05	10090
919.161	10101
919.272	9983
919.383	10078
919.494	10215
919.604	10379
919.715	10276
919.826	10181
919.936	10230
920.047	10299
920.157	10185
920.267	10413
920.378	10200
920.488	10246
920.598	10459
920.708	10622
920.818	10360
920.928	10413
921.038	10561
921.148	10462
921.258	10276
921.368	10116
921.477	10135
921.587	10017
921.697	9911
921.806	10109
921.916	9888
922.025	9720
922.134	9759
922.244	9720
922.353	9831
922.462	9667
922.571	9580
922.68	9420
922.789	9485
922.898	9496
923.007	9351
923.116	9523
923.224	9420
923.333	9492
923.442	9351
923.55	9279
923.659	9359
923.767	9389
923.876	9302
923.984	9382
924.092	9264
924.201	9329
924.309	9378
924.417	9397
924.525	9230
924.633	9268
924.741	10090
924.849	9066
924.956	9287
925.064	9093
925.172	9043
925.279	9074
925.387	9100
925.494	9230
925.602	9279
925.709	9161
925.816	9081
925.924	9161
926.031	9268
926.138	9138
926.245	9154
926.352	9074
926.459	9203
926.566	9256
926.673	9032
926.779	8971
926.886	8937
926.993	8838
927.099	8834
927.206	8708
927.312	8838
927.419	8880
927.525	8819
927.631	8868
927.737	8781
927.843	8785
927.95	8552
928.056	8663
928.162	8716
928.267	8769
928.373	9241
928.479	8807
928.585	8606
928.69	8651
928.796	8800
928.901	8674
929.007	8488
929.112	8632
929.218	8587
929.323	8556
929.428	8530
929.533	8689
929.638	8484
929.743	8579
929.848	8606
929.953	8533
930.058	8469
930.163	8237
930.267	8347
930.372	8427
930.477	8233
930.581	8533
930.685	8358
930.79	8275
930.894	8252
930.998	8240
931.103	8362
931.207	8039
931.311	8058
931.415	7967
931.519	7792
931.623	7795
