Data from test_V78500241_3065.txt Node
Date: Fri Mar 25 14:55:03 CST 2022
User: usil
Spectrometer: V785-0024
Trigger mode: 0
Integration Time (sec): 4.000000E-1
Scans to average: 1
Nonlinearity correction enabled: false
Boxcar width: 0
Storing dark spectrum: false
XAxis mode: Wavelengths
Number of Pixels in Spectrum: 1024
>>>>>Begin Spectral Data<<<<<
801.071	22059
801.214	22010
801.356	21663
801.499	21534
801.641	21519
801.783	21450
801.926	21561
802.068	21408
802.211	21420
802.353	21207
802.496	21165
802.638	20861
802.78	20899
802.923	20804
803.065	20826
803.208	20708
803.35	20762
803.492	20933
803.635	20921
803.777	20804
803.919	20853
804.061	21142
804.204	20777
804.346	20659
804.488	20579
804.63	20826
804.773	20545
804.915	20754
805.057	20800
805.199	20602
805.341	20804
805.483	20735
805.626	20743
805.768	20678
805.91	20579
806.052	20625
806.194	20545
806.336	20842
806.478	20697
806.62	20568
806.762	20754
806.904	20811
807.046	20986
807.188	21036
807.33	21146
807.472	21100
807.614	20883
807.756	20929
807.898	20830
808.04	20853
808.182	20781
808.324	20750
808.465	20864
808.607	21051
808.749	21074
808.891	21154
809.033	21272
809.174	21165
809.316	21116
809.458	21104
809.6	20994
809.741	21150
809.883	21131
810.025	21184
810.166	21332
810.308	21245
810.45	21230
810.591	21074
810.733	20967
810.875	20830
811.016	20758
811.158	20739
811.299	20918
811.441	20986
811.582	20925
811.724	20796
811.865	20746
812.007	20720
812.148	20861
812.29	20948
812.431	20876
812.573	21211
812.714	21272
812.855	21435
812.997	21515
813.138	21561
813.279	21561
813.421	21382
813.562	21233
813.703	21135
813.845	21161
813.986	20727
814.127	20533
814.268	20408
814.41	20503
814.551	20328
814.692	20461
814.833	20286
814.974	20313
815.115	20423
815.256	20256
815.397	20313
815.539	20202
815.68	20081
815.821	19982
815.962	20058
816.103	19963
816.244	20012
816.385	19921
816.526	19803
816.666	19639
816.807	19487
816.948	19575
817.089	19594
817.23	19582
817.371	19457
817.512	19506
817.653	19487
817.793	19464
817.934	19464
818.075	19460
818.216	19502
818.356	19335
818.497	19316
818.638	19160
818.778	19282
818.919	19122
819.06	19202
819.2	19304
819.341	19358
819.481	19415
819.622	19419
819.762	19765
819.903	19609
820.043	19521
820.184	19495
820.324	19491
820.465	19548
820.605	19586
820.746	19537
820.886	19377
821.026	19449
821.167	19426
821.307	19529
821.447	19381
821.588	19464
821.728	19129
821.868	18993
822.008	18890
822.149	18791
822.289	18871
822.429	18601
822.569	18456
822.709	18509
822.849	18410
822.99	18414
823.13	18319
823.27	18266
823.41	18197
823.55	18152
823.69	18304
823.83	18201
823.97	18106
824.11	17931
824.25	17840
824.389	18045
824.529	18011
824.669	17901
824.809	18121
824.949	18060
825.089	18003
825.228	17961
825.368	17726
825.508	17684
825.648	17638
825.787	17695
825.927	17767
826.067	17657
826.206	17623
826.346	17691
826.485	17722
826.625	17714
826.765	17756
826.904	17745
827.044	17414
827.183	17448
827.323	17444
827.462	17452
827.601	17440
827.741	17391
827.88	17379
828.02	17322
828.159	17277
828.298	17372
828.437	17433
828.577	17444
828.716	17577
828.855	17372
828.994	17216
829.134	17128
829.273	17269
829.412	17166
829.551	17113
829.69	17086
829.829	17166
829.968	17189
830.107	17155
830.246	17261
830.385	17143
830.524	17083
830.663	16946
830.802	16881
830.941	16816
831.08	16736
831.219	16839
831.357	16831
831.496	16938
831.635	16725
831.774	16622
831.913	16618
832.051	16615
832.19	16584
832.329	16634
832.467	16455
832.606	16455
832.744	16489
832.883	16421
833.022	16405
833.16	16443
833.299	16558
833.437	16565
833.576	16500
833.714	16474
833.852	16565
833.991	16611
834.129	16634
834.267	16519
834.406	16554
834.544	16550
834.682	16592
834.821	16573
834.959	16656
835.097	16561
835.235	16645
835.373	16588
835.511	16569
835.65	16398
835.788	16421
835.926	16344
836.064	16238
836.202	16230
836.34	16466
836.478	16531
836.615	16500
836.753	16542
836.891	16504
837.029	16481
837.167	16310
837.305	16421
837.443	16417
837.58	16314
837.718	16436
837.856	16318
837.993	16261
838.131	16268
838.269	16234
838.406	16139
838.544	16158
838.681	16048
838.819	15945
838.956	15743
839.094	15724
839.231	15930
839.369	16040
839.506	16337
839.643	16097
839.781	15831
839.918	15785
840.055	15827
840.193	15922
840.33	15816
840.467	15831
840.604	15812
840.742	16204
840.879	15720
841.016	15701
841.153	15770
841.29	15979
841.427	15838
841.564	15789
841.701	15876
841.838	15899
841.975	15682
842.112	15694
842.249	15724
842.385	15587
842.522	15861
842.659	15660
842.796	15629
842.933	15675
843.069	15549
843.206	15660
843.343	15660
843.479	15576
843.616	15587
843.752	15477
843.889	15511
844.025	15599
844.162	15393
844.298	15564
844.435	15412
844.571	15405
844.708	15351
844.844	15469
844.98	15603
845.117	15431
845.253	15393
845.389	15233
845.525	15336
845.661	15249
845.798	15161
845.934	15275
846.07	15123
846.206	15283
846.342	15344
846.478	15150
846.614	15020
846.75	14925
846.886	15009
847.022	15104
847.158	14902
847.294	15005
847.429	14990
847.565	15024
847.701	15241
847.837	14773
847.972	14640
848.108	14834
848.244	14849
848.379	14587
848.515	14621
848.65	14575
848.786	14568
848.921	14461
849.057	14640
849.192	14541
849.328	14583
849.463	14648
849.598	14488
849.734	14480
849.869	14480
850.004	14480
850.14	14362
850.275	14294
850.41	14298
850.545	14259
850.68	14358
850.815	14298
850.95	14423
851.085	14594
851.22	14541
851.355	14389
851.49	14282
851.625	14290
851.76	14286
851.895	14225
852.03	14248
852.165	14324
852.299	14267
852.434	14393
852.569	14328
852.703	14377
852.838	14457
852.973	14438
853.107	14511
853.242	14301
853.376	14229
853.511	14119
853.645	14221
853.78	14412
853.914	14278
854.048	14157
854.183	14123
854.317	14263
854.451	14347
854.585	14256
854.72	14199
854.854	14187
854.988	14069
855.122	14176
855.256	14145
855.39	14286
855.524	14263
855.658	14320
855.792	14191
855.926	14271
856.06	14305
856.194	14256
856.327	14206
856.461	14149
856.595	14126
856.729	14153
856.862	14305
856.996	14240
857.13	14233
857.263	14290
857.397	14339
857.53	14225
857.664	14263
857.797	14195
857.931	14237
858.064	14271
858.197	14305
858.331	14206
858.464	14142
858.597	14035
858.731	14180
858.864	14142
858.997	14183
859.13	14210
859.263	14305
859.396	14324
859.529	14119
859.662	14164
859.795	14176
859.928	14263
860.061	14362
860.194	14317
860.327	14206
860.46	14248
860.592	14301
860.725	14370
860.858	14377
860.99	14111
861.123	14103
861.256	14123
861.388	14180
861.521	14925
861.653	14020
861.786	14123
861.918	14058
862.05	14176
862.183	14111
862.315	14320
862.447	14263
862.58	14134
862.712	14050
862.844	13871
862.976	14092
863.108	14153
863.24	14339
863.372	13928
863.504	14005
863.636	13959
863.768	14008
863.9	14046
864.032	13928
864.164	13913
864.296	14024
864.428	14153
864.559	13947
864.691	14058
864.823	14035
864.954	13967
865.086	14035
865.217	13921
865.349	13967
865.48	13898
865.612	14031
865.743	14157
865.875	13906
866.006	13906
866.137	14005
866.269	14008
866.4	13902
866.531	13997
866.662	13883
866.793	13906
866.924	13940
867.055	13928
867.186	13986
867.317	13913
867.448	13772
867.579	13902
867.71	13887
867.841	13818
867.972	13898
868.103	13970
868.233	14016
868.364	13978
868.495	14005
868.625	14187
868.756	14351
868.886	14123
869.017	14119
869.147	14286
869.278	14370
869.408	14252
869.539	14130
869.669	14191
869.799	14172
869.929	14370
870.06	14374
870.19	14594
870.32	14530
870.45	14518
870.58	14602
870.71	14754
870.84	14735
870.97	14480
871.1	14610
871.23	14902
871.36	14758
871.489	14678
871.619	14883
871.749	14811
871.879	14838
872.008	14914
872.138	14796
872.267	14826
872.397	14655
872.526	14678
872.656	14648
872.785	14602
872.915	14887
873.044	14910
873.173	14807
873.303	14785
873.432	14845
873.561	15017
873.69	14921
873.819	14834
873.948	14899
874.077	14830
874.206	14842
874.335	14861
874.464	15066
874.593	15135
874.722	15116
874.851	15142
874.979	15256
875.108	15211
875.237	15047
875.365	15066
875.494	15131
875.623	15241
875.751	15032
875.88	15154
876.008	15294
876.136	15359
876.265	15564
876.393	15835
876.521	15690
876.65	15713
876.778	15610
876.906	15576
877.034	15603
877.162	15530
877.29	15515
877.418	15603
877.546	15686
877.674	15545
877.802	15542
877.93	15504
878.058	15553
878.185	15507
878.313	15572
878.441	15622
878.568	15401
878.696	15584
878.824	15606
878.951	15682
879.079	15793
879.206	15926
879.333	15747
879.461	15641
879.588	15663
879.715	15679
879.842	15895
879.97	15793
880.097	15389
880.224	15408
880.351	15439
880.478	15466
880.605	15416
880.732	15412
880.859	15561
880.986	15492
881.112	15526
881.239	15351
881.366	15260
881.493	15142
881.619	15108
881.746	15176
881.872	15066
881.999	15131
882.125	15089
882.252	15222
882.378	15043
882.505	15207
882.631	15017
882.757	14914
882.883	14967
883.01	14937
883.136	14853
883.262	14773
883.388	14686
883.514	14864
883.64	14944
883.766	14910
883.892	14765
884.018	14773
884.143	14887
884.269	15028
884.395	14693
884.52	14640
884.646	14621
884.772	14564
884.897	14518
885.023	14590
885.148	14727
885.274	14785
885.399	14682
885.524	14587
885.65	14735
885.775	14640
885.9	14686
886.025	14663
886.15	14693
886.275	14602
886.4	14533
886.525	14648
886.65	14560
886.775	14518
886.9	14701
887.025	14819
887.149	14735
887.274	14442
887.399	14336
887.523	14415
887.648	14294
887.773	14362
887.897	14533
888.021	14461
888.146	14389
888.27	14556
888.395	14636
888.519	14492
888.643	14465
888.767	14484
888.891	14313
889.015	14278
889.139	14271
889.263	14332
889.387	14294
889.511	14511
889.635	14377
889.759	14358
889.883	14214
890.006	14332
890.13	14427
890.254	14119
890.377	14256
890.501	14115
890.624	14123
890.748	14202
890.871	14073
890.995	13963
891.118	13868
891.241	14069
891.364	14020
891.488	14145
891.611	13986
891.734	13879
891.857	14012
891.98	13993
892.103	14123
892.226	14115
892.349	13986
892.471	13784
892.594	13997
892.717	14096
892.839	13986
892.962	13936
893.085	14065
893.207	13974
893.33	13803
893.452	13913
893.575	14084
893.697	14123
893.819	14187
893.941	14202
894.064	14024
894.186	13932
894.308	13982
894.43	14172
894.552	14332
894.674	14142
894.796	14016
894.918	14035
895.04	14016
895.161	14218
895.283	14172
895.405	14069
895.526	14062
895.648	14111
895.769	14183
895.891	14202
896.012	14206
896.134	14202
896.255	14233
896.376	14084
896.498	14252
896.619	14271
896.74	14202
896.861	14244
896.982	14549
897.103	14644
897.224	14568
897.345	14434
897.466	14374
897.587	14415
897.708	14526
897.828	14427
897.949	14457
898.07	14256
898.19	14415
898.311	14659
898.431	14442
898.552	14568
898.672	14670
898.792	14621
898.913	14697
899.033	14545
899.153	14450
899.273	14259
899.393	14427
899.513	14484
899.633	14454
899.753	14522
899.873	14442
899.993	14423
900.113	14423
900.232	14492
900.352	14324
900.472	14305
900.591	14187
900.711	14320
900.83	14271
900.95	14332
901.069	14298
901.189	14191
901.308	14096
901.427	13936
901.546	13909
901.665	13917
901.784	13902
901.904	13833
902.023	13761
902.141	13616
902.26	13525
902.379	13586
902.498	13502
902.617	13396
902.735	13525
902.854	13563
902.973	13434
903.091	13263
903.21	13266
903.328	13270
903.446	13221
903.565	13076
903.683	13141
903.801	13034
903.919	13110
904.038	13095
904.156	12897
904.274	12977
904.392	12962
904.51	12856
904.627	12894
904.745	12882
904.863	12916
904.981	12768
905.098	12612
905.216	12612
905.334	12681
905.451	12612
905.569	12658
905.686	12597
905.803	12597
905.921	12342
906.038	12547
906.155	12467
906.272	12270
906.389	12262
906.506	12216
906.623	12201
906.74	12190
906.857	12041
906.974	12083
907.091	12235
907.208	12327
907.324	12209
907.441	12087
907.557	11988
907.674	12019
907.79	11878
907.907	11870
908.023	11897
908.139	11912
908.256	11832
908.372	11859
908.488	11821
908.604	11707
908.72	11676
908.836	11714
908.952	11668
909.068	11665
909.184	11824
909.3	11756
909.415	11733
909.531	11733
909.647	11509
909.762	11429
909.878	11410
909.993	11486
910.108	11455
910.224	11452
910.339	11383
910.454	11436
910.57	11364
910.685	11189
910.8	11539
910.915	11490
911.03	11353
911.145	11117
911.259	11094
911.374	11159
911.489	11124
911.604	10995
911.718	10892
911.833	10862
911.947	10847
912.062	10710
912.176	10892
912.291	10949
912.405	10911
912.519	11162
912.633	11094
912.748	10953
912.862	10915
912.976	10809
913.09	10698
913.204	10771
913.318	10843
913.431	10866
913.545	10873
913.659	10862
913.772	10809
913.886	10683
914	10641
914.113	10793
914.226	10812
914.34	10748
914.453	10569
914.566	10740
914.68	10531
914.793	10611
914.906	10481
915.019	10398
915.132	10405
915.245	10402
915.358	10478
915.47	10413
915.583	10455
915.696	10470
915.809	10500
915.921	10573
916.034	10363
916.146	10379
916.259	10344
916.371	10432
916.483	10451
916.595	10329
916.708	10432
916.82	10329
916.932	10360
917.044	10375
917.156	10386
917.268	10253
917.38	10261
917.491	10207
917.603	10310
917.715	10261
917.826	10371
917.938	10230
918.049	10109
918.161	10238
918.272	10398
918.384	10341
918.495	10238
918.606	10173
918.717	10150
918.828	10207
918.939	10162
919.05	10109
919.161	10135
919.272	9903
919.383	9998
919.494	10272
919.604	10356
919.715	10154
919.826	10051
919.936	10158
920.047	10268
920.157	10181
920.267	10421
920.378	10272
920.488	10105
920.598	10314
920.708	10474
920.818	10295
920.928	10344
921.038	10485
921.148	10504
921.258	10177
921.368	10109
921.477	10090
921.587	10074
921.697	9865
921.806	9968
921.916	9941
922.025	9759
922.134	9785
922.244	9713
922.353	9732
922.462	9584
922.571	9504
922.68	9435
922.789	9370
922.898	9416
923.007	9325
923.116	9435
923.224	9439
923.333	9348
923.442	9275
923.55	9298
923.659	9313
923.767	9317
923.876	9264
923.984	9332
924.092	9222
924.201	9226
924.309	9275
924.417	9382
924.525	9245
924.633	9283
924.741	10185
924.849	9036
924.956	9260
925.064	9036
925.172	8986
925.279	9036
925.387	9131
925.494	9074
925.602	9218
925.709	9119
925.816	9024
925.924	9081
926.031	9180
926.138	9093
926.245	9062
926.352	9009
926.459	9157
926.566	9165
926.673	9036
926.779	8914
926.886	8925
926.993	8811
927.099	8785
927.206	8727
927.312	8781
927.419	8769
927.525	8781
927.631	8876
927.737	8762
927.843	8648
927.95	8522
928.056	8659
928.162	8712
928.267	8758
928.373	9226
928.479	8735
928.585	8571
928.69	8701
928.796	8739
928.901	8587
929.007	8415
929.112	8602
929.218	8526
929.323	8484
929.428	8469
929.533	8655
929.638	8484
929.743	8408
929.848	8560
929.953	8533
930.058	8408
930.163	8244
930.267	8339
930.372	8431
930.477	8271
930.581	8461
930.685	8385
930.79	8191
930.894	8267
930.998	8164
931.103	8324
931.207	7970
931.311	7947
931.415	7890
931.519	7704
931.623	7734
