Data from test_V78500241_1279.txt Node
Date: Fri Mar 25 14:42:37 CST 2022
User: usil
Spectrometer: V785-0024
Trigger mode: 0
Integration Time (sec): 4.000000E-1
Scans to average: 1
Nonlinearity correction enabled: false
Boxcar width: 0
Storing dark spectrum: false
XAxis mode: Wavelengths
Number of Pixels in Spectrum: 1024
>>>>>Begin Spectral Data<<<<<
801.071	22451
801.214	22402
801.356	22139
801.499	21861
801.641	21808
801.783	21781
801.926	21713
802.068	21610
802.211	21572
802.353	21545
802.496	21294
802.638	21340
802.78	21272
802.923	21230
803.065	21135
803.208	21062
803.35	21081
803.492	21154
803.635	21302
803.777	21058
803.919	21272
804.061	21511
804.204	21184
804.346	21081
804.488	20994
804.63	21028
804.773	20887
804.915	21077
805.057	21207
805.199	20952
805.341	21077
805.483	21150
805.626	21055
805.768	21093
805.91	20982
806.052	21017
806.194	21001
806.336	21146
806.478	21009
806.62	20960
806.762	21135
806.904	21245
807.046	21382
807.188	21332
807.33	21291
807.472	21428
807.614	21348
807.756	21355
807.898	21287
808.04	21093
808.182	21408
808.324	21157
808.465	21249
808.607	21355
808.749	21492
808.891	21713
809.033	21800
809.174	21660
809.316	21481
809.458	21519
809.6	21542
809.741	21462
809.883	21462
810.025	21530
810.166	21629
810.308	21671
810.45	21526
810.591	21450
810.733	21222
810.875	21249
811.016	21169
811.158	21112
811.299	21272
811.441	21291
811.582	21321
811.724	21287
811.865	21245
812.007	21218
812.148	21119
812.29	21112
812.431	21359
812.573	21443
812.714	21564
812.855	21717
812.997	21831
813.138	21888
813.279	21675
813.421	21739
813.562	21633
813.703	21332
813.845	21344
813.986	21085
814.127	20853
814.268	20891
814.41	20750
814.551	20826
814.692	20773
814.833	20644
814.974	20792
815.115	20693
815.256	20507
815.397	20575
815.539	20579
815.68	20552
815.821	20385
815.962	20408
816.103	20480
816.244	20404
816.385	20275
816.526	20119
816.666	20005
816.807	19986
816.948	19932
817.089	20046
817.23	19883
817.371	19917
817.512	19917
817.653	19864
817.793	19894
817.934	19875
818.075	19879
818.216	19936
818.356	19921
818.497	19715
818.638	19616
818.778	19613
818.919	19586
819.06	19624
819.2	19780
819.341	19757
819.481	19738
819.622	19909
819.762	19959
819.903	20073
820.043	19795
820.184	19890
820.324	19913
820.465	19936
820.605	19894
820.746	19894
820.886	19776
821.026	19868
821.167	19704
821.307	19951
821.447	19738
821.588	19708
821.728	19674
821.868	19472
822.008	19293
822.149	19365
822.289	19278
822.429	19034
822.569	19034
822.709	19065
822.849	18863
822.99	18639
823.13	18722
823.27	18684
823.41	18749
823.55	18517
823.69	18665
823.83	18559
823.97	18642
824.11	18346
824.25	18429
824.389	18353
824.529	18471
824.669	18369
824.809	18551
824.949	18399
825.089	18426
825.228	18361
825.368	18167
825.508	18235
825.648	18144
825.787	18243
825.927	18159
826.067	18095
826.206	18110
826.346	18197
826.485	18144
826.625	18178
826.765	18323
826.904	18182
827.044	17904
827.183	17863
827.323	17729
827.462	17870
827.601	17836
827.741	17824
827.88	17832
828.02	17718
828.159	17783
828.298	17767
828.437	17931
828.577	17802
828.716	17950
828.855	17764
828.994	17570
829.134	17554
829.273	17596
829.412	17566
829.551	17619
829.69	17596
829.829	17676
829.968	17657
830.107	17699
830.246	17570
830.385	17543
830.524	17497
830.663	17455
830.802	17296
830.941	17231
831.08	17258
831.219	17303
831.357	17258
831.496	17379
831.635	17242
831.774	17265
831.913	17083
832.051	17098
832.19	16934
832.329	17083
832.467	16900
832.606	17003
832.744	16999
832.883	16847
833.022	16869
833.16	16976
833.299	16942
833.437	16972
833.576	17045
833.714	16965
833.852	17105
833.991	17041
834.129	17147
834.267	17086
834.406	16965
834.544	17006
834.682	17010
834.821	16946
834.959	17162
835.097	16965
835.235	17075
835.373	16976
835.511	17022
835.65	16896
835.788	16889
835.926	16835
836.064	16561
836.202	16691
836.34	16774
836.478	17060
836.615	16877
836.753	16797
836.891	17079
837.029	16927
837.167	16938
837.305	16809
837.443	16801
837.58	16675
837.718	16774
837.856	16755
837.993	16759
838.131	16717
838.269	16645
838.406	16672
838.544	16626
838.681	16504
838.819	16386
838.956	16234
839.094	16185
839.231	16242
839.369	16360
839.506	16748
839.643	16519
839.781	16314
839.918	16261
840.055	16417
840.193	16341
840.33	16253
840.467	16280
840.604	16394
840.742	16523
840.879	16185
841.016	16223
841.153	16268
841.29	16348
841.427	16386
841.564	16318
841.701	16223
841.838	16272
841.975	16154
842.112	16246
842.249	16002
842.385	16029
842.522	16211
842.659	16059
842.796	16128
842.933	15915
843.069	16059
843.206	16097
843.343	16166
843.479	16181
843.616	16040
843.752	15835
843.889	15846
844.025	15960
844.162	15827
844.298	16032
844.435	15915
844.571	15800
844.708	15953
844.844	16124
844.98	16025
845.117	15808
845.253	15922
845.389	15747
845.525	15895
845.661	15850
845.798	15808
845.934	15876
846.07	15907
846.206	15926
846.342	15876
846.478	15797
846.614	15507
846.75	15435
846.886	15492
847.022	15507
847.158	15443
847.294	15458
847.429	15584
847.565	15431
847.701	15599
847.837	15252
847.972	15180
848.108	15249
848.244	15180
848.379	15180
848.515	15013
848.65	14910
848.786	15028
848.921	14979
849.057	15165
849.192	15161
849.328	15028
849.463	15093
849.598	14986
849.734	14933
849.869	14849
850.004	14769
850.14	14788
850.275	14811
850.41	14758
850.545	14785
850.68	14830
850.815	14724
850.95	14739
851.085	14941
851.22	14849
851.355	14811
851.49	14765
851.625	14735
851.76	14788
851.895	14731
852.03	14606
852.165	14708
852.299	14754
852.434	14864
852.569	14750
852.703	14804
852.838	14918
852.973	14876
853.107	14929
853.242	14804
853.376	14705
853.511	14492
853.645	14651
853.78	14765
853.914	14644
854.048	14621
854.183	14663
854.317	14705
854.451	14773
854.585	14617
854.72	14682
854.854	14716
854.988	14560
855.122	14644
855.256	14480
855.39	14659
855.524	14743
855.658	14655
855.792	14663
855.926	14727
856.06	14686
856.194	14663
856.327	14636
856.461	14644
856.595	14727
856.729	14739
856.862	14765
856.996	14693
857.13	14640
857.263	14765
857.397	14792
857.53	14644
857.664	14727
857.797	14800
857.931	14781
858.064	14705
858.197	14743
858.331	14655
858.464	14632
858.597	14457
858.731	14686
858.864	14571
858.997	14632
859.13	14693
859.263	14606
859.396	14739
859.529	14575
859.662	14674
859.795	14575
859.928	14651
860.061	14701
860.194	14750
860.327	14712
860.46	14693
860.592	14819
860.725	14785
860.858	14689
860.99	14629
861.123	14571
861.256	14533
861.388	14697
861.521	15401
861.653	14473
861.786	14526
861.918	14511
862.05	14469
862.183	14621
862.315	14598
862.447	14575
862.58	14621
862.712	14393
862.844	14317
862.976	14602
863.108	14480
863.24	14914
863.372	14339
863.504	14396
863.636	14423
863.768	14423
863.9	14423
864.032	14362
864.164	14465
864.296	14434
864.428	14556
864.559	14484
864.691	14549
864.823	14396
864.954	14461
865.086	14522
865.217	14423
865.349	14415
865.48	14305
865.612	14396
865.743	14579
865.875	14412
866.006	14396
866.137	14423
866.269	14400
866.4	14366
866.531	14366
866.662	14339
866.793	14343
866.924	14294
867.055	14473
867.186	14530
867.317	14419
867.448	14267
867.579	14317
867.71	14275
867.841	14358
867.972	14343
868.103	14351
868.233	14404
868.364	14499
868.495	14476
868.625	14530
868.756	14754
868.886	14541
869.017	14598
869.147	14712
869.278	14750
869.408	14617
869.539	14640
869.669	14705
869.799	14712
869.929	14727
870.06	14735
870.19	14880
870.32	14979
870.45	14937
870.58	14982
870.71	15188
870.84	15165
870.97	15055
871.1	15043
871.23	15222
871.36	15218
871.489	15081
871.619	15218
871.749	15268
871.879	15306
872.008	15291
872.138	15260
872.267	15199
872.397	15127
872.526	15036
872.656	15157
872.785	15051
872.915	15287
873.044	15287
873.173	15283
873.303	15272
873.432	15340
873.561	15386
873.69	15363
873.819	15272
873.948	15287
874.077	15241
874.206	15214
874.335	15260
874.464	15439
874.593	15599
874.722	15557
874.851	15663
874.979	15603
875.108	15698
875.237	15515
875.365	15488
875.494	15614
875.623	15679
875.751	15466
875.88	15667
876.008	15869
876.136	15854
876.265	16017
876.393	16215
876.521	16025
876.65	16048
876.778	16162
876.906	15964
877.034	15945
877.162	16063
877.29	15964
877.418	16040
877.546	16055
877.674	16086
877.802	16021
877.93	15895
878.058	15907
878.185	15861
878.313	16071
878.441	16120
878.568	15918
878.696	15987
878.824	16071
878.951	16093
879.079	16150
879.206	16371
879.333	16333
879.461	16173
879.588	16204
879.715	16249
879.842	16409
879.97	16249
880.097	15915
880.224	15861
880.351	15941
880.478	15945
880.605	15922
880.732	15880
880.859	15994
880.986	15869
881.112	15865
881.239	15789
881.366	15709
881.493	15686
881.619	15564
881.746	15584
881.872	15549
881.999	15443
882.125	15538
882.252	15641
882.378	15648
882.505	15705
882.631	15454
882.757	15336
882.883	15359
883.01	15348
883.136	15359
883.262	15291
883.388	15283
883.514	15496
883.64	15462
883.766	15294
883.892	15173
884.018	15199
884.143	15370
884.269	15443
884.395	14994
884.52	14975
884.646	15146
884.772	15043
884.897	14986
885.023	15089
885.148	15055
885.274	15157
885.399	15173
885.524	15020
885.65	15077
885.775	15112
885.9	15116
886.025	15169
886.15	15142
886.275	14941
886.4	14933
886.525	15028
886.65	14937
886.775	14902
886.9	15237
887.025	15249
887.149	15097
887.274	14891
887.399	14773
887.523	14796
887.648	14796
887.773	14883
887.897	14971
888.021	14990
888.146	14807
888.27	14933
888.395	15047
888.519	14960
888.643	14910
888.767	14937
888.891	14750
889.015	14705
889.139	14899
889.263	14727
889.387	14838
889.511	14948
889.635	14872
889.759	14682
889.883	14693
890.006	14788
890.13	14785
890.254	14648
890.377	14678
890.501	14560
890.624	14568
890.748	14610
890.871	14495
890.995	14381
891.118	14324
891.241	14419
891.364	14389
891.488	14632
891.611	14415
891.734	14377
891.857	14499
891.98	14457
892.103	14488
892.226	14404
892.349	14412
892.471	14263
892.594	14412
892.717	14336
892.839	14343
892.962	14412
893.085	14541
893.207	14374
893.33	14317
893.452	14389
893.575	14530
893.697	14427
893.819	14537
893.941	14606
894.064	14533
894.186	14457
894.308	14434
894.43	14545
894.552	14579
894.674	14511
894.796	14385
894.918	14370
895.04	14492
895.161	14571
895.283	14545
895.405	14427
895.526	14560
895.648	14438
895.769	14602
895.891	14636
896.012	14613
896.134	14617
896.255	14629
896.376	14750
896.498	14522
896.619	14689
896.74	14541
896.861	14682
896.982	14872
897.103	15131
897.224	14937
897.345	14864
897.466	14651
897.587	14891
897.708	14960
897.828	14883
897.949	14712
898.07	14735
898.19	14952
898.311	14963
898.431	14895
898.552	14826
898.672	14872
898.792	14921
898.913	14937
899.033	14823
899.153	14693
899.273	14648
899.393	14689
899.513	14819
899.633	14804
899.753	14785
899.873	14754
899.993	14815
900.113	14765
900.232	14773
900.352	14640
900.472	14712
900.591	14636
900.711	14648
900.83	14560
900.95	14735
901.069	14765
901.189	14663
901.308	14415
901.427	14301
901.546	14328
901.665	14305
901.784	14317
901.904	14195
902.023	14115
902.141	13947
902.26	13875
902.379	13936
902.498	13928
902.617	13875
902.735	13951
902.854	13826
902.973	13689
903.091	13685
903.21	13666
903.328	13643
903.446	13499
903.565	13415
903.683	13441
903.801	13339
903.919	13468
904.038	13362
904.156	13285
904.274	13278
904.392	13240
904.51	13171
904.627	13259
904.745	13327
904.863	13316
904.981	13118
905.098	12947
905.216	12882
905.334	12966
905.451	12973
905.569	12878
905.686	12989
905.803	12947
905.921	12700
906.038	12894
906.155	12760
906.272	12620
906.389	12650
906.506	12521
906.623	12540
906.74	12547
906.857	12407
906.974	12418
907.091	12593
907.208	12620
907.324	12521
907.441	12448
907.557	12323
907.674	12182
907.79	12087
907.907	12205
908.023	12194
908.139	12216
908.256	12285
908.372	12159
908.488	12148
908.604	12022
908.72	12034
908.836	12034
908.952	11992
909.068	12003
909.184	12182
909.3	11942
909.415	11988
909.531	11996
909.647	11878
909.762	11745
909.878	11741
909.993	11756
910.108	11840
910.224	11745
910.339	11802
910.454	11707
910.57	11642
910.685	11619
910.8	11832
910.915	11786
911.03	11642
911.145	11551
911.259	11448
911.374	11455
911.489	11414
911.604	11425
911.718	11265
911.833	11231
911.947	11086
912.062	11041
912.176	11231
912.291	11334
912.405	11288
912.519	11463
912.633	11429
912.748	11280
912.862	11280
912.976	11094
913.09	11018
913.204	11113
913.318	11132
913.431	11166
913.545	11147
913.659	11201
913.772	11098
913.886	11006
914	10972
914.113	11086
914.226	11174
914.34	11086
914.453	10850
914.566	11067
914.68	10908
914.793	10919
914.906	10763
915.019	10717
915.132	10641
915.245	10656
915.358	10736
915.47	10744
915.583	10729
915.696	10801
915.809	10812
915.921	10896
916.034	10683
916.146	10679
916.259	10694
916.371	10820
916.483	10687
916.595	10622
916.708	10672
916.82	10687
916.932	10584
917.044	10603
917.156	10630
917.268	10443
917.38	10573
917.491	10531
917.603	10565
917.715	10626
917.826	10573
917.938	10478
918.049	10474
918.161	10573
918.272	10675
918.384	10641
918.495	10561
918.606	10390
918.717	10333
918.828	10413
918.939	10504
919.05	10329
919.161	10447
919.272	10227
919.383	10314
919.494	10447
919.604	10637
919.715	10451
919.826	10352
919.936	10447
920.047	10512
920.157	10459
920.267	10645
920.378	10523
920.488	10421
920.598	10702
920.708	10771
920.818	10603
920.928	10653
921.038	10843
921.148	10687
921.258	10462
921.368	10344
921.477	10314
921.587	10272
921.697	10147
921.806	10314
921.916	10131
922.025	10029
922.134	9987
922.244	9953
922.353	10013
922.462	9880
922.571	9819
922.68	9705
922.789	9576
922.898	9656
923.007	9698
923.116	9679
923.224	9610
923.333	9610
923.442	9523
923.55	9526
923.659	9572
923.767	9667
923.876	9500
923.984	9591
924.092	9450
924.201	9576
924.309	9507
924.417	9610
924.525	9477
924.633	9504
924.741	10253
924.849	9310
924.956	9454
925.064	9351
925.172	9253
925.279	9192
925.387	9355
925.494	9359
925.602	9416
925.709	9378
925.816	9241
925.924	9287
926.031	9386
926.138	9325
926.245	9340
926.352	9241
926.459	9374
926.566	9428
926.673	9241
926.779	9093
926.886	9241
926.993	9039
927.099	9100
927.206	8979
927.312	8963
927.419	9089
927.525	9032
927.631	9074
927.737	8937
927.843	8891
927.95	8830
928.056	8849
928.162	8906
928.267	8994
928.373	9530
928.479	8990
928.585	8769
928.69	8906
928.796	8975
928.901	8823
929.007	8762
929.112	8834
929.218	8800
929.323	8823
929.428	8754
929.533	8899
929.638	8689
929.743	8739
929.848	8773
929.953	8731
930.058	8670
930.163	8450
930.267	8522
930.372	8674
930.477	8427
930.581	8727
930.685	8610
930.79	8385
930.894	8442
930.998	8385
931.103	8610
931.207	8252
931.311	8256
931.415	8115
931.519	7974
931.623	7890
