Data from test_V78500241_340.txt Node
Date: Fri Mar 25 14:36:05 CST 2022
User: usil
Spectrometer: V785-0024
Trigger mode: 0
Integration Time (sec): 4.000000E-1
Scans to average: 1
Nonlinearity correction enabled: false
Boxcar width: 0
Storing dark spectrum: false
XAxis mode: Wavelengths
Number of Pixels in Spectrum: 1024
>>>>>Begin Spectral Data<<<<<
801.071	26834
801.214	26853
801.356	26598
801.499	26552
801.641	26358
801.783	26263
801.926	26366
802.068	26389
802.211	26275
802.353	26103
802.496	26119
802.638	25898
802.78	25917
802.923	25791
803.065	25731
803.208	25795
803.35	25944
803.492	26008
803.635	26001
803.777	25788
803.919	25849
804.061	26084
804.204	25887
804.346	25826
804.488	25811
804.63	25894
804.773	25734
804.915	25750
805.057	26065
805.199	25719
805.341	25917
805.483	25909
805.626	25875
805.768	25750
805.91	26058
806.052	25788
806.194	25890
806.336	26058
806.478	25966
806.62	25822
806.762	25936
806.904	26145
807.046	26484
807.188	26149
807.33	26294
807.472	26294
807.614	26214
807.756	26107
807.898	26005
808.04	26001
808.182	26096
808.324	26126
808.465	26218
808.607	26195
808.749	26450
808.891	26507
809.033	26590
809.174	26564
809.316	26408
809.458	26408
809.6	26309
809.741	26286
809.883	26465
810.025	26579
810.166	26678
810.308	26636
810.45	26374
810.591	26473
810.733	26332
810.875	26347
811.016	26153
811.158	26210
811.299	26313
811.441	26415
811.582	26545
811.724	26183
811.865	26267
812.007	26153
812.148	26317
812.29	26396
812.431	26370
812.573	26594
812.714	26564
812.855	26659
812.997	26853
813.138	27017
813.279	26807
813.421	26758
813.562	26804
813.703	26457
813.845	26324
813.986	26313
814.127	25887
814.268	25947
814.41	25772
814.551	25841
814.692	25917
814.833	25769
814.974	25765
815.115	25822
815.256	25841
815.397	25655
815.539	25590
815.68	25540
815.821	25597
815.962	25556
816.103	25499
816.244	25430
816.385	25297
816.526	25343
816.666	25183
816.807	24909
816.948	25031
817.089	24958
817.23	24878
817.371	24985
817.512	25061
817.653	24954
817.793	24897
817.934	24901
818.075	24897
818.216	24848
818.356	24772
818.497	24886
818.638	24631
818.778	24684
818.919	24578
819.06	24684
819.2	24783
819.341	24837
819.481	24924
819.622	24943
819.762	25114
819.903	25141
820.043	24901
820.184	24954
820.324	24920
820.465	24981
820.605	24962
820.746	24821
820.886	24700
821.026	24791
821.167	24741
821.307	24897
821.447	24817
821.588	24601
821.728	24627
821.868	24357
822.008	24239
822.149	24178
822.289	24186
822.429	23969
822.569	24015
822.709	23965
822.849	23794
822.99	23680
823.13	23756
823.27	23642
823.41	23528
823.55	23490
823.69	23531
823.83	23570
823.97	23551
824.11	23254
824.25	23193
824.389	23200
824.529	23197
824.669	23322
824.809	23417
824.949	23330
825.089	23292
825.228	23296
825.368	23041
825.508	23086
825.648	23155
825.787	23044
825.927	23132
826.067	23098
826.206	22873
826.346	23083
826.485	23105
826.625	23140
826.765	23242
826.904	23181
827.044	22831
827.183	22736
827.323	22713
827.462	22771
827.601	22847
827.741	22744
827.88	22812
828.02	22603
828.159	22668
828.298	22694
828.437	22759
828.577	22687
828.716	22771
828.855	22668
828.994	22615
829.134	22603
829.273	22497
829.412	22382
829.551	22451
829.69	22375
829.829	22485
829.968	22565
830.107	22577
830.246	22398
830.385	22287
830.524	22303
830.663	22238
830.802	22093
830.941	21934
831.08	21979
831.219	22105
831.357	22002
831.496	22177
831.635	21918
831.774	21949
831.913	21857
832.051	21892
832.19	21663
832.329	21781
832.467	21637
832.606	21625
832.744	21694
832.883	21766
833.022	21660
833.16	21686
833.299	21648
833.437	21705
833.576	21690
833.714	21789
833.852	21800
833.991	21751
834.129	21732
834.267	21701
834.406	21713
834.544	21644
834.682	21679
834.821	21629
834.959	21724
835.097	21526
835.235	21743
835.373	21663
835.511	21637
835.65	21675
835.788	21652
835.926	21389
836.064	21154
836.202	21355
836.34	21561
836.478	21675
836.615	21485
836.753	21545
836.891	21557
837.029	21523
837.167	21587
837.305	21412
837.443	21382
837.58	21367
837.718	21523
837.856	21485
837.993	21275
838.131	21310
838.269	21279
838.406	21256
838.544	21230
838.681	20921
838.819	20979
838.956	20876
839.094	20743
839.231	21001
839.369	20994
839.506	21287
839.643	21100
839.781	20773
839.918	20746
840.055	20800
840.193	20861
840.33	20617
840.467	20796
840.604	20655
840.742	20899
840.879	20594
841.016	20663
841.153	20598
841.29	20731
841.427	20697
841.564	20651
841.701	20663
841.838	20689
841.975	20461
842.112	20640
842.249	20549
842.385	20358
842.522	20537
842.659	20533
842.796	20358
842.933	20469
843.069	20385
843.206	20305
843.343	20503
843.479	20355
843.616	20374
843.752	20240
843.889	20240
844.025	20320
844.162	20103
844.298	20278
844.435	20138
844.571	20225
844.708	20229
844.844	20313
844.98	20244
845.117	20187
845.253	20016
845.389	20008
845.525	20100
845.661	20172
845.798	20020
845.934	20077
846.07	20039
846.206	20043
846.342	20130
846.478	19993
846.614	19799
846.75	19655
846.886	19689
847.022	19788
847.158	19601
847.294	19811
847.429	19616
847.565	19651
847.701	19753
847.837	19411
847.972	19381
848.108	19495
848.244	19445
848.379	19232
848.515	19202
848.65	19228
848.786	19228
848.921	19171
849.057	19270
849.192	19308
849.328	19289
849.463	19301
849.598	19236
849.734	19103
849.869	18993
850.004	19000
850.14	18954
850.275	18935
850.41	18886
850.545	18989
850.68	18863
850.815	18943
850.95	18954
851.085	19107
851.22	19061
851.355	18977
851.49	18852
851.625	18894
851.76	18833
851.895	18882
852.03	18829
852.165	18935
852.299	18947
852.434	19107
852.569	18970
852.703	18932
852.838	18962
852.973	18875
853.107	19072
853.242	18935
853.376	18806
853.511	18692
853.645	18654
853.78	18882
853.914	18802
854.048	18730
854.183	18688
854.317	18810
854.451	18833
854.585	18798
854.72	18772
854.854	18745
854.988	18612
855.122	18859
855.256	18582
855.39	18730
855.524	18768
855.658	18764
855.792	18719
855.926	18734
856.06	18856
856.194	18764
856.327	18821
856.461	18642
856.595	18688
856.729	18631
856.862	18837
856.996	18715
857.13	18859
857.263	18798
857.397	18798
857.53	18726
857.664	18776
857.797	18909
857.931	18795
858.064	18760
858.197	18722
858.331	18688
858.464	18604
858.597	18616
858.731	18719
858.864	18616
858.997	18783
859.13	18738
859.263	18749
859.396	18726
859.529	18631
859.662	18642
859.795	18738
859.928	18817
860.061	18806
860.194	18913
860.327	18593
860.46	18677
860.592	18764
860.725	18886
860.858	18772
860.99	18719
861.123	18620
861.256	18498
861.388	18726
861.521	19472
861.653	18437
861.786	18566
861.918	18623
862.05	18616
862.183	18696
862.315	18646
862.447	18741
862.58	18783
862.712	18525
862.844	18467
862.976	18452
863.108	18441
863.24	18840
863.372	18407
863.504	18445
863.636	18391
863.768	18388
863.9	18437
864.032	18384
864.164	18289
864.296	18426
864.428	18525
864.559	18407
864.691	18475
864.823	18536
864.954	18353
865.086	18467
865.217	18403
865.349	18330
865.48	18334
865.612	18247
865.743	18395
865.875	18308
866.006	18258
866.137	18357
866.269	18213
866.4	18323
866.531	18243
866.662	18197
866.793	18197
866.924	18235
867.055	18418
867.186	18273
867.317	18163
867.448	18155
867.579	18232
867.71	18251
867.841	18167
867.972	18224
868.103	18323
868.233	18350
868.364	18289
868.495	18270
868.625	18441
868.756	18582
868.886	18418
869.017	18544
869.147	18547
869.278	18574
869.408	18593
869.539	18384
869.669	18597
869.799	18445
869.929	18688
870.06	18684
870.19	18810
870.32	18696
870.45	18939
870.58	18840
870.71	19038
870.84	19061
870.97	18859
871.1	18882
871.23	19133
871.36	19057
871.489	19015
871.619	18939
871.749	19129
871.879	19221
872.008	19217
872.138	19148
872.267	19046
872.397	19015
872.526	18848
872.656	18802
872.785	18814
872.915	19080
873.044	19274
873.173	19118
873.303	19278
873.432	19217
873.561	19156
873.69	19088
873.819	19133
873.948	19278
874.077	19168
874.206	19050
874.335	19190
874.464	19263
874.593	19331
874.722	19301
874.851	19392
874.979	19381
875.108	19327
875.237	19388
875.365	19327
875.494	19365
875.623	19464
875.751	19358
875.88	19335
876.008	19510
876.136	19537
876.265	19826
876.393	19894
876.521	19803
876.65	19852
876.778	19811
876.906	19746
877.034	19704
877.162	19708
877.29	19746
877.418	19769
877.546	19830
877.674	19772
877.802	19807
877.93	19677
878.058	19647
878.185	19651
878.313	19883
878.441	19708
878.568	19613
878.696	19738
878.824	19795
878.951	19879
879.079	19982
879.206	20138
879.333	19936
879.461	19830
879.588	19997
879.715	20031
879.842	20069
879.97	19944
880.097	19571
880.224	19685
880.351	19742
880.478	19677
880.605	19609
880.732	19548
880.859	19803
880.986	19601
881.112	19788
881.239	19521
881.366	19346
881.493	19232
881.619	19217
881.746	19285
881.872	19232
881.999	19122
882.125	19027
882.252	19381
882.378	19304
882.505	19381
882.631	19114
882.757	18977
882.883	19175
883.01	19015
883.136	18989
883.262	18954
883.388	18810
883.514	18882
883.64	19004
883.766	18882
883.892	18745
884.018	18837
884.143	19008
884.269	19110
884.395	18783
884.52	18677
884.646	18684
884.772	18730
884.897	18544
885.023	18665
885.148	18817
885.274	18791
885.399	18776
885.524	18658
885.65	18726
885.775	18620
885.9	18563
886.025	18665
886.15	18719
886.275	18540
886.4	18513
886.525	18551
886.65	18574
886.775	18620
886.9	18707
887.025	18783
887.149	18650
887.274	18422
887.399	18445
887.523	18357
887.648	18327
887.773	18304
887.897	18475
888.021	18467
888.146	18391
888.27	18589
888.395	18547
888.519	18391
888.643	18391
888.767	18528
888.891	18292
889.015	18209
889.139	18319
889.263	18174
889.387	18247
889.511	18266
889.635	18296
889.759	18220
889.883	18213
890.006	18243
890.13	18357
890.254	18152
890.377	18251
890.501	18045
890.624	17870
890.748	18053
890.871	17847
890.995	17798
891.118	17832
891.241	17798
891.364	17828
891.488	17954
891.611	17832
891.734	17840
891.857	18003
891.98	17863
892.103	17961
892.226	17805
892.349	17783
892.471	17687
892.594	17722
892.717	17859
892.839	17745
892.962	17855
893.085	17931
893.207	17840
893.33	17714
893.452	17703
893.575	17847
893.697	17714
893.819	17950
893.941	17916
894.064	17939
894.186	17661
894.308	17699
894.43	17897
894.552	17958
894.674	17923
894.796	17634
894.918	17813
895.04	17752
895.161	17916
895.283	17821
895.405	17767
895.526	17786
895.648	17904
895.769	17855
895.891	17847
896.012	17908
896.134	17870
896.255	17851
896.376	17843
896.498	17901
896.619	17961
896.74	18011
896.861	17897
896.982	18285
897.103	18327
897.224	18148
897.345	18072
897.466	17977
897.587	18022
897.708	18270
897.828	18194
897.949	18015
898.07	17897
898.19	18064
898.311	18125
898.431	18045
898.552	18045
898.672	18167
898.792	18186
898.913	18133
899.033	18019
899.153	17885
899.273	17809
899.393	17942
899.513	17840
899.633	17927
899.753	18011
899.873	17832
899.993	17973
900.113	17729
900.232	17847
900.352	17794
900.472	17737
900.591	17528
900.711	17661
900.83	17524
900.95	17824
901.069	17729
901.189	17554
901.308	17406
901.427	17345
901.546	17292
901.665	17376
901.784	17318
901.904	17193
902.023	17025
902.141	16763
902.26	16744
902.379	16835
902.498	16873
902.617	16850
902.735	16946
902.854	16778
902.973	16588
903.091	16440
903.21	16577
903.328	16405
903.446	16440
903.565	16375
903.683	16261
903.801	16249
903.919	16394
904.038	16417
904.156	16238
904.274	16238
904.392	16154
904.51	16196
904.627	16215
904.745	16226
904.863	16200
904.981	15926
905.098	15736
905.216	15808
905.334	15873
905.451	15804
905.569	15865
905.686	15888
905.803	15876
905.921	15633
906.038	15667
906.155	15622
906.272	15587
906.389	15534
906.506	15344
906.623	15370
906.74	15359
906.857	15230
906.974	15351
907.091	15447
907.208	15534
907.324	15321
907.441	15226
907.557	15051
907.674	15074
907.79	14979
907.907	14986
908.023	15093
908.139	15024
908.256	14998
908.372	14944
908.488	14967
908.604	14834
908.72	14667
908.836	14830
908.952	14686
909.068	14746
909.184	14842
909.3	14758
909.415	14724
909.531	14796
909.647	14503
909.762	14492
909.878	14457
909.993	14389
910.108	14469
910.224	14408
910.339	14355
910.454	14362
910.57	14389
910.685	14282
910.8	14492
910.915	14488
911.03	14244
911.145	14263
911.259	14164
911.374	14183
911.489	14138
911.604	13917
911.718	13772
911.833	13830
911.947	13852
912.062	13636
912.176	13849
912.291	13833
912.405	13822
912.519	13970
912.633	14058
912.748	13864
912.862	13791
912.976	13677
913.09	13586
913.204	13670
913.318	13670
913.431	13769
913.545	13712
913.659	13849
913.772	13696
913.886	13586
914	13563
914.113	13609
914.226	13662
914.34	13647
914.453	13556
914.566	13468
914.68	13438
914.793	13434
914.906	13270
915.019	13145
915.132	13076
915.245	13198
915.358	13209
915.47	13228
915.583	13209
915.696	13266
915.809	13308
915.921	13285
916.034	13236
916.146	13114
916.259	12977
916.371	13175
916.483	13084
916.595	12932
916.708	13091
916.82	13038
916.932	13023
917.044	12996
917.156	13164
917.268	12924
917.38	12856
917.491	12909
917.603	12924
917.715	12859
917.826	12993
917.938	12856
918.049	12810
918.161	12856
918.272	12989
918.384	12993
918.495	12825
918.606	12696
918.717	12642
918.828	12779
918.939	12798
919.05	12582
919.161	12616
919.272	12570
919.383	12517
919.494	12741
919.604	12951
919.715	12730
919.826	12589
919.936	12665
920.047	12760
920.157	12612
920.267	12856
920.378	12688
920.488	12589
920.598	12814
920.708	13031
920.818	12757
920.928	12852
921.038	12966
921.148	12897
921.258	12673
921.368	12570
921.477	12536
921.587	12464
921.697	12319
921.806	12471
921.916	12353
922.025	12220
922.134	12194
922.244	12057
922.353	12117
922.462	11988
922.571	11916
922.68	11756
922.789	11714
922.898	11760
923.007	11710
923.116	11794
923.224	11771
923.333	11832
923.442	11596
923.55	11585
923.659	11630
923.767	11733
923.876	11551
923.984	11646
924.092	11440
924.201	11570
924.309	11520
924.417	11649
924.525	11558
924.633	11433
924.741	12296
924.849	11341
924.956	11444
925.064	11307
925.172	11174
925.279	11181
925.387	11239
925.494	11269
925.602	11406
925.709	11330
925.816	11166
925.924	11265
926.031	11326
926.138	11231
926.245	11322
926.352	11170
926.459	11235
926.566	11296
926.673	11189
926.779	11067
926.886	11159
926.993	10946
927.099	10961
927.206	10923
927.312	10816
927.419	11014
927.525	10854
927.631	10953
927.737	10790
927.843	10755
927.95	10660
928.056	10675
928.162	10759
928.267	10793
928.373	11356
928.479	10805
928.585	10580
928.69	10752
928.796	10752
928.901	10634
929.007	10436
929.112	10736
929.218	10592
929.323	10504
929.428	10497
929.533	10615
929.638	10367
929.743	10500
929.848	10596
929.953	10398
930.058	10371
930.163	10253
930.267	10207
930.372	10409
930.477	10246
930.581	10402
930.685	10306
930.79	10150
930.894	10166
930.998	10124
931.103	10227
931.207	9918
931.311	9895
931.415	9747
931.519	9576
931.623	9534
