Data from test_V78500241_3343.txt Node
Date: Fri Mar 25 14:56:59 CST 2022
User: usil
Spectrometer: V785-0024
Trigger mode: 0
Integration Time (sec): 4.000000E-1
Scans to average: 1
Nonlinearity correction enabled: false
Boxcar width: 0
Storing dark spectrum: false
XAxis mode: Wavelengths
Number of Pixels in Spectrum: 1024
>>>>>Begin Spectral Data<<<<<
801.071	21983
801.214	21816
801.356	21576
801.499	21435
801.641	21424
801.783	21332
801.926	21519
802.068	21279
802.211	21123
802.353	21074
802.496	20811
802.638	20788
802.78	20796
802.923	20682
803.065	20617
803.208	20625
803.35	20678
803.492	20788
803.635	20857
803.777	20663
803.919	20667
804.061	20891
804.204	20788
804.346	20598
804.488	20545
804.63	20686
804.773	20590
804.915	20568
805.057	20587
805.199	20533
805.341	20651
805.483	20537
805.626	20560
805.768	20473
805.91	20552
806.052	20575
806.194	20446
806.336	20735
806.478	20606
806.62	20583
806.762	20693
806.904	20807
807.046	20975
807.188	20785
807.33	20857
807.472	20891
807.614	20830
807.756	20724
807.898	20682
808.04	20636
808.182	20613
808.324	20746
808.465	20648
808.607	20868
808.749	20967
808.891	20952
809.033	21142
809.174	21024
809.316	20788
809.458	20891
809.6	20796
809.741	21009
809.883	20823
810.025	21058
810.166	21020
810.308	20960
810.45	20982
810.591	20937
810.733	20739
810.875	20689
811.016	20594
811.158	20632
811.299	20708
811.441	20842
811.582	20750
811.724	20781
811.865	20564
812.007	20587
812.148	20613
812.29	20663
812.431	20800
812.573	20883
812.714	21051
812.855	21127
812.997	21313
813.138	21359
813.279	21317
813.421	21165
813.562	21100
813.703	20830
813.845	20807
813.986	20492
814.127	20294
814.268	20313
814.41	20328
814.551	20221
814.692	20313
814.833	20145
814.974	20138
815.115	20161
815.256	20130
815.397	20221
815.539	20005
815.68	19955
815.821	19856
815.962	20016
816.103	19864
816.244	19700
816.385	19685
816.526	19696
816.666	19502
816.807	19396
816.948	19369
817.089	19594
817.23	19415
817.371	19350
817.512	19392
817.653	19411
817.793	19297
817.934	19320
818.075	19377
818.216	19282
818.356	19232
818.497	19183
818.638	19015
818.778	19046
818.919	19168
819.06	19019
819.2	19183
819.341	19118
819.481	19259
819.622	19362
819.762	19483
819.903	19403
820.043	19411
820.184	19308
820.324	19293
820.465	19487
820.605	19365
820.746	19255
820.886	19179
821.026	19312
821.167	19282
821.307	19392
821.447	19263
821.588	19107
821.728	19053
821.868	18867
822.008	18745
822.149	18696
822.289	18703
822.429	18433
822.569	18334
822.709	18357
822.849	18292
822.99	18254
823.13	18216
823.27	18136
823.41	18030
823.55	17893
823.69	18216
823.83	18072
823.97	18003
824.11	17878
824.25	17821
824.389	17817
824.529	17874
824.669	17699
824.809	17809
824.949	17859
825.089	17935
825.228	17809
825.368	17608
825.508	17722
825.648	17539
825.787	17668
825.927	17634
826.067	17520
826.206	17532
826.346	17649
826.485	17615
826.625	17566
826.765	17760
826.904	17539
827.044	17379
827.183	17303
827.323	17303
827.462	17433
827.601	17311
827.741	17356
827.88	17318
828.02	17265
828.159	17299
828.298	17280
828.437	17311
828.577	17212
828.716	17368
828.855	17288
828.994	17064
829.134	17014
829.273	17159
829.412	16820
829.551	16938
829.69	17083
829.829	17105
829.968	17174
830.107	17018
830.246	17052
830.385	16957
830.524	16934
830.663	16854
830.802	16805
830.941	16736
831.08	16752
831.219	16752
831.357	16694
831.496	16809
831.635	16630
831.774	16645
831.913	16634
832.051	16485
832.19	16402
832.329	16462
832.467	16405
832.606	16299
832.744	16398
832.883	16360
833.022	16291
833.16	16257
833.299	16363
833.437	16428
833.576	16481
833.714	16428
833.852	16379
833.991	16432
834.129	16459
834.267	16443
834.406	16481
834.544	16344
834.682	16481
834.821	16341
834.959	16565
835.097	16363
835.235	16375
835.373	16436
835.511	16462
835.65	16352
835.788	16402
835.926	16150
836.064	16032
836.202	16147
836.34	16325
836.478	16382
836.615	16318
836.753	16432
836.891	16466
837.029	16287
837.167	16242
837.305	16268
837.443	16192
837.58	16071
837.718	16344
837.856	16238
837.993	16173
838.131	16287
838.269	16124
838.406	16063
838.544	16013
838.681	15846
838.819	15975
838.956	15743
839.094	15717
839.231	15827
839.369	15911
839.506	16074
839.643	16029
839.781	15747
839.918	15751
840.055	15774
840.193	15785
840.33	15789
840.467	15751
840.604	15698
840.742	16017
840.879	15648
841.016	15724
841.153	15686
841.29	15800
841.427	15739
841.564	15751
841.701	15838
841.838	15831
841.975	15618
842.112	15690
842.249	15511
842.385	15458
842.522	15679
842.659	15545
842.796	15595
842.933	15591
843.069	15515
843.206	15492
843.343	15633
843.479	15572
843.616	15523
843.752	15260
843.889	15367
844.025	15458
844.162	15306
844.298	15447
844.435	15298
844.571	15329
844.708	15325
844.844	15450
844.98	15450
845.117	15500
845.253	15294
845.389	15279
845.525	15294
845.661	15222
845.798	15123
845.934	15154
846.07	15077
846.206	15233
846.342	15302
846.478	15188
846.614	14918
846.75	14872
846.886	14899
847.022	15009
847.158	14918
847.294	14868
847.429	14982
847.565	14838
847.701	15154
847.837	14667
847.972	14571
848.108	14735
848.244	14788
848.379	14560
848.515	14484
848.65	14511
848.786	14457
848.921	14454
849.057	14610
849.192	14655
849.328	14533
849.463	14495
849.598	14530
849.734	14473
849.869	14381
850.004	14317
850.14	14332
850.275	14256
850.41	14278
850.545	14199
850.68	14328
850.815	14358
850.95	14286
851.085	14552
851.22	14301
851.355	14370
851.49	14202
851.625	14286
851.76	14183
851.895	14039
852.03	14149
852.165	14142
852.299	14256
852.434	14389
852.569	14317
852.703	14313
852.838	14374
852.973	14530
853.107	14377
853.242	14206
853.376	14149
853.511	14123
853.645	14195
853.78	14202
853.914	14172
854.048	14111
854.183	14115
854.317	14149
854.451	14469
854.585	14073
854.72	14100
854.854	14176
854.988	14031
855.122	14077
855.256	14043
855.39	14168
855.524	14263
855.658	14172
855.792	14157
855.926	14221
856.06	14164
856.194	14229
856.327	14218
856.461	14050
856.595	14050
856.729	14218
856.862	14332
856.996	14172
857.13	14191
857.263	14282
857.397	14248
857.53	14145
857.664	14263
857.797	14278
857.931	14229
858.064	14214
858.197	14290
858.331	14191
858.464	14043
858.597	13993
858.731	14069
858.864	14126
858.997	14168
859.13	14142
859.263	14187
859.396	14172
859.529	14187
859.662	14168
859.795	14123
859.928	14172
860.061	14278
860.194	14339
860.327	14206
860.46	14180
860.592	14271
860.725	14305
860.858	14221
860.99	14145
861.123	14065
861.256	14111
861.388	14138
861.521	14979
861.653	13986
861.786	13898
861.918	13986
862.05	14035
862.183	14031
862.315	14202
862.447	14168
862.58	14107
862.712	13879
862.844	13837
862.976	13963
863.108	13932
863.24	14290
863.372	13944
863.504	13814
863.636	13868
863.768	13928
863.9	13974
864.032	13898
864.164	13947
864.296	13974
864.428	14069
864.559	14005
864.691	14001
864.823	14035
864.954	13944
865.086	13978
865.217	13845
865.349	13826
865.48	13830
865.612	13890
865.743	14001
865.875	13951
866.006	13875
866.137	13890
866.269	13826
866.4	13928
866.531	13913
866.662	13784
866.793	13925
866.924	13830
867.055	13951
867.186	13788
867.317	13799
867.448	13921
867.579	13925
867.71	13753
867.841	13833
867.972	13913
868.103	13856
868.233	13963
868.364	13921
868.495	14012
868.625	14149
868.756	14210
868.886	14062
869.017	14058
869.147	14324
869.278	14221
869.408	14142
869.539	14195
869.669	14221
869.799	14199
869.929	14199
870.06	14206
870.19	14385
870.32	14587
870.45	14476
870.58	14492
870.71	14697
870.84	14670
870.97	14606
871.1	14549
871.23	14701
871.36	14667
871.489	14765
871.619	14678
871.749	14804
871.879	14750
872.008	14876
872.138	14739
872.267	14743
872.397	14533
872.526	14571
872.656	14606
872.785	14670
872.915	14800
873.044	14864
873.173	14857
873.303	14845
873.432	14826
873.561	14880
873.69	14868
873.819	14819
873.948	14883
874.077	14891
874.206	14842
874.335	14864
874.464	14937
874.593	14956
874.722	15013
874.851	15135
874.979	15199
875.108	15176
875.237	15089
875.365	15108
875.494	15077
875.623	15176
875.751	15077
875.88	15165
876.008	15382
876.136	15313
876.265	15523
876.393	15698
876.521	15523
876.65	15603
876.778	15488
876.906	15473
877.034	15488
877.162	15591
877.29	15389
877.418	15580
877.546	15507
877.674	15652
877.802	15564
877.93	15675
878.058	15587
878.185	15435
878.313	15492
878.441	15622
878.568	15378
878.696	15526
878.824	15629
878.951	15648
879.079	15743
879.206	15838
879.333	15698
879.461	15671
879.588	15625
879.715	15713
879.842	15842
879.97	15576
880.097	15408
880.224	15344
880.351	15431
880.478	15587
880.605	15321
880.732	15397
880.859	15717
880.986	15561
881.112	15431
881.239	15287
881.366	15188
881.493	15104
881.619	15138
881.746	15024
881.872	15142
881.999	14956
882.125	15066
882.252	14986
882.378	15036
882.505	15252
882.631	14998
882.757	14853
882.883	14861
883.01	14777
883.136	14826
883.262	14781
883.388	14667
883.514	14883
883.64	14849
883.766	14746
883.892	14670
884.018	14750
884.143	14937
884.269	14982
884.395	14598
884.52	14484
884.646	14583
884.772	14431
884.897	14499
885.023	14579
885.148	14674
885.274	14678
885.399	14632
885.524	14625
885.65	14545
885.775	14678
885.9	14575
886.025	14765
886.15	14632
886.275	14454
886.4	14480
886.525	14598
886.65	14465
886.775	14495
886.9	14708
887.025	14838
887.149	14587
887.274	14438
887.399	14366
887.523	14385
887.648	14309
887.773	14294
887.897	14488
888.021	14438
888.146	14355
888.27	14488
888.395	14518
888.519	14556
888.643	14396
888.767	14507
888.891	14423
889.015	14244
889.139	14309
889.263	14229
889.387	14396
889.511	14484
889.635	14412
889.759	14317
889.883	14229
890.006	14278
890.13	14377
890.254	14248
890.377	14199
890.501	14115
890.624	13989
890.748	14187
890.871	13951
890.995	13978
891.118	13932
891.241	13986
891.364	13944
891.488	14183
891.611	13925
891.734	14058
891.857	14054
891.98	14027
892.103	14043
892.226	13997
892.349	13917
892.471	13970
892.594	13951
892.717	13928
892.839	13951
892.962	14012
893.085	14073
893.207	13986
893.33	13814
893.452	13917
893.575	13925
893.697	13970
893.819	14130
893.941	14191
894.064	14244
894.186	13928
894.308	13955
894.43	14134
894.552	14199
894.674	14069
894.796	13875
894.918	14054
895.04	14012
895.161	14046
895.283	14119
895.405	14069
895.526	14069
895.648	14050
895.769	14081
895.891	14107
896.012	14187
896.134	14240
896.255	14134
896.376	14153
896.498	14183
896.619	14199
896.74	14138
896.861	14244
896.982	14571
897.103	14705
897.224	14457
897.345	14374
897.466	14267
897.587	14473
897.708	14621
897.828	14484
897.949	14355
898.07	14355
898.19	14473
898.311	14541
898.431	14507
898.552	14484
898.672	14560
898.792	14583
898.913	14522
899.033	14442
899.153	14366
899.273	14199
899.393	14351
899.513	14355
899.633	14324
899.753	14389
899.873	14336
899.993	14427
900.113	14320
900.232	14434
900.352	14355
900.472	14225
900.591	14305
900.711	14161
900.83	14115
900.95	14320
901.069	14317
901.189	14096
901.308	13970
901.427	13852
901.546	13925
901.665	13890
901.784	13925
901.904	13761
902.023	13655
902.141	13544
902.26	13407
902.379	13556
902.498	13426
902.617	13453
902.735	13559
902.854	13472
902.973	13403
903.091	13240
903.21	13293
903.328	13225
903.446	13160
903.565	13156
903.683	13061
903.801	13012
903.919	13008
904.038	12897
904.156	12875
904.274	12882
904.392	12852
904.51	12859
904.627	12871
904.745	12996
904.863	12897
904.981	12601
905.098	12551
905.216	12555
905.334	12627
905.451	12490
905.569	12532
905.686	12597
905.803	12502
905.921	12410
906.038	12486
906.155	12372
906.272	12273
906.389	12350
906.506	12205
906.623	12117
906.74	11973
906.857	11988
906.974	12019
907.091	12190
907.208	12323
907.324	12159
907.441	12133
907.557	11992
907.674	11927
907.79	11817
907.907	11859
908.023	11874
908.139	11939
908.256	11878
908.372	11882
908.488	11794
908.604	11649
908.72	11676
908.836	11630
908.952	11627
909.068	11566
909.184	11767
909.3	11707
909.415	11767
909.531	11676
909.647	11478
909.762	11448
909.878	11349
909.993	11524
910.108	11326
910.224	11410
910.339	11406
910.454	11349
910.57	11254
910.685	11261
910.8	11539
910.915	11429
911.03	11277
911.145	11174
911.259	11086
911.374	11178
911.489	11064
911.604	11033
911.718	10949
911.833	10968
911.947	10748
912.062	10786
912.176	10858
912.291	10999
912.405	10877
912.519	11018
912.633	11094
912.748	10949
912.862	10831
912.976	10831
913.09	10687
913.204	10729
913.318	10790
913.431	10896
913.545	10854
913.659	10915
913.772	10736
913.886	10698
914	10653
914.113	10793
914.226	10786
914.34	10725
914.453	10569
914.566	10759
914.68	10603
914.793	10615
914.906	10375
915.019	10322
915.132	10272
915.245	10405
915.358	10421
915.47	10398
915.583	10432
915.696	10417
915.809	10561
915.921	10569
916.034	10329
916.146	10356
916.259	10310
916.371	10402
916.483	10398
916.595	10299
916.708	10360
916.82	10386
916.932	10287
917.044	10352
917.156	10390
917.268	10230
917.38	10268
917.491	10207
917.603	10211
917.715	10322
917.826	10333
917.938	10200
918.049	10097
918.161	10325
918.272	10325
918.384	10474
918.495	10325
918.606	10120
918.717	10036
918.828	10192
918.939	10185
919.05	10013
919.161	10150
919.272	9918
919.383	10029
919.494	10101
919.604	10367
919.715	10051
919.826	10029
919.936	10074
920.047	10215
920.157	10207
920.267	10356
920.378	10086
920.488	10082
920.598	10337
920.708	10447
920.818	10405
920.928	10348
921.038	10516
921.148	10409
921.258	10162
921.368	10048
921.477	9960
921.587	9972
921.697	9842
921.806	9953
921.916	9915
922.025	9770
922.134	9671
922.244	9671
922.353	9686
922.462	9622
922.571	9534
922.68	9344
922.789	9344
922.898	9481
923.007	9298
923.116	9397
923.224	9340
923.333	9359
923.442	9268
923.55	9260
923.659	9329
923.767	9291
923.876	9279
923.984	9367
924.092	9237
924.201	9268
924.309	9294
924.417	9310
924.525	9195
924.633	9203
924.741	10177
924.849	9017
924.956	9123
925.064	9017
925.172	8929
925.279	8948
925.387	9043
925.494	9051
925.602	9165
925.709	9150
925.816	8960
925.924	9093
926.031	9230
926.138	9097
926.245	9108
926.352	9028
926.459	9093
926.566	9150
926.673	9009
926.779	8941
926.886	8933
926.993	8819
927.099	8762
927.206	8708
927.312	8746
927.419	8830
927.525	8769
927.631	8815
927.737	8708
927.843	8682
927.95	8511
928.056	8697
928.162	8636
928.267	8644
928.373	9386
928.479	8720
928.585	8602
928.69	8731
928.796	8678
928.901	8587
929.007	8431
929.112	8583
929.218	8533
929.323	8492
929.428	8431
929.533	8670
929.638	8415
929.743	8492
929.848	8587
929.953	8438
930.058	8339
930.163	8187
930.267	8286
930.372	8408
930.477	8244
930.581	8465
930.685	8332
930.79	8195
930.894	8275
930.998	8134
931.103	8347
931.207	7986
931.311	7978
931.415	7856
931.519	7719
931.623	7746
