Data from test_V78500241_2415.txt Node
Date: Fri Mar 25 14:50:31 CST 2022
User: usil
Spectrometer: V785-0024
Trigger mode: 0
Integration Time (sec): 4.000000E-1
Scans to average: 1
Nonlinearity correction enabled: false
Boxcar width: 0
Storing dark spectrum: false
XAxis mode: Wavelengths
Number of Pixels in Spectrum: 1024
>>>>>Begin Spectral Data<<<<<
801.071	22078
801.214	22029
801.356	21774
801.499	21671
801.641	21549
801.783	21542
801.926	21542
802.068	21473
802.211	21519
802.353	21298
802.496	21138
802.638	21036
802.78	20925
802.923	20823
803.065	20819
803.208	20765
803.35	20697
803.492	20929
803.635	20883
803.777	20762
803.919	20975
804.061	21245
804.204	20937
804.346	20864
804.488	20678
804.63	20861
804.773	20792
804.915	20674
805.057	20819
805.199	20682
805.341	20937
805.483	20872
805.626	20777
805.768	20716
805.91	20773
806.052	20804
806.194	20697
806.336	20830
806.478	20800
806.62	20625
806.762	20743
806.904	20823
807.046	21195
807.188	21142
807.33	20990
807.472	21165
807.614	20956
807.756	20883
807.898	20819
808.04	20823
808.182	20864
808.324	20834
808.465	20906
808.607	21074
808.749	21252
808.891	21294
809.033	21138
809.174	21249
809.316	21142
809.458	21150
809.6	21096
809.741	21173
809.883	21249
810.025	21329
810.166	21306
810.308	21332
810.45	21241
810.591	21074
810.733	20982
810.875	20933
811.016	20838
811.158	20849
811.299	20998
811.441	20902
811.582	21017
811.724	20849
811.865	20842
812.007	20864
812.148	20796
812.29	20891
812.431	21108
812.573	21173
812.714	21306
812.855	21443
812.997	21564
813.138	21614
813.279	21439
813.421	21355
813.562	21329
813.703	21150
813.845	21039
813.986	20670
814.127	20507
814.268	20511
814.41	20575
814.551	20461
814.692	20556
814.833	20492
814.974	20412
815.115	20419
815.256	20305
815.397	20290
815.539	20267
815.68	20229
815.821	20100
815.962	20202
816.103	20024
816.244	20065
816.385	19887
816.526	19959
816.666	19753
816.807	19559
816.948	19750
817.089	19674
817.23	19609
817.371	19590
817.512	19514
817.653	19613
817.793	19453
817.934	19643
818.075	19594
818.216	19556
818.356	19510
818.497	19419
818.638	19293
818.778	19209
818.919	19247
819.06	19282
819.2	19388
819.341	19392
819.481	19388
819.622	19597
819.762	19875
819.903	19632
820.043	19674
820.184	19499
820.324	19525
820.465	19575
820.605	19476
820.746	19544
820.886	19320
821.026	19533
821.167	19575
821.307	19567
821.447	19510
821.588	19445
821.728	19236
821.868	19084
822.008	18951
822.149	18996
822.289	19023
822.429	18681
822.569	18540
822.709	18726
822.849	18452
822.99	18426
823.13	18372
823.27	18452
823.41	18281
823.55	18163
823.69	18376
823.83	18216
823.97	18182
824.11	17977
824.25	18003
824.389	17958
824.529	18068
824.669	17980
824.809	18114
824.949	18064
825.089	18057
825.228	18114
825.368	17843
825.508	17752
825.648	17961
825.787	17866
825.927	17961
826.067	17703
826.206	17783
826.346	17832
826.485	17927
826.625	17794
826.765	17847
826.904	17824
827.044	17532
827.183	17448
827.323	17379
827.462	17619
827.601	17493
827.741	17353
827.88	17459
828.02	17417
828.159	17436
828.298	17577
828.437	17520
828.577	17421
828.716	17707
828.855	17467
828.994	17269
829.134	17273
829.273	17269
829.412	17239
829.551	17166
829.69	17189
829.829	17159
829.968	17353
830.107	17425
830.246	17280
830.385	17212
830.524	17117
830.663	17105
830.802	16889
830.941	16946
831.08	16923
831.219	16972
831.357	16892
831.496	17022
831.635	16862
831.774	16771
831.913	16672
832.051	16649
832.19	16615
832.329	16630
832.467	16550
832.606	16542
832.744	16523
832.883	16500
833.022	16474
833.16	16523
833.299	16577
833.437	16569
833.576	16592
833.714	16561
833.852	16569
833.991	16577
834.129	16694
834.267	16630
834.406	16516
834.544	16721
834.682	16573
834.821	16538
834.959	16733
835.097	16558
835.235	16637
835.373	16546
835.511	16698
835.65	16481
835.788	16459
835.926	16409
836.064	16280
836.202	16348
836.34	16398
836.478	16527
836.615	16508
836.753	16459
836.891	16588
837.029	16580
837.167	16390
837.305	16402
837.443	16306
837.58	16432
837.718	16295
837.856	16363
837.993	16329
838.131	16329
838.269	16329
838.406	16405
838.544	16295
838.681	16059
838.819	16067
838.956	15895
839.094	15785
839.231	16013
839.369	16078
839.506	16291
839.643	16200
839.781	15857
839.918	15918
840.055	15934
840.193	15937
840.33	15857
840.467	15827
840.604	15831
840.742	16177
840.879	15736
841.016	15846
841.153	15808
841.29	16010
841.427	15968
841.564	15972
841.701	15907
841.838	15895
841.975	15800
842.112	15762
842.249	15709
842.385	15614
842.522	15892
842.659	15728
842.796	15690
842.933	15671
843.069	15545
843.206	15671
843.343	15736
843.479	15720
843.616	15618
843.752	15599
843.889	15431
844.025	15629
844.162	15534
844.298	15606
844.435	15393
844.571	15344
844.708	15526
844.844	15591
844.98	15587
845.117	15511
845.253	15428
845.389	15321
845.525	15458
845.661	15321
845.798	15351
845.934	15256
846.07	15230
846.206	15298
846.342	15313
846.478	15249
846.614	15066
846.75	15009
846.886	15017
847.022	15169
847.158	15020
847.294	15005
847.429	15020
847.565	14963
847.701	15214
847.837	14758
847.972	14712
848.108	14838
848.244	14788
848.379	14644
848.515	14659
848.65	14686
848.786	14724
848.921	14693
849.057	14864
849.192	14769
849.328	14663
849.463	14667
849.598	14549
849.734	14518
849.869	14575
850.004	14347
850.14	14404
850.275	14396
850.41	14317
850.545	14461
850.68	14408
850.815	14450
850.95	14408
851.085	14575
851.22	14454
851.355	14484
851.49	14412
851.625	14358
851.76	14389
851.895	14229
852.03	14267
852.165	14427
852.299	14351
852.434	14358
852.569	14442
852.703	14434
852.838	14518
852.973	14541
853.107	14526
853.242	14415
853.376	14202
853.511	14195
853.645	14218
853.78	14404
853.914	14202
854.048	14225
854.183	14263
854.317	14282
854.451	14461
854.585	14229
854.72	14191
854.854	14343
854.988	14130
855.122	14244
855.256	14176
855.39	14195
855.524	14393
855.658	14324
855.792	14145
855.926	14343
856.06	14290
856.194	14374
856.327	14347
856.461	14183
856.595	14168
856.729	14244
856.862	14343
856.996	14336
857.13	14343
857.263	14275
857.397	14324
857.53	14339
857.664	14362
857.797	14355
857.931	14446
858.064	14271
858.197	14423
858.331	14305
858.464	14347
858.597	14149
858.731	14286
858.864	14320
858.997	14275
859.13	14248
859.263	14305
859.396	14328
859.529	14221
859.662	14202
859.795	14214
859.928	14332
860.061	14488
860.194	14473
860.327	14317
860.46	14282
860.592	14336
860.725	14503
860.858	14374
860.99	14343
861.123	14084
861.256	14142
861.388	14244
861.521	14880
861.653	14161
861.786	14069
861.918	14172
862.05	14130
862.183	14256
862.315	14271
862.447	14328
862.58	14210
862.712	14107
862.844	13982
862.976	14008
863.108	14069
863.24	14415
863.372	13917
863.504	14069
863.636	14111
863.768	14168
863.9	14145
864.032	14050
864.164	14103
864.296	14088
864.428	14176
864.559	14119
864.691	14035
864.823	14153
864.954	14096
865.086	14054
865.217	14035
865.349	13894
865.48	14054
865.612	14069
865.743	14202
865.875	14012
866.006	13928
866.137	14054
866.269	14024
866.4	14020
866.531	13989
866.662	13993
866.793	13997
866.924	13978
867.055	14111
867.186	14012
867.317	14001
867.448	13951
867.579	14065
867.71	13921
867.841	13913
867.972	14046
868.103	14027
868.233	14107
868.364	13986
868.495	14115
868.625	14157
868.756	14290
868.886	14130
869.017	14278
869.147	14427
869.278	14400
869.408	14271
869.539	14259
869.669	14404
869.799	14267
869.929	14343
870.06	14347
870.19	14636
870.32	14610
870.45	14602
870.58	14636
870.71	14807
870.84	14731
870.97	14697
871.1	14655
871.23	14941
871.36	14819
871.489	14807
871.619	14861
871.749	14914
871.879	15020
872.008	15017
872.138	14864
872.267	14853
872.397	14663
872.526	14648
872.656	14678
872.785	14667
872.915	14937
873.044	15017
873.173	14864
873.303	14952
873.432	14925
873.561	14994
873.69	14963
873.819	14937
873.948	15047
874.077	14933
874.206	15005
874.335	14971
874.464	15203
874.593	15195
874.722	15165
874.851	15226
874.979	15218
875.108	15237
875.237	15233
875.365	15154
875.494	15268
875.623	15367
875.751	15237
875.88	15275
876.008	15393
876.136	15496
876.265	15587
876.393	15804
876.521	15705
876.65	15717
876.778	15701
876.906	15564
877.034	15534
877.162	15743
877.29	15622
877.418	15648
877.546	15717
877.674	15641
877.802	15686
877.93	15641
878.058	15603
878.185	15542
878.313	15656
878.441	15690
878.568	15496
878.696	15637
878.824	15751
878.951	15686
879.079	15888
879.206	15945
879.333	15736
879.461	15709
879.588	15766
879.715	15797
879.842	15884
879.97	15709
880.097	15439
880.224	15424
880.351	15534
880.478	15557
880.605	15587
880.732	15557
880.859	15682
880.986	15576
881.112	15485
881.239	15382
881.366	15241
881.493	15241
881.619	15176
881.746	15154
881.872	15157
881.999	15085
882.125	15138
882.252	15165
882.378	15245
882.505	15344
882.631	15150
882.757	14994
882.883	14986
883.01	15089
883.136	14975
883.262	14876
883.388	14743
883.514	14994
883.64	14998
883.766	14944
883.892	14842
884.018	14864
884.143	15009
884.269	14975
884.395	14678
884.52	14686
884.646	14716
884.772	14644
884.897	14602
885.023	14716
885.148	14788
885.274	14830
885.399	14788
885.524	14625
885.65	14693
885.775	14693
885.9	14705
886.025	14796
886.15	14807
886.275	14564
886.4	14606
886.525	14697
886.65	14560
886.775	14625
886.9	14887
887.025	14902
887.149	14693
887.274	14461
887.399	14415
887.523	14480
887.648	14484
887.773	14336
887.897	14571
888.021	14552
888.146	14469
888.27	14606
888.395	14590
888.519	14514
888.643	14503
888.767	14518
888.891	14389
889.015	14423
889.139	14355
889.263	14358
889.387	14415
889.511	14533
889.635	14476
889.759	14339
889.883	14324
890.006	14415
890.13	14514
890.254	14271
890.377	14336
890.501	14206
890.624	14176
890.748	14240
890.871	14138
890.995	14092
891.118	13951
891.241	14138
891.364	14058
891.488	14134
891.611	14111
891.734	14107
891.857	14187
891.98	14111
892.103	14229
892.226	14058
892.349	14001
892.471	13883
892.594	14111
892.717	14134
892.839	14065
892.962	14103
893.085	14161
893.207	13989
893.33	13909
893.452	14016
893.575	14126
893.697	14046
893.819	14187
893.941	14370
894.064	14221
894.186	14100
894.308	14096
894.43	14176
894.552	14233
894.674	14282
894.796	14130
894.918	14050
895.04	14073
895.161	14176
895.283	14214
895.405	14107
895.526	14134
895.648	14320
895.769	14218
895.891	14313
896.012	14454
896.134	14282
896.255	14328
896.376	14244
896.498	14214
896.619	14412
896.74	14320
896.861	14275
896.982	14640
897.103	14804
897.224	14594
897.345	14495
897.466	14495
897.587	14518
897.708	14663
897.828	14621
897.949	14511
898.07	14393
898.19	14583
898.311	14708
898.431	14564
898.552	14629
898.672	14663
898.792	14762
898.913	14720
899.033	14526
899.153	14431
899.273	14339
899.393	14488
899.513	14514
899.633	14362
899.753	14393
899.873	14469
899.993	14492
900.113	14465
900.232	14503
900.352	14526
900.472	14408
900.591	14240
900.711	14290
900.83	14298
900.95	14419
901.069	14434
901.189	14244
901.308	14058
901.427	13940
901.546	14043
901.665	14126
901.784	14062
901.904	13833
902.023	13784
902.141	13590
902.26	13548
902.379	13696
902.498	13552
902.617	13594
902.735	13620
902.854	13597
902.973	13502
903.091	13304
903.21	13400
903.328	13339
903.446	13297
903.565	13156
903.683	13236
903.801	13118
903.919	13129
904.038	13114
904.156	12981
904.274	12966
904.392	12920
904.51	12890
904.627	13084
904.745	13019
904.863	13046
904.981	12882
905.098	12551
905.216	12627
905.334	12703
905.451	12669
905.569	12601
905.686	12662
905.803	12730
905.921	12597
906.038	12639
906.155	12528
906.272	12445
906.389	12448
906.506	12224
906.623	12285
906.74	12182
906.857	12102
906.974	12060
907.091	12220
907.208	12418
907.324	12243
907.441	12171
907.557	12060
907.674	11958
907.79	11965
907.907	11935
908.023	11992
908.139	12072
908.256	11882
908.372	11969
908.488	11889
908.604	11680
908.72	11710
908.836	11802
908.952	11752
909.068	11840
909.184	11771
909.3	11676
909.415	11813
909.531	11737
909.647	11577
909.762	11516
909.878	11509
909.993	11592
910.108	11478
910.224	11444
910.339	11490
910.454	11349
910.57	11330
910.685	11303
910.8	11649
910.915	11532
911.03	11395
911.145	11212
911.259	11166
911.374	11254
911.489	11090
911.604	11162
911.718	10934
911.833	10927
911.947	10858
912.062	10820
912.176	10968
912.291	10984
912.405	10991
912.519	11136
912.633	11174
912.748	10923
912.862	10953
912.976	10774
913.09	10767
913.204	10790
913.318	10862
913.431	11025
913.545	11006
913.659	11022
913.772	10915
913.886	10683
914	10645
914.113	10820
914.226	10839
914.34	10866
914.453	10694
914.566	10835
914.68	10687
914.793	10554
914.906	10519
915.019	10424
915.132	10402
915.245	10481
915.358	10466
915.47	10550
915.583	10561
915.696	10500
915.809	10599
915.921	10622
916.034	10462
916.146	10455
916.259	10390
916.371	10592
916.483	10436
916.595	10360
916.708	10474
916.82	10394
916.932	10390
917.044	10409
917.156	10382
917.268	10306
917.38	10287
917.491	10257
917.603	10371
917.715	10382
917.826	10409
917.938	10318
918.049	10147
918.161	10344
918.272	10481
918.384	10341
918.495	10329
918.606	10188
918.717	10219
918.828	10230
918.939	10204
919.05	10101
919.161	10219
919.272	10010
919.383	10063
919.494	10280
919.604	10356
919.715	10230
919.826	10131
919.936	10287
920.047	10268
920.157	10227
920.267	10402
920.378	10265
920.488	10192
920.598	10493
920.708	10558
920.818	10424
920.928	10394
921.038	10500
921.148	10474
921.258	10215
921.368	10185
921.477	10032
921.587	10059
921.697	9972
921.806	10078
921.916	9987
922.025	9857
922.134	9789
922.244	9629
922.353	9876
922.462	9618
922.571	9618
922.68	9572
922.789	9477
922.898	9435
923.007	9492
923.116	9507
923.224	9408
923.333	9488
923.442	9389
923.55	9291
923.659	9344
923.767	9424
923.876	9272
923.984	9416
924.092	9302
924.201	9378
924.309	9348
924.417	9359
924.525	9302
924.633	9272
924.741	9968
924.849	9142
924.956	9135
925.064	9108
925.172	9009
925.279	9032
925.387	9131
925.494	9135
925.602	9256
925.709	9195
925.816	9009
925.924	9184
926.031	9184
926.138	9131
926.245	9127
926.352	9123
926.459	9241
926.566	9283
926.673	9017
926.779	8906
926.886	8979
926.993	8853
927.099	8842
927.206	8826
927.312	8731
927.419	8918
927.525	8902
927.631	8876
927.737	8743
927.843	8693
927.95	8587
928.056	8659
928.162	8758
928.267	8743
928.373	9378
928.479	8819
928.585	8590
928.69	8697
928.796	8735
928.901	8602
929.007	8530
929.112	8670
929.218	8682
929.323	8632
929.428	8530
929.533	8636
929.638	8461
929.743	8545
929.848	8556
929.953	8587
930.058	8400
930.163	8317
930.267	8408
930.372	8389
930.477	8317
930.581	8495
930.685	8366
930.79	8271
930.894	8351
930.998	8214
931.103	8423
931.207	8138
931.311	8043
931.415	7959
931.519	7788
931.623	7734
