Data from test_V78500241_1674.txt Node
Date: Fri Mar 25 14:45:22 CST 2022
User: usil
Spectrometer: V785-0024
Trigger mode: 0
Integration Time (sec): 4.000000E-1
Scans to average: 1
Nonlinearity correction enabled: false
Boxcar width: 0
Storing dark spectrum: false
XAxis mode: Wavelengths
Number of Pixels in Spectrum: 1024
>>>>>Begin Spectral Data<<<<<
801.071	22200
801.214	22147
801.356	21819
801.499	21736
801.641	21534
801.783	21724
801.926	21698
802.068	21644
802.211	21507
802.353	21462
802.496	21154
802.638	21203
802.78	21131
802.923	21112
803.065	20914
803.208	20990
803.35	21036
803.492	21138
803.635	21138
803.777	21062
803.919	20914
804.061	21351
804.204	21119
804.346	20933
804.488	20819
804.63	20804
804.773	20921
804.915	20944
805.057	20990
805.199	20902
805.341	21036
805.483	21039
805.626	20967
805.768	20842
805.91	20899
806.052	20971
806.194	20842
806.336	21024
806.478	20899
806.62	20937
806.762	21039
806.904	21093
807.046	21294
807.188	21252
807.33	21184
807.472	21272
807.614	21104
807.756	21222
807.898	21009
808.04	20944
808.182	21009
808.324	20967
808.465	21028
808.607	21207
808.749	21245
808.891	21458
809.033	21428
809.174	21355
809.316	21439
809.458	21268
809.6	21317
809.741	21302
809.883	21374
810.025	21466
810.166	21431
810.308	21496
810.45	21443
810.591	21268
810.733	21135
810.875	21123
811.016	20956
811.158	21096
811.299	21077
811.441	21264
811.582	21123
811.724	21157
811.865	21131
812.007	21154
812.148	21096
812.29	21100
812.431	21256
812.573	21272
812.714	21473
812.855	21557
812.997	21671
813.138	21762
813.279	21762
813.421	21644
813.562	21496
813.703	21230
813.845	21291
813.986	20868
814.127	20887
814.268	20651
814.41	20629
814.551	20689
814.692	20701
814.833	20629
814.974	20590
815.115	20530
815.256	20674
815.397	20507
815.539	20533
815.68	20336
815.821	20393
815.962	20324
816.103	20309
816.244	20210
816.385	20153
816.526	20199
816.666	19978
816.807	19818
816.948	19917
817.089	19932
817.23	19788
817.371	19864
817.512	19788
817.653	19753
817.793	19696
817.934	19788
818.075	19757
818.216	19780
818.356	19750
818.497	19514
818.638	19369
818.778	19430
818.919	19464
819.06	19483
819.2	19563
819.341	19571
819.481	19655
819.622	19643
819.762	19921
819.903	19864
820.043	19738
820.184	19715
820.324	19742
820.465	19750
820.605	19620
820.746	19712
820.886	19620
821.026	19685
821.167	19620
821.307	19795
821.447	19510
821.588	19563
821.728	19449
821.868	19392
822.008	19145
822.149	19152
822.289	19221
822.429	18878
822.569	18795
822.709	18901
822.849	18642
822.99	18639
823.13	18623
823.27	18559
823.41	18414
823.55	18353
823.69	18536
823.83	18388
823.97	18380
824.11	18182
824.25	18220
824.389	18140
824.529	18277
824.669	18159
824.809	18365
824.949	18330
825.089	18251
825.228	18323
825.368	18072
825.508	18068
825.648	18015
825.787	18030
825.927	18102
826.067	17916
826.206	17946
826.346	18007
826.485	17984
826.625	17935
826.765	18106
826.904	18015
827.044	17889
827.183	17813
827.323	17718
827.462	17748
827.601	17741
827.741	17684
827.88	17695
828.02	17543
828.159	17726
828.298	17824
828.437	17813
828.577	17775
828.716	17794
828.855	17524
828.994	17459
829.134	17444
829.273	17440
829.412	17440
829.551	17379
829.69	17368
829.829	17421
829.968	17520
830.107	17562
830.246	17353
830.385	17391
830.524	17383
830.663	17231
830.802	17174
830.941	17018
831.08	17143
831.219	17071
831.357	17189
831.496	17239
831.635	17045
831.774	16927
831.913	16923
832.051	16862
832.19	16793
832.329	16889
832.467	16782
832.606	16748
832.744	16759
832.883	16637
833.022	16729
833.16	16797
833.299	16835
833.437	16820
833.576	16809
833.714	16881
833.852	16908
833.991	16805
834.129	16908
834.267	16873
834.406	16755
834.544	16866
834.682	16828
834.821	16797
834.959	17045
835.097	16713
835.235	16786
835.373	16797
835.511	16812
835.65	16755
835.788	16748
835.926	16649
836.064	16538
836.202	16542
836.34	16755
836.478	16885
836.615	16740
836.753	16706
836.891	16725
837.029	16733
837.167	16656
837.305	16706
837.443	16554
837.58	16508
837.718	16660
837.856	16599
837.993	16489
838.131	16558
838.269	16489
838.406	16577
838.544	16462
838.681	16253
838.819	16284
838.956	16078
839.094	16059
839.231	16109
839.369	16230
839.506	16531
839.643	16360
839.781	16143
839.918	16029
840.055	16071
840.193	16200
840.33	16078
840.467	16116
840.604	16109
840.742	16398
840.879	15941
841.016	15998
841.153	15994
841.29	16261
841.427	16154
841.564	16093
841.701	16021
841.838	16067
841.975	15998
842.112	16010
842.249	15918
842.385	15930
842.522	15979
842.659	15915
842.796	15850
842.933	15903
843.069	15918
843.206	15861
843.343	15994
843.479	15884
843.616	15941
843.752	15686
843.889	15720
844.025	15747
844.162	15629
844.298	15827
844.435	15701
844.571	15694
844.708	15709
844.844	15774
844.98	15854
845.117	15736
845.253	15614
845.389	15545
845.525	15694
845.661	15576
845.798	15534
845.934	15622
846.07	15496
846.206	15580
846.342	15652
846.478	15492
846.614	15321
846.75	15245
846.886	15268
847.022	15321
847.158	15226
847.294	15306
847.429	15287
847.565	15222
847.701	15367
847.837	15032
847.972	14876
848.108	15077
848.244	14910
848.379	14788
848.515	14864
848.65	14895
848.786	14891
848.921	14887
849.057	14967
849.192	14921
849.328	14773
849.463	14811
849.598	14743
849.734	14762
849.869	14815
850.004	14598
850.14	14785
850.275	14602
850.41	14530
850.545	14594
850.68	14583
850.815	14651
850.95	14594
851.085	14811
851.22	14682
851.355	14667
851.49	14674
851.625	14533
851.76	14590
851.895	14454
852.03	14461
852.165	14571
852.299	14568
852.434	14678
852.569	14651
852.703	14651
852.838	14743
852.973	14777
853.107	14678
853.242	14575
853.376	14412
853.511	14374
853.645	14442
853.78	14541
853.914	14575
854.048	14457
854.183	14423
854.317	14518
854.451	14651
854.585	14389
854.72	14488
854.854	14568
854.988	14396
855.122	14457
855.256	14370
855.39	14434
855.524	14571
855.658	14526
855.792	14465
855.926	14503
856.06	14480
856.194	14606
856.327	14423
856.461	14446
856.595	14454
856.729	14503
856.862	14625
856.996	14556
857.13	14610
857.263	14571
857.397	14571
857.53	14499
857.664	14537
857.797	14571
857.931	14743
858.064	14503
858.197	14636
858.331	14507
858.464	14526
858.597	14454
858.731	14484
858.864	14434
858.997	14518
859.13	14541
859.263	14564
859.396	14552
859.529	14518
859.662	14537
859.795	14423
859.928	14499
860.061	14530
860.194	14670
860.327	14423
860.46	14461
860.592	14602
860.725	14621
860.858	14549
860.99	14389
861.123	14400
861.256	14419
861.388	14396
861.521	15112
861.653	14320
861.786	14366
861.918	14317
862.05	14393
862.183	14457
862.315	14484
862.447	14476
862.58	14427
862.712	14263
862.844	14153
862.976	14343
863.108	14286
863.24	14686
863.372	14221
863.504	14210
863.636	14233
863.768	14206
863.9	14153
864.032	14149
864.164	14168
864.296	14267
864.428	14404
864.559	14377
864.691	14301
864.823	14328
864.954	14298
865.086	14286
865.217	14282
865.349	14138
865.48	14233
865.612	14298
865.743	14328
865.875	14301
866.006	14248
866.137	14210
866.269	14221
866.4	14259
866.531	14240
866.662	14206
866.793	14115
866.924	14138
867.055	14168
867.186	14176
867.317	14199
867.448	14100
867.579	14138
867.71	14172
867.841	14119
867.972	14259
868.103	14187
868.233	14233
868.364	14237
868.495	14374
868.625	14419
868.756	14541
868.886	14465
869.017	14434
869.147	14514
869.278	14507
869.408	14457
869.539	14488
869.669	14556
869.799	14480
869.929	14583
870.06	14606
870.19	14716
870.32	14731
870.45	14834
870.58	14937
870.71	14952
870.84	14910
870.97	14861
871.1	14853
871.23	15036
871.36	15032
871.489	14918
871.619	15039
871.749	15081
871.879	15142
872.008	15169
872.138	14986
872.267	15116
872.397	14979
872.526	14849
872.656	14834
872.785	14914
872.915	14998
873.044	15180
873.173	15081
873.303	15146
873.432	15157
873.561	15218
873.69	15112
873.819	15116
873.948	15135
874.077	15161
874.206	15089
874.335	15112
874.464	15321
874.593	15382
874.722	15477
874.851	15500
874.979	15424
875.108	15450
875.237	15370
875.365	15344
875.494	15397
875.623	15477
875.751	15370
875.88	15424
876.008	15599
876.136	15530
876.265	15812
876.393	15911
876.521	15945
876.65	15994
876.778	15949
876.906	15720
877.034	15926
877.162	15766
877.29	15766
877.418	15755
877.546	15793
877.674	15911
877.802	15816
877.93	15911
878.058	15842
878.185	15732
878.313	15842
878.441	15831
878.568	15690
878.696	15747
878.824	15816
878.951	15934
879.079	16025
879.206	16181
879.333	15941
879.461	16055
879.588	15892
879.715	16147
879.842	16097
879.97	15937
880.097	15759
880.224	15679
880.351	15652
880.478	15644
880.605	15614
880.732	15717
880.859	15876
880.986	15717
881.112	15641
881.239	15481
881.366	15496
881.493	15336
881.619	15329
881.746	15401
881.872	15256
881.999	15359
882.125	15329
882.252	15542
882.378	15302
882.505	15485
882.631	15332
882.757	15310
882.883	15211
883.01	15116
883.136	15135
883.262	14982
883.388	15051
883.514	15066
883.64	15180
883.766	15135
883.892	15039
884.018	15051
884.143	15112
884.269	15195
884.395	14861
884.52	14861
884.646	14956
884.772	14743
884.897	14727
885.023	14857
885.148	14910
885.274	15077
885.399	14975
885.524	14807
885.65	14906
885.775	14986
885.9	14769
886.025	15001
886.15	14906
886.275	14777
886.4	14743
886.525	14746
886.65	14807
886.775	14804
886.9	14941
887.025	15176
887.149	14823
887.274	14693
887.399	14724
887.523	14640
887.648	14583
887.773	14610
887.897	14705
888.021	14724
888.146	14571
888.27	14758
888.395	14830
888.519	14788
888.643	14765
888.767	14762
888.891	14644
889.015	14495
889.139	14499
889.263	14473
889.387	14644
889.511	14773
889.635	14705
889.759	14564
889.883	14537
890.006	14606
890.13	14644
890.254	14526
890.377	14507
890.501	14389
890.624	14336
890.748	14408
890.871	14259
890.995	14149
891.118	14172
891.241	14290
891.364	14317
891.488	14370
891.611	14240
891.734	14263
891.857	14267
891.98	14305
892.103	14381
892.226	14263
892.349	14161
892.471	14081
892.594	14244
892.717	14229
892.839	14290
892.962	14324
893.085	14355
893.207	14301
893.33	14084
893.452	14161
893.575	14256
893.697	14256
893.819	14351
893.941	14404
894.064	14450
894.186	14237
894.308	14195
894.43	14294
894.552	14423
894.674	14385
894.796	14248
894.918	14282
895.04	14267
895.161	14465
895.283	14374
895.405	14290
895.526	14339
895.648	14358
895.769	14431
895.891	14469
896.012	14492
896.134	14377
896.255	14419
896.376	14347
896.498	14434
896.619	14423
896.74	14396
896.861	14488
896.982	14743
897.103	14876
897.224	14762
897.345	14617
897.466	14648
897.587	14743
897.708	14845
897.828	14758
897.949	14610
898.07	14511
898.19	14720
898.311	14720
898.431	14754
898.552	14811
898.672	14823
898.792	14781
898.913	14739
899.033	14773
899.153	14587
899.273	14571
899.393	14556
899.513	14575
899.633	14598
899.753	14640
899.873	14659
899.993	14568
900.113	14598
900.232	14701
900.352	14640
900.472	14549
900.591	14454
900.711	14499
900.83	14492
900.95	14518
901.069	14598
901.189	14480
901.308	14317
901.427	14069
901.546	14191
901.665	14130
901.784	14233
901.904	13997
902.023	13997
902.141	13807
902.26	13765
902.379	13791
902.498	13715
902.617	13670
902.735	13776
902.854	13780
902.973	13704
903.091	13483
903.21	13460
903.328	13403
903.446	13324
903.565	13251
903.683	13297
903.801	13247
903.919	13236
904.038	13263
904.156	13057
904.274	13217
904.392	13103
904.51	13027
904.627	13107
904.745	13175
904.863	13114
904.981	12837
905.098	12829
905.216	12772
905.334	12757
905.451	12753
905.569	12673
905.686	12764
905.803	12776
905.921	12604
906.038	12745
906.155	12639
906.272	12475
906.389	12665
906.506	12395
906.623	12369
906.74	12357
906.857	12251
906.974	12273
907.091	12414
907.208	12593
907.324	12365
907.441	12285
907.557	12163
907.674	12155
907.79	11980
907.907	12068
908.023	12228
908.139	12182
908.256	12102
908.372	11931
908.488	11992
908.604	11840
908.72	11855
908.836	11885
908.952	11779
909.068	11969
909.184	11950
909.3	11878
909.415	11904
909.531	11863
909.647	11581
909.762	11676
909.878	11585
909.993	11672
910.108	11581
910.224	11608
910.339	11680
910.454	11573
910.57	11391
910.685	11387
910.8	11726
910.915	11634
911.03	11486
911.145	11387
911.259	11360
911.374	11353
911.489	11299
911.604	11277
911.718	11105
911.833	11128
911.947	10949
912.062	10923
912.176	11155
912.291	11109
912.405	11155
912.519	11330
912.633	11261
912.748	11250
912.862	11140
912.976	11018
913.09	10862
913.204	10904
913.318	10980
913.431	11056
913.545	11151
913.659	11094
913.772	11041
913.886	10854
914	10778
914.113	10980
914.226	11025
914.34	10953
914.453	10847
914.566	10965
914.68	10755
914.793	10858
914.906	10588
915.019	10584
915.132	10451
915.245	10516
915.358	10603
915.47	10618
915.583	10565
915.696	10580
915.809	10717
915.921	10771
916.034	10504
916.146	10607
916.259	10466
916.371	10698
916.483	10615
916.595	10523
916.708	10535
916.82	10577
916.932	10459
917.044	10516
917.156	10428
917.268	10402
917.38	10436
917.491	10310
917.603	10459
917.715	10523
917.826	10481
917.938	10405
918.049	10268
918.161	10447
918.272	10592
918.384	10546
918.495	10447
918.606	10257
918.717	10230
918.828	10314
918.939	10303
919.05	10211
919.161	10318
919.272	10105
919.383	10166
919.494	10360
919.604	10489
919.715	10363
919.826	10196
919.936	10272
920.047	10375
920.157	10348
920.267	10546
920.378	10382
920.488	10322
920.598	10481
920.708	10656
920.818	10447
920.928	10500
921.038	10641
921.148	10561
921.258	10394
921.368	10299
921.477	10105
921.587	10093
921.697	10029
921.806	10230
921.916	10059
922.025	9899
922.134	9876
922.244	9797
922.353	9911
922.462	9835
922.571	9720
922.68	9572
922.789	9507
922.898	9610
923.007	9557
923.116	9599
923.224	9454
923.333	9595
923.442	9511
923.55	9408
923.659	9408
923.767	9500
923.876	9439
923.984	9526
924.092	9450
924.201	9435
924.309	9355
924.417	9454
924.525	9401
924.633	9325
924.741	10105
924.849	9161
924.956	9332
925.064	9116
925.172	9176
925.279	9165
925.387	9230
925.494	9214
925.602	9306
925.709	9283
925.816	9192
925.924	9195
926.031	9272
926.138	9207
926.245	9256
926.352	9085
926.459	9283
926.566	9321
926.673	9253
926.779	9097
926.886	9055
926.993	8990
927.099	8921
927.206	8891
927.312	8906
927.419	9024
927.525	8887
927.631	8975
927.737	8845
927.843	8792
927.95	8758
928.056	8781
928.162	8845
928.267	8883
928.373	9439
928.479	8967
928.585	8670
928.69	8807
928.796	8864
928.901	8686
929.007	8556
929.112	8727
929.218	8705
929.323	8682
929.428	8670
929.533	8800
929.638	8575
929.743	8670
929.848	8743
929.953	8590
930.058	8484
930.163	8355
930.267	8404
930.372	8560
930.477	8339
930.581	8556
930.685	8549
930.79	8320
930.894	8305
930.998	8301
931.103	8533
931.207	8069
931.311	8065
931.415	7997
931.519	7879
931.623	7887
