Data from test_V78500241_2058.txt Node
Date: Fri Mar 25 14:48:02 CST 2022
User: usil
Spectrometer: V785-0024
Trigger mode: 0
Integration Time (sec): 4.000000E-1
Scans to average: 1
Nonlinearity correction enabled: false
Boxcar width: 0
Storing dark spectrum: false
XAxis mode: Wavelengths
Number of Pixels in Spectrum: 1024
>>>>>Begin Spectral Data<<<<<
801.071	22120
801.214	22070
801.356	21781
801.499	21694
801.641	21492
801.783	21515
801.926	21511
802.068	21481
802.211	21393
802.353	21389
802.496	21047
802.638	20956
802.78	20956
802.923	20845
803.065	20727
803.208	20720
803.35	20960
803.492	20933
803.635	20880
803.777	20743
803.919	20853
804.061	21192
804.204	21001
804.346	20716
804.488	20788
804.63	20739
804.773	20556
804.915	20701
805.057	20826
805.199	20826
805.341	20826
805.483	20746
805.626	20834
805.768	20765
805.91	20811
806.052	20708
806.194	20636
806.336	20941
806.478	20731
806.62	20670
806.762	20792
806.904	20807
807.046	21157
807.188	21123
807.33	21135
807.472	21112
807.614	21017
807.756	20967
807.898	20838
808.04	20750
808.182	20773
808.324	20826
808.465	20845
808.607	20883
808.749	21157
808.891	21252
809.033	21241
809.174	21180
809.316	21081
809.458	21077
809.6	21017
809.741	21093
809.883	21195
810.025	21332
810.166	21382
810.308	21298
810.45	21230
810.591	21203
810.733	20963
810.875	20861
811.016	20845
811.158	20746
811.299	20963
811.441	20933
811.582	21005
811.724	20910
811.865	20861
812.007	20724
812.148	20891
812.29	20929
812.431	21043
812.573	21298
812.714	21313
812.855	21294
812.997	21504
813.138	21599
813.279	21435
813.421	21454
813.562	21211
813.703	21100
813.845	21123
813.986	20842
814.127	20545
814.268	20450
814.41	20518
814.551	20396
814.692	20389
814.833	20381
814.974	20412
815.115	20473
815.256	20282
815.397	20218
815.539	20256
815.68	20180
815.821	20043
815.962	20142
816.103	20164
816.244	19833
816.385	19833
816.526	19925
816.666	19662
816.807	19632
816.948	19548
817.089	19613
817.23	19666
817.371	19750
817.512	19590
817.653	19518
817.793	19502
817.934	19529
818.075	19544
818.216	19586
818.356	19396
818.497	19403
818.638	19152
818.778	19255
818.919	19202
819.06	19137
819.2	19411
819.341	19422
819.481	19426
819.622	19548
819.762	19761
819.903	19582
820.043	19563
820.184	19384
820.324	19525
820.465	19590
820.605	19468
820.746	19457
820.886	19343
821.026	19476
821.167	19514
821.307	19624
821.447	19468
821.588	19365
821.728	19179
821.868	19084
822.008	18924
822.149	18913
822.289	19000
822.429	18722
822.569	18578
822.709	18574
822.849	18311
822.99	18521
823.13	18460
823.27	18384
823.41	18251
823.55	18205
823.69	18266
823.83	18243
823.97	18106
824.11	17950
824.25	17931
824.389	18034
824.529	18102
824.669	18015
824.809	18155
824.949	18030
825.089	18190
825.228	17992
825.368	17794
825.508	17817
825.648	17832
825.787	17889
825.927	17920
826.067	17790
826.206	17824
826.346	17764
826.485	17809
826.625	17828
826.765	17965
826.904	17874
827.044	17695
827.183	17642
827.323	17440
827.462	17516
827.601	17486
827.741	17509
827.88	17505
828.02	17379
828.159	17478
828.298	17577
828.437	17615
828.577	17493
828.716	17623
828.855	17490
828.994	17273
829.134	17239
829.273	17185
829.412	17124
829.551	17242
829.69	17181
829.829	17284
829.968	17398
830.107	17288
830.246	17261
830.385	17273
830.524	17178
830.663	17029
830.802	16972
830.941	16968
831.08	16896
831.219	17037
831.357	17033
831.496	17048
831.635	16877
831.774	16820
831.913	16767
832.051	16664
832.19	16694
832.329	16660
832.467	16618
832.606	16512
832.744	16546
832.883	16565
833.022	16603
833.16	16611
833.299	16710
833.437	16538
833.576	16611
833.714	16626
833.852	16599
833.991	16698
834.129	16740
834.267	16618
834.406	16641
834.544	16790
834.682	16668
834.821	16580
834.959	16767
835.097	16664
835.235	16797
835.373	16683
835.511	16664
835.65	16531
835.788	16550
835.926	16493
836.064	16417
836.202	16413
836.34	16466
836.478	16626
836.615	16512
836.753	16664
836.891	16645
837.029	16656
837.167	16584
837.305	16546
837.443	16474
837.58	16402
837.718	16497
837.856	16451
837.993	16284
838.131	16516
838.269	16462
838.406	16394
838.544	16325
838.681	16226
838.819	16131
838.956	16051
839.094	15861
839.231	15956
839.369	16097
839.506	16428
839.643	16120
839.781	15930
839.918	15960
840.055	16032
840.193	15979
840.33	15892
840.467	15975
840.604	15968
840.742	16246
840.879	15964
841.016	15880
841.153	15964
841.29	16116
841.427	16032
841.564	15972
841.701	15972
841.838	15956
841.975	15880
842.112	15964
842.249	15747
842.385	15755
842.522	15945
842.659	15759
842.796	15816
842.933	15694
843.069	15785
843.206	15800
843.343	15842
843.479	15705
843.616	15823
843.752	15549
843.889	15553
844.025	15603
844.162	15538
844.298	15584
844.435	15542
844.571	15439
844.708	15625
844.844	15595
844.98	15663
845.117	15591
845.253	15507
845.389	15477
845.525	15431
845.661	15439
845.798	15389
845.934	15294
846.07	15302
846.206	15310
846.342	15389
846.478	15294
846.614	15184
846.75	15001
846.886	15020
847.022	15184
847.158	15055
847.294	15047
847.429	15138
847.565	15070
847.701	15370
847.837	14819
847.972	14807
848.108	14914
848.244	14994
848.379	14819
848.515	14731
848.65	14739
848.786	14667
848.921	14689
849.057	14830
849.192	14845
849.328	14724
849.463	14674
849.598	14644
849.734	14708
849.869	14610
850.004	14438
850.14	14552
850.275	14492
850.41	14461
850.545	14469
850.68	14408
850.815	14469
850.95	14438
851.085	14575
851.22	14617
851.355	14495
851.49	14503
851.625	14454
851.76	14408
851.895	14408
852.03	14408
852.165	14484
852.299	14526
852.434	14526
852.569	14400
852.703	14427
852.838	14507
852.973	14587
853.107	14560
853.242	14454
853.376	14259
853.511	14298
853.645	14244
853.78	14469
853.914	14317
854.048	14275
854.183	14275
854.317	14339
854.451	14495
854.585	14298
854.72	14275
854.854	14370
854.988	14282
855.122	14271
855.256	14237
855.39	14370
855.524	14412
855.658	14415
855.792	14427
855.926	14442
856.06	14404
856.194	14541
856.327	14396
856.461	14328
856.595	14294
856.729	14332
856.862	14415
856.996	14339
857.13	14446
857.263	14473
857.397	14484
857.53	14377
857.664	14408
857.797	14526
857.931	14503
858.064	14427
858.197	14400
858.331	14362
858.464	14313
858.597	14225
858.731	14256
858.864	14419
858.997	14305
859.13	14336
859.263	14351
859.396	14446
859.529	14298
859.662	14259
859.795	14294
859.928	14389
860.061	14423
860.194	14454
860.327	14434
860.46	14431
860.592	14480
860.725	14415
860.858	14415
860.99	14385
861.123	14389
861.256	14301
861.388	14389
861.521	15199
861.653	14305
861.786	14206
861.918	14298
862.05	14305
862.183	14393
862.315	14358
862.447	14442
862.58	14275
862.712	14134
862.844	14088
862.976	14107
863.108	14233
863.24	14385
863.372	14065
863.504	14142
863.636	14058
863.768	14206
863.9	14134
864.032	14069
864.164	14077
864.296	14233
864.428	14164
864.559	14157
864.691	14195
864.823	14161
864.954	14149
865.086	14096
865.217	14161
865.349	14126
865.48	14119
865.612	14088
865.743	14305
865.875	14081
866.006	14119
866.137	14134
866.269	14157
866.4	14027
866.531	14012
866.662	14058
866.793	14012
866.924	14126
867.055	14134
867.186	14069
867.317	14020
867.448	14058
867.579	13997
867.71	14096
867.841	14027
867.972	14123
868.103	14172
868.233	14092
868.364	14187
868.495	14176
868.625	14305
868.756	14366
868.886	14134
869.017	14374
869.147	14560
869.278	14457
869.408	14343
869.539	14309
869.669	14450
869.799	14336
869.929	14499
870.06	14442
870.19	14682
870.32	14720
870.45	14674
870.58	14758
870.71	14815
870.84	14868
870.97	14750
871.1	14773
871.23	14948
871.36	14899
871.489	14914
871.619	14891
871.749	14872
871.879	15085
872.008	15020
872.138	14952
872.267	14861
872.397	14800
872.526	14739
872.656	14804
872.785	14769
872.915	14971
873.044	15036
873.173	14933
873.303	15024
873.432	14994
873.561	15077
873.69	15017
873.819	15070
873.948	15058
874.077	15020
874.206	14914
874.335	15085
874.464	15127
874.593	15370
874.722	15195
874.851	15348
874.979	15405
875.108	15367
875.237	15256
875.365	15195
875.494	15367
875.623	15370
875.751	15226
875.88	15348
876.008	15416
876.136	15549
876.265	15720
876.393	15926
876.521	15793
876.65	15850
876.778	15816
876.906	15728
877.034	15682
877.162	15762
877.29	15637
877.418	15717
877.546	15770
877.674	15770
877.802	15682
877.93	15694
878.058	15732
878.185	15618
878.313	15682
878.441	15656
878.568	15549
878.696	15797
878.824	15698
878.951	15762
879.079	15892
879.206	16025
879.333	15892
879.461	15747
879.588	15793
879.715	15857
879.842	15911
879.97	15823
880.097	15439
880.224	15538
880.351	15576
880.478	15644
880.605	15526
880.732	15523
880.859	15846
880.986	15580
881.112	15538
881.239	15492
881.366	15382
881.493	15306
881.619	15298
881.746	15230
881.872	15176
881.999	15093
882.125	15233
882.252	15268
882.378	15283
882.505	15473
882.631	15165
882.757	15020
882.883	15100
883.01	15062
883.136	15013
883.262	14990
883.388	14857
883.514	15077
883.64	14994
883.766	15001
883.892	14921
884.018	14872
884.143	15043
884.269	15108
884.395	14632
884.52	14708
884.646	14724
884.772	14785
884.897	14602
885.023	14697
885.148	14834
885.274	14899
885.399	14914
885.524	14773
885.65	14769
885.775	14792
885.9	14724
886.025	14857
886.15	14815
886.275	14670
886.4	14735
886.525	14648
886.65	14731
886.775	14571
886.9	14914
887.025	14990
887.149	14758
887.274	14579
887.399	14522
887.523	14644
887.648	14575
887.773	14499
887.897	14617
888.021	14716
888.146	14590
888.27	14579
888.395	14731
888.519	14644
888.643	14560
888.767	14697
888.891	14469
889.015	14465
889.139	14434
889.263	14465
889.387	14511
889.511	14670
889.635	14583
889.759	14336
889.883	14347
890.006	14465
890.13	14564
890.254	14385
890.377	14389
890.501	14271
890.624	14168
890.748	14309
890.871	14214
890.995	14195
891.118	14119
891.241	14126
891.364	14240
891.488	14256
891.611	14149
891.734	14183
891.857	14126
891.98	14050
892.103	14282
892.226	14191
892.349	14012
892.471	14043
892.594	14088
892.717	14168
892.839	14073
892.962	14134
893.085	14309
893.207	14229
893.33	13963
893.452	14020
893.575	14176
893.697	14168
893.819	14351
893.941	14385
894.064	14305
894.186	14088
894.308	14149
894.43	14271
894.552	14324
894.674	14362
894.796	14123
894.918	14183
895.04	14111
895.161	14320
895.283	14271
895.405	14172
895.526	14309
895.648	14259
895.769	14286
895.891	14324
896.012	14461
896.134	14328
896.255	14339
896.376	14294
896.498	14385
896.619	14408
896.74	14301
896.861	14358
896.982	14674
897.103	14830
897.224	14564
897.345	14522
897.466	14503
897.587	14663
897.708	14746
897.828	14750
897.949	14610
898.07	14545
898.19	14495
898.311	14598
898.431	14564
898.552	14625
898.672	14670
898.792	14750
898.913	14590
899.033	14613
899.153	14518
899.273	14530
899.393	14465
899.513	14587
899.633	14571
899.753	14549
899.873	14511
899.993	14610
900.113	14507
900.232	14606
900.352	14526
900.472	14461
900.591	14415
900.711	14457
900.83	14332
900.95	14438
901.069	14434
901.189	14233
901.308	14046
901.427	14020
901.546	14073
901.665	14081
901.784	14031
901.904	13890
902.023	13852
902.141	13772
902.26	13715
902.379	13712
902.498	13655
902.617	13544
902.735	13693
902.854	13578
902.973	13597
903.091	13335
903.21	13377
903.328	13312
903.446	13312
903.565	13152
903.683	13145
903.801	13099
903.919	13141
904.038	13141
904.156	13118
904.274	13065
904.392	13008
904.51	12928
904.627	12989
904.745	13057
904.863	12977
904.981	12783
905.098	12760
905.216	12631
905.334	12779
905.451	12760
905.569	12654
905.686	12684
905.803	12715
905.921	12483
906.038	12654
906.155	12536
906.272	12403
906.389	12414
906.506	12262
906.623	12361
906.74	12243
906.857	12106
906.974	12136
907.091	12422
907.208	12418
907.324	12372
907.441	12117
907.557	12072
907.674	12125
907.79	11939
907.907	12003
908.023	12095
908.139	12068
908.256	11908
908.372	11878
908.488	11984
908.604	11786
908.72	11794
908.836	11783
908.952	11714
909.068	11794
909.184	11874
909.3	11737
909.415	11893
909.531	11748
909.647	11528
909.762	11672
909.878	11566
909.993	11596
910.108	11493
910.224	11528
910.339	11532
910.454	11474
910.57	11570
910.685	11303
910.8	11623
910.915	11551
911.03	11360
911.145	11231
911.259	11280
911.374	11246
911.489	11235
911.604	11189
911.718	10961
911.833	10957
911.947	10850
912.062	10847
912.176	10991
912.291	11018
912.405	11018
912.519	11121
912.633	11216
912.748	11060
912.862	11117
912.976	10957
913.09	10786
913.204	10930
913.318	10980
913.431	11022
913.545	10949
913.659	11045
913.772	10911
913.886	10759
914	10767
914.113	10820
914.226	10877
914.34	10828
914.453	10660
914.566	10839
914.68	10820
914.793	10641
914.906	10592
915.019	10554
915.132	10485
915.245	10466
915.358	10538
915.47	10516
915.583	10481
915.696	10462
915.809	10641
915.921	10710
916.034	10535
916.146	10489
916.259	10405
916.371	10592
916.483	10508
916.595	10394
916.708	10417
916.82	10424
916.932	10466
917.044	10352
917.156	10375
917.268	10295
917.38	10405
917.491	10325
917.603	10363
917.715	10432
917.826	10478
917.938	10314
918.049	10166
918.161	10352
918.272	10493
918.384	10538
918.495	10314
918.606	10227
918.717	10131
918.828	10196
918.939	10238
919.05	10238
919.161	10185
919.272	9972
919.383	10093
919.494	10223
919.604	10390
919.715	10276
919.826	10143
919.936	10158
920.047	10337
920.157	10287
920.267	10314
920.378	10268
920.488	10234
920.598	10481
920.708	10588
920.818	10440
920.928	10459
921.038	10558
921.148	10603
921.258	10318
921.368	10154
921.477	10116
921.587	10078
921.697	9926
921.806	10166
921.916	10040
922.025	9812
922.134	9819
922.244	9743
922.353	9838
922.462	9694
922.571	9629
922.68	9473
922.789	9473
922.898	9466
923.007	9466
923.116	9587
923.224	9473
923.333	9530
923.442	9389
923.55	9355
923.659	9351
923.767	9428
923.876	9313
923.984	9348
924.092	9302
924.201	9367
924.309	9359
924.417	9351
924.525	9291
924.633	9317
924.741	10276
924.849	9123
924.956	9294
925.064	9173
925.172	9047
925.279	9154
925.387	9169
925.494	9100
925.602	9298
925.709	9192
925.816	9131
925.924	9169
926.031	9226
926.138	9104
926.245	9233
926.352	9119
926.459	9253
926.566	9253
926.673	9058
926.779	8979
926.886	9028
926.993	8895
927.099	8880
927.206	8842
927.312	8743
927.419	8857
927.525	8849
927.631	8910
927.737	8762
927.843	8788
927.95	8689
928.056	8792
928.162	8777
928.267	8819
928.373	9412
928.479	8906
928.585	8602
928.69	8678
928.796	8777
928.901	8663
929.007	8469
929.112	8659
929.218	8632
929.323	8583
929.428	8552
929.533	8667
929.638	8583
929.743	8579
929.848	8632
929.953	8541
930.058	8461
930.163	8381
930.267	8275
930.372	8541
930.477	8248
930.581	8556
930.685	8415
930.79	8275
930.894	8336
930.998	8290
931.103	8377
931.207	8081
931.311	7982
931.415	7955
931.519	7742
931.623	7814
