Data from test_V78500241_3366.txt Node
Date: Fri Mar 25 14:57:09 CST 2022
User: usil
Spectrometer: V785-0024
Trigger mode: 0
Integration Time (sec): 4.000000E-1
Scans to average: 1
Nonlinearity correction enabled: false
Boxcar width: 0
Storing dark spectrum: false
XAxis mode: Wavelengths
Number of Pixels in Spectrum: 1024
>>>>>Begin Spectral Data<<<<<
801.071	21994
801.214	21827
801.356	21610
801.499	21572
801.641	21386
801.783	21439
801.926	21264
802.068	21336
802.211	21279
802.353	20971
802.496	20937
802.638	20944
802.78	20887
802.923	20785
803.065	20549
803.208	20659
803.35	20708
803.492	20842
803.635	20845
803.777	20705
803.919	20762
804.061	21077
804.204	20739
804.346	20541
804.488	20541
804.63	20678
804.773	20537
804.915	20568
805.057	20743
805.199	20530
805.341	20667
805.483	20678
805.626	20609
805.768	20629
805.91	20579
806.052	20575
806.194	20473
806.336	20720
806.478	20537
806.62	20575
806.762	20598
806.904	20853
807.046	21020
807.188	20842
807.33	20895
807.472	20823
807.614	20724
807.756	20777
807.898	20739
808.04	20682
808.182	20571
808.324	20575
808.465	20697
808.607	20765
808.749	20853
808.891	21020
809.033	21093
809.174	20921
809.316	20937
809.458	20868
809.6	20853
809.741	21043
809.883	20986
810.025	21047
810.166	20998
810.308	21192
810.45	21013
810.591	20941
810.733	20796
810.875	20697
811.016	20674
811.158	20613
811.299	20807
811.441	20781
811.582	20739
811.724	20663
811.865	20697
812.007	20663
812.148	20636
812.29	20769
812.431	20697
812.573	20963
812.714	21096
812.855	21108
812.997	21233
813.138	21386
813.279	21268
813.421	21184
813.562	21195
813.703	20921
813.845	20800
813.986	20545
814.127	20438
814.268	20366
814.41	20237
814.551	20233
814.692	20199
814.833	20142
814.974	20134
815.115	20145
815.256	20046
815.397	20115
815.539	20107
815.68	19993
815.821	19898
815.962	19944
816.103	19913
816.244	19788
816.385	19655
816.526	19658
816.666	19422
816.807	19358
816.948	19445
817.089	19514
817.23	19388
817.371	19403
817.512	19369
817.653	19293
817.793	19282
817.934	19369
818.075	19232
818.216	19426
818.356	19217
818.497	19171
818.638	18985
818.778	18996
818.919	19027
819.06	18996
819.2	19156
819.341	19202
819.481	19228
819.622	19274
819.762	19537
819.903	19499
820.043	19354
820.184	19339
820.324	19324
820.465	19365
820.605	19441
820.746	19240
820.886	19266
821.026	19266
821.167	19190
821.307	19373
821.447	19282
821.588	19103
821.728	19091
821.868	18894
822.008	18753
822.149	18779
822.289	18665
822.429	18513
822.569	18418
822.709	18403
822.849	18254
822.99	18319
823.13	18243
823.27	18254
823.41	18095
823.55	17980
823.69	18022
823.83	18007
823.97	17984
824.11	17752
824.25	17775
824.389	17885
824.529	17931
824.669	17805
824.809	17836
824.949	17836
825.089	17882
825.228	17908
825.368	17642
825.508	17577
825.648	17608
825.787	17760
825.927	17672
826.067	17657
826.206	17543
826.346	17608
826.485	17600
826.625	17623
826.765	17710
826.904	17596
827.044	17356
827.183	17360
827.323	17235
827.462	17402
827.601	17284
827.741	17151
827.88	17254
828.02	17056
828.159	17273
828.298	17288
828.437	17353
828.577	17197
828.716	17433
828.855	17143
828.994	17174
829.134	16972
829.273	17121
829.412	16999
829.551	17014
829.69	16995
829.829	17064
829.968	17102
830.107	17174
830.246	17094
830.385	16991
830.524	16949
830.663	16927
830.802	16725
830.941	16675
831.08	16713
831.219	16725
831.357	16713
831.496	16839
831.635	16759
831.774	16504
831.913	16508
832.051	16519
832.19	16428
832.329	16481
832.467	16455
832.606	16219
832.744	16348
832.883	16375
833.022	16280
833.16	16367
833.299	16424
833.437	16462
833.576	16447
833.714	16535
833.852	16440
833.991	16417
834.129	16527
834.267	16394
834.406	16485
834.544	16516
834.682	16390
834.821	16459
834.959	16645
835.097	16325
835.235	16584
835.373	16516
835.511	16405
835.65	16234
835.788	16356
835.926	16219
836.064	16093
836.202	16230
836.34	16352
836.478	16329
836.615	16337
836.753	16508
836.891	16436
837.029	16398
837.167	16242
837.305	16268
837.443	16325
837.58	16128
837.718	16261
837.856	16295
837.993	16109
838.131	16162
838.269	16135
838.406	16200
838.544	16090
838.681	15953
838.819	15895
838.956	15823
839.094	15759
839.231	15846
839.369	15846
839.506	16215
839.643	15960
839.781	15736
839.918	15728
840.055	15736
840.193	15690
840.33	15717
840.467	15709
840.604	15789
840.742	16067
840.879	15576
841.016	15717
841.153	15648
841.29	15854
841.427	15766
841.564	15728
841.701	15755
841.838	15759
841.975	15762
842.112	15751
842.249	15572
842.385	15530
842.522	15770
842.659	15584
842.796	15488
842.933	15564
843.069	15473
843.206	15496
843.343	15660
843.479	15568
843.616	15507
843.752	15367
843.889	15420
844.025	15492
844.162	15321
844.298	15462
844.435	15245
844.571	15256
844.708	15424
844.844	15428
844.98	15504
845.117	15450
845.253	15332
845.389	15272
845.525	15325
845.661	15195
845.798	15047
845.934	15218
846.07	15039
846.206	15203
846.342	15165
846.478	15093
846.614	14994
846.75	14762
846.886	14788
847.022	15036
847.158	14811
847.294	14944
847.429	15043
847.565	14880
847.701	15199
847.837	14640
847.972	14670
848.108	14708
848.244	14762
848.379	14530
848.515	14503
848.65	14495
848.786	14549
848.921	14571
849.057	14579
849.192	14640
849.328	14412
849.463	14533
849.598	14465
849.734	14393
849.869	14374
850.004	14225
850.14	14259
850.275	14294
850.41	14161
850.545	14259
850.68	14259
850.815	14221
850.95	14275
851.085	14457
851.22	14396
851.355	14355
851.49	14267
851.625	14225
851.76	14271
851.895	14130
852.03	14077
852.165	14309
852.299	14237
852.434	14343
852.569	14252
852.703	14301
852.838	14317
852.973	14526
853.107	14389
853.242	14248
853.376	14229
853.511	14031
853.645	14161
853.78	14256
853.914	14142
854.048	14046
854.183	13982
854.317	14199
854.451	14317
854.585	14138
854.72	14054
854.854	14248
854.988	14046
855.122	14130
855.256	14058
855.39	14073
855.524	14237
855.658	14202
855.792	14191
855.926	14126
856.06	14191
856.194	14214
856.327	14153
856.461	14031
856.595	14054
856.729	14145
856.862	14221
856.996	14195
857.13	14214
857.263	14278
857.397	14172
857.53	14183
857.664	14240
857.797	14206
857.931	14214
858.064	14233
858.197	14248
858.331	14256
858.464	14073
858.597	14027
858.731	14233
858.864	14218
858.997	14153
859.13	14214
859.263	14221
859.396	14256
859.529	14065
859.662	14058
859.795	14130
859.928	14126
860.061	14286
860.194	14358
860.327	14233
860.46	14096
860.592	14317
860.725	14298
860.858	14244
860.99	14119
861.123	14111
861.256	14138
861.388	14084
861.521	14921
861.653	13959
861.786	13978
861.918	13997
862.05	14092
862.183	14081
862.315	14206
862.447	14081
862.58	14115
862.712	13986
862.844	13894
862.976	13997
863.108	13955
863.24	14298
863.372	13856
863.504	13898
863.636	13921
863.768	13986
863.9	13902
864.032	13769
864.164	13917
864.296	14111
864.428	14054
864.559	14050
864.691	13925
864.823	13982
864.954	13955
865.086	13921
865.217	13936
865.349	13856
865.48	13921
865.612	13940
865.743	14065
865.875	13963
866.006	13860
866.137	13913
866.269	13951
866.4	13913
866.531	13826
866.662	13951
866.793	13822
866.924	13875
867.055	13986
867.186	13925
867.317	13932
867.448	13753
867.579	13841
867.71	13830
867.841	13833
867.972	13936
868.103	13852
868.233	13993
868.364	13974
868.495	14027
868.625	14161
868.756	14256
868.886	14043
869.017	14107
869.147	14275
869.278	14385
869.408	14145
869.539	14164
869.669	14324
869.799	14256
869.929	14320
870.06	14229
870.19	14492
870.32	14499
870.45	14457
870.58	14526
870.71	14613
870.84	14674
870.97	14507
871.1	14606
871.23	14849
871.36	14902
871.489	14644
871.619	14727
871.749	14796
871.879	14819
872.008	14902
872.138	14811
872.267	14731
872.397	14724
872.526	14636
872.656	14590
872.785	14571
872.915	14872
873.044	14906
873.173	14861
873.303	14857
873.432	14853
873.561	14910
873.69	14891
873.819	14811
873.948	14857
874.077	14815
874.206	14823
874.335	14807
874.464	14941
874.593	15085
874.722	14975
874.851	15043
874.979	15154
875.108	15272
875.237	15055
875.365	15013
875.494	15123
875.623	15275
875.751	15039
875.88	15157
876.008	15302
876.136	15450
876.265	15591
876.393	15686
876.521	15705
876.65	15584
876.778	15576
876.906	15549
877.034	15530
877.162	15618
877.29	15545
877.418	15481
877.546	15614
877.674	15584
877.802	15485
877.93	15584
878.058	15447
878.185	15496
878.313	15538
878.441	15542
878.568	15439
878.696	15416
878.824	15557
878.951	15652
879.079	15747
879.206	15816
879.333	15724
879.461	15610
879.588	15686
879.715	15797
879.842	15850
879.97	15622
880.097	15420
880.224	15382
880.351	15378
880.478	15389
880.605	15420
880.732	15447
880.859	15576
880.986	15306
881.112	15443
881.239	15340
881.366	15237
881.493	15146
881.619	15062
881.746	15013
881.872	15032
881.999	15024
882.125	15028
882.252	15116
882.378	15123
882.505	15173
882.631	15028
882.757	14929
882.883	14906
883.01	14994
883.136	14724
883.262	14701
883.388	14720
883.514	14880
883.64	14845
883.766	14788
883.892	14682
884.018	14750
884.143	14872
884.269	15066
884.395	14610
884.52	14621
884.646	14564
884.772	14522
884.897	14507
885.023	14590
885.148	14697
885.274	14769
885.399	14632
885.524	14678
885.65	14492
885.775	14640
885.9	14629
886.025	14617
886.15	14716
886.275	14537
886.4	14541
886.525	14518
886.65	14537
886.775	14533
886.9	14758
887.025	14758
887.149	14617
887.274	14358
887.399	14400
887.523	14389
887.648	14408
887.773	14358
887.897	14518
888.021	14473
888.146	14320
888.27	14606
888.395	14587
888.519	14484
888.643	14503
888.767	14408
888.891	14332
889.015	14317
889.139	14313
889.263	14237
889.387	14404
889.511	14473
889.635	14431
889.759	14271
889.883	14267
890.006	14381
890.13	14309
890.254	14233
890.377	14218
890.501	14058
890.624	13989
890.748	14138
890.871	14001
890.995	13902
891.118	13940
891.241	13955
891.364	14020
891.488	14081
891.611	13963
891.734	13883
891.857	14016
891.98	13993
892.103	14054
892.226	14046
892.349	13967
892.471	13795
892.594	13902
892.717	13989
892.839	14031
892.962	13921
893.085	13974
893.207	14005
893.33	13913
893.452	13772
893.575	14020
893.697	14077
893.819	14096
893.941	14107
894.064	14046
894.186	14005
894.308	14001
894.43	14134
894.552	14176
894.674	14054
894.796	13986
894.918	14005
895.04	14024
895.161	14142
895.283	14054
895.405	14058
895.526	14115
895.648	14115
895.769	14176
895.891	14138
896.012	14195
896.134	14240
896.255	14187
896.376	14073
896.498	14187
896.619	14233
896.74	14263
896.861	14214
896.982	14476
897.103	14640
897.224	14480
897.345	14385
897.466	14465
897.587	14317
897.708	14526
897.828	14431
897.949	14294
898.07	14271
898.19	14351
898.311	14606
898.431	14488
898.552	14499
898.672	14514
898.792	14549
898.913	14617
899.033	14457
899.153	14263
899.273	14237
899.393	14298
899.513	14457
899.633	14305
899.753	14400
899.873	14286
899.993	14282
900.113	14374
900.232	14415
900.352	14351
900.472	14214
900.591	14187
900.711	14240
900.83	14214
900.95	14328
901.069	14336
901.189	14115
901.308	13982
901.427	13849
901.546	13890
901.665	13852
901.784	13883
901.904	13731
902.023	13677
902.141	13525
902.26	13373
902.379	13594
902.498	13434
902.617	13392
902.735	13529
902.854	13400
902.973	13411
903.091	13160
903.21	13244
903.328	13259
903.446	13027
903.565	13034
903.683	13053
903.801	12935
903.919	12970
904.038	13095
904.156	12863
904.274	12962
904.392	12840
904.51	12848
904.627	12798
904.745	12859
904.863	12894
904.981	12620
905.098	12604
905.216	12593
905.334	12563
905.451	12509
905.569	12502
905.686	12616
905.803	12490
905.921	12376
906.038	12540
906.155	12350
906.272	12251
906.389	12277
906.506	12220
906.623	12144
906.74	12110
906.857	12106
906.974	12098
907.091	12197
907.208	12258
907.324	12216
907.441	12079
907.557	11920
907.674	11885
907.79	11817
907.907	11817
908.023	11942
908.139	11859
908.256	11847
908.372	11775
908.488	11767
908.604	11665
908.72	11642
908.836	11627
908.952	11627
909.068	11802
909.184	11752
909.3	11661
909.415	11718
909.531	11710
909.647	11391
909.762	11376
909.878	11444
909.993	11398
910.108	11402
910.224	11440
910.339	11463
910.454	11326
910.57	11220
910.685	11265
910.8	11554
910.915	11391
911.03	11261
911.145	11128
911.259	11124
911.374	11193
911.489	10987
911.604	10980
911.718	10831
911.833	10968
911.947	10843
912.062	10702
912.176	10938
912.291	10858
912.405	10850
912.519	11014
912.633	11083
912.748	10999
912.862	10953
912.976	10900
913.09	10702
913.204	10672
913.318	10847
913.431	10820
913.545	10828
913.659	10828
913.772	10774
913.886	10679
914	10622
914.113	10759
914.226	10706
914.34	10664
914.453	10649
914.566	10694
914.68	10580
914.793	10599
914.906	10413
915.019	10451
915.132	10367
915.245	10344
915.358	10413
915.47	10409
915.583	10390
915.696	10402
915.809	10569
915.921	10519
916.034	10333
916.146	10325
916.259	10295
916.371	10489
916.483	10481
916.595	10352
916.708	10333
916.82	10375
916.932	10310
917.044	10379
917.156	10337
917.268	10154
917.38	10295
917.491	10188
917.603	10211
917.715	10341
917.826	10337
917.938	10200
918.049	10227
918.161	10188
918.272	10390
918.384	10417
918.495	10367
918.606	10128
918.717	10074
918.828	10135
918.939	10192
919.05	9998
919.161	10166
919.272	9968
919.383	10006
919.494	10173
919.604	10333
919.715	10090
919.826	9975
919.936	10143
920.047	10185
920.157	10166
920.267	10310
920.378	10207
920.488	10143
920.598	10310
920.708	10512
920.818	10299
920.928	10261
921.038	10428
921.148	10440
921.258	10192
921.368	10154
921.477	10067
921.587	9987
921.697	9827
921.806	9934
921.916	9873
922.025	9690
922.134	9720
922.244	9694
922.353	9766
922.462	9557
922.571	9549
922.68	9424
922.789	9317
922.898	9428
923.007	9329
923.116	9439
923.224	9408
923.333	9374
923.442	9374
923.55	9214
923.659	9325
923.767	9310
923.876	9222
923.984	9329
924.092	9272
924.201	9218
924.309	9237
924.417	9214
924.525	9207
924.633	9214
924.741	10166
924.849	9047
924.956	9180
925.064	9051
925.172	8937
925.279	9020
925.387	9070
925.494	9055
925.602	9123
925.709	9165
925.816	8990
925.924	9013
926.031	9066
926.138	9017
926.245	9036
926.352	8937
926.459	9108
926.566	9146
926.673	9085
926.779	8880
926.886	8864
926.993	8754
927.099	8781
927.206	8708
927.312	8701
927.419	8925
927.525	8773
927.631	8746
927.737	8693
927.843	8708
927.95	8568
928.056	8632
928.162	8625
928.267	8701
928.373	9336
928.479	8792
928.585	8480
928.69	8617
928.796	8686
928.901	8549
929.007	8419
929.112	8556
929.218	8575
929.323	8526
929.428	8492
929.533	8663
929.638	8343
929.743	8412
929.848	8518
929.953	8442
930.058	8336
930.163	8256
930.267	8244
930.372	8396
930.477	8252
930.581	8442
930.685	8298
930.79	8161
930.894	8252
930.998	8233
931.103	8320
931.207	8054
931.311	7940
931.415	7868
931.519	7761
931.623	7685
