Data from test_V78500241_1314.txt Node
Date: Fri Mar 25 14:42:51 CST 2022
User: usil
Spectrometer: V785-0024
Trigger mode: 0
Integration Time (sec): 4.000000E-1
Scans to average: 1
Nonlinearity correction enabled: false
Boxcar width: 0
Storing dark spectrum: false
XAxis mode: Wavelengths
Number of Pixels in Spectrum: 1024
>>>>>Begin Spectral Data<<<<<
801.071	22352
801.214	22272
801.356	21922
801.499	21903
801.641	21701
801.783	21732
801.926	21701
802.068	21720
802.211	21663
802.353	21599
802.496	21146
802.638	21188
802.78	21169
802.923	21009
803.065	21051
803.208	21055
803.35	21066
803.492	21226
803.635	21211
803.777	21116
803.919	21074
804.061	21408
804.204	21074
804.346	21024
804.488	20986
804.63	21028
804.773	20925
804.915	20895
805.057	21119
805.199	20994
805.341	21047
805.483	21188
805.626	21146
805.768	20918
805.91	21036
806.052	21028
806.194	20868
806.336	21077
806.478	20971
806.62	21001
806.762	21131
806.904	21264
807.046	21363
807.188	21363
807.33	21355
807.472	21431
807.614	21287
807.756	21367
807.898	21173
808.04	21161
808.182	21051
808.324	21138
808.465	21173
808.607	21351
808.749	21576
808.891	21656
809.033	21686
809.174	21610
809.316	21580
809.458	21469
809.6	21363
809.741	21507
809.883	21412
810.025	21667
810.166	21644
810.308	21500
810.45	21587
810.591	21526
810.733	21332
810.875	21138
811.016	21039
811.158	21089
811.299	21207
811.441	21363
811.582	21443
811.724	21211
811.865	21176
812.007	21157
812.148	21233
812.29	21230
812.431	21382
812.573	21408
812.714	21462
812.855	21549
812.997	21774
813.138	21903
813.279	21812
813.421	21641
813.562	21610
813.703	21389
813.845	21325
813.986	20986
814.127	20899
814.268	20735
814.41	20876
814.551	20731
814.692	20830
814.833	20708
814.974	20571
815.115	20724
815.256	20415
815.397	20621
815.539	20503
815.68	20377
815.821	20404
815.962	20522
816.103	20339
816.244	20362
816.385	20164
816.526	20229
816.666	20088
816.807	19890
816.948	20073
817.089	19989
817.23	19887
817.371	19871
817.512	19811
817.653	19852
817.793	19868
817.934	19993
818.075	19849
818.216	19845
818.356	19818
818.497	19700
818.638	19468
818.778	19460
818.919	19586
819.06	19499
819.2	19750
819.341	19666
819.481	19719
819.622	19784
819.762	20176
819.903	19940
820.043	19997
820.184	19883
820.324	19909
820.465	19902
820.605	19928
820.746	19883
820.886	19685
821.026	19674
821.167	19765
821.307	19894
821.447	19841
821.588	19578
821.728	19563
821.868	19373
822.008	19263
822.149	19209
822.289	19190
822.429	18947
822.569	18951
822.709	18935
822.849	18768
822.99	18757
823.13	18764
823.27	18757
823.41	18536
823.55	18471
823.69	18627
823.83	18620
823.97	18414
824.11	18270
824.25	18372
824.389	18441
824.529	18403
824.669	18304
824.809	18407
824.949	18357
825.089	18395
825.228	18319
825.368	18049
825.508	18011
825.648	18068
825.787	18144
825.927	18163
826.067	18197
826.206	18121
826.346	18083
826.485	18114
826.625	18098
826.765	18197
826.904	18076
827.044	17939
827.183	17885
827.323	17840
827.462	17794
827.601	17767
827.741	17790
827.88	17798
828.02	17649
828.159	17779
828.298	17756
828.437	17680
828.577	17752
828.716	17927
828.855	17695
828.994	17611
829.134	17547
829.273	17638
829.412	17486
829.551	17497
829.69	17554
829.829	17623
829.968	17615
830.107	17623
830.246	17558
830.385	17486
830.524	17520
830.663	17448
830.802	17349
830.941	17189
831.08	17098
831.219	17185
831.357	17159
831.496	17429
831.635	17090
831.774	16984
831.913	17162
832.051	16957
832.19	16919
832.329	17010
832.467	16942
832.606	16820
832.744	16858
832.883	16957
833.022	16828
833.16	16957
833.299	17003
833.437	16942
833.576	16911
833.714	16873
833.852	16892
833.991	16938
834.129	17117
834.267	16911
834.406	16908
834.544	17105
834.682	17052
834.821	16831
834.959	17109
835.097	16923
835.235	17010
835.373	16911
835.511	16923
835.65	16831
835.788	16889
835.926	16729
836.064	16611
836.202	16584
836.34	16809
836.478	16923
836.615	16774
836.753	16858
836.891	16930
837.029	16847
837.167	16858
837.305	16759
837.443	16733
837.58	16675
837.718	16847
837.856	16752
837.993	16740
838.131	16847
838.269	16569
838.406	16561
838.544	16554
838.681	16348
838.819	16417
838.956	16215
839.094	16226
839.231	16310
839.369	16398
839.506	16668
839.643	16497
839.781	16253
839.918	16211
840.055	16299
840.193	16261
840.33	16177
840.467	16325
840.604	16295
840.742	16478
840.879	16097
841.016	16143
841.153	16131
841.29	16538
841.427	16344
841.564	16348
841.701	16310
841.838	16257
841.975	16105
842.112	16105
842.249	16105
842.385	15907
842.522	16280
842.659	16086
842.796	16112
842.933	16101
843.069	16002
843.206	16051
843.343	16090
843.479	16017
843.616	15975
843.752	15850
843.889	15861
844.025	15922
844.162	15835
844.298	15876
844.435	15865
844.571	15915
844.708	15819
844.844	16044
844.98	15945
845.117	15911
845.253	15789
845.389	15774
845.525	15857
845.661	15800
845.798	15835
845.934	15975
846.07	15831
846.206	15861
846.342	16002
846.478	15732
846.614	15610
846.75	15405
846.886	15389
847.022	15572
847.158	15340
847.294	15374
847.429	15496
847.565	15351
847.701	15545
847.837	15116
847.972	15077
848.108	15142
848.244	15203
848.379	15116
848.515	14986
848.65	15036
848.786	15062
848.921	15005
849.057	15176
849.192	15081
849.328	15013
849.463	14967
849.598	15058
849.734	14914
849.869	14769
850.004	14712
850.14	14842
850.275	14735
850.41	14636
850.545	14746
850.68	14697
850.815	14823
850.95	14838
851.085	14979
851.22	14838
851.355	14785
851.49	14777
851.625	14800
851.76	14727
851.895	14587
852.03	14636
852.165	14750
852.299	14838
852.434	14857
852.569	14781
852.703	14792
852.838	14857
852.973	14899
853.107	14883
853.242	14686
853.376	14564
853.511	14503
853.645	14636
853.78	14758
853.914	14613
854.048	14644
854.183	14575
854.317	14670
854.451	14792
854.585	14514
854.72	14518
854.854	14663
854.988	14492
855.122	14568
855.256	14473
855.39	14632
855.524	14686
855.658	14651
855.792	14655
855.926	14670
856.06	14644
856.194	14716
856.327	14640
856.461	14541
856.595	14651
856.729	14583
856.862	14674
856.996	14712
857.13	14735
857.263	14693
857.397	14689
857.53	14590
857.664	14640
857.797	14815
857.931	14762
858.064	14629
858.197	14788
858.331	14640
858.464	14613
858.597	14636
858.731	14629
858.864	14598
858.997	14712
859.13	14636
859.263	14667
859.396	14689
859.529	14564
859.662	14640
859.795	14632
859.928	14621
860.061	14735
860.194	14735
860.327	14568
860.46	14625
860.592	14781
860.725	14758
860.858	14750
860.99	14686
861.123	14465
861.256	14549
861.388	14746
861.521	15275
861.653	14530
861.786	14404
861.918	14362
862.05	14488
862.183	14594
862.315	14575
862.447	14530
862.58	14560
862.712	14381
862.844	14320
862.976	14511
863.108	14415
863.24	14925
863.372	14286
863.504	14389
863.636	14450
863.768	14533
863.9	14366
864.032	14343
864.164	14393
864.296	14408
864.428	14579
864.559	14476
864.691	14511
864.823	14412
864.954	14446
865.086	14366
865.217	14393
865.349	14290
865.48	14351
865.612	14385
865.743	14571
865.875	14469
866.006	14423
866.137	14423
866.269	14389
866.4	14389
866.531	14282
866.662	14290
866.793	14370
866.924	14320
867.055	14309
867.186	14336
867.317	14320
867.448	14294
867.579	14351
867.71	14271
867.841	14271
867.972	14427
868.103	14389
868.233	14465
868.364	14313
868.495	14366
868.625	14583
868.756	14739
868.886	14632
869.017	14636
869.147	14686
869.278	14712
869.408	14541
869.539	14625
869.669	14697
869.799	14746
869.929	14777
870.06	14834
870.19	14941
870.32	14921
870.45	14967
870.58	15009
870.71	15176
870.84	15161
870.97	15043
871.1	15070
871.23	15119
871.36	15214
871.489	15116
871.619	15176
871.749	15214
871.879	15325
872.008	15237
872.138	15233
872.267	15252
872.397	15119
872.526	14998
872.656	15009
872.785	15062
872.915	15256
873.044	15332
873.173	15252
873.303	15298
873.432	15351
873.561	15317
873.69	15378
873.819	15260
873.948	15374
874.077	15336
874.206	15260
874.335	15173
874.464	15393
874.593	15477
874.722	15561
874.851	15644
874.979	15595
875.108	15572
875.237	15572
875.365	15530
875.494	15424
875.623	15663
875.751	15488
875.88	15663
876.008	15766
876.136	15797
876.265	16036
876.393	16139
876.521	16200
876.65	16135
876.778	16074
876.906	15964
877.034	15945
877.162	15892
877.29	15930
877.418	15960
877.546	16002
877.674	15972
877.802	16032
877.93	15968
878.058	16048
878.185	15854
878.313	15941
878.441	16017
878.568	15854
878.696	15899
878.824	16025
878.951	16135
879.079	16128
879.206	16367
879.333	16147
879.461	16143
879.588	16185
879.715	16211
879.842	16367
879.97	16120
880.097	15888
880.224	15816
880.351	15819
880.478	15865
880.605	15838
880.732	15842
880.859	16109
880.986	15937
881.112	15922
881.239	15743
881.366	15743
881.493	15580
881.619	15538
881.746	15504
881.872	15469
881.999	15584
882.125	15553
882.252	15553
882.378	15568
882.505	15709
882.631	15412
882.757	15363
882.883	15496
883.01	15416
883.136	15370
883.262	15230
883.388	15199
883.514	15332
883.64	15431
883.766	15325
883.892	15192
884.018	15157
884.143	15218
884.269	15355
884.395	15123
884.52	15017
884.646	15100
884.772	15062
884.897	14963
885.023	15005
885.148	15108
885.274	15230
885.399	15116
885.524	14979
885.65	15066
885.775	15161
885.9	14948
886.025	15207
886.15	15100
886.275	15070
886.4	14902
886.525	15009
886.65	14982
886.775	14956
886.9	15188
887.025	15241
887.149	15032
887.274	14823
887.399	14842
887.523	14815
887.648	14857
887.773	14788
887.897	14853
888.021	14956
888.146	14769
888.27	14918
888.395	14941
888.519	14823
888.643	14845
888.767	14933
888.891	14739
889.015	14693
889.139	14762
889.263	14621
889.387	14902
889.511	14960
889.635	14800
889.759	14651
889.883	14705
890.006	14674
890.13	14788
890.254	14575
890.377	14667
890.501	14492
890.624	14526
890.748	14644
890.871	14514
890.995	14355
891.118	14301
891.241	14469
891.364	14355
891.488	14514
891.611	14412
891.734	14434
891.857	14450
891.98	14480
892.103	14503
892.226	14389
892.349	14305
892.471	14183
892.594	14339
892.717	14396
892.839	14343
892.962	14400
893.085	14503
893.207	14355
893.33	14263
893.452	14332
893.575	14393
893.697	14374
893.819	14530
893.941	14590
894.064	14545
894.186	14290
894.308	14320
894.43	14503
894.552	14632
894.674	14518
894.796	14332
894.918	14503
895.04	14366
895.161	14507
895.283	14446
895.405	14347
895.526	14533
895.648	14438
895.769	14503
895.891	14511
896.012	14564
896.134	14522
896.255	14484
896.376	14476
896.498	14560
896.619	14594
896.74	14541
896.861	14632
896.982	14887
897.103	14990
897.224	14906
897.345	14746
897.466	14705
897.587	14849
897.708	14944
897.828	14883
897.949	14746
898.07	14659
898.19	14754
898.311	14956
898.431	14792
898.552	14857
898.672	14998
898.792	14941
898.913	14948
899.033	14788
899.153	14648
899.273	14568
899.393	14682
899.513	14800
899.633	14697
899.753	14758
899.873	14785
899.993	14834
900.113	14667
900.232	14701
900.352	14708
900.472	14640
900.591	14530
900.711	14610
900.83	14587
900.95	14617
901.069	14796
901.189	14503
901.308	14461
901.427	14233
901.546	14218
901.665	14294
901.784	14286
901.904	14210
902.023	14084
902.141	13830
902.26	13811
902.379	13856
902.498	13856
902.617	13833
902.735	13887
902.854	13776
902.973	13818
903.091	13708
903.21	13639
903.328	13567
903.446	13525
903.565	13464
903.683	13422
903.801	13346
903.919	13335
904.038	13419
904.156	13232
904.274	13320
904.392	13263
904.51	13217
904.627	13251
904.745	13278
904.863	13358
904.981	13012
905.098	12920
905.216	12977
905.334	12882
905.451	12924
905.569	12920
905.686	12958
905.803	13015
905.921	12791
906.038	12829
906.155	12745
906.272	12677
906.389	12779
906.506	12639
906.623	12490
906.74	12513
906.857	12372
906.974	12433
907.091	12585
907.208	12673
907.324	12593
907.441	12441
907.557	12342
907.674	12213
907.79	12273
907.907	12228
908.023	12376
908.139	12342
908.256	12190
908.372	12277
908.488	12102
908.604	12053
908.72	12064
908.836	12106
908.952	12064
909.068	12019
909.184	12121
909.3	12083
909.415	12136
909.531	12072
909.647	11779
909.762	11786
909.878	11805
909.993	11855
910.108	11824
910.224	11745
910.339	11824
910.454	11722
910.57	11726
910.685	11512
910.8	11889
910.915	11836
911.03	11703
911.145	11570
911.259	11528
911.374	11539
911.489	11493
911.604	11471
911.718	11246
911.833	11147
911.947	11166
912.062	11090
912.176	11204
912.291	11227
912.405	11235
912.519	11440
912.633	11436
912.748	11334
912.862	11288
912.976	11079
913.09	10961
913.204	11094
913.318	11083
913.431	11269
913.545	11159
913.659	11250
913.772	11181
913.886	10995
914	10987
914.113	11105
914.226	11037
914.34	11098
914.453	10927
914.566	11136
914.68	10972
914.793	11010
914.906	10744
915.019	10793
915.132	10641
915.245	10744
915.358	10778
915.47	10752
915.583	10797
915.696	10797
915.809	10786
915.921	11006
916.034	10786
916.146	10653
916.259	10675
916.371	10797
916.483	10801
916.595	10736
916.708	10660
916.82	10672
916.932	10550
917.044	10668
917.156	10596
917.268	10512
917.38	10474
917.491	10504
917.603	10527
917.715	10596
917.826	10664
917.938	10489
918.049	10409
918.161	10504
918.272	10702
918.384	10565
918.495	10535
918.606	10390
918.717	10379
918.828	10375
918.939	10474
919.05	10246
919.161	10390
919.272	10173
919.383	10303
919.494	10508
919.604	10683
919.715	10424
919.826	10379
919.936	10318
920.047	10497
920.157	10451
920.267	10634
920.378	10531
920.488	10390
920.598	10649
920.708	10820
920.818	10634
920.928	10596
921.038	10820
921.148	10778
921.258	10451
921.368	10329
921.477	10325
921.587	10299
921.697	10131
921.806	10333
921.916	10276
922.025	9915
922.134	10025
922.244	9956
922.353	10025
922.462	9918
922.571	9819
922.68	9728
922.789	9679
922.898	9660
923.007	9603
923.116	9774
923.224	9720
923.333	9698
923.442	9606
923.55	9641
923.659	9587
923.767	9652
923.876	9595
923.984	9641
924.092	9454
924.201	9553
924.309	9523
924.417	9538
924.525	9530
924.633	9542
924.741	10451
924.849	9355
924.956	9443
925.064	9332
925.172	9245
925.279	9298
925.387	9260
925.494	9283
925.602	9397
925.709	9462
925.816	9336
925.924	9443
926.031	9454
926.138	9332
926.245	9412
926.352	9214
926.459	9336
926.566	9416
926.673	9359
926.779	9207
926.886	9161
926.993	9100
927.099	9081
927.206	9020
927.312	9036
927.419	9036
927.525	9043
927.631	9112
927.737	8979
927.843	8910
927.95	8819
928.056	8925
928.162	8910
928.267	8948
928.373	9663
928.479	9020
928.585	8773
928.69	8941
928.796	8921
928.901	8819
929.007	8708
929.112	8804
929.218	8750
929.323	8762
929.428	8739
929.533	8925
929.638	8731
929.743	8739
929.848	8697
929.953	8766
930.058	8670
930.163	8545
930.267	8442
930.372	8621
930.477	8442
930.581	8830
930.685	8651
930.79	8423
930.894	8442
930.998	8480
931.103	8549
931.207	8218
931.311	8218
931.415	8180
931.519	8016
931.623	8027
