Data from test_V78500241_1590.txt Node
Date: Fri Mar 25 14:44:47 CST 2022
User: usil
Spectrometer: V785-0024
Trigger mode: 0
Integration Time (sec): 4.000000E-1
Scans to average: 1
Nonlinearity correction enabled: false
Boxcar width: 0
Storing dark spectrum: false
XAxis mode: Wavelengths
Number of Pixels in Spectrum: 1024
>>>>>Begin Spectral Data<<<<<
801.071	22413
801.214	22261
801.356	22010
801.499	21888
801.641	21755
801.783	21694
801.926	21778
802.068	21625
802.211	21549
802.353	21485
802.496	21291
802.638	21203
802.78	21218
802.923	21169
803.065	20861
803.208	21036
803.35	21017
803.492	21207
803.635	21260
803.777	20994
803.919	21138
804.061	21370
804.204	21009
804.346	20994
804.488	20929
804.63	20921
804.773	21062
804.915	20952
805.057	21142
805.199	20906
805.341	21001
805.483	21116
805.626	21055
805.768	20960
805.91	21013
806.052	20994
806.194	20864
806.336	21218
806.478	20929
806.62	20998
806.762	21036
806.904	21161
807.046	21389
807.188	21329
807.33	21310
807.472	21496
807.614	21283
807.756	21389
807.898	21275
808.04	21051
808.182	21066
808.324	21116
808.465	21207
808.607	21249
808.749	21412
808.891	21545
809.033	21713
809.174	21564
809.316	21393
809.458	21397
809.6	21355
809.741	21454
809.883	21412
810.025	21652
810.166	21469
810.308	21675
810.45	21568
810.591	21416
810.733	21302
810.875	21245
811.016	21169
811.158	21123
811.299	21279
811.441	21252
811.582	21241
811.724	21131
811.865	21241
812.007	21226
812.148	21150
812.29	21146
812.431	21348
812.573	21469
812.714	21500
812.855	21583
812.997	21857
813.138	21934
813.279	21720
813.421	21603
813.562	21606
813.703	21344
813.845	21344
813.986	21081
814.127	20765
814.268	20674
814.41	20857
814.551	20571
814.692	20838
814.833	20659
814.974	20629
815.115	20750
815.256	20526
815.397	20522
815.539	20530
815.68	20412
815.821	20377
815.962	20450
816.103	20495
816.244	20370
816.385	20100
816.526	20202
816.666	20035
816.807	19875
816.948	20039
817.089	19982
817.23	19894
817.371	19879
817.512	19925
817.653	19841
817.793	19868
817.934	19845
818.075	19894
818.216	19932
818.356	19772
818.497	19635
818.638	19518
818.778	19537
818.919	19571
819.06	19674
819.2	19780
819.341	19700
819.481	19791
819.622	19822
819.762	20027
819.903	20058
820.043	19830
820.184	19795
820.324	19738
820.465	19879
820.605	19887
820.746	19833
820.886	19685
821.026	19814
821.167	19849
821.307	19746
821.447	19738
821.588	19635
821.728	19476
821.868	19358
822.008	19164
822.149	19274
822.289	19110
822.429	19069
822.569	18973
822.709	18958
822.849	18749
822.99	18715
823.13	18719
823.27	18635
823.41	18502
823.55	18528
823.69	18540
823.83	18426
823.97	18517
824.11	18372
824.25	18346
824.389	18334
824.529	18372
824.669	18311
824.809	18414
824.949	18372
825.089	18338
825.228	18292
825.368	18209
825.508	18163
825.648	18038
825.787	18254
825.927	18140
826.067	18140
826.206	17984
826.346	18106
826.485	18117
826.625	18083
826.765	18194
826.904	18087
827.044	17847
827.183	17908
827.323	17737
827.462	17790
827.601	17752
827.741	17653
827.88	17710
828.02	17619
828.159	17794
828.298	17813
828.437	17874
828.577	17695
828.716	17794
828.855	17695
828.994	17532
829.134	17448
829.273	17509
829.412	17512
829.551	17490
829.69	17512
829.829	17490
829.968	17596
830.107	17566
830.246	17459
830.385	17482
830.524	17444
830.663	17334
830.802	17349
830.941	17086
831.08	16999
831.219	17284
831.357	17200
831.496	17334
831.635	17022
831.774	17094
831.913	17025
832.051	16976
832.19	16881
832.329	16858
832.467	16904
832.606	16820
832.744	16869
832.883	16782
833.022	16782
833.16	16767
833.299	16850
833.437	16816
833.576	16824
833.714	16831
833.852	16824
833.991	16923
834.129	16984
834.267	16976
834.406	16831
834.544	16927
834.682	16957
834.821	16774
834.959	16946
835.097	16889
835.235	16889
835.373	16877
835.511	16881
835.65	16725
835.788	16816
835.926	16634
836.064	16694
836.202	16675
836.34	16755
836.478	16854
836.615	16691
836.753	16744
836.891	16824
837.029	16729
837.167	16649
837.305	16679
837.443	16596
837.58	16569
837.718	16672
837.856	16634
837.993	16561
838.131	16497
838.269	16493
838.406	16561
838.544	16440
838.681	16238
838.819	16360
838.956	16086
839.094	16055
839.231	16169
839.369	16257
839.506	16527
839.643	16325
839.781	16131
839.918	16116
840.055	16207
840.193	16185
840.33	16120
840.467	16158
840.604	16173
840.742	16417
840.879	15964
841.016	16063
841.153	16120
841.29	16280
841.427	16166
841.564	16166
841.701	16128
841.838	16154
841.975	16029
842.112	15983
842.249	15857
842.385	15903
842.522	16051
842.659	16006
842.796	15876
842.933	15827
843.069	15892
843.206	15876
843.343	15956
843.479	15991
843.616	15884
843.752	15648
843.889	15701
844.025	15926
844.162	15629
844.298	15770
844.435	15701
844.571	15652
844.708	15732
844.844	15838
844.98	15895
845.117	15816
845.253	15778
845.389	15652
845.525	15656
845.661	15618
845.798	15694
845.934	15641
846.07	15610
846.206	15709
846.342	15690
846.478	15496
846.614	15336
846.75	15230
846.886	15340
847.022	15340
847.158	15348
847.294	15207
847.429	15370
847.565	15351
847.701	15561
847.837	15119
847.972	14914
848.108	15089
848.244	15032
848.379	14967
848.515	14800
848.65	14842
848.786	14906
848.921	14849
849.057	14960
849.192	14948
849.328	14811
849.463	14925
849.598	14857
849.734	14849
849.869	14720
850.004	14651
850.14	14606
850.275	14594
850.41	14587
850.545	14579
850.68	14712
850.815	14625
850.95	14541
851.085	14895
851.22	14788
851.355	14697
851.49	14594
851.625	14648
851.76	14594
851.895	14541
852.03	14545
852.165	14625
852.299	14590
852.434	14659
852.569	14655
852.703	14693
852.838	14731
852.973	14800
853.107	14762
853.242	14625
853.376	14545
853.511	14336
853.645	14457
853.78	14636
853.914	14530
854.048	14602
854.183	14396
854.317	14514
854.451	14621
854.585	14511
854.72	14503
854.854	14514
854.988	14469
855.122	14450
855.256	14324
855.39	14400
855.524	14625
855.658	14530
855.792	14484
855.926	14438
856.06	14587
856.194	14667
856.327	14492
856.461	14499
856.595	14351
856.729	14503
856.862	14602
856.996	14552
857.13	14613
857.263	14640
857.397	14689
857.53	14552
857.664	14575
857.797	14670
857.931	14590
858.064	14526
858.197	14579
858.331	14514
858.464	14385
858.597	14389
858.731	14469
858.864	14450
858.997	14533
859.13	14488
859.263	14583
859.396	14507
859.529	14446
859.662	14507
859.795	14476
859.928	14473
860.061	14636
860.194	14651
860.327	14526
860.46	14575
860.592	14602
860.725	14686
860.858	14571
860.99	14602
861.123	14324
861.256	14419
861.388	14533
861.521	15344
861.653	14366
861.786	14313
861.918	14309
862.05	14476
862.183	14465
862.315	14488
862.447	14473
862.58	14434
862.712	14218
862.844	14210
862.976	14343
863.108	14218
863.24	14705
863.372	14191
863.504	14320
863.636	14202
863.768	14320
863.9	14313
864.032	14237
864.164	14206
864.296	14339
864.428	14419
864.559	14290
864.691	14362
864.823	14252
864.954	14332
865.086	14286
865.217	14229
865.349	14142
865.48	14271
865.612	14290
865.743	14393
865.875	14339
866.006	14214
866.137	14301
866.269	14259
866.4	14259
866.531	14252
866.662	14142
866.793	14157
866.924	14149
867.055	14206
867.186	14244
867.317	14161
867.448	14176
867.579	14187
867.71	14183
867.841	14206
867.972	14355
868.103	14176
868.233	14263
868.364	14191
868.495	14320
868.625	14469
868.756	14564
868.886	14381
869.017	14533
869.147	14632
869.278	14564
869.408	14488
869.539	14530
869.669	14613
869.799	14495
869.929	14636
870.06	14682
870.19	14754
870.32	14735
870.45	14819
870.58	14925
870.71	14929
870.84	15051
870.97	14918
871.1	14891
871.23	14998
871.36	15024
871.489	14967
871.619	15093
871.749	15104
871.879	15146
872.008	15188
872.138	15131
872.267	15055
872.397	14967
872.526	14921
872.656	14887
872.785	14899
872.915	15077
873.044	15184
873.173	15138
873.303	15154
873.432	15180
873.561	15161
873.69	15123
873.819	15100
873.948	15245
874.077	15195
874.206	15207
874.335	15112
874.464	15313
874.593	15401
874.722	15405
874.851	15492
874.979	15500
875.108	15450
875.237	15367
875.365	15340
875.494	15374
875.623	15557
875.751	15287
875.88	15485
876.008	15679
876.136	15751
876.265	15880
876.393	15941
876.521	15854
876.65	15869
876.778	15937
876.906	15857
877.034	15739
877.162	15766
877.29	15778
877.418	15915
877.546	15778
877.674	15816
877.802	15846
877.93	15903
878.058	15778
878.185	15736
878.313	15842
878.441	15808
878.568	15686
878.696	15812
878.824	15915
878.951	15835
879.079	16063
879.206	16272
879.333	16067
879.461	16017
879.588	15987
879.715	16082
879.842	16162
879.97	15987
880.097	15701
880.224	15648
880.351	15770
880.478	15755
880.605	15724
880.732	15717
880.859	15880
880.986	15751
881.112	15732
881.239	15542
881.366	15507
881.493	15504
881.619	15321
881.746	15420
881.872	15317
881.999	15389
882.125	15374
882.252	15367
882.378	15374
882.505	15515
882.631	15298
882.757	15161
882.883	15306
883.01	15169
883.136	15199
883.262	15100
883.388	15077
883.514	15264
883.64	15291
883.766	15192
883.892	15024
884.018	14982
884.143	15268
884.269	15241
884.395	14952
884.52	14975
884.646	14876
884.772	14830
884.897	14773
885.023	14902
885.148	15081
885.274	15070
885.399	14963
885.524	14891
885.65	14952
885.775	14880
885.9	14921
886.025	15039
886.15	14967
886.275	14925
886.4	14735
886.525	14819
886.65	14804
886.775	14788
886.9	15066
887.025	15066
887.149	14918
887.274	14823
887.399	14689
887.523	14701
887.648	14621
887.773	14617
887.897	14754
888.021	14807
888.146	14724
888.27	14868
888.395	14906
888.519	14750
888.643	14811
888.767	14773
888.891	14640
889.015	14469
889.139	14579
889.263	14598
889.387	14655
889.511	14724
889.635	14625
889.759	14568
889.883	14575
890.006	14579
890.13	14659
890.254	14476
890.377	14469
890.501	14358
890.624	14396
890.748	14412
890.871	14256
890.995	14298
891.118	14191
891.241	14210
891.364	14305
891.488	14393
891.611	14187
891.734	14370
891.857	14385
891.98	14298
892.103	14362
892.226	14298
892.349	14271
892.471	14107
892.594	14176
892.717	14305
892.839	14298
892.962	14229
893.085	14355
893.207	14301
893.33	14100
893.452	14256
893.575	14301
893.697	14218
893.819	14465
893.941	14434
894.064	14336
894.186	14263
894.308	14351
894.43	14381
894.552	14492
894.674	14469
894.796	14183
894.918	14214
895.04	14290
895.161	14389
895.283	14400
895.405	14328
895.526	14286
895.648	14465
895.769	14427
895.891	14442
896.012	14541
896.134	14503
896.255	14377
896.376	14362
896.498	14461
896.619	14465
896.74	14492
896.861	14484
896.982	14758
897.103	14891
897.224	14590
897.345	14625
897.466	14625
897.587	14682
897.708	14796
897.828	14720
897.949	14644
898.07	14511
898.19	14708
898.311	14743
898.431	14834
898.552	14735
898.672	14792
898.792	14731
898.913	14807
899.033	14826
899.153	14644
899.273	14590
899.393	14640
899.513	14720
899.633	14678
899.753	14644
899.873	14575
899.993	14716
900.113	14682
900.232	14716
900.352	14571
900.472	14549
900.591	14442
900.711	14564
900.83	14545
900.95	14640
901.069	14617
901.189	14499
901.308	14305
901.427	14145
901.546	14233
901.665	14259
901.784	14271
901.904	14031
902.023	13955
902.141	13811
902.26	13757
902.379	13887
902.498	13811
902.617	13852
902.735	13753
902.854	13742
902.973	13651
903.091	13460
903.21	13495
903.328	13525
903.446	13487
903.565	13320
903.683	13316
903.801	13198
903.919	13282
904.038	13289
904.156	13065
904.274	13244
904.392	13255
904.51	13065
904.627	13160
904.745	13141
904.863	13145
904.981	12932
905.098	12795
905.216	12757
905.334	12886
905.451	12833
905.569	12749
905.686	12844
905.803	12848
905.921	12623
906.038	12715
906.155	12665
906.272	12566
906.389	12563
906.506	12407
906.623	12437
906.74	12372
906.857	12194
906.974	12251
907.091	12407
907.208	12509
907.324	12410
907.441	12281
907.557	12171
907.674	12148
907.79	12026
907.907	12087
908.023	12186
908.139	12155
908.256	12110
908.372	12030
908.488	12083
908.604	11935
908.72	11870
908.836	11870
908.952	11870
909.068	11897
909.184	11946
909.3	11939
909.415	12015
909.531	11870
909.647	11646
909.762	11657
909.878	11630
909.993	11722
910.108	11589
910.224	11566
910.339	11672
910.454	11516
910.57	11524
910.685	11402
910.8	11737
910.915	11642
911.03	11615
911.145	11364
911.259	11299
911.374	11353
911.489	11231
911.604	11334
911.718	11109
911.833	11105
911.947	11067
912.062	10927
912.176	11105
912.291	11105
912.405	11105
912.519	11261
912.633	11303
912.748	11189
912.862	11140
912.976	10968
913.09	10850
913.204	10999
913.318	10972
913.431	11105
913.545	11064
913.659	11128
913.772	10991
913.886	10885
914	10869
914.113	10885
914.226	10889
914.34	10946
914.453	10850
914.566	10942
914.68	10790
914.793	10774
914.906	10675
915.019	10580
915.132	10489
915.245	10630
915.358	10649
915.47	10664
915.583	10672
915.696	10664
915.809	10694
915.921	10759
916.034	10519
916.146	10561
916.259	10508
916.371	10679
916.483	10580
916.595	10542
916.708	10592
916.82	10588
916.932	10523
917.044	10546
917.156	10481
917.268	10409
917.38	10516
917.491	10394
917.603	10493
917.715	10447
917.826	10611
917.938	10386
918.049	10295
918.161	10447
918.272	10554
918.384	10607
918.495	10451
918.606	10333
918.717	10276
918.828	10295
918.939	10402
919.05	10219
919.161	10287
919.272	10116
919.383	10166
919.494	10432
919.604	10554
919.715	10299
919.826	10314
919.936	10227
920.047	10341
920.157	10329
920.267	10516
920.378	10398
920.488	10390
920.598	10550
920.708	10634
920.818	10504
920.928	10470
921.038	10759
921.148	10683
921.258	10405
921.368	10295
921.477	10227
921.587	10261
921.697	10131
921.806	10200
921.916	10128
922.025	9888
922.134	9922
922.244	9884
922.353	9994
922.462	9800
922.571	9728
922.68	9591
922.789	9576
922.898	9564
923.007	9519
923.116	9587
923.224	9580
923.333	9637
923.442	9538
923.55	9485
923.659	9477
923.767	9553
923.876	9458
923.984	9564
924.092	9412
924.201	9454
924.309	9458
924.417	9450
924.525	9435
924.633	9469
924.741	10341
924.849	9359
924.956	9443
925.064	9287
925.172	9116
925.279	9302
925.387	9253
925.494	9256
925.602	9389
925.709	9336
925.816	9245
925.924	9287
926.031	9329
926.138	9287
926.245	9370
926.352	9230
926.459	9325
926.566	9397
926.673	9237
926.779	9055
926.886	9157
926.993	8975
927.099	8979
927.206	8986
927.312	8921
927.419	9013
927.525	9001
927.631	9032
927.737	8918
927.843	8929
927.95	8777
928.056	8861
928.162	8925
928.267	8811
928.373	9439
928.479	8982
928.585	8804
928.69	8834
928.796	8918
928.901	8796
929.007	8659
929.112	8868
929.218	8762
929.323	8766
929.428	8674
929.533	8899
929.638	8629
929.743	8663
929.848	8754
929.953	8682
930.058	8621
930.163	8415
930.267	8495
930.372	8583
930.477	8431
930.581	8705
930.685	8533
930.79	8370
930.894	8457
930.998	8381
931.103	8556
931.207	8199
931.311	8123
931.415	8050
931.519	7906
931.623	7909
