Data from test_V78500241_2385.txt Node
Date: Fri Mar 25 14:50:19 CST 2022
User: usil
Spectrometer: V785-0024
Trigger mode: 0
Integration Time (sec): 4.000000E-1
Scans to average: 1
Nonlinearity correction enabled: false
Boxcar width: 0
Storing dark spectrum: false
XAxis mode: Wavelengths
Number of Pixels in Spectrum: 1024
>>>>>Begin Spectral Data<<<<<
801.071	22230
801.214	22196
801.356	21884
801.499	21663
801.641	21580
801.783	21519
801.926	21534
802.068	21496
802.211	21454
802.353	21458
802.496	21119
802.638	21039
802.78	20944
802.923	20891
803.065	20845
803.208	20800
803.35	20876
803.492	20948
803.635	21005
803.777	20872
803.919	20899
804.061	21237
804.204	20880
804.346	20963
804.488	20750
804.63	20815
804.773	20773
804.915	20807
805.057	20941
805.199	20712
805.341	20944
805.483	20937
805.626	20963
805.768	20701
805.91	20925
806.052	20781
806.194	20686
806.336	20880
806.478	20807
806.62	20735
806.762	20781
806.904	21024
807.046	21252
807.188	21093
807.33	21199
807.472	21230
807.614	21089
807.756	21043
807.898	20906
808.04	20899
808.182	20853
808.324	20937
808.465	21047
808.607	21039
808.749	21230
808.891	21310
809.033	21420
809.174	21085
809.316	21272
809.458	21100
809.6	21233
809.741	21211
809.883	21173
810.025	21332
810.166	21317
810.308	21359
810.45	21298
810.591	21199
810.733	21039
810.875	20963
811.016	20910
811.158	20819
811.299	20918
811.441	21104
811.582	20998
811.724	20956
811.865	20956
812.007	20918
812.148	20899
812.29	20925
812.431	21039
812.573	21211
812.714	21447
812.855	21523
812.997	21488
813.138	21667
813.279	21580
813.421	21462
813.562	21412
813.703	21173
813.845	21089
813.986	20864
814.127	20682
814.268	20537
814.41	20746
814.551	20571
814.692	20545
814.833	20419
814.974	20309
815.115	20469
815.256	20286
815.397	20431
815.539	20404
815.68	20225
815.821	20134
815.962	20244
816.103	20096
816.244	20008
816.385	20115
816.526	20043
816.666	19791
816.807	19616
816.948	19856
817.089	19670
817.23	19674
817.371	19601
817.512	19708
817.653	19567
817.793	19628
817.934	19544
818.075	19700
818.216	19597
818.356	19556
818.497	19468
818.638	19187
818.778	19339
818.919	19289
819.06	19419
819.2	19411
819.341	19582
819.481	19514
819.622	19590
819.762	19826
819.903	19742
820.043	19658
820.184	19552
820.324	19559
820.465	19518
820.605	19662
820.746	19537
820.886	19438
821.026	19529
821.167	19563
821.307	19483
821.447	19525
821.588	19403
821.728	19255
821.868	19274
822.008	19000
822.149	18981
822.289	18897
822.429	18833
822.569	18738
822.709	18604
822.849	18559
822.99	18559
823.13	18365
823.27	18437
823.41	18205
823.55	18178
823.69	18388
823.83	18216
823.97	18197
824.11	18121
824.25	18076
824.389	18106
824.529	18243
824.669	18041
824.809	18186
824.949	18125
825.089	18133
825.228	18129
825.368	17927
825.508	17783
825.648	17851
825.787	17882
825.927	17901
826.067	17836
826.206	17756
826.346	17973
826.485	17821
826.625	17786
826.765	17874
826.904	17836
827.044	17608
827.183	17558
827.323	17436
827.462	17589
827.601	17509
827.741	17520
827.88	17539
828.02	17387
828.159	17501
828.298	17509
828.437	17547
828.577	17387
828.716	17722
828.855	17543
828.994	17239
829.134	17223
829.273	17318
829.412	17223
829.551	17208
829.69	17193
829.829	17353
829.968	17326
830.107	17341
830.246	17200
830.385	17193
830.524	17178
830.663	16999
830.802	17010
830.941	16858
831.08	16805
831.219	16961
831.357	16949
831.496	17185
831.635	16911
831.774	16744
831.913	16725
832.051	16584
832.19	16637
832.329	16710
832.467	16550
832.606	16535
832.744	16443
832.883	16603
833.022	16546
833.16	16645
833.299	16577
833.437	16546
833.576	16523
833.714	16599
833.852	16626
833.991	16565
834.129	16687
834.267	16721
834.406	16599
834.544	16630
834.682	16664
834.821	16637
834.959	16786
835.097	16443
835.235	16664
835.373	16569
835.511	16675
835.65	16504
835.788	16565
835.926	16284
836.064	16341
836.202	16272
836.34	16531
836.478	16580
836.615	16500
836.753	16466
836.891	16584
837.029	16508
837.167	16603
837.305	16405
837.443	16363
837.58	16363
837.718	16466
837.856	16360
837.993	16253
838.131	16356
838.269	16268
838.406	16295
838.544	16249
838.681	16154
838.819	16074
838.956	15880
839.094	15930
839.231	15972
839.369	16006
839.506	16276
839.643	16257
839.781	15930
839.918	15869
840.055	15960
840.193	16074
840.33	15941
840.467	15899
840.604	15899
840.742	16131
840.879	15709
841.016	15797
841.153	15835
841.29	15922
841.427	15892
841.564	15964
841.701	15842
841.838	15850
841.975	15835
842.112	15865
842.249	15755
842.385	15633
842.522	15915
842.659	15633
842.796	15629
842.933	15652
843.069	15747
843.206	15682
843.343	15755
843.479	15751
843.616	15698
843.752	15443
843.889	15523
844.025	15732
844.162	15469
844.298	15496
844.435	15515
844.571	15408
844.708	15606
844.844	15576
844.98	15610
845.117	15473
845.253	15374
845.389	15382
845.525	15500
845.661	15374
845.798	15211
845.934	15313
846.07	15264
846.206	15249
846.342	15382
846.478	15336
846.614	15123
846.75	15058
846.886	14990
847.022	15135
847.158	15066
847.294	15089
847.429	15028
847.565	15024
847.701	15294
847.837	14788
847.972	14773
848.108	14849
848.244	14929
848.379	14724
848.515	14735
848.65	14583
848.786	14670
848.921	14712
849.057	14670
849.192	14716
849.328	14746
849.463	14667
849.598	14629
849.734	14571
849.869	14484
850.004	14454
850.14	14408
850.275	14495
850.41	14438
850.545	14423
850.68	14355
850.815	14431
850.95	14370
851.085	14568
851.22	14518
851.355	14450
851.49	14328
851.625	14347
851.76	14434
851.895	14355
852.03	14225
852.165	14343
852.299	14450
852.434	14457
852.569	14476
852.703	14442
852.838	14476
852.973	14499
853.107	14556
853.242	14434
853.376	14271
853.511	14221
853.645	14214
853.78	14385
853.914	14305
854.048	14366
854.183	14263
854.317	14358
854.451	14389
854.585	14244
854.72	14229
854.854	14301
854.988	14191
855.122	14263
855.256	14183
855.39	14206
855.524	14419
855.658	14229
855.792	14355
855.926	14263
856.06	14393
856.194	14389
856.327	14267
856.461	14202
856.595	14282
856.729	14240
856.862	14278
856.996	14377
857.13	14339
857.263	14400
857.397	14450
857.53	14324
857.664	14358
857.797	14286
857.931	14313
858.064	14362
858.197	14301
858.331	14324
858.464	14225
858.597	14183
858.731	14244
858.864	14374
858.997	14214
859.13	14267
859.263	14355
859.396	14362
859.529	14195
859.662	14301
859.795	14328
859.928	14332
860.061	14476
860.194	14404
860.327	14275
860.46	14218
860.592	14400
860.725	14419
860.858	14431
860.99	14290
861.123	14233
861.256	14157
861.388	14275
861.521	14765
861.653	14240
861.786	14172
861.918	14145
862.05	14240
862.183	14202
862.315	14374
862.447	14343
862.58	14157
862.712	14149
862.844	13932
862.976	14161
863.108	14142
863.24	14427
863.372	13951
863.504	14024
863.636	14008
863.768	14092
863.9	13997
864.032	14001
864.164	13959
864.296	14111
864.428	14138
864.559	14046
864.691	14115
864.823	14054
864.954	14088
865.086	14054
865.217	14130
865.349	13963
865.48	13951
865.612	14092
865.743	14153
865.875	14123
866.006	14119
866.137	14012
866.269	14069
866.4	14062
866.531	14069
866.662	14031
866.793	13963
866.924	14005
867.055	14065
867.186	14008
867.317	13989
867.448	13883
867.579	14027
867.71	13860
867.841	13936
867.972	14012
868.103	14077
868.233	14050
868.364	13959
868.495	14172
868.625	14351
868.756	14374
868.886	14157
869.017	14252
869.147	14423
869.278	14404
869.408	14358
869.539	14271
869.669	14351
869.799	14332
869.929	14442
870.06	14415
870.19	14632
870.32	14636
870.45	14689
870.58	14663
870.71	14731
870.84	14815
870.97	14716
871.1	14727
871.23	14975
871.36	14918
871.489	14819
871.619	14788
871.749	14880
871.879	14952
872.008	14876
872.138	14842
872.267	14895
872.397	14804
872.526	14773
872.656	14701
872.785	14598
872.915	14975
873.044	15005
873.173	14925
873.303	14994
873.432	14937
873.561	15028
873.69	14918
873.819	14849
873.948	15047
874.077	14902
874.206	14933
874.335	14906
874.464	15043
874.593	15252
874.722	15230
874.851	15291
874.979	15268
875.108	15294
875.237	15310
875.365	15188
875.494	15275
875.623	15325
875.751	15199
875.88	15237
876.008	15332
876.136	15481
876.265	15675
876.393	15835
876.521	15770
876.65	15778
876.778	15667
876.906	15595
877.034	15641
877.162	15656
877.29	15568
877.418	15679
877.546	15637
877.674	15572
877.802	15648
877.93	15671
878.058	15580
878.185	15599
878.313	15766
878.441	15686
878.568	15496
878.696	15549
878.824	15732
878.951	15690
879.079	15869
879.206	15964
879.333	15766
879.461	15637
879.588	15789
879.715	15899
879.842	15987
879.97	15732
880.097	15542
880.224	15530
880.351	15564
880.478	15511
880.605	15431
880.732	15443
880.859	15739
880.986	15507
881.112	15561
881.239	15504
881.366	15260
881.493	15279
881.619	15135
881.746	15192
881.872	15199
881.999	15024
882.125	15085
882.252	15203
882.378	15188
882.505	15283
882.631	15154
882.757	15009
882.883	15047
883.01	14937
883.136	14834
883.262	14883
883.388	14887
883.514	14975
883.64	15138
883.766	14891
883.892	14819
884.018	14857
884.143	15001
884.269	15032
884.395	14781
884.52	14678
884.646	14769
884.772	14655
884.897	14617
885.023	14727
885.148	14807
885.274	14864
885.399	14735
885.524	14682
885.65	14781
885.775	14621
885.9	14781
886.025	14853
886.15	14804
886.275	14678
886.4	14621
886.525	14644
886.65	14663
886.775	14708
886.9	14819
887.025	14834
887.149	14682
887.274	14438
887.399	14583
887.523	14469
887.648	14415
887.773	14469
887.897	14610
888.021	14579
888.146	14511
888.27	14590
888.395	14587
888.519	14602
888.643	14587
888.767	14629
888.891	14434
889.015	14339
889.139	14415
889.263	14434
889.387	14583
889.511	14587
889.635	14594
889.759	14351
889.883	14389
890.006	14427
890.13	14473
890.254	14309
890.377	14374
890.501	14294
890.624	14206
890.748	14313
890.871	14001
890.995	14081
891.118	14031
891.241	14058
891.364	14115
891.488	14180
891.611	14081
891.734	14054
891.857	14069
891.98	14161
892.103	14202
892.226	14043
892.349	14103
892.471	13909
892.594	14016
892.717	14134
892.839	14035
892.962	14077
893.085	14183
893.207	14183
893.33	13978
893.452	14119
893.575	14134
893.697	14123
893.819	14233
893.941	14282
894.064	14256
894.186	14043
894.308	14024
894.43	14240
894.552	14290
894.674	14317
894.796	14161
894.918	14138
895.04	14161
895.161	14244
895.283	14225
895.405	14043
895.526	14123
895.648	14123
895.769	14290
895.891	14168
896.012	14328
896.134	14343
896.255	14328
896.376	14286
896.498	14229
896.619	14389
896.74	14191
896.861	14309
896.982	14571
897.103	14811
897.224	14564
897.345	14484
897.466	14457
897.587	14556
897.708	14636
897.828	14644
897.949	14419
898.07	14317
898.19	14514
898.311	14617
898.431	14518
898.552	14579
898.672	14648
898.792	14674
898.913	14640
899.033	14556
899.153	14575
899.273	14278
899.393	14514
899.513	14503
899.633	14511
899.753	14393
899.873	14427
899.993	14568
900.113	14457
900.232	14495
900.352	14473
900.472	14374
900.591	14328
900.711	14374
900.83	14286
900.95	14476
901.069	14419
901.189	14248
901.308	14050
901.427	13982
901.546	14043
901.665	14073
901.784	14119
901.904	13906
902.023	13811
902.141	13609
902.26	13613
902.379	13708
902.498	13601
902.617	13453
902.735	13651
902.854	13616
902.973	13510
903.091	13266
903.21	13350
903.328	13324
903.446	13255
903.565	13129
903.683	13225
903.801	13072
903.919	13194
904.038	13187
904.156	13000
904.274	13008
904.392	13057
904.51	12920
904.627	12989
904.745	13156
904.863	13034
904.981	12745
905.098	12654
905.216	12646
905.334	12719
905.451	12665
905.569	12642
905.686	12745
905.803	12703
905.921	12399
906.038	12502
906.155	12509
906.272	12414
906.389	12372
906.506	12300
906.623	12289
906.74	12300
906.857	12171
906.974	12175
907.091	12399
907.208	12448
907.324	12346
907.441	12175
907.557	12041
907.674	11901
907.79	11980
907.907	11958
908.023	12041
908.139	11988
908.256	11984
908.372	11969
908.488	11904
908.604	11863
908.72	11710
908.836	11756
908.952	11695
909.068	11665
909.184	11836
909.3	11737
909.415	11790
909.531	11767
909.647	11558
909.762	11505
909.878	11551
909.993	11520
910.108	11463
910.224	11478
910.339	11532
910.454	11410
910.57	11307
910.685	11356
910.8	11646
910.915	11600
911.03	11376
911.145	11174
911.259	11174
911.374	11140
911.489	11098
911.604	11136
911.718	10949
911.833	10991
911.947	10873
912.062	10816
912.176	10961
912.291	10946
912.405	10927
912.519	11261
912.633	11212
912.748	11037
912.862	11022
912.976	10831
913.09	10767
913.204	10805
913.318	10828
913.431	10953
913.545	10908
913.659	10953
913.772	10839
913.886	10767
914	10759
914.113	10877
914.226	10793
914.34	10816
914.453	10645
914.566	10801
914.68	10698
914.793	10725
914.906	10485
915.019	10527
915.132	10341
915.245	10459
915.358	10519
915.47	10527
915.583	10592
915.696	10550
915.809	10626
915.921	10599
916.034	10382
916.146	10455
916.259	10314
916.371	10527
916.483	10466
916.595	10386
916.708	10531
916.82	10466
916.932	10379
917.044	10405
917.156	10344
917.268	10268
917.38	10306
917.491	10276
917.603	10284
917.715	10493
917.826	10436
917.938	10333
918.049	10211
918.161	10303
918.272	10398
918.384	10500
918.495	10348
918.606	10169
918.717	10097
918.828	10268
918.939	10227
919.05	10059
919.161	10169
919.272	9968
919.383	10078
919.494	10200
919.604	10379
919.715	10150
919.826	10120
919.936	10177
920.047	10284
920.157	10230
920.267	10459
920.378	10295
920.488	10261
920.598	10481
920.708	10588
920.818	10405
920.928	10363
921.038	10569
921.148	10489
921.258	10268
921.368	10154
921.477	10067
921.587	10040
921.697	9873
921.806	10219
921.916	9899
922.025	9778
922.134	9800
922.244	9751
922.353	9789
922.462	9671
922.571	9572
922.68	9462
922.789	9458
922.898	9462
923.007	9412
923.116	9523
923.224	9443
923.333	9435
923.442	9367
923.55	9294
923.659	9336
923.767	9401
923.876	9355
923.984	9408
924.092	9211
924.201	9332
924.309	9405
924.417	9302
924.525	9226
924.633	9226
924.741	9941
924.849	9127
924.956	9329
925.064	9169
925.172	9028
925.279	9077
925.387	9119
925.494	9135
925.602	9283
925.709	9161
925.816	9036
925.924	9142
926.031	9157
926.138	9142
926.245	9173
926.352	8963
926.459	9169
926.566	9161
926.673	9081
926.779	9017
926.886	9032
926.993	8777
927.099	8887
927.206	8781
927.312	8758
927.419	8842
927.525	8929
927.631	8918
927.737	8838
927.843	8766
927.95	8682
928.056	8750
928.162	8792
928.267	8705
928.373	9450
928.479	8887
928.585	8579
928.69	8663
928.796	8781
928.901	8625
929.007	8526
929.112	8587
929.218	8602
929.323	8583
929.428	8511
929.533	8716
929.638	8530
929.743	8469
929.848	8556
929.953	8556
930.058	8484
930.163	8309
930.267	8294
930.372	8431
930.477	8301
930.581	8564
930.685	8343
930.79	8248
930.894	8271
930.998	8252
931.103	8377
931.207	8035
931.311	8039
931.415	7944
931.519	7757
931.623	7772
