Data from test_V78500241_3182.txt Node
Date: Fri Mar 25 14:55:52 CST 2022
User: usil
Spectrometer: V785-0024
Trigger mode: 0
Integration Time (sec): 4.000000E-1
Scans to average: 1
Nonlinearity correction enabled: false
Boxcar width: 0
Storing dark spectrum: false
XAxis mode: Wavelengths
Number of Pixels in Spectrum: 1024
>>>>>Begin Spectral Data<<<<<
801.071	22105
801.214	21979
801.356	21663
801.499	21557
801.641	21370
801.783	21294
801.926	21298
802.068	21447
802.211	21329
802.353	21066
802.496	20948
802.638	20773
802.78	20872
802.923	20807
803.065	20823
803.208	20594
803.35	20648
803.492	20781
803.635	20804
803.777	20792
803.919	20807
804.061	20937
804.204	20735
804.346	20564
804.488	20457
804.63	20758
804.773	20526
804.915	20750
805.057	20716
805.199	20655
805.341	20712
805.483	20724
805.626	20701
805.768	20636
805.91	20621
806.052	20659
806.194	20461
806.336	20735
806.478	20602
806.62	20594
806.762	20636
806.904	20834
807.046	21005
807.188	21005
807.33	20838
807.472	20899
807.614	20853
807.756	20823
807.898	20678
808.04	20746
808.182	20686
808.324	20716
808.465	20644
808.607	20887
808.749	20845
808.891	21089
809.033	21199
809.174	20929
809.316	20960
809.458	20944
809.6	21017
809.741	21062
809.883	21039
810.025	21165
810.166	21119
810.308	21135
810.45	21119
810.591	20952
810.733	20948
810.875	20758
811.016	20777
811.158	20617
811.299	20906
811.441	20804
811.582	20918
811.724	20712
811.865	20735
812.007	20769
812.148	20758
812.29	20678
812.431	20929
812.573	21070
812.714	20979
812.855	21287
812.997	21386
813.138	21515
813.279	21344
813.421	21260
813.562	21203
813.703	20967
813.845	20883
813.986	20545
814.127	20499
814.268	20320
814.41	20370
814.551	20313
814.692	20294
814.833	20294
814.974	20305
815.115	20298
815.256	20031
815.397	20176
815.539	20054
815.68	20012
815.821	20005
815.962	19993
816.103	20065
816.244	19864
816.385	19727
816.526	19753
816.666	19578
816.807	19453
816.948	19609
817.089	19605
817.23	19434
817.371	19453
817.512	19415
817.653	19384
817.793	19392
817.934	19491
818.075	19457
818.216	19449
818.356	19434
818.497	19217
818.638	19072
818.778	19088
818.919	19095
819.06	19118
819.2	19179
819.341	19247
819.481	19320
819.622	19388
819.762	19586
819.903	19605
820.043	19514
820.184	19438
820.324	19304
820.465	19464
820.605	19362
820.746	19430
820.886	19346
821.026	19419
821.167	19324
821.307	19358
821.447	19411
821.588	19171
821.728	19190
821.868	19004
822.008	18787
822.149	18722
822.289	18863
822.429	18467
822.569	18437
822.709	18464
822.849	18285
822.99	18311
823.13	18247
823.27	18277
823.41	18117
823.55	18022
823.69	18129
823.83	18235
823.97	18011
824.11	17923
824.25	17794
824.389	17863
824.529	17980
824.669	17866
824.809	17885
824.949	17927
825.089	17901
825.228	17870
825.368	17619
825.508	17722
825.648	17600
825.787	17832
825.927	17687
826.067	17619
826.206	17539
826.346	17718
826.485	17623
826.625	17722
826.765	17668
826.904	17722
827.044	17326
827.183	17452
827.323	17326
827.462	17474
827.601	17318
827.741	17258
827.88	17417
828.02	17368
828.159	17273
828.298	17463
828.437	17429
828.577	17299
828.716	17570
828.855	17425
828.994	17185
829.134	17143
829.273	17181
829.412	17105
829.551	17060
829.69	17060
829.829	17079
829.968	17181
830.107	17235
830.246	17178
830.385	17048
830.524	17052
830.663	16831
830.802	16843
830.941	16767
831.08	16672
831.219	16797
831.357	16816
831.496	16896
831.635	16790
831.774	16702
831.913	16664
832.051	16466
832.19	16596
832.329	16512
832.467	16478
832.606	16402
832.744	16474
832.883	16405
833.022	16371
833.16	16462
833.299	16493
833.437	16531
833.576	16481
833.714	16512
833.852	16584
833.991	16462
834.129	16588
834.267	16516
834.406	16489
834.544	16523
834.682	16516
834.821	16481
834.959	16641
835.097	16470
835.235	16573
835.373	16603
835.511	16447
835.65	16360
835.788	16478
835.926	16348
836.064	16219
836.202	16310
836.34	16344
836.478	16417
836.615	16413
836.753	16478
836.891	16504
837.029	16409
837.167	16382
837.305	16352
837.443	16185
837.58	16261
837.718	16295
837.856	16219
837.993	16238
838.131	16238
838.269	16226
838.406	16223
838.544	16181
838.681	16021
838.819	15869
838.956	15823
839.094	15804
839.231	15876
839.369	16017
839.506	16249
839.643	16055
839.781	15861
839.918	15705
840.055	15930
840.193	15812
840.33	15827
840.467	15808
840.604	15759
840.742	16025
840.879	15641
841.016	15698
841.153	15759
841.29	16013
841.427	15838
841.564	15846
841.701	15770
841.838	15720
841.975	15736
842.112	15739
842.249	15641
842.385	15603
842.522	15781
842.659	15633
842.796	15580
842.933	15603
843.069	15553
843.206	15603
843.343	15595
843.479	15603
843.616	15580
843.752	15416
843.889	15386
844.025	15515
844.162	15317
844.298	15466
844.435	15443
844.571	15272
844.708	15359
844.844	15500
844.98	15576
845.117	15580
845.253	15393
845.389	15192
845.525	15359
845.661	15249
845.798	15154
845.934	15230
846.07	15070
846.206	15313
846.342	15268
846.478	15119
846.614	15001
846.75	14883
846.886	14963
847.022	15051
847.158	15051
847.294	14914
847.429	15055
847.565	14906
847.701	15123
847.837	14689
847.972	14655
848.108	14819
848.244	14708
848.379	14621
848.515	14488
848.65	14476
848.786	14522
848.921	14556
849.057	14693
849.192	14579
849.328	14651
849.463	14632
849.598	14503
849.734	14484
849.869	14396
850.004	14419
850.14	14385
850.275	14404
850.41	14309
850.545	14286
850.68	14233
850.815	14305
850.95	14309
851.085	14415
851.22	14362
851.355	14343
851.49	14317
851.625	14309
851.76	14271
851.895	14142
852.03	14202
852.165	14370
852.299	14317
852.434	14385
852.569	14320
852.703	14259
852.838	14355
852.973	14446
853.107	14503
853.242	14256
853.376	14210
853.511	14035
853.645	14065
853.78	14244
853.914	14252
854.048	14244
854.183	14111
854.317	14100
854.451	14332
854.585	14149
854.72	14172
854.854	14328
854.988	14145
855.122	14218
855.256	14058
855.39	14161
855.524	14218
855.658	14244
855.792	14168
855.926	14252
856.06	14214
856.194	14248
856.327	14298
856.461	14130
856.595	14046
856.729	14161
856.862	14259
856.996	14157
857.13	14290
857.263	14298
857.397	14271
857.53	14240
857.664	14298
857.797	14332
857.931	14259
858.064	14355
858.197	14259
858.331	14153
858.464	14100
858.597	14153
858.731	14252
858.864	14256
858.997	14084
859.13	14206
859.263	14206
859.396	14298
859.529	14058
859.662	14153
859.795	14145
859.928	14252
860.061	14381
860.194	14412
860.327	14199
860.46	14145
860.592	14343
860.725	14339
860.858	14259
860.99	14244
861.123	14107
861.256	14130
861.388	14176
861.521	14929
861.653	14054
861.786	13974
861.918	14111
862.05	13993
862.183	14153
862.315	14225
862.447	14271
862.58	14092
862.712	13982
862.844	13906
862.976	14084
863.108	14046
863.24	14294
863.372	13932
863.504	13982
863.636	13959
863.768	14031
863.9	13989
864.032	13955
864.164	13936
864.296	13890
864.428	14172
864.559	14001
864.691	14062
864.823	14157
864.954	14039
865.086	14081
865.217	13974
865.349	13864
865.48	13970
865.612	13951
865.743	14073
865.875	13982
866.006	13772
866.137	13989
866.269	14043
866.4	13982
866.531	13818
866.662	13818
866.793	14035
866.924	13986
867.055	13955
867.186	13974
867.317	13894
867.448	13803
867.579	13849
867.71	13925
867.841	13845
867.972	13955
868.103	13875
868.233	14001
868.364	13978
868.495	14031
868.625	14176
868.756	14199
868.886	14233
869.017	14210
869.147	14324
869.278	14339
869.408	14259
869.539	14199
869.669	14256
869.799	14263
869.929	14324
870.06	14339
870.19	14564
870.32	14480
870.45	14545
870.58	14617
870.71	14674
870.84	14708
870.97	14632
871.1	14613
871.23	14746
871.36	14826
871.489	14727
871.619	14724
871.749	14804
871.879	14823
872.008	14910
872.138	14800
872.267	14701
872.397	14765
872.526	14613
872.656	14636
872.785	14686
872.915	14891
873.044	14914
873.173	14880
873.303	14868
873.432	14910
873.561	14933
873.69	14960
873.819	14811
873.948	14933
874.077	14929
874.206	14800
874.335	14830
874.464	15051
874.593	15157
874.722	15093
874.851	15218
874.979	15226
875.108	15237
875.237	15085
875.365	15058
875.494	15199
875.623	15275
875.751	15093
875.88	15100
876.008	15302
876.136	15443
876.265	15648
876.393	15838
876.521	15709
876.65	15701
876.778	15622
876.906	15599
877.034	15564
877.162	15530
877.29	15424
877.418	15595
877.546	15603
877.674	15553
877.802	15618
877.93	15572
878.058	15507
878.185	15428
878.313	15580
878.441	15644
878.568	15367
878.696	15553
878.824	15652
878.951	15698
879.079	15873
879.206	15854
879.333	15808
879.461	15766
879.588	15770
879.715	15728
879.842	15857
879.97	15717
880.097	15450
880.224	15340
880.351	15481
880.478	15481
880.605	15412
880.732	15389
880.859	15595
880.986	15408
881.112	15408
881.239	15260
881.366	15237
881.493	15142
881.619	15066
881.746	15062
881.872	15097
881.999	15039
882.125	15100
882.252	15173
882.378	15123
882.505	15203
882.631	15058
882.757	14979
882.883	14998
883.01	14891
883.136	14811
883.262	14777
883.388	14800
883.514	14956
883.64	14895
883.766	14826
883.892	14724
884.018	14773
884.143	14842
884.269	14998
884.395	14613
884.52	14579
884.646	14727
884.772	14583
884.897	14518
885.023	14613
885.148	14727
885.274	14796
885.399	14712
885.524	14724
885.65	14667
885.775	14682
885.9	14587
886.025	14777
886.15	14602
886.275	14545
886.4	14571
886.525	14689
886.65	14575
886.775	14514
886.9	14724
887.025	14872
887.149	14507
887.274	14492
887.399	14431
887.523	14450
887.648	14370
887.773	14358
887.897	14522
888.021	14492
888.146	14396
888.27	14598
888.395	14454
888.519	14545
888.643	14499
888.767	14590
888.891	14328
889.015	14210
889.139	14347
889.263	14298
889.387	14385
889.511	14408
889.635	14393
889.759	14301
889.883	14317
890.006	14355
890.13	14412
890.254	14176
890.377	14294
890.501	14065
890.624	14050
890.748	14233
890.871	14054
890.995	14016
891.118	13921
891.241	13997
891.364	14111
891.488	14096
891.611	14024
891.734	13970
891.857	14157
891.98	14199
892.103	14123
892.226	13970
892.349	13947
892.471	13970
892.594	14035
892.717	14027
892.839	13970
892.962	13986
893.085	14130
893.207	14016
893.33	13932
893.452	13887
893.575	14020
893.697	13944
893.819	14191
893.941	14180
894.064	14134
894.186	14001
894.308	14043
894.43	14138
894.552	14157
894.674	14126
894.796	14001
894.918	14027
895.04	14229
895.161	14180
895.283	14202
895.405	14046
895.526	14077
895.648	14115
895.769	14149
895.891	14176
896.012	14229
896.134	14225
896.255	14237
896.376	14126
896.498	14199
896.619	14256
896.74	14149
896.861	14233
896.982	14514
897.103	14636
897.224	14442
897.345	14419
897.466	14339
897.587	14495
897.708	14606
897.828	14610
897.949	14431
898.07	14396
898.19	14446
898.311	14556
898.431	14423
898.552	14549
898.672	14587
898.792	14575
898.913	14511
899.033	14480
899.153	14400
899.273	14320
899.393	14320
899.513	14381
899.633	14377
899.753	14419
899.873	14358
899.993	14450
900.113	14370
900.232	14415
900.352	14324
900.472	14320
900.591	14195
900.711	14225
900.83	14278
900.95	14275
901.069	14457
901.189	14172
901.308	13936
901.427	13997
901.546	13917
901.665	13883
901.784	13864
901.904	13731
902.023	13795
902.141	13597
902.26	13472
902.379	13521
902.498	13464
902.617	13445
902.735	13468
902.854	13533
902.973	13358
903.091	13266
903.21	13259
903.328	13217
903.446	13114
903.565	13065
903.683	13053
903.801	12973
903.919	13023
904.038	12958
904.156	12909
904.274	12962
904.392	12913
904.51	12852
904.627	12825
904.745	12962
904.863	12894
904.981	12772
905.098	12631
905.216	12650
905.334	12547
905.451	12540
905.569	12540
905.686	12566
905.803	12563
905.921	12372
906.038	12540
906.155	12410
906.272	12311
906.389	12350
906.506	12224
906.623	12152
906.74	12171
906.857	11999
906.974	12060
907.091	12220
907.208	12296
907.324	12182
907.441	12057
907.557	11965
907.674	11904
907.79	11851
907.907	11946
908.023	11847
908.139	11935
908.256	11904
908.372	11855
908.488	11824
908.604	11779
908.72	11737
908.836	11646
908.952	11619
909.068	11752
909.184	11733
909.3	11710
909.415	11741
909.531	11672
909.647	11425
909.762	11543
909.878	11440
909.993	11524
910.108	11482
910.224	11360
910.339	11490
910.454	11376
910.57	11337
910.685	11242
910.8	11471
910.915	11459
911.03	11364
911.145	11185
911.259	11166
911.374	11140
911.489	11090
911.604	11022
911.718	10873
911.833	10934
911.947	10694
912.062	10740
912.176	10915
912.291	10866
912.405	10915
912.519	11105
912.633	11098
912.748	10972
912.862	10930
912.976	10820
913.09	10694
913.204	10702
913.318	10801
913.431	10828
913.545	10900
913.659	10949
913.772	10862
913.886	10649
914	10706
914.113	10809
914.226	10831
914.34	10774
914.453	10603
914.566	10752
914.68	10573
914.793	10630
914.906	10447
915.019	10432
915.132	10337
915.245	10417
915.358	10474
915.47	10424
915.583	10474
915.696	10428
915.809	10561
915.921	10618
916.034	10428
916.146	10386
916.259	10360
916.371	10565
916.483	10432
916.595	10360
916.708	10322
916.82	10337
916.932	10303
917.044	10306
917.156	10371
917.268	10249
917.38	10223
917.491	10261
917.603	10314
917.715	10310
917.826	10291
917.938	10200
918.049	10139
918.161	10329
918.272	10386
918.384	10394
918.495	10276
918.606	10139
918.717	10063
918.828	10154
918.939	10169
919.05	10101
919.161	10105
919.272	9937
919.383	10002
919.494	10196
919.604	10413
919.715	10173
919.826	10109
919.936	10181
920.047	10200
920.157	10192
920.267	10371
920.378	10112
920.488	10204
920.598	10382
920.708	10493
920.818	10360
920.928	10363
921.038	10512
921.148	10577
921.258	10185
921.368	10120
921.477	10067
921.587	10086
921.697	9953
921.806	10063
921.916	9850
922.025	9762
922.134	9812
922.244	9660
922.353	9732
922.462	9599
922.571	9523
922.68	9443
922.789	9462
922.898	9435
923.007	9313
923.116	9488
923.224	9344
923.333	9363
923.442	9260
923.55	9310
923.659	9302
923.767	9340
923.876	9226
923.984	9310
924.092	9226
924.201	9241
924.309	9214
924.417	9283
924.525	9154
924.633	9112
924.741	10128
924.849	9123
924.956	9192
925.064	9097
925.172	8998
925.279	9001
925.387	9123
925.494	9097
925.602	9188
925.709	9188
925.816	9066
925.924	9070
926.031	9142
926.138	9100
926.245	9184
926.352	8998
926.459	9062
926.566	9173
926.673	9047
926.779	9001
926.886	8921
926.993	8826
927.099	8800
927.206	8701
927.312	8750
927.419	8853
927.525	8727
927.631	8864
927.737	8735
927.843	8720
927.95	8514
928.056	8727
928.162	8655
928.267	8716
928.373	9279
928.479	8792
928.585	8552
928.69	8724
928.796	8735
928.901	8602
929.007	8488
929.112	8625
929.218	8549
929.323	8488
929.428	8438
929.533	8613
929.638	8434
929.743	8488
929.848	8579
929.953	8476
930.058	8457
930.163	8252
930.267	8324
930.372	8415
930.477	8279
930.581	8499
930.685	8324
930.79	8199
930.894	8263
930.998	8130
931.103	8313
931.207	8024
931.311	7909
931.415	7769
931.519	7799
931.623	7757
