Data from test_V78500241_2587.txt Node
Date: Fri Mar 25 14:51:43 CST 2022
User: usil
Spectrometer: V785-0024
Trigger mode: 0
Integration Time (sec): 4.000000E-1
Scans to average: 1
Nonlinearity correction enabled: false
Boxcar width: 0
Storing dark spectrum: false
XAxis mode: Wavelengths
Number of Pixels in Spectrum: 1024
>>>>>Begin Spectral Data<<<<<
801.071	22070
801.214	21949
801.356	21682
801.499	21622
801.641	21462
801.783	21367
801.926	21511
802.068	21348
802.211	21272
802.353	21180
802.496	21062
802.638	20906
802.78	20910
802.923	20735
803.065	20792
803.208	20537
803.35	20781
803.492	20674
803.635	20902
803.777	20659
803.919	20712
804.061	21009
804.204	20838
804.346	20670
804.488	20533
804.63	20720
804.773	20526
804.915	20636
805.057	20800
805.199	20625
805.341	20743
805.483	20746
805.626	20697
805.768	20609
805.91	20648
806.052	20705
806.194	20602
806.336	20830
806.478	20579
806.62	20621
806.762	20674
806.904	20838
807.046	20982
807.188	20925
807.33	20925
807.472	20971
807.614	20895
807.756	20853
807.898	20682
808.04	20632
808.182	20583
808.324	20659
808.465	20727
808.607	20899
808.749	20948
808.891	21096
809.033	21131
809.174	21058
809.316	21009
809.458	20925
809.6	20967
809.741	21051
809.883	21005
810.025	21135
810.166	21093
810.308	21203
810.45	21096
810.591	20967
810.733	20941
810.875	20895
811.016	20579
811.158	20735
811.299	20834
811.441	20899
811.582	20914
811.724	20773
811.865	20636
812.007	20758
812.148	20773
812.29	20746
812.431	20910
812.573	21116
812.714	21020
812.855	21329
812.997	21264
813.138	21428
813.279	21393
813.421	21222
813.562	21211
813.703	20921
813.845	20845
813.986	20617
814.127	20488
814.268	20465
814.41	20389
814.551	20301
814.692	20263
814.833	20343
814.974	20233
815.115	20263
815.256	20088
815.397	20187
815.539	20214
815.68	20069
815.821	20043
815.962	20001
816.103	20024
816.244	19913
816.385	19734
816.526	19803
816.666	19696
816.807	19476
816.948	19434
817.089	19635
817.23	19464
817.371	19567
817.512	19411
817.653	19422
817.793	19381
817.934	19388
818.075	19476
818.216	19529
818.356	19422
818.497	19327
818.638	19023
818.778	19076
818.919	19088
819.06	19183
819.2	19171
819.341	19228
819.481	19343
819.622	19384
819.762	19582
819.903	19548
820.043	19533
820.184	19434
820.324	19358
820.465	19472
820.605	19373
820.746	19354
820.886	19365
821.026	19308
821.167	19301
821.307	19514
821.447	19483
821.588	19171
821.728	19137
821.868	18981
822.008	18924
822.149	18760
822.289	18783
822.429	18604
822.569	18471
822.709	18547
822.849	18228
822.99	18353
823.13	18353
823.27	18281
823.41	17984
823.55	18045
823.69	18159
823.83	18224
823.97	18186
824.11	17958
824.25	17843
824.389	17866
824.529	17859
824.669	17908
824.809	17923
824.949	17969
825.089	17912
825.228	17786
825.368	17665
825.508	17642
825.648	17714
825.787	17661
825.927	17695
826.067	17665
826.206	17638
826.346	17687
826.485	17642
826.625	17619
826.765	17882
826.904	17707
827.044	17524
827.183	17360
827.323	17318
827.462	17414
827.601	17383
827.741	17395
827.88	17414
828.02	17193
828.159	17356
828.298	17299
828.437	17482
828.577	17296
828.716	17482
828.855	17277
828.994	17181
829.134	17189
829.273	17170
829.412	17094
829.551	17140
829.69	17090
829.829	17124
829.968	17273
830.107	17166
830.246	17109
830.385	17064
830.524	16942
830.663	16877
830.802	16820
830.941	16759
831.08	16698
831.219	16862
831.357	16839
831.496	16953
831.635	16698
831.774	16645
831.913	16656
832.051	16489
832.19	16542
832.329	16535
832.467	16485
832.606	16459
832.744	16485
832.883	16455
833.022	16417
833.16	16493
833.299	16516
833.437	16466
833.576	16481
833.714	16474
833.852	16573
833.991	16588
834.129	16516
834.267	16527
834.406	16531
834.544	16542
834.682	16516
834.821	16599
834.959	16687
835.097	16554
835.235	16592
835.373	16569
835.511	16478
835.65	16508
835.788	16432
835.926	16177
836.064	16211
836.202	16207
836.34	16474
836.478	16580
836.615	16402
836.753	16489
836.891	16462
837.029	16424
837.167	16375
837.305	16329
837.443	16276
837.58	16280
837.718	16272
837.856	16382
837.993	16166
838.131	16382
838.269	16200
838.406	16242
838.544	16211
838.681	15991
838.819	16029
838.956	15861
839.094	15812
839.231	15892
839.369	15884
839.506	16200
839.643	16067
839.781	15873
839.918	15895
840.055	15956
840.193	15797
840.33	15846
840.467	15789
840.604	15838
840.742	16021
840.879	15717
841.016	15774
841.153	15789
841.29	15994
841.427	15884
841.564	15857
841.701	15911
841.838	15808
841.975	15694
842.112	15766
842.249	15770
842.385	15549
842.522	15812
842.659	15698
842.796	15663
842.933	15637
843.069	15679
843.206	15595
843.343	15656
843.479	15682
843.616	15633
843.752	15458
843.889	15462
844.025	15564
844.162	15374
844.298	15469
844.435	15428
844.571	15344
844.708	15500
844.844	15557
844.98	15545
845.117	15595
845.253	15424
845.389	15363
845.525	15310
845.661	15176
845.798	15180
845.934	15287
846.07	15131
846.206	15306
846.342	15226
846.478	15142
846.614	15017
846.75	14929
846.886	14979
847.022	15074
847.158	15097
847.294	15028
847.429	14979
847.565	14979
847.701	15241
847.837	14735
847.972	14636
848.108	14819
848.244	14697
848.379	14602
848.515	14602
848.65	14564
848.786	14625
848.921	14651
849.057	14659
849.192	14705
849.328	14648
849.463	14587
849.598	14590
849.734	14492
849.869	14400
850.004	14347
850.14	14408
850.275	14305
850.41	14225
850.545	14286
850.68	14355
850.815	14358
850.95	14313
851.085	14545
851.22	14415
851.355	14229
851.49	14355
851.625	14336
851.76	14271
851.895	14218
852.03	14210
852.165	14332
852.299	14339
852.434	14480
852.569	14374
852.703	14351
852.838	14427
852.973	14469
853.107	14423
853.242	14263
853.376	14313
853.511	14153
853.645	14180
853.78	14374
853.914	14256
854.048	14214
854.183	14309
854.317	14214
854.451	14385
854.585	14259
854.72	14142
854.854	14267
854.988	14153
855.122	14256
855.256	14081
855.39	14202
855.524	14317
855.658	14263
855.792	14294
855.926	14180
856.06	14233
856.194	14290
856.327	14210
856.461	14111
856.595	14206
856.729	14210
856.862	14252
856.996	14313
857.13	14267
857.263	14294
857.397	14282
857.53	14153
857.664	14320
857.797	14309
857.931	14332
858.064	14263
858.197	14324
858.331	14252
858.464	14275
858.597	14123
858.731	14259
858.864	14202
858.997	14176
859.13	14324
859.263	14244
859.396	14263
859.529	14202
859.662	14240
859.795	14164
859.928	14206
860.061	14362
860.194	14419
860.327	14301
860.46	14176
860.592	14278
860.725	14393
860.858	14309
860.99	14153
861.123	14210
861.256	14111
861.388	14138
861.521	14834
861.653	14103
861.786	14107
861.918	14081
862.05	14221
862.183	14237
862.315	14202
862.447	14202
862.58	14130
862.712	13967
862.844	13928
862.976	14123
863.108	14123
863.24	14461
863.372	13894
863.504	13921
863.636	14035
863.768	14092
863.9	14027
864.032	14005
864.164	13959
864.296	14046
864.428	14088
864.559	14096
864.691	14111
864.823	14073
864.954	14008
865.086	14123
865.217	14119
865.349	13947
865.48	13974
865.612	14058
865.743	14153
865.875	14031
866.006	13959
866.137	13967
866.269	14031
866.4	13909
866.531	13970
866.662	13978
866.793	14005
866.924	13909
867.055	14046
867.186	13993
867.317	13986
867.448	13837
867.579	13951
867.71	13936
867.841	13967
867.972	14031
868.103	13947
868.233	13993
868.364	13936
868.495	14092
868.625	14218
868.756	14332
868.886	14161
869.017	14153
869.147	14324
869.278	14206
869.408	14240
869.539	14187
869.669	14374
869.799	14408
869.929	14370
870.06	14419
870.19	14552
870.32	14446
870.45	14571
870.58	14636
870.71	14727
870.84	14754
870.97	14670
871.1	14579
871.23	14853
871.36	14823
871.489	14792
871.619	14864
871.749	14773
871.879	14883
872.008	15024
872.138	14777
872.267	14796
872.397	14788
872.526	14754
872.656	14644
872.785	14804
872.915	14777
873.044	14967
873.173	14967
873.303	14887
873.432	14960
873.561	15013
873.69	14937
873.819	14830
873.948	14952
874.077	14975
874.206	14910
874.335	14956
874.464	15020
874.593	15180
874.722	15192
874.851	15222
874.979	15226
875.108	15218
875.237	15146
875.365	15142
875.494	15275
875.623	15336
875.751	15173
875.88	15283
876.008	15245
876.136	15511
876.265	15633
876.393	15797
876.521	15842
876.65	15698
876.778	15728
876.906	15629
877.034	15458
877.162	15629
877.29	15694
877.418	15564
877.546	15614
877.674	15595
877.802	15603
877.93	15545
878.058	15625
878.185	15473
878.313	15485
878.441	15610
878.568	15542
878.696	15447
878.824	15629
878.951	15667
879.079	15873
879.206	15945
879.333	15751
879.461	15675
879.588	15698
879.715	15793
879.842	15930
879.97	15694
880.097	15507
880.224	15450
880.351	15530
880.478	15435
880.605	15496
880.732	15557
880.859	15622
880.986	15492
881.112	15439
881.239	15336
881.366	15237
881.493	15157
881.619	15211
881.746	15119
881.872	15104
881.999	15150
882.125	15100
882.252	15127
882.378	15055
882.505	15348
882.631	15024
882.757	14952
882.883	14944
883.01	15024
883.136	14941
883.262	14773
883.388	14667
883.514	14979
883.64	14971
883.766	14986
883.892	14823
884.018	14804
884.143	14788
884.269	15032
884.395	14663
884.52	14602
884.646	14629
884.772	14590
884.897	14602
885.023	14689
885.148	14720
885.274	14785
885.399	14777
885.524	14648
885.65	14655
885.775	14655
885.9	14533
886.025	14830
886.15	14777
886.275	14613
886.4	14617
886.525	14602
886.65	14488
886.775	14507
886.9	14777
887.025	14815
887.149	14655
887.274	14503
887.399	14351
887.523	14385
887.648	14412
887.773	14385
887.897	14564
888.021	14587
888.146	14503
888.27	14461
888.395	14594
888.519	14495
888.643	14514
888.767	14610
888.891	14454
889.015	14389
889.139	14412
889.263	14328
889.387	14465
889.511	14590
889.635	14396
889.759	14332
889.883	14206
890.006	14396
890.13	14511
890.254	14351
890.377	14282
890.501	14210
890.624	14134
890.748	14202
890.871	14176
890.995	14012
891.118	14039
891.241	14031
891.364	13989
891.488	14195
891.611	14043
891.734	14126
891.857	14031
891.98	13974
892.103	14161
892.226	14126
892.349	14008
892.471	13989
892.594	13951
892.717	14187
892.839	13936
892.962	14027
893.085	14107
893.207	14096
893.33	13947
893.452	13906
893.575	14088
893.697	14130
893.819	14233
893.941	14248
894.064	14180
894.186	14039
894.308	14119
894.43	14119
894.552	14339
894.674	14248
894.796	14050
894.918	14115
895.04	14043
895.161	14176
895.283	14123
895.405	14088
895.526	14123
895.648	14195
895.769	14252
895.891	14267
896.012	14294
896.134	14191
896.255	14271
896.376	14202
896.498	14187
896.619	14339
896.74	14286
896.861	14298
896.982	14476
897.103	14697
897.224	14575
897.345	14530
897.466	14438
897.587	14511
897.708	14632
897.828	14465
897.949	14450
898.07	14446
898.19	14454
898.311	14552
898.431	14499
898.552	14476
898.672	14743
898.792	14689
898.913	14526
899.033	14560
899.153	14446
899.273	14362
899.393	14355
899.513	14461
899.633	14427
899.753	14358
899.873	14450
899.993	14507
900.113	14381
900.232	14446
900.352	14423
900.472	14374
900.591	14294
900.711	14244
900.83	14195
900.95	14313
901.069	14480
901.189	14252
901.308	13936
901.427	13936
901.546	14024
901.665	14046
901.784	13967
901.904	13807
902.023	13765
902.141	13559
902.26	13468
902.379	13582
902.498	13609
902.617	13377
902.735	13556
902.854	13548
902.973	13552
903.091	13255
903.21	13301
903.328	13232
903.446	13149
903.565	13099
903.683	13171
903.801	13114
903.919	13095
904.038	13107
904.156	12821
904.274	12973
904.392	12947
904.51	12928
904.627	12901
904.745	12958
904.863	12943
904.981	12760
905.098	12635
905.216	12597
905.334	12513
905.451	12681
905.569	12631
905.686	12684
905.803	12688
905.921	12414
906.038	12471
906.155	12555
906.272	12365
906.389	12410
906.506	12277
906.623	12163
906.74	12159
906.857	12079
906.974	12148
907.091	12334
907.208	12270
907.324	12216
907.441	12095
907.557	11946
907.674	11882
907.79	11878
907.907	11908
908.023	11942
908.139	11984
908.256	12007
908.372	11874
908.488	11878
908.604	11737
908.72	11653
908.836	11866
908.952	11748
909.068	11783
909.184	11847
909.3	11764
909.415	11703
909.531	11726
909.647	11452
909.762	11497
909.878	11459
909.993	11573
910.108	11452
910.224	11417
910.339	11490
910.454	11459
910.57	11353
910.685	11292
910.8	11570
910.915	11444
911.03	11387
911.145	11280
911.259	11216
911.374	11208
911.489	11083
911.604	11029
911.718	10889
911.833	10965
911.947	10786
912.062	10740
912.176	10866
912.291	10968
912.405	10999
912.519	11136
912.633	11143
912.748	11083
912.862	10953
912.976	10839
913.09	10721
913.204	10725
913.318	10771
913.431	10908
913.545	10938
913.659	10911
913.772	10843
913.886	10664
914	10660
914.113	10759
914.226	10767
914.34	10881
914.453	10599
914.566	10778
914.68	10698
914.793	10698
914.906	10508
915.019	10405
915.132	10344
915.245	10440
915.358	10508
915.47	10485
915.583	10447
915.696	10489
915.809	10542
915.921	10527
916.034	10474
916.146	10329
916.259	10386
916.371	10481
916.483	10504
916.595	10398
916.708	10402
916.82	10390
916.932	10352
917.044	10325
917.156	10337
917.268	10276
917.38	10344
917.491	10188
917.603	10348
917.715	10386
917.826	10386
917.938	10166
918.049	10128
918.161	10295
918.272	10409
918.384	10310
918.495	10314
918.606	10215
918.717	10040
918.828	10215
918.939	10181
919.05	10032
919.161	10166
919.272	9907
919.383	10017
919.494	10257
919.604	10421
919.715	10211
919.826	10135
919.936	10192
920.047	10204
920.157	10139
920.267	10379
920.378	10211
920.488	10158
920.598	10459
920.708	10508
920.818	10371
920.928	10356
921.038	10546
921.148	10554
921.258	10139
921.368	10131
921.477	10101
921.587	10036
921.697	9937
921.806	10002
921.916	9888
922.025	9766
922.134	9736
922.244	9644
922.353	9778
922.462	9591
922.571	9557
922.68	9435
922.789	9389
922.898	9477
923.007	9351
923.116	9481
923.224	9462
923.333	9469
923.442	9302
923.55	9291
923.659	9302
923.767	9382
923.876	9298
923.984	9306
924.092	9249
924.201	9302
924.309	9275
924.417	9351
924.525	9256
924.633	9302
924.741	9991
924.849	9104
924.956	9245
925.064	9097
925.172	8990
925.279	9051
925.387	9093
925.494	9119
925.602	9245
925.709	9138
925.816	8994
925.924	9157
926.031	9138
926.138	9116
926.245	9188
926.352	8948
926.459	9184
926.566	9169
926.673	9028
926.779	9001
926.886	8952
926.993	8876
927.099	8811
927.206	8724
927.312	8766
927.419	8891
927.525	8834
927.631	8857
927.737	8697
927.843	8667
927.95	8598
928.056	8659
928.162	8746
928.267	8773
928.373	9408
928.479	8773
928.585	8518
928.69	8659
928.796	8727
928.901	8644
929.007	8488
929.112	8636
929.218	8594
929.323	8556
929.428	8549
929.533	8773
929.638	8484
929.743	8514
929.848	8606
929.953	8469
930.058	8423
930.163	8298
930.267	8317
930.372	8408
930.477	8317
930.581	8522
930.685	8412
930.79	8240
930.894	8317
930.998	8294
931.103	8351
931.207	8039
931.311	7982
931.415	7936
931.519	7765
931.623	7864
