Data from test_V78500241_729.txt Node
Date: Fri Mar 25 14:38:47 CST 2022
User: usil
Spectrometer: V785-0024
Trigger mode: 0
Integration Time (sec): 4.000000E-1
Scans to average: 1
Nonlinearity correction enabled: false
Boxcar width: 0
Storing dark spectrum: false
XAxis mode: Wavelengths
Number of Pixels in Spectrum: 1024
>>>>>Begin Spectral Data<<<<<
801.071	27599
801.214	27466
801.356	27188
801.499	27058
801.641	26925
801.783	26861
801.926	26910
802.068	26712
802.211	26587
802.353	26556
802.496	26366
802.638	26453
802.78	26336
802.923	26419
803.065	26267
803.208	26286
803.35	26427
803.492	26404
803.635	26389
803.777	26377
803.919	26457
804.061	26769
804.204	26495
804.346	26465
804.488	26571
804.63	26625
804.773	26587
804.915	26689
805.057	26960
805.199	26796
805.341	26868
805.483	26933
805.626	27138
805.768	27062
805.91	27275
806.052	27458
806.194	27389
806.336	27960
806.478	27983
806.62	28006
806.762	28341
806.904	28782
807.046	29444
807.188	29490
807.33	30053
807.472	30631
807.614	31255
807.756	32256
807.898	33268
808.04	34984
808.182	37080
808.324	39861
808.465	42977
808.607	46360
808.749	49445
808.891	51146
809.033	51504
809.174	49643
809.316	46649
809.458	43217
809.6	39481
809.741	36738
809.883	34417
810.025	33017
810.166	31753
810.308	31050
810.45	30266
810.591	29623
810.733	29052
810.875	28618
811.016	28421
811.158	28192
811.299	28090
811.441	28204
811.582	27922
811.724	27622
811.865	27393
812.007	27488
812.148	27298
812.29	27256
812.431	27329
812.573	27412
812.714	27405
812.855	27580
812.997	27534
813.138	27542
813.279	27530
813.421	27382
813.562	27062
813.703	27036
813.845	26895
813.986	26522
814.127	26313
814.268	26145
814.41	26153
814.551	26172
814.692	26142
814.833	26092
814.974	26065
815.115	25997
815.256	25818
815.397	25750
815.539	25712
815.68	25662
815.821	25533
815.962	25616
816.103	25575
816.244	25396
816.385	25384
816.526	25190
816.666	25069
816.807	24856
816.948	25076
817.089	24951
817.23	25000
817.371	24943
817.512	24734
817.653	24840
817.793	24722
817.934	24852
818.075	24749
818.216	24749
818.356	24639
818.497	24601
818.638	24517
818.778	24452
818.919	24589
819.06	24551
819.2	24627
819.341	24726
819.481	24715
819.622	24779
819.762	25099
819.903	24939
820.043	24867
820.184	24642
820.324	24688
820.465	24757
820.605	24677
820.746	24582
820.886	24429
821.026	24521
821.167	24456
821.307	24635
821.447	24525
821.588	24319
821.728	24350
821.868	24038
822.008	23851
822.149	23847
822.289	23779
822.429	23634
822.569	23562
822.709	23672
822.849	23356
822.99	23265
823.13	23227
823.27	23406
823.41	23250
823.55	22984
823.69	22987
823.83	23178
823.97	23079
824.11	22987
824.25	22786
824.389	22786
824.529	23033
824.669	22927
824.809	22980
824.949	22934
825.089	22972
825.228	22801
825.368	22668
825.508	22721
825.648	22683
825.787	22679
825.927	22782
826.067	22675
826.206	22702
826.346	22725
826.485	22721
826.625	22607
826.765	22759
826.904	22782
827.044	22402
827.183	22382
827.323	22322
827.462	22394
827.601	22207
827.741	22306
827.88	22310
828.02	22173
828.159	22295
828.298	22284
828.437	22386
828.577	22128
828.716	22268
828.855	22147
828.994	22010
829.134	21972
829.273	21991
829.412	21892
829.551	21934
829.69	21968
829.829	21857
829.968	22032
830.107	22078
830.246	22017
830.385	21960
830.524	21838
830.663	21816
830.802	21682
830.941	21530
831.08	21587
831.219	21549
831.357	21637
831.496	21717
831.635	21557
831.774	21473
831.913	21458
832.051	21530
832.19	21447
832.329	21469
832.467	21454
832.606	21431
832.744	21351
832.883	21599
833.022	21561
833.16	21675
833.299	21705
833.437	21907
833.576	22257
833.714	22188
833.852	22375
833.991	22493
834.129	22622
834.267	22721
834.406	22557
834.544	22592
834.682	22405
834.821	22097
834.959	22219
835.097	22010
835.235	21911
835.373	21793
835.511	21542
835.65	21424
835.788	21435
835.926	21214
836.064	21066
836.202	21100
836.34	21237
836.478	21275
836.615	21272
836.753	21218
836.891	21096
837.029	21180
837.167	20982
837.305	20967
837.443	20967
837.58	20788
837.718	21001
837.856	20906
837.993	20842
838.131	20902
838.269	20716
838.406	20899
838.544	20731
838.681	20560
838.819	20587
838.956	20324
839.094	20347
839.231	20476
839.369	20533
839.506	20788
839.643	20606
839.781	20366
839.918	20225
840.055	20305
840.193	20328
840.33	20370
840.467	20328
840.604	20298
840.742	20476
840.879	20218
841.016	20256
841.153	20157
841.29	20461
841.427	20309
841.564	20427
841.701	20412
841.838	20298
841.975	20119
842.112	20233
842.249	20187
842.385	20183
842.522	20233
842.659	20202
842.796	20035
842.933	20157
843.069	20092
843.206	20172
843.343	20324
843.479	20191
843.616	20313
843.752	20103
843.889	20161
844.025	20290
844.162	20191
844.298	20484
844.435	20663
844.571	20853
844.708	21024
844.844	21580
844.98	22051
845.117	22653
845.253	23611
845.389	25597
845.525	29372
845.661	35642
845.798	42661
845.934	48018
846.07	49761
846.206	48209
846.342	43225
846.478	36304
846.614	30205
846.75	25989
846.886	23779
847.022	22402
847.158	21389
847.294	20845
847.429	20609
847.565	20183
847.701	20256
847.837	19757
847.972	19578
848.108	19578
848.244	19506
848.379	19324
848.515	19156
848.65	19091
848.786	19122
848.921	19099
849.057	19308
849.192	19164
849.328	19122
849.463	19099
849.598	18981
849.734	18844
849.869	18787
850.004	18806
850.14	18696
850.275	18772
850.41	18642
850.545	18783
850.68	18715
850.815	18726
850.95	18700
851.085	18882
851.22	18753
851.355	18738
851.49	18753
851.625	18715
851.76	18726
851.895	18639
852.03	18627
852.165	18768
852.299	18669
852.434	18795
852.569	18852
852.703	18802
852.838	18909
852.973	18924
853.107	18996
853.242	18738
853.376	18817
853.511	18631
853.645	18859
853.78	18970
853.914	19031
854.048	18768
854.183	18833
854.317	19023
854.451	19126
854.585	18901
854.72	18935
854.854	18996
854.988	18768
855.122	18890
855.256	18757
855.39	18635
855.524	18760
855.658	18810
855.792	18768
855.926	18604
856.06	18692
856.194	18738
856.327	18582
856.461	18658
856.595	18544
856.729	18544
856.862	18623
856.996	18551
857.13	18719
857.263	18688
857.397	18593
857.53	18540
857.664	18479
857.797	18494
857.931	18574
858.064	18547
858.197	18570
858.331	18498
858.464	18334
858.597	18365
858.731	18452
858.864	18391
858.997	18380
859.13	18407
859.263	18403
859.396	18414
859.529	18437
859.662	18357
859.795	18285
859.928	18384
860.061	18506
860.194	18555
860.327	18346
860.46	18277
860.592	18445
860.725	18506
860.858	18536
860.99	18308
861.123	18311
861.256	18167
861.388	18346
861.521	19000
861.653	18182
861.786	18114
861.918	18273
862.05	18178
862.183	18338
862.315	18254
862.447	18323
862.58	18327
862.712	17992
862.844	18011
862.976	18125
863.108	18163
863.24	18445
863.372	17927
863.504	17950
863.636	18038
863.768	18076
863.9	18053
864.032	18049
864.164	17984
864.296	17996
864.428	18171
864.559	18083
864.691	18087
864.823	18015
864.954	18019
865.086	17961
865.217	17916
865.349	17828
865.48	17889
865.612	18038
865.743	17973
865.875	17863
866.006	17958
866.137	17969
866.269	17954
866.4	17889
866.531	17855
866.662	17923
866.793	17866
866.924	17840
867.055	17920
867.186	17893
867.317	17874
867.448	17805
867.579	17726
867.71	17885
867.841	17790
867.972	17843
868.103	17882
868.233	17901
868.364	17923
868.495	17965
868.625	18163
868.756	18216
868.886	18098
869.017	18144
869.147	18262
869.278	18353
869.408	18254
869.539	18186
869.669	18277
869.799	18068
869.929	18311
870.06	18403
870.19	18426
870.32	18506
870.45	18525
870.58	18635
870.71	18658
870.84	18764
870.97	18551
871.1	18563
871.23	18837
871.36	18844
871.489	18810
871.619	18882
871.749	18875
871.879	18894
872.008	19012
872.138	18783
872.267	18947
872.397	18779
872.526	18848
872.656	18886
872.785	18943
872.915	18993
873.044	19072
873.173	19118
873.303	19072
873.432	19251
873.561	19308
873.69	19240
873.819	19145
873.948	19335
874.077	19339
874.206	19103
874.335	19274
874.464	19403
874.593	19537
874.722	19556
874.851	19746
874.979	19715
875.108	19883
875.237	19791
875.365	19639
875.494	19761
875.623	19909
875.751	19875
875.88	19944
876.008	20069
876.136	20214
876.265	20423
876.393	20678
876.521	20659
876.65	20716
876.778	20746
876.906	20746
877.034	20758
877.162	20990
877.29	21028
877.418	21119
877.546	21123
877.674	21241
877.802	21412
877.93	21519
878.058	21652
878.185	21770
878.313	22253
878.441	22554
878.568	22816
878.696	23562
878.824	24334
878.951	25620
879.079	27119
879.206	29330
879.333	31552
879.461	33317
879.588	34421
879.715	34409
879.842	33644
879.97	31460
880.097	29288
880.224	27603
880.351	26336
880.478	25449
880.605	24768
880.732	24509
880.859	24323
880.986	23973
881.112	23798
881.239	23634
881.366	23684
881.493	23478
881.619	23478
881.746	23570
881.872	23531
881.999	23566
882.125	23600
882.252	23691
882.378	23790
882.505	23817
882.631	23478
882.757	23444
882.883	23592
883.01	23539
883.136	23417
883.262	23284
883.388	23341
883.514	23493
883.64	23585
883.766	23410
883.892	23185
884.018	23273
884.143	23433
884.269	23467
884.395	23174
884.52	23162
884.646	23086
884.772	23102
884.897	23041
885.023	23193
885.148	23254
885.274	23254
885.399	23090
885.524	22949
885.65	22885
885.775	22771
885.9	22618
886.025	22428
886.15	22360
886.275	22124
886.4	21835
886.525	21759
886.65	21663
886.775	21466
886.9	21583
887.025	21538
887.149	21226
887.274	21051
887.399	20891
887.523	20804
887.648	20613
887.773	20469
887.897	20545
888.021	20469
888.146	20328
888.27	20442
888.395	20442
888.519	20180
888.643	20161
888.767	20199
888.891	19982
889.015	19833
889.139	19826
889.263	19693
889.387	19830
889.511	19940
889.635	19799
889.759	19708
889.883	19609
890.006	19586
890.13	19609
890.254	19365
890.377	19358
890.501	19221
890.624	19114
890.748	19168
890.871	18958
890.995	18859
891.118	18882
891.241	18776
891.364	18806
891.488	18863
891.611	18871
891.734	18844
891.857	18757
891.98	18738
892.103	18707
892.226	18741
892.349	18509
892.471	18486
892.594	18597
892.717	18544
892.839	18460
892.962	18517
893.085	18410
893.207	18433
893.33	18334
893.452	18395
893.575	18403
893.697	18285
893.819	18410
893.941	18384
894.064	18311
894.186	18178
894.308	18087
894.43	18129
894.552	18285
894.674	18232
894.796	18003
894.918	17999
895.04	18076
895.161	18015
895.283	18030
895.405	17912
895.526	18049
895.648	18091
895.769	17954
895.891	17984
896.012	18098
896.134	18049
896.255	17931
896.376	17851
896.498	17863
896.619	18045
896.74	17927
896.861	18038
896.982	18224
897.103	18334
897.224	18117
897.345	18209
897.466	17882
897.587	18102
897.708	18254
897.828	18106
897.949	18015
898.07	17843
898.19	18053
898.311	18178
898.431	18041
898.552	18106
898.672	18148
898.792	18079
898.913	18095
899.033	17942
899.153	17916
899.273	17889
899.393	17821
899.513	17866
899.633	17824
899.753	17859
899.873	17748
899.993	17916
900.113	17885
900.232	17904
900.352	17729
900.472	17687
900.591	17573
900.711	17794
900.83	17585
900.95	17684
901.069	17722
901.189	17509
901.308	17383
901.427	17200
901.546	17185
901.665	17155
901.784	17311
901.904	17018
902.023	17029
902.141	16767
902.26	16752
902.379	16786
902.498	16641
902.617	16641
902.735	16767
902.854	16584
902.973	16558
903.091	16402
903.21	16333
903.328	16333
903.446	16139
903.565	16147
903.683	16188
903.801	15968
903.919	16025
904.038	16128
904.156	15895
904.274	15888
904.392	15903
904.51	15823
904.627	15854
904.745	15850
904.863	15816
904.981	15542
905.098	15431
905.216	15515
905.334	15462
905.451	15568
905.569	15420
905.686	15481
905.803	15439
905.921	15294
906.038	15401
906.155	15279
906.272	15192
906.389	15169
906.506	15005
906.623	15085
906.74	14929
906.857	14845
906.974	14990
907.091	14971
907.208	15108
907.324	15100
907.441	14918
907.557	14743
907.674	14689
907.79	14610
907.907	14651
908.023	14724
908.139	14724
908.256	14621
908.372	14629
908.488	14590
908.604	14560
908.72	14499
908.836	14438
908.952	14271
909.068	14480
909.184	14537
909.3	14442
909.415	14400
909.531	14431
909.647	14199
909.762	14161
909.878	14138
909.993	14206
910.108	14123
910.224	14096
910.339	14107
910.454	13993
910.57	13963
910.685	13974
910.8	14153
910.915	14065
911.03	14008
911.145	13906
911.259	13811
911.374	13776
911.489	13712
911.604	13712
911.718	13609
911.833	13609
911.947	13400
912.062	13358
912.176	13605
912.291	13609
912.405	13544
912.519	13719
912.633	13784
912.748	13483
912.862	13502
912.976	13441
913.09	13240
913.204	13312
913.318	13460
913.431	13556
913.545	13548
913.659	13438
913.772	13369
913.886	13324
914	13122
914.113	13327
914.226	13335
914.34	13403
914.453	13072
914.566	13369
914.68	13149
914.793	13099
914.906	12993
915.019	13012
915.132	12871
915.245	13023
915.358	12962
915.47	12958
915.583	12894
915.696	12970
915.809	13031
915.921	13213
916.034	12928
916.146	12985
916.259	12875
916.371	12973
916.483	12973
916.595	12962
916.708	12935
916.82	12909
916.932	12890
917.044	12856
917.156	12814
917.268	12840
917.38	12753
917.491	12719
917.603	12654
917.715	12757
917.826	12821
917.938	12722
918.049	12563
918.161	12654
918.272	12681
918.384	12829
918.495	12673
918.606	12464
918.717	12448
918.828	12464
918.939	12528
919.05	12296
919.161	12494
919.272	12254
919.383	12300
919.494	12460
919.604	12700
919.715	12475
919.826	12361
919.936	12369
920.047	12570
920.157	12353
920.267	12528
920.378	12464
920.488	12327
920.598	12601
920.708	12730
920.818	12585
920.928	12597
921.038	12703
921.148	12696
921.258	12407
921.368	12369
921.477	12220
921.587	12232
921.697	12057
921.806	12186
921.916	12114
922.025	11931
922.134	11878
922.244	11931
922.353	11874
922.462	11771
922.571	11695
922.68	11562
922.789	11566
922.898	11551
923.007	11490
923.116	11657
923.224	11486
923.333	11505
923.442	11383
923.55	11368
923.659	11372
923.767	11463
923.876	11315
923.984	11391
924.092	11330
924.201	11273
924.309	11474
924.417	11391
924.525	11136
924.633	11288
924.741	12155
924.849	11086
924.956	11140
925.064	11041
925.172	11067
925.279	11094
925.387	11090
925.494	11022
925.602	11181
925.709	11102
925.816	10938
925.924	11067
926.031	11117
926.138	10999
926.245	11086
926.352	10911
926.459	11098
926.566	11121
926.673	10980
926.779	10896
926.886	10866
926.993	10752
927.099	10683
927.206	10675
927.312	10668
927.419	10729
927.525	10702
927.631	10725
927.737	10607
927.843	10519
927.95	10489
928.056	10443
928.162	10573
928.267	10653
928.373	11102
928.479	10580
928.585	10405
928.69	10569
928.796	10630
928.901	10459
929.007	10291
929.112	10451
929.218	10390
929.323	10379
929.428	10329
929.533	10413
929.638	10223
929.743	10265
929.848	10356
929.953	10246
930.058	10249
930.163	10040
930.267	10139
930.372	10356
930.477	9983
930.581	10253
930.685	10173
930.79	9956
930.894	10036
930.998	9930
931.103	10101
931.207	9713
931.311	9663
931.415	9572
931.519	9397
931.623	9378
