Data from test_V78500241_2486.txt Node
Date: Fri Mar 25 14:51:01 CST 2022
User: usil
Spectrometer: V785-0024
Trigger mode: 0
Integration Time (sec): 4.000000E-1
Scans to average: 1
Nonlinearity correction enabled: false
Boxcar width: 0
Storing dark spectrum: false
XAxis mode: Wavelengths
Number of Pixels in Spectrum: 1024
>>>>>Begin Spectral Data<<<<<
801.071	22044
801.214	22029
801.356	21770
801.499	21724
801.641	21401
801.783	21435
801.926	21469
802.068	21477
802.211	21378
802.353	21249
802.496	21070
802.638	20933
802.78	20914
802.923	20921
803.065	20682
803.208	20731
803.35	20906
803.492	20880
803.635	20937
803.777	20796
803.919	20891
804.061	21195
804.204	20929
804.346	20735
804.488	20651
804.63	20686
804.773	20743
804.915	20735
805.057	20758
805.199	20674
805.341	20792
805.483	20868
805.626	20773
805.768	20693
805.91	20807
806.052	20720
806.194	20488
806.336	20842
806.478	20693
806.62	20705
806.762	20788
806.904	20853
807.046	21104
807.188	21081
807.33	21039
807.472	21135
807.614	21093
807.756	20986
807.898	20842
808.04	20811
808.182	20750
808.324	20857
808.465	20902
808.607	21100
808.749	21108
808.891	21146
809.033	21260
809.174	21169
809.316	21020
809.458	21077
809.6	21123
809.741	21176
809.883	21192
810.025	21310
810.166	21260
810.308	21222
810.45	21241
810.591	21142
810.733	20967
810.875	20902
811.016	20807
811.158	20769
811.299	20937
811.441	21013
811.582	20941
811.724	20902
811.865	20781
812.007	20944
812.148	20845
812.29	20861
812.431	21116
812.573	21157
812.714	21294
812.855	21340
812.997	21454
813.138	21530
813.279	21583
813.421	21329
813.562	21477
813.703	21127
813.845	21001
813.986	20727
814.127	20571
814.268	20454
814.41	20362
814.551	20492
814.692	20400
814.833	20362
814.974	20317
815.115	20400
815.256	20229
815.397	20301
815.539	20294
815.68	20183
815.821	20077
815.962	20240
816.103	20046
816.244	19986
816.385	19955
816.526	19909
816.666	19772
816.807	19540
816.948	19670
817.089	19811
817.23	19681
817.371	19506
817.512	19556
817.653	19521
817.793	19537
817.934	19537
818.075	19609
818.216	19616
818.356	19407
818.497	19441
818.638	19160
818.778	19240
818.919	19335
819.06	19206
819.2	19365
819.341	19552
819.481	19354
819.622	19590
819.762	19818
819.903	19658
820.043	19704
820.184	19559
820.324	19586
820.465	19605
820.605	19476
820.746	19483
820.886	19392
821.026	19502
821.167	19502
821.307	19529
821.447	19483
821.588	19327
821.728	19274
821.868	19031
822.008	18901
822.149	19065
822.289	18905
822.429	18661
822.569	18555
822.709	18642
822.849	18452
822.99	18460
823.13	18407
823.27	18414
823.41	18171
823.55	18201
823.69	18213
823.83	18171
823.97	18171
824.11	17988
824.25	18003
824.389	17992
824.529	18098
824.669	17939
824.809	18174
824.949	18087
825.089	18068
825.228	18022
825.368	17779
825.508	17870
825.648	17901
825.787	17726
825.927	17813
826.067	17771
826.206	17805
826.346	17771
826.485	17779
826.625	17687
826.765	17901
826.904	17859
827.044	17562
827.183	17570
827.323	17444
827.462	17570
827.601	17474
827.741	17478
827.88	17471
828.02	17459
828.159	17379
828.298	17554
828.437	17532
828.577	17535
828.716	17581
828.855	17452
828.994	17223
829.134	17231
829.273	17307
829.412	17178
829.551	17231
829.69	17105
829.829	17204
829.968	17368
830.107	17258
830.246	17261
830.385	17128
830.524	17079
830.663	17052
830.802	16915
830.941	16927
831.08	16858
831.219	16904
831.357	16881
831.496	17071
831.635	16812
831.774	16675
831.913	16755
832.051	16584
832.19	16584
832.329	16744
832.467	16489
832.606	16489
832.744	16489
832.883	16474
833.022	16542
833.16	16580
833.299	16599
833.437	16584
833.576	16573
833.714	16550
833.852	16573
833.991	16672
834.129	16641
834.267	16748
834.406	16580
834.544	16592
834.682	16527
834.821	16474
834.959	16721
835.097	16611
835.235	16687
835.373	16577
835.511	16615
835.65	16546
835.788	16489
835.926	16352
836.064	16188
836.202	16299
836.34	16512
836.478	16577
836.615	16390
836.753	16493
836.891	16588
837.029	16615
837.167	16512
837.305	16455
837.443	16447
837.58	16424
837.718	16478
837.856	16314
837.993	16287
838.131	16379
838.269	16306
838.406	16253
838.544	16299
838.681	16150
838.819	16055
838.956	15903
839.094	15854
839.231	15953
839.369	16029
839.506	16329
839.643	16192
839.781	15975
839.918	15857
840.055	15979
840.193	15876
840.33	15800
840.467	15816
840.604	15907
840.742	16211
840.879	15804
841.016	15865
841.153	15755
841.29	16010
841.427	16051
841.564	16002
841.701	15895
841.838	15899
841.975	15713
842.112	15819
842.249	15644
842.385	15671
842.522	15869
842.659	15785
842.796	15648
842.933	15736
843.069	15686
843.206	15606
843.343	15717
843.479	15656
843.616	15671
843.752	15511
843.889	15500
844.025	15648
844.162	15526
844.298	15603
844.435	15515
844.571	15370
844.708	15511
844.844	15485
844.98	15656
845.117	15538
845.253	15332
845.389	15355
845.525	15386
845.661	15401
845.798	15260
845.934	15222
846.07	15138
846.206	15329
846.342	15306
846.478	15336
846.614	15081
846.75	14994
846.886	14929
847.022	15127
847.158	15100
847.294	15043
847.429	15058
847.565	15074
847.701	15203
847.837	14921
847.972	14724
848.108	14823
848.244	14842
848.379	14746
848.515	14754
848.65	14579
848.786	14632
848.921	14674
849.057	14727
849.192	14705
849.328	14598
849.463	14640
849.598	14625
849.734	14438
849.869	14530
850.004	14488
850.14	14446
850.275	14412
850.41	14377
850.545	14404
850.68	14415
850.815	14514
850.95	14286
851.085	14560
851.22	14564
851.355	14431
851.49	14389
851.625	14427
851.76	14339
851.895	14176
852.03	14298
852.165	14385
852.299	14427
852.434	14469
852.569	14446
852.703	14461
852.838	14469
852.973	14625
853.107	14503
853.242	14305
853.376	14252
853.511	14149
853.645	14286
853.78	14419
853.914	14259
854.048	14183
854.183	14263
854.317	14286
854.451	14366
854.585	14248
854.72	14252
854.854	14374
854.988	14233
855.122	14191
855.256	14157
855.39	14183
855.524	14305
855.658	14294
855.792	14320
855.926	14332
856.06	14328
856.194	14412
856.327	14210
856.461	14275
856.595	14195
856.729	14301
856.862	14366
856.996	14385
857.13	14389
857.263	14358
857.397	14400
857.53	14282
857.664	14244
857.797	14374
857.931	14385
858.064	14263
858.197	14336
858.331	14286
858.464	14229
858.597	14176
858.731	14313
858.864	14278
858.997	14275
859.13	14237
859.263	14233
859.396	14313
859.529	14252
859.662	14267
859.795	14134
859.928	14301
860.061	14564
860.194	14492
860.327	14343
860.46	14275
860.592	14434
860.725	14442
860.858	14309
860.99	14180
861.123	14183
861.256	14153
861.388	14195
861.521	14872
861.653	14123
861.786	14084
861.918	14126
862.05	14130
862.183	14237
862.315	14275
862.447	14267
862.58	14195
862.712	14123
862.844	13974
862.976	14115
863.108	14187
863.24	14377
863.372	14016
863.504	14096
863.636	14043
863.768	14100
863.9	13970
864.032	13993
864.164	14096
864.296	14100
864.428	14107
864.559	14065
864.691	14050
864.823	14077
864.954	14008
865.086	14138
865.217	13997
865.349	13982
865.48	14012
865.612	14164
865.743	14123
865.875	14046
866.006	14027
866.137	14069
866.269	14096
866.4	13989
866.531	14065
866.662	13940
866.793	13997
866.924	13940
867.055	14069
867.186	13982
867.317	14024
867.448	13936
867.579	14012
867.71	14012
867.841	13936
867.972	13978
868.103	14100
868.233	14138
868.364	14069
868.495	14016
868.625	14263
868.756	14286
868.886	14164
869.017	14263
869.147	14408
869.278	14400
869.408	14305
869.539	14225
869.669	14355
869.799	14336
869.929	14358
870.06	14366
870.19	14663
870.32	14575
870.45	14655
870.58	14629
870.71	14891
870.84	14697
870.97	14670
871.1	14708
871.23	14826
871.36	14887
871.489	14842
871.619	14785
871.749	14887
871.879	14998
872.008	15039
872.138	14826
872.267	14921
872.397	14811
872.526	14716
872.656	14705
872.785	14682
872.915	15009
873.044	14963
873.173	14876
873.303	14933
873.432	14975
873.561	14963
873.69	14921
873.819	14948
873.948	15058
874.077	14986
874.206	14891
874.335	14883
874.464	15036
874.593	15161
874.722	15165
874.851	15332
874.979	15249
875.108	15329
875.237	15169
875.365	15131
875.494	15260
875.623	15313
875.751	15192
875.88	15268
876.008	15310
876.136	15435
876.265	15599
876.393	15846
876.521	15762
876.65	15705
876.778	15747
876.906	15671
877.034	15667
877.162	15576
877.29	15652
877.418	15591
877.546	15694
877.674	15587
877.802	15751
877.93	15671
878.058	15603
878.185	15603
878.313	15648
878.441	15603
878.568	15519
878.696	15595
878.824	15618
878.951	15732
879.079	15778
879.206	15937
879.333	15739
879.461	15739
879.588	15823
879.715	15930
879.842	15941
879.97	15800
880.097	15644
880.224	15519
880.351	15568
880.478	15488
880.605	15523
880.732	15439
880.859	15739
880.986	15545
881.112	15530
881.239	15325
881.366	15298
881.493	15199
881.619	15138
881.746	15211
881.872	15184
881.999	15093
882.125	15100
882.252	15237
882.378	15192
882.505	15317
882.631	15142
882.757	14933
882.883	14960
883.01	14910
883.136	14963
883.262	14872
883.388	14758
883.514	15077
883.64	15062
883.766	14990
883.892	14754
884.018	14861
884.143	14960
884.269	15081
884.395	14701
884.52	14629
884.646	14807
884.772	14674
884.897	14571
885.023	14667
885.148	14731
885.274	14788
885.399	14796
885.524	14712
885.65	14663
885.775	14613
885.9	14697
886.025	14758
886.15	14811
886.275	14670
886.4	14621
886.525	14712
886.65	14686
886.775	14632
886.9	14956
887.025	14952
887.149	14750
887.274	14438
887.399	14541
887.523	14663
887.648	14431
887.773	14423
887.897	14613
888.021	14613
888.146	14511
888.27	14617
888.395	14610
888.519	14621
888.643	14579
888.767	14651
888.891	14533
889.015	14305
889.139	14442
889.263	14332
889.387	14545
889.511	14526
889.635	14549
889.759	14415
889.883	14339
890.006	14317
890.13	14522
890.254	14400
890.377	14347
890.501	14233
890.624	14202
890.748	14240
890.871	14252
890.995	14043
891.118	14001
891.241	14123
891.364	14107
891.488	14298
891.611	14164
891.734	14058
891.857	14172
891.98	14172
892.103	14199
892.226	14187
892.349	14123
892.471	13883
892.594	14103
892.717	14145
892.839	14046
892.962	14153
893.085	14168
893.207	14065
893.33	14005
893.452	14050
893.575	14161
893.697	14081
893.819	14305
893.941	14351
894.064	14183
894.186	14005
894.308	14145
894.43	14309
894.552	14358
894.674	14358
894.796	14050
894.918	14111
895.04	14119
895.161	14275
895.283	14161
895.405	14202
895.526	14229
895.648	14252
895.769	14206
895.891	14271
896.012	14317
896.134	14301
896.255	14294
896.376	14206
896.498	14240
896.619	14282
896.74	14282
896.861	14415
896.982	14674
897.103	14853
897.224	14552
897.345	14473
897.466	14495
897.587	14556
897.708	14765
897.828	14621
897.949	14503
898.07	14499
898.19	14492
898.311	14648
898.431	14564
898.552	14640
898.672	14804
898.792	14727
898.913	14655
899.033	14613
899.153	14492
899.273	14412
899.393	14511
899.513	14526
899.633	14473
899.753	14446
899.873	14404
899.993	14537
900.113	14476
900.232	14507
900.352	14495
900.472	14431
900.591	14290
900.711	14347
900.83	14290
900.95	14480
901.069	14431
901.189	14259
901.308	14103
901.427	13967
901.546	13913
901.665	14069
901.784	14027
901.904	13974
902.023	13830
902.141	13662
902.26	13586
902.379	13753
902.498	13620
902.617	13567
902.735	13677
902.854	13624
902.973	13590
903.091	13403
903.21	13266
903.328	13441
903.446	13240
903.565	13194
903.683	13194
903.801	13084
903.919	13202
904.038	13160
904.156	13012
904.274	13088
904.392	12935
904.51	13027
904.627	13000
904.745	13004
904.863	13019
904.981	12829
905.098	12669
905.216	12749
905.334	12669
905.451	12760
905.569	12601
905.686	12745
905.803	12627
905.921	12517
906.038	12620
906.155	12517
906.272	12407
906.389	12403
906.506	12311
906.623	12167
906.74	12232
906.857	12064
906.974	12117
907.091	12346
907.208	12410
907.324	12342
907.441	12133
907.557	12057
907.674	11939
907.79	11927
907.907	12007
908.023	11965
908.139	12015
908.256	11927
908.372	11923
908.488	11954
908.604	11828
908.72	11680
908.836	11771
908.952	11703
909.068	11828
909.184	11802
909.3	11745
909.415	11794
909.531	11882
909.647	11543
909.762	11490
909.878	11524
909.993	11570
910.108	11440
910.224	11524
910.339	11539
910.454	11383
910.57	11334
910.685	11402
910.8	11676
910.915	11543
911.03	11452
911.145	11189
911.259	11201
911.374	11197
911.489	11166
911.604	11090
911.718	10927
911.833	10976
911.947	10877
912.062	10847
912.176	11003
912.291	10949
912.405	11052
912.519	11239
912.633	11208
912.748	11060
912.862	11014
912.976	10862
913.09	10755
913.204	10812
913.318	10930
913.431	10976
913.545	10919
913.659	10934
913.772	10915
913.886	10714
914	10675
914.113	10946
914.226	10904
914.34	10824
914.453	10725
914.566	10809
914.68	10767
914.793	10714
914.906	10440
915.019	10504
915.132	10363
915.245	10470
915.358	10527
915.47	10550
915.583	10523
915.696	10615
915.809	10672
915.921	10710
916.034	10546
916.146	10428
916.259	10428
916.371	10504
916.483	10474
916.595	10390
916.708	10394
916.82	10481
916.932	10443
917.044	10447
917.156	10451
917.268	10291
917.38	10306
917.491	10337
917.603	10379
917.715	10394
917.826	10417
917.938	10268
918.049	10207
918.161	10363
918.272	10462
918.384	10466
918.495	10371
918.606	10173
918.717	10131
918.828	10192
918.939	10223
919.05	10135
919.161	10185
919.272	10017
919.383	10112
919.494	10314
919.604	10398
919.715	10242
919.826	10185
919.936	10204
920.047	10318
920.157	10207
920.267	10451
920.378	10333
920.488	10284
920.598	10371
920.708	10538
920.818	10371
920.928	10386
921.038	10672
921.148	10500
921.258	10192
921.368	10219
921.477	10093
921.587	10074
921.697	10006
921.806	10082
921.916	9934
922.025	9797
922.134	9827
922.244	9717
922.353	9880
922.462	9663
922.571	9656
922.68	9477
922.789	9466
922.898	9534
923.007	9428
923.116	9523
923.224	9435
923.333	9500
923.442	9332
923.55	9302
923.659	9447
923.767	9466
923.876	9332
923.984	9344
924.092	9275
924.201	9363
924.309	9298
924.417	9306
924.525	9291
924.633	9313
924.741	10105
924.849	9062
924.956	9230
925.064	9070
925.172	9024
925.279	9077
925.387	9165
925.494	9135
925.602	9245
925.709	9226
925.816	9085
925.924	9138
926.031	9241
926.138	9161
926.245	9165
926.352	9013
926.459	9169
926.566	9287
926.673	9138
926.779	9028
926.886	8982
926.993	8811
927.099	8891
927.206	8788
927.312	8766
927.419	8944
927.525	8872
927.631	8872
927.737	8800
927.843	8785
927.95	8655
928.056	8746
928.162	8727
928.267	8796
928.373	9447
928.479	8826
928.585	8545
928.69	8785
928.796	8792
928.901	8667
929.007	8488
929.112	8594
929.218	8724
929.323	8670
929.428	8606
929.533	8686
929.638	8503
929.743	8537
929.848	8575
929.953	8568
930.058	8446
930.163	8309
930.267	8282
930.372	8476
930.477	8290
930.581	8575
930.685	8396
930.79	8282
930.894	8309
930.998	8233
931.103	8438
931.207	8161
931.311	7982
931.415	7951
931.519	7731
931.623	7799
