Data from test_V78500241_3341.txt Node
Date: Fri Mar 25 14:56:58 CST 2022
User: usil
Spectrometer: V785-0024
Trigger mode: 0
Integration Time (sec): 4.000000E-1
Scans to average: 1
Nonlinearity correction enabled: false
Boxcar width: 0
Storing dark spectrum: false
XAxis mode: Wavelengths
Number of Pixels in Spectrum: 1024
>>>>>Begin Spectral Data<<<<<
801.071	22048
801.214	21861
801.356	21618
801.499	21538
801.641	21291
801.783	21408
801.926	21313
802.068	21294
802.211	21298
802.353	21135
802.496	20918
802.638	20880
802.78	20765
802.923	20788
803.065	20514
803.208	20697
803.35	20629
803.492	20731
803.635	20819
803.777	20640
803.919	20731
804.061	20929
804.204	20811
804.346	20579
804.488	20556
804.63	20682
804.773	20419
804.915	20552
805.057	20701
805.199	20579
805.341	20689
805.483	20754
805.626	20602
805.768	20537
805.91	20541
806.052	20632
806.194	20492
806.336	20640
806.478	20613
806.62	20602
806.762	20598
806.904	20800
807.046	20887
807.188	20891
807.33	20834
807.472	20937
807.614	20735
807.756	20773
807.898	20785
808.04	20579
808.182	20689
808.324	20629
808.465	20636
808.607	20891
808.749	20887
808.891	20944
809.033	21131
809.174	21093
809.316	20826
809.458	20895
809.6	20895
809.741	21074
809.883	20994
810.025	21005
810.166	20967
810.308	21085
810.45	20963
810.591	20899
810.733	20735
810.875	20727
811.016	20651
811.158	20640
811.299	20731
811.441	20849
811.582	20815
811.724	20731
811.865	20651
812.007	20644
812.148	20659
812.29	20750
812.431	20872
812.573	20952
812.714	21127
812.855	21211
812.997	21230
813.138	21401
813.279	21408
813.421	21127
813.562	21104
813.703	21055
813.845	20796
813.986	20488
814.127	20301
814.268	20370
814.41	20183
814.551	20164
814.692	20309
814.833	20218
814.974	20202
815.115	20229
815.256	20122
815.397	20107
815.539	20073
815.68	19932
815.821	19970
815.962	20001
816.103	20024
816.244	19788
816.385	19685
816.526	19601
816.666	19525
816.807	19373
816.948	19491
817.089	19381
817.23	19441
817.371	19259
817.512	19422
817.653	19221
817.793	19244
817.934	19362
818.075	19384
818.216	19388
818.356	19373
818.497	19198
818.638	19000
818.778	19057
818.919	19012
819.06	19088
819.2	19190
819.341	19274
819.481	19247
819.622	19422
819.762	19590
819.903	19354
820.043	19392
820.184	19274
820.324	19312
820.465	19324
820.605	19217
820.746	19502
820.886	19293
821.026	19289
821.167	19255
821.307	19460
821.447	19259
821.588	19183
821.728	19042
821.868	18894
822.008	18738
822.149	18658
822.289	18745
822.429	18513
822.569	18506
822.709	18437
822.849	18197
822.99	18235
823.13	18251
823.27	18266
823.41	18087
823.55	18019
823.69	18003
823.83	18095
823.97	17935
824.11	17847
824.25	17847
824.389	17771
824.529	17866
824.669	17824
824.809	17901
824.949	17977
825.089	17817
825.228	17756
825.368	17707
825.508	17676
825.648	17653
825.787	17672
825.927	17592
826.067	17596
826.206	17448
826.346	17634
826.485	17649
826.625	17653
826.765	17726
826.904	17646
827.044	17280
827.183	17368
827.323	17239
827.462	17410
827.601	17311
827.741	17318
827.88	17284
828.02	17143
828.159	17284
828.298	17296
828.437	17318
828.577	17216
828.716	17429
828.855	17227
828.994	17136
829.134	17067
829.273	17060
829.412	17090
829.551	16938
829.69	16999
829.829	17048
829.968	17094
830.107	17041
830.246	17121
830.385	17041
830.524	16949
830.663	16782
830.802	16771
830.941	16736
831.08	16634
831.219	16683
831.357	16733
831.496	16877
831.635	16649
831.774	16584
831.913	16596
832.051	16424
832.19	16554
832.329	16489
832.467	16455
832.606	16398
832.744	16344
832.883	16512
833.022	16299
833.16	16451
833.299	16424
833.437	16371
833.576	16459
833.714	16348
833.852	16443
833.991	16398
834.129	16413
834.267	16561
834.406	16341
834.544	16489
834.682	16478
834.821	16390
834.959	16546
835.097	16356
835.235	16447
835.373	16466
835.511	16421
835.65	16295
835.788	16322
835.926	16253
836.064	16169
836.202	16192
836.34	16455
836.478	16417
836.615	16280
836.753	16295
836.891	16337
837.029	16405
837.167	16204
837.305	16253
837.443	16211
837.58	16207
837.718	16337
837.856	16196
837.993	16185
838.131	16150
838.269	16090
838.406	16082
838.544	16124
838.681	15956
838.819	15998
838.956	15690
839.094	15800
839.231	15835
839.369	15892
839.506	16128
839.643	15994
839.781	15819
839.918	15770
840.055	15827
840.193	15713
840.33	15701
840.467	15751
840.604	15838
840.742	16086
840.879	15671
841.016	15675
841.153	15690
841.29	15918
841.427	15899
841.564	15903
841.701	15873
841.838	15679
841.975	15671
842.112	15755
842.249	15587
842.385	15485
842.522	15778
842.659	15561
842.796	15500
842.933	15523
843.069	15477
843.206	15549
843.343	15587
843.479	15469
843.616	15450
843.752	15332
843.889	15313
844.025	15405
844.162	15310
844.298	15424
844.435	15351
844.571	15256
844.708	15302
844.844	15393
844.98	15534
845.117	15450
845.253	15355
845.389	15230
845.525	15272
845.661	15256
845.798	15131
845.934	15154
846.07	15161
846.206	15188
846.342	15283
846.478	15089
846.614	15047
846.75	14861
846.886	14826
847.022	14982
847.158	14929
847.294	14887
847.429	15043
847.565	14861
847.701	15161
847.837	14720
847.972	14583
848.108	14857
848.244	14705
848.379	14492
848.515	14408
848.65	14473
848.786	14511
848.921	14469
849.057	14583
849.192	14518
849.328	14583
849.463	14507
849.598	14442
849.734	14400
849.869	14336
850.004	14282
850.14	14317
850.275	14282
850.41	14210
850.545	14252
850.68	14256
850.815	14362
850.95	14305
851.085	14431
851.22	14332
851.355	14275
851.49	14313
851.625	14267
851.76	14221
851.895	14202
852.03	14107
852.165	14271
852.299	14336
852.434	14336
852.569	14347
852.703	14286
852.838	14332
852.973	14404
853.107	14507
853.242	14305
853.376	14214
853.511	14073
853.645	14145
853.78	14343
853.914	14176
854.048	14092
854.183	14161
854.317	14229
854.451	14393
854.585	14134
854.72	14084
854.854	14237
854.988	14126
855.122	14229
855.256	13993
855.39	14153
855.524	14195
855.658	14123
855.792	14180
855.926	14244
856.06	14214
856.194	14336
856.327	14153
856.461	14126
856.595	14081
856.729	14199
856.862	14301
856.996	14183
857.13	14362
857.263	14259
857.397	14320
857.53	14172
857.664	14286
857.797	14282
857.931	14381
858.064	14183
858.197	14267
858.331	14153
858.464	14084
858.597	14043
858.731	14218
858.864	14145
858.997	14157
859.13	14256
859.263	14229
859.396	14275
859.529	14210
859.662	14126
859.795	14142
859.928	14199
860.061	14305
860.194	14275
860.327	14263
860.46	14107
860.592	14320
860.725	14358
860.858	14256
860.99	14115
861.123	14126
861.256	14191
861.388	14161
861.521	14990
861.653	14115
861.786	14001
861.918	14100
862.05	14103
862.183	14123
862.315	14130
862.447	14206
862.58	14077
862.712	13955
862.844	13928
862.976	14012
863.108	13959
863.24	14351
863.372	13890
863.504	13928
863.636	13951
863.768	14062
863.9	14039
864.032	13902
864.164	13967
864.296	13955
864.428	14054
864.559	14008
864.691	14119
864.823	13974
864.954	14008
865.086	14005
865.217	13982
865.349	13849
865.48	13970
865.612	13978
865.743	14043
865.875	13970
866.006	14035
866.137	13909
866.269	13879
866.4	13932
866.531	13902
866.662	13879
866.793	13894
866.924	13928
867.055	14092
867.186	13921
867.317	13940
867.448	13894
867.579	13799
867.71	13875
867.841	13879
867.972	13986
868.103	13875
868.233	13921
868.364	13879
868.495	13970
868.625	14096
868.756	14191
868.886	14191
869.017	14233
869.147	14278
869.278	14313
869.408	14214
869.539	14221
869.669	14275
869.799	14320
869.929	14301
870.06	14313
870.19	14522
870.32	14473
870.45	14587
870.58	14629
870.71	14712
870.84	14693
870.97	14636
871.1	14590
871.23	14689
871.36	14800
871.489	14735
871.619	14705
871.749	14746
871.879	14883
872.008	14918
872.138	14990
872.267	14720
872.397	14632
872.526	14598
872.656	14545
872.785	14503
872.915	14739
873.044	14883
873.173	14823
873.303	14838
873.432	14845
873.561	14948
873.69	14842
873.819	14872
873.948	14914
874.077	14826
874.206	14754
874.335	14887
874.464	15009
874.593	15077
874.722	15024
874.851	15195
874.979	15203
875.108	15279
875.237	15123
875.365	15104
875.494	15150
875.623	15226
875.751	15131
875.88	15260
876.008	15302
876.136	15279
876.265	15614
876.393	15751
876.521	15660
876.65	15736
876.778	15553
876.906	15538
877.034	15534
877.162	15564
877.29	15523
877.418	15504
877.546	15545
877.674	15500
877.802	15564
877.93	15637
878.058	15584
878.185	15462
878.313	15500
878.441	15568
878.568	15454
878.696	15572
878.824	15488
878.951	15709
879.079	15736
879.206	15949
879.333	15751
879.461	15534
879.588	15656
879.715	15827
879.842	15800
879.97	15644
880.097	15458
880.224	15355
880.351	15500
880.478	15500
880.605	15344
880.732	15500
880.859	15770
880.986	15416
881.112	15504
881.239	15405
881.366	15184
881.493	15055
881.619	15169
881.746	15112
881.872	15131
881.999	15070
882.125	15017
882.252	15211
882.378	15127
882.505	15218
882.631	15013
882.757	14804
882.883	15047
883.01	14998
883.136	14804
883.262	14834
883.388	14739
883.514	14811
883.64	14982
883.766	14883
883.892	14727
884.018	14651
884.143	14864
884.269	14998
884.395	14705
884.52	14583
884.646	14686
884.772	14526
884.897	14594
885.023	14613
885.148	14739
885.274	14777
885.399	14674
885.524	14568
885.65	14659
885.775	14648
885.9	14533
886.025	14663
886.15	14765
886.275	14613
886.4	14499
886.525	14606
886.65	14571
886.775	14476
886.9	14743
887.025	14853
887.149	14655
887.274	14473
887.399	14408
887.523	14351
887.648	14469
887.773	14263
887.897	14564
888.021	14476
888.146	14434
888.27	14480
888.395	14594
888.519	14541
888.643	14499
888.767	14446
888.891	14377
889.015	14381
889.139	14343
889.263	14305
889.387	14434
889.511	14450
889.635	14343
889.759	14358
889.883	14278
890.006	14358
890.13	14374
890.254	14256
890.377	14317
890.501	14119
890.624	14050
890.748	14221
890.871	13963
890.995	14008
891.118	13909
891.241	13951
891.364	14081
891.488	14077
891.611	13978
891.734	14103
891.857	14069
891.98	14092
892.103	14126
892.226	14157
892.349	14031
892.471	13807
892.594	14001
892.717	14039
892.839	14008
892.962	13955
893.085	14115
893.207	13989
893.33	13894
893.452	13890
893.575	14123
893.697	13902
893.819	14221
893.941	14237
894.064	14157
894.186	13978
894.308	13967
894.43	14199
894.552	14176
894.674	14081
894.796	13925
894.918	13978
895.04	13944
895.161	14111
895.283	14054
895.405	14100
895.526	14130
895.648	14119
895.769	14183
895.891	14138
896.012	14252
896.134	14237
896.255	14157
896.376	14123
896.498	14229
896.619	14343
896.74	14195
896.861	14176
896.982	14632
897.103	14697
897.224	14469
897.345	14370
897.466	14301
897.587	14423
897.708	14571
897.828	14419
897.949	14412
898.07	14301
898.19	14457
898.311	14598
898.431	14431
898.552	14473
898.672	14541
898.792	14613
898.913	14541
899.033	14438
899.153	14366
899.273	14240
899.393	14408
899.513	14324
899.633	14415
899.753	14446
899.873	14366
899.993	14415
900.113	14336
900.232	14385
900.352	14438
900.472	14317
900.591	14282
900.711	14343
900.83	14138
900.95	14294
901.069	14309
901.189	14103
901.308	13978
901.427	13849
901.546	13959
901.665	13925
901.784	13940
901.904	13700
902.023	13746
902.141	13521
902.26	13518
902.379	13521
902.498	13480
902.617	13365
902.735	13480
902.854	13502
902.973	13510
903.091	13228
903.21	13232
903.328	13236
903.446	13164
903.565	13114
903.683	13095
903.801	13019
903.919	13027
904.038	13069
904.156	12863
904.274	12920
904.392	12738
904.51	12852
904.627	12783
904.745	12909
904.863	12977
904.981	12722
905.098	12601
905.216	12612
905.334	12654
905.451	12589
905.569	12642
905.686	12646
905.803	12509
905.921	12429
906.038	12528
906.155	12346
906.272	12285
906.389	12361
906.506	12152
906.623	12209
906.74	12148
906.857	12003
906.974	12041
907.091	12243
907.208	12357
907.324	12254
907.441	12144
907.557	11908
907.674	11961
907.79	11851
907.907	11882
908.023	11954
908.139	11969
908.256	11840
908.372	11893
908.488	11786
908.604	11760
908.72	11661
908.836	11668
908.952	11722
909.068	11775
909.184	11756
909.3	11649
909.415	11775
909.531	11600
909.647	11490
909.762	11471
909.878	11334
909.993	11410
910.108	11414
910.224	11433
910.339	11509
910.454	11429
910.57	11307
910.685	11223
910.8	11558
910.915	11417
911.03	11288
911.145	11151
911.259	11128
911.374	11166
911.489	11071
911.604	11064
911.718	10923
911.833	10957
911.947	10862
912.062	10736
912.176	10820
912.291	10869
912.405	10881
912.519	11086
912.633	11098
912.748	11060
912.862	10942
912.976	10774
913.09	10656
913.204	10725
913.318	10816
913.431	10858
913.545	10744
913.659	10930
913.772	10805
913.886	10649
914	10588
914.113	10759
914.226	10824
914.34	10774
914.453	10531
914.566	10748
914.68	10710
914.793	10584
914.906	10398
915.019	10299
915.132	10341
915.245	10405
915.358	10421
915.47	10466
915.583	10508
915.696	10443
915.809	10580
915.921	10565
916.034	10341
916.146	10398
916.259	10386
916.371	10424
916.483	10440
916.595	10352
916.708	10329
916.82	10314
916.932	10386
917.044	10402
917.156	10310
917.268	10196
917.38	10272
917.491	10322
917.603	10276
917.715	10341
917.826	10424
917.938	10261
918.049	10109
918.161	10303
918.272	10379
918.384	10306
918.495	10242
918.606	10173
918.717	10101
918.828	10143
918.939	10238
919.05	10006
919.161	10162
919.272	9937
919.383	9945
919.494	10150
919.604	10344
919.715	10166
919.826	10067
919.936	10147
920.047	10192
920.157	10166
920.267	10367
920.378	10249
920.488	10185
920.598	10371
920.708	10542
920.818	10261
920.928	10325
921.038	10519
921.148	10443
921.258	10223
921.368	10139
921.477	10029
921.587	10036
921.697	9892
921.806	10074
921.916	9960
922.025	9762
922.134	9747
922.244	9595
922.353	9808
922.462	9519
922.571	9625
922.68	9397
922.789	9359
922.898	9481
923.007	9367
923.116	9401
923.224	9428
923.333	9416
923.442	9199
923.55	9241
923.659	9329
923.767	9283
923.876	9283
923.984	9340
924.092	9199
924.201	9264
924.309	9256
924.417	9226
924.525	9253
924.633	9157
924.741	10219
924.849	9058
924.956	9180
925.064	8998
925.172	8986
925.279	8967
925.387	9131
925.494	9028
925.602	9180
925.709	9081
925.816	8937
925.924	9036
926.031	9165
926.138	9104
926.245	9138
926.352	9028
926.459	9116
926.566	9230
926.673	9077
926.779	8960
926.886	8956
926.993	8788
927.099	8807
927.206	8766
927.312	8743
927.419	8826
927.525	8815
927.631	8849
927.737	8762
927.843	8731
927.95	8564
928.056	8667
928.162	8746
928.267	8754
928.373	9370
928.479	8785
928.585	8492
928.69	8674
928.796	8617
928.901	8590
929.007	8514
929.112	8655
929.218	8549
929.323	8537
929.428	8518
929.533	8644
929.638	8503
929.743	8522
929.848	8503
929.953	8461
930.058	8480
930.163	8256
930.267	8259
930.372	8412
930.477	8259
930.581	8469
930.685	8309
930.79	8252
930.894	8183
930.998	8271
931.103	8370
931.207	8031
931.311	7868
931.415	7868
931.519	7734
931.623	7670
