Data from test_V78500241_3601.txt Node
Date: Fri Mar 25 14:58:47 CST 2022
User: usil
Spectrometer: V785-0024
Trigger mode: 0
Integration Time (sec): 4.000000E-1
Scans to average: 1
Nonlinearity correction enabled: false
Boxcar width: 0
Storing dark spectrum: false
XAxis mode: Wavelengths
Number of Pixels in Spectrum: 1024
>>>>>Begin Spectral Data<<<<<
801.071	21857
801.214	21789
801.356	21618
801.499	21378
801.641	21408
801.783	21348
801.926	21260
802.068	21264
802.211	21154
802.353	21123
802.496	20815
802.638	20765
802.78	20689
802.923	20644
803.065	20518
803.208	20503
803.35	20651
803.492	20629
803.635	20720
803.777	20564
803.919	20727
804.061	20895
804.204	20602
804.346	20465
804.488	20305
804.63	20522
804.773	20488
804.915	20400
805.057	20568
805.199	20514
805.341	20549
805.483	20705
805.626	20617
805.768	20457
805.91	20590
806.052	20457
806.194	20385
806.336	20663
806.478	20526
806.62	20404
806.762	20571
806.904	20735
807.046	20948
807.188	20769
807.33	20781
807.472	20948
807.614	20712
807.756	20712
807.898	20621
808.04	20632
808.182	20473
808.324	20632
808.465	20701
808.607	20724
808.749	20876
808.891	21005
809.033	20986
809.174	20891
809.316	20712
809.458	20731
809.6	20788
809.741	20807
809.883	20899
810.025	21032
810.166	20925
810.308	21108
810.45	20944
810.591	20815
810.733	20819
810.875	20625
811.016	20560
811.158	20511
811.299	20701
811.441	20663
811.582	20655
811.724	20583
811.865	20537
812.007	20613
812.148	20701
812.29	20613
812.431	20743
812.573	20883
812.714	20929
812.855	21043
812.997	21275
813.138	21279
813.279	21256
813.421	21131
813.562	20971
813.703	20902
813.845	20769
813.986	20488
814.127	20366
814.268	20107
814.41	20157
814.551	20126
814.692	20157
814.833	20008
814.974	20092
815.115	20191
815.256	19898
815.397	19963
815.539	20077
815.68	19963
815.821	19864
815.962	19860
816.103	19890
816.244	19723
816.385	19658
816.526	19571
816.666	19472
816.807	19225
816.948	19415
817.089	19369
817.23	19301
817.371	19187
817.512	19301
817.653	19308
817.793	19175
817.934	19251
818.075	19304
818.216	19297
818.356	19190
818.497	19069
818.638	18954
818.778	19027
818.919	18939
819.06	18909
819.2	19152
819.341	19129
819.481	19225
819.622	19297
819.762	19449
819.903	19422
820.043	19400
820.184	19301
820.324	19358
820.465	19339
820.605	19164
820.746	19194
820.886	19084
821.026	19145
821.167	19129
821.307	19263
821.447	19198
821.588	19122
821.728	19061
821.868	18791
822.008	18776
822.149	18692
822.289	18623
822.429	18395
822.569	18376
822.709	18300
822.849	18201
822.99	18114
823.13	18114
823.27	18083
823.41	17908
823.55	17824
823.69	17980
823.83	17984
823.97	17908
824.11	17805
824.25	17596
824.389	17786
824.529	17855
824.669	17703
824.809	17729
824.949	17870
825.089	17760
825.228	17630
825.368	17539
825.508	17505
825.648	17467
825.787	17520
825.927	17657
826.067	17425
826.206	17459
826.346	17459
826.485	17505
826.625	17474
826.765	17630
826.904	17474
827.044	17356
827.183	17235
827.323	17231
827.462	17315
827.601	17185
827.741	17178
827.88	17299
828.02	17052
828.159	17223
828.298	17261
828.437	17307
828.577	17147
828.716	17341
828.855	17124
828.994	16999
829.134	16919
829.273	16980
829.412	16877
829.551	16896
829.69	16991
829.829	16968
829.968	17113
830.107	17006
830.246	17067
830.385	16854
830.524	16877
830.663	16694
830.802	16683
830.941	16645
831.08	16542
831.219	16634
831.357	16713
831.496	16824
831.635	16622
831.774	16512
831.913	16466
832.051	16337
832.19	16379
832.329	16360
832.467	16379
832.606	16188
832.744	16276
832.883	16299
833.022	16211
833.16	16363
833.299	16367
833.437	16337
833.576	16356
833.714	16375
833.852	16367
833.991	16424
834.129	16367
834.267	16325
834.406	16257
834.544	16402
834.682	16398
834.821	16363
834.959	16440
835.097	16348
835.235	16432
835.373	16363
835.511	16402
835.65	16337
835.788	16325
835.926	16086
836.064	16051
836.202	16124
836.34	16230
836.478	16322
836.615	16234
836.753	16306
836.891	16310
837.029	16291
837.167	16192
837.305	16147
837.443	16101
837.58	16124
837.718	16177
837.856	16200
837.993	16006
838.131	16131
838.269	16071
838.406	16051
838.544	16074
838.681	15804
838.819	15827
838.956	15667
839.094	15698
839.231	15690
839.369	15808
839.506	16074
839.643	15926
839.781	15686
839.918	15591
840.055	15705
840.193	15656
840.33	15614
840.467	15671
840.604	15656
840.742	15949
840.879	15599
841.016	15663
841.153	15610
841.29	15819
841.427	15751
841.564	15770
841.701	15755
841.838	15614
841.975	15732
842.112	15637
842.249	15473
842.385	15458
842.522	15637
842.659	15545
842.796	15492
842.933	15447
843.069	15397
843.206	15439
843.343	15599
843.479	15542
843.616	15557
843.752	15211
843.889	15283
844.025	15405
844.162	15211
844.298	15340
844.435	15321
844.571	15317
844.708	15313
844.844	15439
844.98	15386
845.117	15397
845.253	15264
845.389	15195
845.525	15222
845.661	15268
845.798	15135
845.934	15070
846.07	15074
846.206	15173
846.342	15241
846.478	15077
846.614	14857
846.75	14921
846.886	14765
847.022	14914
847.158	14864
847.294	14838
847.429	14788
847.565	14849
847.701	15081
847.837	14705
847.972	14583
848.108	14648
848.244	14644
848.379	14507
848.515	14492
848.65	14412
848.786	14385
848.921	14427
849.057	14541
849.192	14564
849.328	14511
849.463	14522
849.598	14415
849.734	14408
849.869	14320
850.004	14298
850.14	14248
850.275	14256
850.41	14168
850.545	14134
850.68	14233
850.815	14168
850.95	14267
851.085	14461
851.22	14336
851.355	14290
851.49	14123
851.625	14202
851.76	14134
851.895	14183
852.03	14100
852.165	14263
852.299	14267
852.434	14362
852.569	14221
852.703	14172
852.838	14244
852.973	14370
853.107	14396
853.242	14225
853.376	14081
853.511	14062
853.645	14073
853.78	14183
853.914	14100
854.048	14062
854.183	14107
854.317	13947
854.451	14218
854.585	14073
854.72	14008
854.854	14176
854.988	14054
855.122	14168
855.256	14065
855.39	14088
855.524	14199
855.658	14123
855.792	14081
855.926	14180
856.06	14092
856.194	14187
856.327	14164
856.461	14054
856.595	13940
856.729	13993
856.862	14168
856.996	14050
857.13	14107
857.263	14168
857.397	14237
857.53	14046
857.664	14081
857.797	14126
857.931	14180
858.064	14164
858.197	14138
858.331	14240
858.464	14054
858.597	13997
858.731	14092
858.864	14046
858.997	14081
859.13	14138
859.263	14153
859.396	14153
859.529	14027
859.662	14065
859.795	13982
859.928	14153
860.061	14259
860.194	14210
860.327	14134
860.46	14073
860.592	14191
860.725	14221
860.858	14248
860.99	14111
861.123	13932
861.256	13951
861.388	14077
861.521	14899
861.653	13963
861.786	13967
861.918	14008
862.05	14054
862.183	14016
862.315	14065
862.447	14210
862.58	14031
862.712	13860
862.844	13833
862.976	13978
863.108	13932
863.24	14142
863.372	13864
863.504	13921
863.636	13887
863.768	13887
863.9	13887
864.032	13799
864.164	13868
864.296	13913
864.428	13951
864.559	14027
864.691	13917
864.823	13913
864.954	13913
865.086	13932
865.217	13875
865.349	13780
865.48	13906
865.612	13887
865.743	14043
865.875	13818
866.006	13818
866.137	13849
866.269	13822
866.4	13818
866.531	13902
866.662	13715
866.793	13731
866.924	13769
867.055	13852
867.186	13799
867.317	13833
867.448	13757
867.579	13845
867.71	13803
867.841	13799
867.972	13890
868.103	13890
868.233	13871
868.364	13982
868.495	13993
868.625	14054
868.756	14195
868.886	14001
869.017	14229
869.147	14218
869.278	14172
869.408	14218
869.539	14069
869.669	14138
869.799	14153
869.929	14278
870.06	14142
870.19	14396
870.32	14377
870.45	14518
870.58	14408
870.71	14598
870.84	14492
870.97	14476
871.1	14537
871.23	14765
871.36	14667
871.489	14583
871.619	14712
871.749	14758
871.879	14804
872.008	14861
872.138	14735
872.267	14826
872.397	14640
872.526	14556
872.656	14522
872.785	14568
872.915	14769
873.044	14864
873.173	14750
873.303	14785
873.432	14785
873.561	14857
873.69	14777
873.819	14788
873.948	14872
874.077	14815
874.206	14746
874.335	14785
874.464	14956
874.593	15112
874.722	14937
874.851	15066
874.979	15180
875.108	15112
875.237	15089
875.365	15028
875.494	15055
875.623	15097
875.751	14956
875.88	15150
876.008	15252
876.136	15302
876.265	15477
876.393	15545
876.521	15545
876.65	15549
876.778	15534
876.906	15526
877.034	15481
877.162	15473
877.29	15428
877.418	15435
877.546	15488
877.674	15591
877.802	15549
877.93	15500
878.058	15462
878.185	15393
878.313	15473
878.441	15500
878.568	15310
878.696	15587
878.824	15496
878.951	15545
879.079	15625
879.206	15797
879.333	15762
879.461	15538
879.588	15504
879.715	15644
879.842	15808
879.97	15584
880.097	15416
880.224	15348
880.351	15310
880.478	15340
880.605	15237
880.732	15511
880.859	15610
880.986	15336
881.112	15283
881.239	15241
881.366	15218
881.493	14918
881.619	14994
881.746	15013
881.872	14979
881.999	15039
882.125	14948
882.252	15146
882.378	15017
882.505	15157
882.631	15097
882.757	14933
882.883	14861
883.01	14834
883.136	14777
883.262	14716
883.388	14689
883.514	14864
883.64	14960
883.766	14800
883.892	14648
884.018	14587
884.143	14758
884.269	15024
884.395	14602
884.52	14446
884.646	14530
884.772	14400
884.897	14454
885.023	14537
885.148	14629
885.274	14720
885.399	14724
885.524	14476
885.65	14583
885.775	14602
885.9	14454
886.025	14632
886.15	14556
886.275	14488
886.4	14313
886.525	14427
886.65	14499
886.775	14408
886.9	14587
887.025	14754
887.149	14450
887.274	14438
887.399	14396
887.523	14336
887.648	14381
887.773	14259
887.897	14473
888.021	14404
888.146	14294
888.27	14476
888.395	14415
888.519	14442
888.643	14454
888.767	14385
888.891	14256
889.015	14130
889.139	14339
889.263	14210
889.387	14374
889.511	14503
889.635	14351
889.759	14096
889.883	14332
890.006	14317
890.13	14393
890.254	14107
890.377	14134
890.501	14001
890.624	14001
890.748	14058
890.871	14043
890.995	13909
891.118	13803
891.241	13967
891.364	14043
891.488	14119
891.611	13963
891.734	13913
891.857	14020
891.98	13955
892.103	13947
892.226	14012
892.349	13917
892.471	13769
892.594	14024
892.717	13970
892.839	13883
892.962	13955
893.085	13959
893.207	13902
893.33	13868
893.452	13890
893.575	14050
893.697	13963
893.819	14187
893.941	14157
894.064	14084
894.186	13879
894.308	13906
894.43	14111
894.552	14145
894.674	14096
894.796	13963
894.918	14005
895.04	13989
895.161	14145
895.283	14126
895.405	14031
895.526	14119
895.648	14065
895.769	14077
895.891	14065
896.012	14138
896.134	14119
896.255	14180
896.376	14054
896.498	14077
896.619	14256
896.74	14096
896.861	14096
896.982	14404
897.103	14526
897.224	14469
897.345	14324
897.466	14298
897.587	14320
897.708	14575
897.828	14427
897.949	14320
898.07	14168
898.19	14343
898.311	14503
898.431	14484
898.552	14465
898.672	14511
898.792	14610
898.913	14610
899.033	14404
899.153	14473
899.273	14256
899.393	14210
899.513	14275
899.633	14263
899.753	14343
899.873	14282
899.993	14454
900.113	14320
900.232	14393
900.352	14404
900.472	14168
900.591	14077
900.711	14161
900.83	14180
900.95	14240
901.069	14313
901.189	14168
901.308	13822
901.427	13822
901.546	13917
901.665	13963
901.784	13795
901.904	13696
902.023	13655
902.141	13590
902.26	13415
902.379	13540
902.498	13453
902.617	13324
902.735	13502
902.854	13362
902.973	13354
903.091	13164
903.21	13080
903.328	13137
903.446	13042
903.565	13050
903.683	13091
903.801	12962
903.919	12932
904.038	13012
904.156	12962
904.274	12867
904.392	12837
904.51	12829
904.627	12779
904.745	12890
904.863	12837
904.981	12639
905.098	12502
905.216	12585
905.334	12464
905.451	12536
905.569	12445
905.686	12525
905.803	12456
905.921	12327
906.038	12376
906.155	12350
906.272	12197
906.389	12239
906.506	12163
906.623	12098
906.74	12064
906.857	11984
906.974	11969
907.091	12095
907.208	12285
907.324	12125
907.441	12019
907.557	11863
907.674	11824
907.79	11752
907.907	11908
908.023	11882
908.139	11824
908.256	11897
908.372	11802
908.488	11722
908.604	11729
908.72	11646
908.836	11581
908.952	11592
909.068	11691
909.184	11729
909.3	11585
909.415	11684
909.531	11688
909.647	11444
909.762	11501
909.878	11402
909.993	11425
910.108	11341
910.224	11364
910.339	11356
910.454	11212
910.57	11280
910.685	11227
910.8	11490
910.915	11471
911.03	11269
911.145	11201
911.259	11117
911.374	11102
911.489	11067
911.604	10961
911.718	10805
911.833	10843
911.947	10805
912.062	10637
912.176	10873
912.291	10946
912.405	10835
912.519	11102
912.633	11064
912.748	10957
912.862	10908
912.976	10778
913.09	10714
913.204	10649
913.318	10698
913.431	10835
913.545	10797
913.659	10831
913.772	10683
913.886	10645
914	10691
914.113	10679
914.226	10767
914.34	10752
914.453	10508
914.566	10736
914.68	10596
914.793	10573
914.906	10363
915.019	10409
915.132	10276
915.245	10333
915.358	10398
915.47	10371
915.583	10325
915.696	10375
915.809	10531
915.921	10554
916.034	10344
916.146	10363
916.259	10265
916.371	10402
916.483	10318
916.595	10310
916.708	10341
916.82	10386
916.932	10352
917.044	10295
917.156	10230
917.268	10253
917.38	10215
917.491	10154
917.603	10204
917.715	10287
917.826	10299
917.938	10188
918.049	10097
918.161	10211
918.272	10325
918.384	10375
918.495	10257
918.606	10063
918.717	9975
918.828	10112
918.939	10120
919.05	9979
919.161	10051
919.272	9888
919.383	10036
919.494	10192
919.604	10379
919.715	10120
919.826	10010
919.936	10078
920.047	10188
920.157	10124
920.267	10272
920.378	10196
920.488	10067
920.598	10337
920.708	10455
920.818	10344
920.928	10234
921.038	10466
921.148	10428
921.258	10067
921.368	10071
921.477	9926
921.587	9968
921.697	9835
921.806	10036
921.916	9884
922.025	9732
922.134	9717
922.244	9584
922.353	9671
922.462	9526
922.571	9492
922.68	9408
922.789	9382
922.898	9367
923.007	9260
923.116	9348
923.224	9344
923.333	9344
923.442	9306
923.55	9245
923.659	9245
923.767	9344
923.876	9218
923.984	9325
924.092	9199
924.201	9199
924.309	9272
924.417	9268
924.525	9188
924.633	9275
924.741	10029
924.849	8998
924.956	9203
925.064	9009
925.172	8899
925.279	8979
925.387	9066
925.494	9005
925.602	9214
925.709	9142
925.816	8963
925.924	8956
926.031	9093
926.138	9032
926.245	9043
926.352	8876
926.459	9058
926.566	9108
926.673	8941
926.779	8956
926.886	8933
926.993	8731
927.099	8819
927.206	8735
927.312	8655
927.419	8769
927.525	8735
927.631	8739
927.737	8693
927.843	8682
927.95	8484
928.056	8606
928.162	8651
928.267	8758
928.373	9150
928.479	8724
928.585	8549
928.69	8651
928.796	8648
928.901	8530
929.007	8423
929.112	8549
929.218	8492
929.323	8457
929.428	8377
929.533	8610
929.638	8362
929.743	8412
929.848	8518
929.953	8431
930.058	8358
930.163	8187
930.267	8218
930.372	8396
930.477	8218
930.581	8438
930.685	8324
930.79	8164
930.894	8206
930.998	8206
931.103	8332
931.207	7963
931.311	7909
931.415	7795
931.519	7674
931.623	7670
