Data from test_V78500241_652.txt Node
Date: Fri Mar 25 14:38:15 CST 2022
User: usil
Spectrometer: V785-0024
Trigger mode: 0
Integration Time (sec): 4.000000E-1
Scans to average: 1
Nonlinearity correction enabled: false
Boxcar width: 0
Storing dark spectrum: false
XAxis mode: Wavelengths
Number of Pixels in Spectrum: 1024
>>>>>Begin Spectral Data<<<<<
801.071	27888
801.214	27922
801.356	27576
801.499	27500
801.641	27412
801.783	27382
801.926	27397
802.068	27298
802.211	27192
802.353	27070
802.496	26910
802.638	26967
802.78	26800
802.923	26834
803.065	26804
803.208	26758
803.35	26921
803.492	27032
803.635	27116
803.777	26925
803.919	27009
804.061	27340
804.204	27024
804.346	27127
804.488	27119
804.63	26986
804.773	27024
804.915	27161
805.057	27443
805.199	27260
805.341	27363
805.483	27496
805.626	27576
805.768	27530
805.91	27656
806.052	27876
806.194	27762
806.336	28200
806.478	28154
806.62	28192
806.762	28706
806.904	29086
807.046	29509
807.188	29691
807.33	30194
807.472	30669
807.614	31263
807.756	32107
807.898	32944
808.04	34314
808.182	36098
808.324	38351
808.465	41261
808.607	43951
808.749	46641
808.891	48110
809.033	48323
809.174	46866
809.316	44423
809.458	41162
809.6	38164
809.741	35710
809.883	33861
810.025	32564
810.166	31624
810.308	30913
810.45	30369
810.591	29923
810.733	29414
810.875	29044
811.016	28660
811.158	28478
811.299	28455
811.441	28440
811.582	28181
811.724	28040
811.865	27778
812.007	27808
812.148	27724
812.29	27724
812.431	27819
812.573	27876
812.714	27876
812.855	28021
812.997	28086
813.138	28192
813.279	27968
813.421	27873
813.562	27854
813.703	27644
813.845	27412
813.986	27119
814.127	26743
814.268	26750
814.41	26743
814.551	26594
814.692	26731
814.833	26606
814.974	26609
815.115	26571
815.256	26355
815.397	26396
815.539	26366
815.68	26237
815.821	26195
815.962	26355
816.103	26122
816.244	25951
816.385	26046
816.526	25803
816.666	25696
816.807	25655
816.948	25567
817.089	25677
817.23	25521
817.371	25403
817.512	25590
817.653	25365
817.793	25297
817.934	25354
818.075	25350
818.216	25381
818.356	25449
818.497	25308
818.638	25187
818.778	25198
818.919	25114
819.06	25221
819.2	25354
819.341	25373
819.481	25259
819.622	25411
819.762	25514
819.903	25472
820.043	25506
820.184	25426
820.324	25335
820.465	25377
820.605	25403
820.746	25232
820.886	25065
821.026	25312
821.167	25198
821.307	25301
821.447	25088
821.588	25000
821.728	24951
821.868	24673
822.008	24483
822.149	24566
822.289	24498
822.429	24304
822.569	24277
822.709	24121
822.849	23999
822.99	24076
823.13	24018
823.27	23901
823.41	23794
823.55	23581
823.69	23748
823.83	23657
823.97	23733
824.11	23520
824.25	23577
824.389	23490
824.529	23509
824.669	23543
824.809	23535
824.949	23585
825.089	23638
825.228	23516
825.368	23277
825.508	23337
825.648	23322
825.787	23273
825.927	23414
826.067	23254
826.206	23197
826.346	23200
826.485	23204
826.625	23254
826.765	23467
826.904	23345
827.044	23170
827.183	23048
827.323	22908
827.462	22995
827.601	23098
827.741	22889
827.88	23044
828.02	22786
828.159	22942
828.298	23044
828.437	22991
828.577	22896
828.716	23048
828.855	22862
828.994	22736
829.134	22656
829.273	22630
829.412	22615
829.551	22607
829.69	22630
829.829	22653
829.968	22649
830.107	22683
830.246	22649
830.385	22519
830.524	22386
830.663	22447
830.802	22405
830.941	22116
831.08	22257
831.219	22394
831.357	22249
831.496	22379
831.635	22211
831.774	22040
831.913	22082
832.051	22063
832.19	21968
832.329	22090
832.467	22124
832.606	22032
832.744	22013
832.883	22097
833.022	22261
833.16	22226
833.299	22329
833.437	22550
833.576	22557
833.714	22782
833.852	22904
833.991	22927
834.129	23003
834.267	23109
834.406	22995
834.544	22835
834.682	22763
834.821	22721
834.959	22675
835.097	22371
835.235	22615
835.373	22337
835.511	22306
835.65	22036
835.788	22021
835.926	21747
836.064	21698
836.202	21644
836.34	21899
836.478	21819
836.615	21827
836.753	21751
836.891	21876
837.029	21717
837.167	21663
837.305	21606
837.443	21667
837.58	21534
837.718	21557
837.856	21583
837.993	21492
838.131	21530
838.269	21435
838.406	21370
838.544	21435
838.681	21214
838.819	21123
838.956	21070
839.094	21081
839.231	21024
839.369	21214
839.506	21359
839.643	21241
839.781	21028
839.918	20937
840.055	21081
840.193	20883
840.33	20845
840.467	20895
840.604	20963
840.742	21192
840.879	20857
841.016	20819
841.153	20902
841.29	21043
841.427	20956
841.564	21028
841.701	20883
841.838	20872
841.975	20781
842.112	20876
842.249	20583
842.385	20590
842.522	21032
842.659	20765
842.796	20697
842.933	20689
843.069	20800
843.206	20796
843.343	20921
843.479	20823
843.616	20838
843.752	20617
843.889	20689
844.025	20971
844.162	20834
844.298	21032
844.435	20971
844.571	21233
844.708	21549
844.844	21899
844.98	22306
845.117	22782
845.253	23634
845.389	25198
845.525	28440
845.661	33545
845.798	39747
845.934	44252
846.07	45823
846.206	44895
846.342	40599
846.478	34497
846.614	29391
846.75	25932
846.886	23710
847.022	22596
847.158	21797
847.294	21233
847.429	20861
847.565	20693
847.701	20689
847.837	20187
847.972	20077
848.108	20100
848.244	20024
848.379	19757
848.515	19681
848.65	19826
848.786	19681
848.921	19693
849.057	19746
849.192	19620
849.328	19548
849.463	19651
849.598	19609
849.734	19403
849.869	19388
850.004	19293
850.14	19499
850.275	19373
850.41	19198
850.545	19293
850.68	19316
850.815	19270
850.95	19270
851.085	19476
851.22	19396
851.355	19335
851.49	19282
851.625	19232
851.76	19282
851.895	19225
852.03	19297
852.165	19293
852.299	19369
852.434	19403
852.569	19335
852.703	19350
852.838	19502
852.973	19457
853.107	19487
853.242	19320
853.376	19358
853.511	19228
853.645	19312
853.78	19491
853.914	19430
854.048	19483
854.183	19502
854.317	19613
854.451	19613
854.585	19499
854.72	19487
854.854	19578
854.988	19308
855.122	19464
855.256	19137
855.39	19365
855.524	19377
855.658	19168
855.792	19247
855.926	19274
856.06	19259
856.194	19251
856.327	19137
856.461	19076
856.595	19141
856.729	19206
856.862	19202
856.996	19206
857.13	19107
857.263	19289
857.397	19152
857.53	19107
857.664	19126
857.797	19236
857.931	19133
858.064	18973
858.197	19050
858.331	18947
858.464	18962
858.597	18867
858.731	18947
858.864	19053
858.997	18928
859.13	19076
859.263	19042
859.396	19004
859.529	18886
859.662	18920
859.795	19008
859.928	18996
860.061	19194
860.194	19114
860.327	19031
860.46	18905
860.592	19072
860.725	19023
860.858	19042
860.99	18966
861.123	18783
861.256	18924
861.388	18897
861.521	19613
861.653	18875
861.786	18753
861.918	18795
862.05	18928
862.183	18989
862.315	18909
862.447	18920
862.58	18916
862.712	18745
862.844	18620
862.976	18719
863.108	18810
863.24	19008
863.372	18448
863.504	18601
863.636	18673
863.768	18673
863.9	18646
864.032	18445
864.164	18601
864.296	18620
864.428	18688
864.559	18703
864.691	18681
864.823	18612
864.954	18597
865.086	18536
865.217	18528
865.349	18525
865.48	18639
865.612	18490
865.743	18608
865.875	18502
866.006	18521
866.137	18578
866.269	18498
866.4	18460
866.531	18467
866.662	18410
866.793	18490
866.924	18502
867.055	18502
867.186	18464
867.317	18426
867.448	18388
867.579	18494
867.71	18467
867.841	18479
867.972	18570
868.103	18471
868.233	18570
868.364	18498
868.495	18646
868.625	18772
868.756	18783
868.886	18776
869.017	18715
869.147	18913
869.278	18844
869.408	18859
869.539	18681
869.669	18814
869.799	18779
869.929	18856
870.06	18837
870.19	19107
870.32	19110
870.45	19103
870.58	19168
870.71	19244
870.84	19411
870.97	19236
871.1	19160
871.23	19396
871.36	19472
871.489	19358
871.619	19362
871.749	19502
871.879	19502
872.008	19609
872.138	19453
872.267	19548
872.397	19384
872.526	19316
872.656	19403
872.785	19354
872.915	19700
873.044	19632
873.173	19620
873.303	19647
873.432	19776
873.561	19849
873.69	19719
873.819	19712
873.948	19818
874.077	19784
874.206	19833
874.335	19849
874.464	20039
874.593	20149
874.722	20050
874.851	20111
874.979	20206
875.108	20385
875.237	20115
875.365	20195
875.494	20218
875.623	20370
875.751	20423
875.88	20442
876.008	20514
876.136	20674
876.265	21001
876.393	21142
876.521	21123
876.65	21146
876.778	21043
876.906	21142
877.034	21203
877.162	21245
877.29	21294
877.418	21310
877.546	21561
877.674	21622
877.802	21713
877.93	21869
878.058	21930
878.185	22021
878.313	22295
878.441	22637
878.568	22908
878.696	23387
878.824	24045
878.951	25259
879.079	26594
879.206	28542
879.333	30186
879.461	31803
879.588	32861
879.715	32815
879.842	32069
879.97	30403
880.097	28356
880.224	26925
880.351	25841
880.478	25118
880.605	24521
880.732	24266
880.859	24174
880.986	23790
881.112	23752
881.239	23627
881.366	23414
881.493	23402
881.619	23216
881.746	23383
881.872	23509
881.999	23398
882.125	23436
882.252	23531
882.378	23486
882.505	23596
882.631	23493
882.757	23429
882.883	23379
883.01	23273
883.136	23383
883.262	23231
883.388	23155
883.514	23216
883.64	23318
883.766	23330
883.892	22946
884.018	23086
884.143	23307
884.269	23474
884.395	23094
884.52	23079
884.646	23079
884.772	23037
884.897	22965
885.023	23064
885.148	23109
885.274	23147
885.399	23003
885.524	22778
885.65	22767
885.775	22542
885.9	22531
886.025	22500
886.15	22246
886.275	22040
886.4	21915
886.525	21873
886.65	21682
886.775	21603
886.9	21663
887.025	21564
887.149	21466
887.274	21119
887.399	20963
887.523	20944
887.648	20785
887.773	20743
887.897	20777
888.021	20796
888.146	20480
888.27	20693
888.395	20648
888.519	20495
888.643	20438
888.767	20492
888.891	20263
889.015	20107
889.139	20183
889.263	20088
889.387	20218
889.511	20199
889.635	20100
889.759	19978
889.883	19940
890.006	20024
890.13	19852
890.254	19643
890.377	19799
890.501	19586
890.624	19377
890.748	19567
890.871	19422
890.995	19259
891.118	19190
891.241	19335
891.364	19190
891.488	19278
891.611	19103
891.734	19129
891.857	19183
891.98	19023
892.103	19118
892.226	19019
892.349	18973
892.471	18913
892.594	18852
892.717	19000
892.839	18856
892.962	18825
893.085	18947
893.207	18772
893.33	18745
893.452	18749
893.575	18863
893.697	18677
893.819	18711
893.941	18837
894.064	18852
894.186	18540
894.308	18566
894.43	18608
894.552	18715
894.674	18536
894.796	18467
894.918	18528
895.04	18502
895.161	18540
895.283	18585
895.405	18372
895.526	18388
895.648	18452
895.769	18445
895.891	18391
896.012	18506
896.134	18532
896.255	18353
896.376	18315
896.498	18376
896.619	18490
896.74	18304
896.861	18456
896.982	18726
897.103	18859
897.224	18547
897.345	18566
897.466	18475
897.587	18544
897.708	18661
897.828	18578
897.949	18460
898.07	18361
898.19	18334
898.311	18654
898.431	18540
898.552	18521
898.672	18601
898.792	18570
898.913	18563
899.033	18506
899.153	18350
899.273	18277
899.393	18323
899.513	18330
899.633	18277
899.753	18350
899.873	18163
899.993	18304
900.113	18330
900.232	18407
900.352	18258
900.472	18247
900.591	18003
900.711	18201
900.83	18117
900.95	18148
901.069	18311
901.189	17992
901.308	17748
901.427	17733
901.546	17642
901.665	17737
901.784	17832
901.904	17516
902.023	17547
902.141	17337
902.26	17170
902.379	17216
902.498	17235
902.617	17185
902.735	17220
902.854	17041
902.973	16999
903.091	16809
903.21	16839
903.328	16835
903.446	16710
903.565	16622
903.683	16573
903.801	16481
903.919	16519
904.038	16618
904.156	16390
904.274	16443
904.392	16284
904.51	16310
904.627	16242
904.745	16318
904.863	16348
904.981	16059
905.098	15972
905.216	16029
905.334	15983
905.451	16044
905.569	15876
905.686	15934
905.803	16051
905.921	15717
906.038	15812
906.155	15751
906.272	15652
906.389	15660
906.506	15504
906.623	15553
906.74	15485
906.857	15393
906.974	15298
907.091	15496
907.208	15553
907.324	15458
907.441	15344
907.557	15203
907.674	15283
907.79	15169
907.907	15150
908.023	15180
908.139	15207
908.256	15085
908.372	15081
908.488	15119
908.604	14914
908.72	14868
908.836	14853
908.952	14948
909.068	14937
909.184	14895
909.3	14899
909.415	14986
909.531	14876
909.647	14648
909.762	14545
909.878	14537
909.993	14590
910.108	14545
910.224	14469
910.339	14613
910.454	14484
910.57	14396
910.685	14290
910.8	14724
910.915	14526
911.03	14476
911.145	14294
911.259	14294
911.374	14252
911.489	14240
911.604	14024
911.718	14039
911.833	13974
911.947	13921
912.062	13830
912.176	13978
912.291	13955
912.405	13978
912.519	14206
912.633	14069
912.748	14005
912.862	13932
912.976	13814
913.09	13734
913.204	13807
913.318	13830
913.431	13902
913.545	13951
913.659	13917
913.772	13753
913.886	13647
914	13632
914.113	13769
914.226	13913
914.34	13811
914.453	13540
914.566	13769
914.68	13586
914.793	13586
914.906	13381
915.019	13327
915.132	13270
915.245	13312
915.358	13430
915.47	13407
915.583	13460
915.696	13419
915.809	13480
915.921	13518
916.034	13266
916.146	13266
916.259	13236
916.371	13384
916.483	13396
916.595	13266
916.708	13312
916.82	13346
916.932	13236
917.044	13225
917.156	13198
917.268	13107
917.38	13118
917.491	13061
917.603	13061
917.715	13183
917.826	13251
917.938	13103
918.049	12924
918.161	13069
918.272	13221
918.384	13046
918.495	12916
918.606	12787
918.717	12863
918.828	12909
918.939	12901
919.05	12749
919.161	12852
919.272	12639
919.383	12707
919.494	12806
919.604	13042
919.715	12829
919.826	12760
919.936	12753
920.047	12814
920.157	12817
920.267	12981
920.378	12848
920.488	12749
920.598	12954
920.708	13122
920.818	12973
920.928	12996
921.038	13046
921.148	12962
921.258	12734
921.368	12662
921.477	12646
921.587	12563
921.697	12456
921.806	12597
921.916	12433
922.025	12254
922.134	12239
922.244	12129
922.353	12232
922.462	12144
922.571	12064
922.68	11897
922.789	11798
922.898	11874
923.007	11802
923.116	11904
923.224	11794
923.333	11836
923.442	11775
923.55	11760
923.659	11748
923.767	11779
923.876	11630
923.984	11718
924.092	11596
924.201	11676
924.309	11653
924.417	11722
924.525	11539
924.633	11604
924.741	12380
924.849	11360
924.956	11543
925.064	11398
925.172	11406
925.279	11337
925.387	11490
925.494	11402
925.602	11573
925.709	11459
925.816	11258
925.924	11360
926.031	11398
926.138	11318
926.245	11410
926.352	11242
926.459	11364
926.566	11429
926.673	11322
926.779	11178
926.886	11178
926.993	11014
927.099	11003
927.206	10946
927.312	10965
927.419	11010
927.525	11022
927.631	10976
927.737	10946
927.843	10816
927.95	10782
928.056	10869
928.162	10850
928.267	10892
928.373	11379
928.479	10961
928.585	10683
928.69	10854
928.796	10919
928.901	10755
929.007	10668
929.112	10721
929.218	10733
929.323	10683
929.428	10592
929.533	10759
929.638	10523
929.743	10569
929.848	10561
929.953	10611
930.058	10470
930.163	10352
930.267	10413
930.372	10542
930.477	10341
930.581	10550
930.685	10318
930.79	10211
930.894	10280
930.998	10181
931.103	10356
931.207	10074
931.311	9895
931.415	9861
931.519	9690
931.623	9701
