Data from test_V78500241_1714.txt Node
Date: Fri Mar 25 14:45:38 CST 2022
User: usil
Spectrometer: V785-0024
Trigger mode: 0
Integration Time (sec): 4.000000E-1
Scans to average: 1
Nonlinearity correction enabled: false
Boxcar width: 0
Storing dark spectrum: false
XAxis mode: Wavelengths
Number of Pixels in Spectrum: 1024
>>>>>Begin Spectral Data<<<<<
801.071	22204
801.214	22051
801.356	21945
801.499	21751
801.641	21743
801.783	21618
801.926	21591
802.068	21530
802.211	21485
802.353	21374
802.496	21199
802.638	21146
802.78	21146
802.923	21062
803.065	20994
803.208	20937
803.35	20941
803.492	21096
803.635	21157
803.777	20872
803.919	21017
804.061	21252
804.204	21154
804.346	21039
804.488	20800
804.63	20986
804.773	20834
804.915	20910
805.057	20971
805.199	20880
805.341	20906
805.483	20960
805.626	21036
805.768	20819
805.91	20842
806.052	21043
806.194	20819
806.336	21070
806.478	20906
806.62	20944
806.762	20933
806.904	21066
807.046	21321
807.188	21302
807.33	21275
807.472	21389
807.614	21047
807.756	21085
807.898	21013
808.04	20876
808.182	20925
808.324	20982
808.465	20967
808.607	21310
808.749	21279
808.891	21420
809.033	21458
809.174	21340
809.316	21275
809.458	21287
809.6	21184
809.741	21260
809.883	21351
810.025	21542
810.166	21348
810.308	21477
810.45	21348
810.591	21378
810.733	21237
810.875	21123
811.016	21051
811.158	20887
811.299	21131
811.441	21199
811.582	21039
811.724	21005
811.865	21051
812.007	20998
812.148	21005
812.29	21165
812.431	21245
812.573	21348
812.714	21481
812.855	21439
812.997	21561
813.138	21732
813.279	21641
813.421	21625
813.562	21431
813.703	21367
813.845	21351
813.986	20887
814.127	20708
814.268	20697
814.41	20609
814.551	20606
814.692	20769
814.833	20575
814.974	20537
815.115	20644
815.256	20427
815.397	20503
815.539	20450
815.68	20298
815.821	20393
815.962	20419
816.103	20336
816.244	20100
816.385	20020
816.526	20012
816.666	19879
816.807	19712
816.948	19879
817.089	19845
817.23	19776
817.371	19803
817.512	19807
817.653	19742
817.793	19696
817.934	19864
818.075	19715
818.216	19685
818.356	19666
818.497	19563
818.638	19460
818.778	19358
818.919	19362
819.06	19407
819.2	19556
819.341	19601
819.481	19537
819.622	19685
819.762	19890
819.903	19852
820.043	19689
820.184	19712
820.324	19731
820.465	19784
820.605	19708
820.746	19731
820.886	19514
821.026	19639
821.167	19643
821.307	19670
821.447	19616
821.588	19411
821.728	19407
821.868	19282
822.008	19148
822.149	19088
822.289	19168
822.429	18821
822.569	18852
822.709	18856
822.849	18681
822.99	18620
823.13	18635
823.27	18506
823.41	18369
823.55	18334
823.69	18391
823.83	18426
823.97	18300
824.11	18235
824.25	18216
824.389	18125
824.529	18194
824.669	18182
824.809	18281
824.949	18388
825.089	18194
825.228	18114
825.368	18041
825.508	17988
825.648	18019
825.787	17961
825.927	18079
826.067	17988
826.206	17950
826.346	17969
826.485	17954
826.625	17927
826.765	18003
826.904	18060
827.044	17767
827.183	17767
827.323	17646
827.462	17714
827.601	17630
827.741	17653
827.88	17646
828.02	17573
828.159	17558
828.298	17707
828.437	17638
828.577	17543
828.716	17748
828.855	17573
828.994	17459
829.134	17455
829.273	17547
829.412	17391
829.551	17353
829.69	17406
829.829	17474
829.968	17482
830.107	17391
830.246	17436
830.385	17288
830.524	17280
830.663	17288
830.802	17071
830.941	17003
831.08	16942
831.219	17056
831.357	17056
831.496	17261
831.635	17071
831.774	16957
831.913	16854
832.051	16835
832.19	16854
832.329	16843
832.467	16740
832.606	16607
832.744	16634
832.883	16660
833.022	16729
833.16	16710
833.299	16744
833.437	16706
833.576	16649
833.714	16706
833.852	16729
833.991	16793
834.129	16915
834.267	16759
834.406	16782
834.544	16748
834.682	16744
834.821	16706
834.959	16869
835.097	16755
835.235	16736
835.373	16767
835.511	16793
835.65	16733
835.788	16721
835.926	16478
836.064	16466
836.202	16489
836.34	16847
836.478	16752
836.615	16664
836.753	16710
836.891	16649
837.029	16653
837.167	16710
837.305	16542
837.443	16523
837.58	16527
837.718	16558
837.856	16596
837.993	16455
838.131	16478
838.269	16455
838.406	16447
838.544	16432
838.681	16150
838.819	16185
838.956	16139
839.094	16112
839.231	16074
839.369	16284
839.506	16424
839.643	16322
839.781	16097
839.918	16071
840.055	16139
840.193	16032
840.33	16063
840.467	15991
840.604	16078
840.742	16272
840.879	15899
841.016	16044
841.153	15998
841.29	16185
841.427	16124
841.564	16071
841.701	16109
841.838	16109
841.975	15956
842.112	15915
842.249	15895
842.385	15850
842.522	16029
842.659	15895
842.796	15800
842.933	15812
843.069	15812
843.206	15774
843.343	15808
843.479	15930
843.616	15892
843.752	15671
843.889	15526
844.025	15827
844.162	15644
844.298	15717
844.435	15564
844.571	15564
844.708	15759
844.844	15800
844.98	15701
845.117	15637
845.253	15568
845.389	15511
845.525	15610
845.661	15660
845.798	15469
845.934	15454
846.07	15431
846.206	15557
846.342	15477
846.478	15466
846.614	15241
846.75	15154
846.886	15119
847.022	15298
847.158	15188
847.294	15123
847.429	15287
847.565	15230
847.701	15374
847.837	14975
847.972	14963
848.108	14929
848.244	14990
848.379	14804
848.515	14883
848.65	14777
848.786	14735
848.921	14739
849.057	14895
849.192	14902
849.328	14762
849.463	14796
849.598	14796
849.734	14689
849.869	14670
850.004	14686
850.14	14526
850.275	14556
850.41	14545
850.545	14488
850.68	14511
850.815	14568
850.95	14568
851.085	14773
851.22	14682
851.355	14617
851.49	14514
851.625	14537
851.76	14526
851.895	14499
852.03	14362
852.165	14511
852.299	14594
852.434	14583
852.569	14571
852.703	14651
852.838	14659
852.973	14712
853.107	14693
853.242	14518
853.376	14396
853.511	14324
853.645	14362
853.78	14541
853.914	14476
854.048	14484
854.183	14362
854.317	14461
854.451	14522
854.585	14336
854.72	14404
854.854	14457
854.988	14305
855.122	14294
855.256	14282
855.39	14457
855.524	14571
855.658	14492
855.792	14434
855.926	14541
856.06	14450
856.194	14495
856.327	14427
856.461	14393
856.595	14389
856.729	14381
856.862	14522
856.996	14408
857.13	14541
857.263	14541
857.397	14473
857.53	14457
857.664	14423
857.797	14438
857.931	14598
858.064	14522
858.197	14495
858.331	14412
858.464	14434
858.597	14427
858.731	14465
858.864	14461
858.997	14370
859.13	14503
859.263	14438
859.396	14522
859.529	14313
859.662	14393
859.795	14355
859.928	14431
860.061	14579
860.194	14568
860.327	14480
860.46	14415
860.592	14408
860.725	14590
860.858	14473
860.99	14457
861.123	14278
861.256	14412
861.388	14385
861.521	15055
861.653	14309
861.786	14263
861.918	14290
862.05	14275
862.183	14332
862.315	14336
862.447	14457
862.58	14336
862.712	14225
862.844	14138
862.976	14309
863.108	14259
863.24	14625
863.372	14092
863.504	14221
863.636	14199
863.768	14267
863.9	14252
864.032	14161
864.164	14145
864.296	14180
864.428	14347
864.559	14282
864.691	14305
864.823	14282
864.954	14305
865.086	14282
865.217	14149
865.349	14256
865.48	14119
865.612	14187
865.743	14305
865.875	14237
866.006	14187
866.137	14248
866.269	14161
866.4	14244
866.531	14187
866.662	14103
866.793	14130
866.924	14252
867.055	14172
867.186	14039
867.317	14126
867.448	14084
867.579	14119
867.71	14027
867.841	14096
867.972	14142
868.103	14153
868.233	14214
868.364	14218
868.495	14225
868.625	14438
868.756	14518
868.886	14320
869.017	14431
869.147	14621
869.278	14533
869.408	14457
869.539	14450
869.669	14594
869.799	14438
869.929	14518
870.06	14571
870.19	14617
870.32	14743
870.45	14739
870.58	14872
870.71	14918
870.84	14921
870.97	14864
871.1	14811
871.23	14967
871.36	15184
871.489	14979
871.619	15047
871.749	15100
871.879	15055
872.008	15085
872.138	14979
872.267	15123
872.397	14960
872.526	14872
872.656	14826
872.785	14845
872.915	15062
873.044	15070
873.173	15127
873.303	15127
873.432	15112
873.561	15268
873.69	15051
873.819	15173
873.948	15279
874.077	15039
874.206	15127
874.335	15104
874.464	15321
874.593	15310
874.722	15294
874.851	15466
874.979	15420
875.108	15401
875.237	15386
875.365	15325
875.494	15363
875.623	15428
875.751	15393
875.88	15447
876.008	15488
876.136	15580
876.265	15717
876.393	15979
876.521	15854
876.65	15979
876.778	15854
876.906	15785
877.034	15682
877.162	15717
877.29	15709
877.418	15854
877.546	15812
877.674	15778
877.802	15751
877.93	15888
878.058	15808
878.185	15724
878.313	15793
878.441	15812
878.568	15530
878.696	15739
878.824	15876
878.951	15994
879.079	15994
879.206	16116
879.333	16048
879.461	15918
879.588	15960
879.715	16071
879.842	16135
879.97	15941
880.097	15667
880.224	15679
880.351	15781
880.478	15759
880.605	15641
880.732	15656
880.859	15797
880.986	15694
881.112	15759
881.239	15523
881.366	15439
881.493	15462
881.619	15302
881.746	15302
881.872	15275
881.999	15222
882.125	15245
882.252	15370
882.378	15424
882.505	15473
882.631	15272
882.757	15116
882.883	15264
883.01	15188
883.136	15039
883.262	14891
883.388	14979
883.514	15199
883.64	15150
883.766	15104
883.892	14952
884.018	14948
884.143	15176
884.269	15211
884.395	14952
884.52	14777
884.646	14788
884.772	14815
884.897	14765
885.023	14792
885.148	14982
885.274	14944
885.399	14918
885.524	14845
885.65	14857
885.775	14876
885.9	14838
886.025	14891
886.15	14948
886.275	14796
886.4	14781
886.525	14769
886.65	14788
886.775	14712
886.9	15005
887.025	15081
887.149	14815
887.274	14571
887.399	14617
887.523	14575
887.648	14655
887.773	14526
887.897	14651
888.021	14705
888.146	14583
888.27	14716
888.395	14765
888.519	14705
888.643	14632
888.767	14773
888.891	14617
889.015	14564
889.139	14575
889.263	14495
889.387	14621
889.511	14705
889.635	14571
889.759	14507
889.883	14526
890.006	14640
890.13	14724
890.254	14545
890.377	14396
890.501	14278
890.624	14298
890.748	14438
890.871	14244
890.995	14164
891.118	14119
891.241	14282
891.364	14187
891.488	14370
891.611	14271
891.734	14233
891.857	14214
891.98	14278
892.103	14282
892.226	14282
892.349	14103
892.471	14092
892.594	14187
892.717	14240
892.839	14221
892.962	14237
893.085	14240
893.207	14126
893.33	14195
893.452	14088
893.575	14183
893.697	14240
893.819	14355
893.941	14427
894.064	14358
894.186	14115
894.308	14183
894.43	14339
894.552	14374
894.674	14374
894.796	14206
894.918	14214
895.04	14313
895.161	14305
895.283	14370
895.405	14202
895.526	14282
895.648	14263
895.769	14252
895.891	14301
896.012	14423
896.134	14317
896.255	14301
896.376	14320
896.498	14313
896.619	14355
896.74	14320
896.861	14499
896.982	14853
897.103	14872
897.224	14670
897.345	14640
897.466	14571
897.587	14651
897.708	14819
897.828	14659
897.949	14636
898.07	14568
898.19	14602
898.311	14857
898.431	14560
898.552	14758
898.672	14823
898.792	14785
898.913	14792
899.033	14651
899.153	14602
899.273	14568
899.393	14461
899.513	14526
899.633	14564
899.753	14659
899.873	14568
899.993	14533
900.113	14590
900.232	14552
900.352	14465
900.472	14469
900.591	14454
900.711	14503
900.83	14328
900.95	14610
901.069	14530
901.189	14366
901.308	14176
901.427	14035
901.546	14142
901.665	14157
901.784	14191
901.904	14096
902.023	14043
902.141	13769
902.26	13655
902.379	13757
902.498	13696
902.617	13670
902.735	13795
902.854	13719
902.973	13662
903.091	13403
903.21	13430
903.328	13403
903.446	13441
903.565	13232
903.683	13236
903.801	13194
903.919	13255
904.038	13145
904.156	12958
904.274	13107
904.392	13103
904.51	13027
904.627	13008
904.745	13042
904.863	13137
904.981	12875
905.098	12791
905.216	12738
905.334	12738
905.451	12681
905.569	12696
905.686	12844
905.803	12863
905.921	12536
906.038	12696
906.155	12620
906.272	12486
906.389	12540
906.506	12342
906.623	12456
906.74	12369
906.857	12197
906.974	12209
907.091	12369
907.208	12426
907.324	12380
907.441	12334
907.557	12216
907.674	12076
907.79	12053
907.907	12068
908.023	12159
908.139	12159
908.256	12121
908.372	11988
908.488	12106
908.604	11946
908.72	11954
908.836	11824
908.952	11859
909.068	11878
909.184	11958
909.3	11916
909.415	11931
909.531	11939
909.647	11695
909.762	11665
909.878	11676
909.993	11661
910.108	11604
910.224	11566
910.339	11653
910.454	11554
910.57	11493
910.685	11486
910.8	11748
910.915	11756
911.03	11577
911.145	11330
911.259	11383
911.374	11398
911.489	11292
911.604	11212
911.718	11090
911.833	11166
911.947	10995
912.062	10949
912.176	11098
912.291	11170
912.405	11105
912.519	11250
912.633	11284
912.748	11208
912.862	11090
912.976	11060
913.09	10908
913.204	10900
913.318	10953
913.431	11113
913.545	11178
913.659	11105
913.772	10968
913.886	10911
914	10831
914.113	10946
914.226	11022
914.34	10927
914.453	10797
914.566	10999
914.68	10729
914.793	10771
914.906	10691
915.019	10622
915.132	10641
915.245	10554
915.358	10702
915.47	10626
915.583	10694
915.696	10607
915.809	10812
915.921	10740
916.034	10516
916.146	10508
916.259	10493
916.371	10637
916.483	10645
916.595	10516
916.708	10641
916.82	10588
916.932	10569
917.044	10538
917.156	10519
917.268	10459
917.38	10466
917.491	10443
917.603	10459
917.715	10512
917.826	10508
917.938	10405
918.049	10413
918.161	10440
918.272	10584
918.384	10573
918.495	10500
918.606	10325
918.717	10261
918.828	10432
918.939	10352
919.05	10257
919.161	10265
919.272	10067
919.383	10192
919.494	10348
919.604	10535
919.715	10367
919.826	10363
919.936	10280
920.047	10413
920.157	10337
920.267	10531
920.378	10295
920.488	10299
920.598	10554
920.708	10755
920.818	10554
920.928	10588
921.038	10634
921.148	10603
921.258	10333
921.368	10295
921.477	10147
921.587	10223
921.697	10021
921.806	10230
921.916	10093
922.025	9987
922.134	9842
922.244	9876
922.353	9941
922.462	9838
922.571	9690
922.68	9568
922.789	9603
922.898	9610
923.007	9591
923.116	9584
923.224	9629
923.333	9534
923.442	9507
923.55	9462
923.659	9431
923.767	9580
923.876	9416
923.984	9507
924.092	9443
924.201	9553
924.309	9450
924.417	9397
924.525	9485
924.633	9386
924.741	10348
924.849	9195
924.956	9355
925.064	9268
925.172	9180
925.279	9207
925.387	9199
925.494	9203
925.602	9325
925.709	9389
925.816	9176
925.924	9199
926.031	9275
926.138	9195
926.245	9283
926.352	9146
926.459	9253
926.566	9332
926.673	9154
926.779	9077
926.886	9123
926.993	8944
927.099	8899
927.206	8849
927.312	8834
927.419	8975
927.525	8944
927.631	8929
927.737	8811
927.843	8792
927.95	8655
928.056	8823
928.162	8811
928.267	8861
928.373	9545
928.479	8960
928.585	8579
928.69	8804
928.796	8804
928.901	8746
929.007	8610
929.112	8788
929.218	8663
929.323	8674
929.428	8670
929.533	8792
929.638	8541
929.743	8575
929.848	8705
929.953	8636
930.058	8590
930.163	8404
930.267	8473
930.372	8533
930.477	8412
930.581	8659
930.685	8514
930.79	8389
930.894	8404
930.998	8385
931.103	8423
931.207	8115
931.311	8111
931.415	7978
931.519	7887
931.623	7856
