Data from test_V78500241_1993.txt Node
Date: Fri Mar 25 14:47:35 CST 2022
User: usil
Spectrometer: V785-0024
Trigger mode: 0
Integration Time (sec): 4.000000E-1
Scans to average: 1
Nonlinearity correction enabled: false
Boxcar width: 0
Storing dark spectrum: false
XAxis mode: Wavelengths
Number of Pixels in Spectrum: 1024
>>>>>Begin Spectral Data<<<<<
801.071	22051
801.214	21960
801.356	21675
801.499	21599
801.641	21542
801.783	21458
801.926	21469
802.068	21485
802.211	21230
802.353	21283
802.496	21146
802.638	21017
802.78	20929
802.923	20773
803.065	20739
803.208	20686
803.35	20773
803.492	20914
803.635	20880
803.777	20743
803.919	20857
804.061	21104
804.204	20861
804.346	20682
804.488	20590
804.63	20929
804.773	20651
804.915	20838
805.057	20876
805.199	20743
805.341	20792
805.483	20838
805.626	20838
805.768	20590
805.91	20769
806.052	20655
806.194	20697
806.336	20861
806.478	20754
806.62	20705
806.762	20800
806.904	20891
807.046	21123
807.188	20948
807.33	21043
807.472	21161
807.614	20861
807.756	20902
807.898	20872
808.04	20758
808.182	20689
808.324	20686
808.465	20891
808.607	20979
808.749	21146
808.891	21325
809.033	21237
809.174	21230
809.316	21055
809.458	21058
809.6	21085
809.741	21249
809.883	21195
810.025	21313
810.166	21203
810.308	21195
810.45	21157
810.591	21062
810.733	20967
810.875	20933
811.016	20735
811.158	20842
811.299	20872
811.441	20933
811.582	20994
811.724	20834
811.865	20811
812.007	20735
812.148	20788
812.29	20819
812.431	20982
812.573	21119
812.714	21207
812.855	21199
812.997	21340
813.138	21572
813.279	21454
813.421	21336
813.562	21275
813.703	21096
813.845	20986
813.986	20754
814.127	20552
814.268	20533
814.41	20351
814.551	20381
814.692	20294
814.833	20252
814.974	20317
815.115	20370
815.256	20259
815.397	20248
815.539	20347
815.68	20157
815.821	19955
815.962	20210
816.103	20092
816.244	19917
816.385	19795
816.526	19856
816.666	19601
816.807	19525
816.948	19719
817.089	19655
817.23	19681
817.371	19476
817.512	19529
817.653	19472
817.793	19525
817.934	19590
818.075	19613
818.216	19563
818.356	19472
818.497	19377
818.638	19232
818.778	19213
818.919	19198
819.06	19297
819.2	19430
819.341	19362
819.481	19407
819.622	19533
819.762	19719
819.903	19666
820.043	19597
820.184	19578
820.324	19506
820.465	19578
820.605	19491
820.746	19518
820.886	19445
821.026	19544
821.167	19548
821.307	19457
821.447	19521
821.588	19365
821.728	19164
821.868	19072
822.008	18901
822.149	19019
822.289	18947
822.429	18681
822.569	18654
822.709	18627
822.849	18369
822.99	18376
823.13	18490
823.27	18361
823.41	18232
823.55	18095
823.69	18247
823.83	18117
823.97	18266
824.11	18019
824.25	18022
824.389	18064
824.529	18072
824.669	17999
824.809	18083
824.949	18034
825.089	17988
825.228	18072
825.368	17882
825.508	17847
825.648	17817
825.787	17794
825.927	17802
826.067	17646
826.206	17718
826.346	17729
826.485	17779
826.625	17741
826.765	17939
826.904	17756
827.044	17585
827.183	17585
827.323	17383
827.462	17516
827.601	17501
827.741	17471
827.88	17490
828.02	17395
828.159	17455
828.298	17455
828.437	17554
828.577	17471
828.716	17638
828.855	17429
828.994	17265
829.134	17277
829.273	17307
829.412	17208
829.551	17113
829.69	17128
829.829	17296
829.968	17254
830.107	17254
830.246	17181
830.385	17124
830.524	17098
830.663	17102
830.802	16984
830.941	16778
831.08	16778
831.219	16915
831.357	16904
831.496	17025
831.635	16896
831.774	16725
831.913	16717
832.051	16733
832.19	16554
832.329	16710
832.467	16531
832.606	16432
832.744	16466
832.883	16561
833.022	16459
833.16	16523
833.299	16618
833.437	16691
833.576	16546
833.714	16664
833.852	16615
833.991	16550
834.129	16664
834.267	16710
834.406	16550
834.544	16660
834.682	16672
834.821	16584
834.959	16717
835.097	16508
835.235	16641
835.373	16607
835.511	16679
835.65	16424
835.788	16493
835.926	16459
836.064	16356
836.202	16291
836.34	16523
836.478	16565
836.615	16516
836.753	16443
836.891	16603
837.029	16546
837.167	16447
837.305	16363
837.443	16451
837.58	16390
837.718	16451
837.856	16451
837.993	16363
838.131	16356
838.269	16424
838.406	16333
838.544	16211
838.681	16147
838.819	16044
838.956	16021
839.094	15930
839.231	15972
839.369	16131
839.506	16348
839.643	16105
839.781	15953
839.918	15918
840.055	15968
840.193	15979
840.33	15979
840.467	15941
840.604	16055
840.742	16253
840.879	15838
841.016	15842
841.153	15869
841.29	16051
841.427	16025
841.564	15987
841.701	15949
841.838	15953
841.975	15865
842.112	15835
842.249	15751
842.385	15675
842.522	15926
842.659	15720
842.796	15625
842.933	15759
843.069	15724
843.206	15690
843.343	15835
843.479	15766
843.616	15667
843.752	15572
843.889	15450
844.025	15652
844.162	15477
844.298	15584
844.435	15595
844.571	15405
844.708	15561
844.844	15606
844.98	15728
845.117	15568
845.253	15504
845.389	15401
845.525	15496
845.661	15424
845.798	15389
845.934	15393
846.07	15199
846.206	15374
846.342	15500
846.478	15344
846.614	15119
846.75	15005
846.886	15077
847.022	15173
847.158	15089
847.294	15009
847.429	15199
847.565	15150
847.701	15332
847.837	14883
847.972	14792
848.108	14937
848.244	14823
848.379	14788
848.515	14735
848.65	14708
848.786	14674
848.921	14636
849.057	14868
849.192	14838
849.328	14743
849.463	14667
849.598	14701
849.734	14590
849.869	14606
850.004	14476
850.14	14568
850.275	14511
850.41	14374
850.545	14446
850.68	14427
850.815	14465
850.95	14336
851.085	14610
851.22	14541
851.355	14465
851.49	14442
851.625	14396
851.76	14446
851.895	14286
852.03	14320
852.165	14362
852.299	14473
852.434	14457
852.569	14351
852.703	14473
852.838	14530
852.973	14610
853.107	14636
853.242	14427
853.376	14324
853.511	14237
853.645	14271
853.78	14533
853.914	14233
854.048	14347
854.183	14313
854.317	14328
854.451	14480
854.585	14362
854.72	14317
854.854	14412
854.988	14233
855.122	14328
855.256	14252
855.39	14275
855.524	14412
855.658	14400
855.792	14328
855.926	14404
856.06	14438
856.194	14404
856.327	14336
856.461	14294
856.595	14259
856.729	14370
856.862	14332
856.996	14393
857.13	14389
857.263	14404
857.397	14415
857.53	14282
857.664	14377
857.797	14385
857.931	14530
858.064	14381
858.197	14396
858.331	14309
858.464	14355
858.597	14298
858.731	14298
858.864	14275
858.997	14301
859.13	14362
859.263	14233
859.396	14419
859.529	14301
859.662	14332
859.795	14275
859.928	14305
860.061	14393
860.194	14488
860.327	14259
860.46	14324
860.592	14381
860.725	14393
860.858	14396
860.99	14370
861.123	14187
861.256	14218
861.388	14374
861.521	14986
861.653	14240
861.786	14126
861.918	14176
862.05	14282
862.183	14248
862.315	14366
862.447	14370
862.58	14282
862.712	14111
862.844	14073
862.976	14073
863.108	14126
863.24	14484
863.372	14077
863.504	14119
863.636	14062
863.768	14157
863.9	14084
864.032	13982
864.164	14130
864.296	14084
864.428	14130
864.559	14157
864.691	14256
864.823	14172
864.954	14149
865.086	14126
865.217	14126
865.349	14081
865.48	14077
865.612	14081
865.743	14218
865.875	14031
866.006	14020
866.137	14153
866.269	14130
866.4	14081
866.531	13993
866.662	14046
866.793	14092
866.924	13997
867.055	14016
867.186	14126
867.317	14020
867.448	13887
867.579	14073
867.71	14039
867.841	14001
867.972	14164
868.103	14119
868.233	14103
868.364	14069
868.495	14138
868.625	14275
868.756	14404
868.886	14214
869.017	14332
869.147	14355
869.278	14503
869.408	14370
869.539	14366
869.669	14358
869.799	14450
869.929	14492
870.06	14556
870.19	14735
870.32	14613
870.45	14682
870.58	14708
870.71	14921
870.84	14800
870.97	14712
871.1	14765
871.23	14914
871.36	14948
871.489	14735
871.619	14948
871.749	14948
871.879	15017
872.008	15047
872.138	14899
872.267	14925
872.397	14792
872.526	14762
872.656	14864
872.785	14769
872.915	15017
873.044	14948
873.173	14971
873.303	14944
873.432	15013
873.561	15131
873.69	14914
873.819	14967
873.948	15085
874.077	14952
874.206	15013
874.335	14994
874.464	15112
874.593	15222
874.722	15268
874.851	15260
874.979	15302
875.108	15412
875.237	15211
875.365	15154
875.494	15351
875.623	15294
875.751	15302
875.88	15351
876.008	15416
876.136	15587
876.265	15736
876.393	15865
876.521	15781
876.65	15747
876.778	15766
876.906	15728
877.034	15679
877.162	15625
877.29	15705
877.418	15679
877.546	15694
877.674	15797
877.802	15648
877.93	15732
878.058	15686
878.185	15584
878.313	15656
878.441	15732
878.568	15526
878.696	15709
878.824	15667
878.951	15819
879.079	15873
879.206	16128
879.333	15865
879.461	15778
879.588	15831
879.715	15892
879.842	16055
879.97	15690
880.097	15515
880.224	15530
880.351	15557
880.478	15564
880.605	15584
880.732	15603
880.859	15713
880.986	15580
881.112	15473
881.239	15469
881.366	15355
881.493	15298
881.619	15188
881.746	15218
881.872	15256
881.999	15165
882.125	15256
882.252	15428
882.378	15268
882.505	15310
882.631	15123
882.757	15066
882.883	14963
883.01	14967
883.136	14948
883.262	15009
883.388	14815
883.514	15070
883.64	15066
883.766	15013
883.892	14876
884.018	14918
884.143	15062
884.269	15104
884.395	14754
884.52	14739
884.646	14705
884.772	14708
884.897	14587
885.023	14735
885.148	14807
885.274	14899
885.399	14724
885.524	14617
885.65	14823
885.775	14800
885.9	14781
886.025	14899
886.15	14765
886.275	14701
886.4	14667
886.525	14667
886.65	14705
886.775	14667
886.9	14895
887.025	14956
887.149	14743
887.274	14568
887.399	14575
887.523	14541
887.648	14454
887.773	14446
887.897	14606
888.021	14613
888.146	14552
888.27	14686
888.395	14727
888.519	14575
888.643	14575
888.767	14610
888.891	14473
889.015	14431
889.139	14541
889.263	14370
889.387	14419
889.511	14651
889.635	14575
889.759	14400
889.883	14298
890.006	14499
890.13	14560
890.254	14370
890.377	14415
890.501	14214
890.624	14233
890.748	14339
890.871	14252
890.995	14050
891.118	13986
891.241	14115
891.364	14183
891.488	14206
891.611	14126
891.734	14103
891.857	14187
891.98	14103
892.103	14263
892.226	14225
892.349	14153
892.471	13928
892.594	14092
892.717	14187
892.839	14115
892.962	14164
893.085	14199
893.207	14115
893.33	13982
893.452	14031
893.575	14191
893.697	14084
893.819	14225
893.941	14320
894.064	14305
894.186	14130
894.308	14183
894.43	14343
894.552	14320
894.674	14252
894.796	14168
894.918	14062
895.04	14123
895.161	14271
895.283	14244
895.405	14149
895.526	14183
895.648	14237
895.769	14301
895.891	14271
896.012	14275
896.134	14465
896.255	14294
896.376	14202
896.498	14221
896.619	14374
896.74	14271
896.861	14336
896.982	14598
897.103	14773
897.224	14651
897.345	14492
897.466	14492
897.587	14457
897.708	14701
897.828	14606
897.949	14518
898.07	14454
898.19	14511
898.311	14769
898.431	14625
898.552	14552
898.672	14712
898.792	14708
898.913	14727
899.033	14526
899.153	14476
899.273	14488
899.393	14476
899.513	14408
899.633	14514
899.753	14438
899.873	14419
899.993	14492
900.113	14499
900.232	14499
900.352	14537
900.472	14423
900.591	14290
900.711	14225
900.83	14320
900.95	14385
901.069	14499
901.189	14320
901.308	14020
901.427	13963
901.546	14035
901.665	14035
901.784	14123
901.904	13883
902.023	13868
902.141	13639
902.26	13590
902.379	13658
902.498	13655
902.617	13533
902.735	13616
902.854	13601
902.973	13556
903.091	13335
903.21	13358
903.328	13415
903.446	13225
903.565	13118
903.683	13308
903.801	13110
903.919	13065
904.038	13152
904.156	13042
904.274	13084
904.392	12981
904.51	12977
904.627	12935
904.745	13057
904.863	13008
904.981	12810
905.098	12734
905.216	12669
905.334	12738
905.451	12730
905.569	12665
905.686	12745
905.803	12681
905.921	12547
906.038	12703
906.155	12555
906.272	12365
906.389	12456
906.506	12384
906.623	12243
906.74	12277
906.857	12148
906.974	12182
907.091	12376
907.208	12422
907.324	12315
907.441	12247
907.557	12034
907.674	12019
907.79	11965
907.907	12015
908.023	12083
908.139	11935
908.256	12015
908.372	11958
908.488	11893
908.604	11821
908.72	11798
908.836	11764
908.952	11843
909.068	11748
909.184	11901
909.3	11783
909.415	11840
909.531	11771
909.647	11608
909.762	11596
909.878	11505
909.993	11486
910.108	11425
910.224	11459
910.339	11577
910.454	11493
910.57	11425
910.685	11345
910.8	11691
910.915	11543
911.03	11471
911.145	11280
911.259	11250
911.374	11216
911.489	11181
911.604	11143
911.718	10987
911.833	11006
911.947	10904
912.062	10843
912.176	10953
912.291	11041
912.405	10991
912.519	11178
912.633	11250
912.748	11117
912.862	10919
912.976	10877
913.09	10835
913.204	10809
913.318	10869
913.431	10942
913.545	11014
913.659	10995
913.772	10946
913.886	10782
914	10702
914.113	10862
914.226	10987
914.34	10869
914.453	10656
914.566	10824
914.68	10744
914.793	10702
914.906	10538
915.019	10516
915.132	10485
915.245	10470
915.358	10497
915.47	10497
915.583	10519
915.696	10462
915.809	10653
915.921	10733
916.034	10478
916.146	10436
916.259	10394
916.371	10550
916.483	10474
916.595	10394
916.708	10474
916.82	10440
916.932	10455
917.044	10413
917.156	10443
917.268	10322
917.38	10272
917.491	10329
917.603	10337
917.715	10428
917.826	10470
917.938	10227
918.049	10280
918.161	10322
918.272	10455
918.384	10432
918.495	10310
918.606	10265
918.717	10147
918.828	10200
918.939	10215
919.05	10101
919.161	10150
919.272	10032
919.383	10093
919.494	10314
919.604	10436
919.715	10249
919.826	10158
919.936	10287
920.047	10303
920.157	10261
920.267	10447
920.378	10272
920.488	10257
920.598	10497
920.708	10599
920.818	10455
920.928	10402
921.038	10683
921.148	10516
921.258	10310
921.368	10162
921.477	10150
921.587	10116
921.697	9983
921.806	10223
921.916	9899
922.025	9892
922.134	9751
922.244	9797
922.353	9918
922.462	9747
922.571	9644
922.68	9530
922.789	9496
922.898	9538
923.007	9450
923.116	9523
923.224	9515
923.333	9603
923.442	9401
923.55	9431
923.659	9435
923.767	9447
923.876	9340
923.984	9481
924.092	9268
924.201	9378
924.309	9424
924.417	9420
924.525	9336
924.633	9336
924.741	10234
924.849	9157
924.956	9359
925.064	9192
925.172	9119
925.279	9169
925.387	9256
925.494	9131
925.602	9321
925.709	9294
925.816	9173
925.924	9195
926.031	9245
926.138	9245
926.245	9157
926.352	9051
926.459	9287
926.566	9237
926.673	9184
926.779	8998
926.886	9028
926.993	8948
927.099	8895
927.206	8868
927.312	8933
927.419	8944
927.525	8876
927.631	8921
927.737	8845
927.843	8830
927.95	8689
928.056	8819
928.162	8777
928.267	8876
928.373	9355
928.479	8963
928.585	8640
928.69	8754
928.796	8899
928.901	8708
929.007	8640
929.112	8705
929.218	8697
929.323	8651
929.428	8602
929.533	8720
929.638	8545
929.743	8518
929.848	8686
929.953	8571
930.058	8549
930.163	8370
930.267	8393
930.372	8492
930.477	8393
930.581	8583
930.685	8522
930.79	8332
930.894	8286
930.998	8279
931.103	8419
931.207	8115
931.311	8001
931.415	7955
931.519	7814
931.623	7807
