Data from test_V78500241_3565.txt Node
Date: Fri Mar 25 14:58:32 CST 2022
User: usil
Spectrometer: V785-0024
Trigger mode: 0
Integration Time (sec): 4.000000E-1
Scans to average: 1
Nonlinearity correction enabled: false
Boxcar width: 0
Storing dark spectrum: false
XAxis mode: Wavelengths
Number of Pixels in Spectrum: 1024
>>>>>Begin Spectral Data<<<<<
801.071	21838
801.214	21816
801.356	21561
801.499	21488
801.641	21313
801.783	21275
801.926	21195
802.068	21275
802.211	21272
802.353	21074
802.496	20842
802.638	20758
802.78	20796
802.923	20606
803.065	20644
803.208	20598
803.35	20514
803.492	20621
803.635	20682
803.777	20606
803.919	20705
804.061	20994
804.204	20651
804.346	20583
804.488	20511
804.63	20682
804.773	20454
804.915	20499
805.057	20613
805.199	20480
805.341	20541
805.483	20716
805.626	20568
805.768	20495
805.91	20522
806.052	20381
806.194	20431
806.336	20739
806.478	20476
806.62	20469
806.762	20522
806.904	20762
807.046	20819
807.188	20880
807.33	20746
807.472	20944
807.614	20701
807.756	20731
807.898	20564
808.04	20526
808.182	20442
808.324	20613
808.465	20735
808.607	20750
808.749	20899
808.891	20986
809.033	20975
809.174	20975
809.316	20842
809.458	20914
809.6	20872
809.741	20906
809.883	20967
810.025	21058
810.166	20933
810.308	20994
810.45	20952
810.591	20842
810.733	20777
810.875	20629
811.016	20583
811.158	20492
811.299	20598
811.441	20716
811.582	20693
811.724	20670
811.865	20632
812.007	20587
812.148	20606
812.29	20617
812.431	20887
812.573	20857
812.714	21131
812.855	21180
812.997	21203
813.138	21241
813.279	21199
813.421	20990
813.562	21036
813.703	20811
813.845	20830
813.986	20438
814.127	20301
814.268	20248
814.41	20244
814.551	20183
814.692	20362
814.833	20043
814.974	20096
815.115	20161
815.256	19978
815.397	20027
815.539	19955
815.68	19860
815.821	19803
815.962	19814
816.103	19894
816.244	19776
816.385	19715
816.526	19677
816.666	19499
816.807	19324
816.948	19365
817.089	19384
817.23	19304
817.371	19411
817.512	19266
817.653	19244
817.793	19392
817.934	19331
818.075	19255
818.216	19225
818.356	19202
818.497	19137
818.638	18856
818.778	19027
818.919	19046
819.06	19008
819.2	19152
819.341	19126
819.481	19145
819.622	19362
819.762	19556
819.903	19358
820.043	19377
820.184	19350
820.324	19327
820.465	19316
820.605	19244
820.746	19282
820.886	19004
821.026	19221
821.167	19232
821.307	19312
821.447	19206
821.588	19126
821.728	18981
821.868	18859
822.008	18684
822.149	18677
822.289	18635
822.429	18433
822.569	18369
822.709	18338
822.849	18262
822.99	18076
823.13	18098
823.27	18197
823.41	18125
823.55	17817
823.69	17939
823.83	18079
823.97	17920
824.11	17779
824.25	17786
824.389	17767
824.529	17843
824.669	17764
824.809	17897
824.949	17889
825.089	17760
825.228	17775
825.368	17585
825.508	17558
825.648	17543
825.787	17551
825.927	17611
826.067	17364
826.206	17398
826.346	17592
826.485	17570
826.625	17372
826.765	17528
826.904	17532
827.044	17318
827.183	17273
827.323	17216
827.462	17353
827.601	17174
827.741	17242
827.88	17284
828.02	17083
828.159	17166
828.298	17307
828.437	17258
828.577	17250
828.716	17334
828.855	17235
828.994	16976
829.134	17090
829.273	16999
829.412	16946
829.551	16889
829.69	16976
829.829	17010
829.968	17083
830.107	17166
830.246	16984
830.385	16968
830.524	16995
830.663	16736
830.802	16717
830.941	16588
831.08	16599
831.219	16630
831.357	16664
831.496	16877
831.635	16599
831.774	16413
831.913	16516
832.051	16428
832.19	16337
832.329	16375
832.467	16360
832.606	16306
832.744	16295
832.883	16291
833.022	16360
833.16	16242
833.299	16405
833.437	16356
833.576	16356
833.714	16337
833.852	16299
833.991	16287
834.129	16481
834.267	16402
834.406	16344
834.544	16474
834.682	16432
834.821	16375
834.959	16558
835.097	16306
835.235	16542
835.373	16424
835.511	16466
835.65	16303
835.788	16276
835.926	16177
836.064	16071
836.202	16173
836.34	16341
836.478	16432
836.615	16310
836.753	16314
836.891	16375
837.029	16386
837.167	16265
837.305	16287
837.443	16154
837.58	16166
837.718	16276
837.856	16261
837.993	16051
838.131	16093
838.269	15975
838.406	16105
838.544	16051
838.681	15865
838.819	15869
838.956	15686
839.094	15720
839.231	15774
839.369	15774
839.506	16128
839.643	16036
839.781	15667
839.918	15739
840.055	15671
840.193	15705
840.33	15759
840.467	15766
840.604	15648
840.742	16048
840.879	15622
841.016	15629
841.153	15667
841.29	15781
841.427	15797
841.564	15709
841.701	15679
841.838	15720
841.975	15637
842.112	15648
842.249	15431
842.385	15492
842.522	15739
842.659	15572
842.796	15439
842.933	15473
843.069	15625
843.206	15382
843.343	15549
843.479	15591
843.616	15454
843.752	15279
843.889	15298
844.025	15359
844.162	15291
844.298	15386
844.435	15332
844.571	15256
844.708	15359
844.844	15462
844.98	15450
845.117	15443
845.253	15207
845.389	15127
845.525	15230
845.661	15173
845.798	15112
845.934	15169
846.07	15013
846.206	15081
846.342	15230
846.478	15131
846.614	14906
846.75	14868
846.886	14918
847.022	14941
847.158	14902
847.294	14963
847.429	14891
847.565	14800
847.701	15024
847.837	14610
847.972	14613
848.108	14701
848.244	14674
848.379	14461
848.515	14404
848.65	14339
848.786	14389
848.921	14484
849.057	14602
849.192	14526
849.328	14587
849.463	14473
849.598	14454
849.734	14381
849.869	14377
850.004	14298
850.14	14313
850.275	14286
850.41	14134
850.545	14244
850.68	14199
850.815	14210
850.95	14252
851.085	14476
851.22	14271
851.355	14214
851.49	14187
851.625	14138
851.76	14119
851.895	14084
852.03	14168
852.165	14237
852.299	14271
852.434	14221
852.569	14286
852.703	14263
852.838	14305
852.973	14385
853.107	14370
853.242	14161
853.376	14073
853.511	14020
853.645	14115
853.78	14172
853.914	14153
854.048	14149
854.183	14073
854.317	14126
854.451	14275
854.585	14161
854.72	14172
854.854	14096
854.988	14027
855.122	14115
855.256	14039
855.39	14065
855.524	14130
855.658	14218
855.792	14126
855.926	14134
856.06	14164
856.194	14221
856.327	14145
856.461	14107
856.595	14016
856.729	14054
856.862	14142
856.996	14126
857.13	14187
857.263	14191
857.397	14298
857.53	14119
857.664	14225
857.797	14244
857.931	14214
858.064	14240
858.197	14248
858.331	14164
858.464	14058
858.597	14103
858.731	14103
858.864	14119
858.997	14081
859.13	14168
859.263	14111
859.396	14263
859.529	14123
859.662	14126
859.795	14202
859.928	14199
860.061	14290
860.194	14282
860.327	14164
860.46	14077
860.592	14195
860.725	14206
860.858	14237
860.99	14126
861.123	13967
861.256	14024
861.388	14180
861.521	14872
861.653	13921
861.786	13932
861.918	13970
862.05	14081
862.183	14073
862.315	14206
862.447	14187
862.58	14058
862.712	13898
862.844	13818
862.976	13925
863.108	13906
863.24	14225
863.372	13715
863.504	14046
863.636	13803
863.768	13947
863.9	13955
864.032	13871
864.164	13906
864.296	13898
864.428	14073
864.559	14001
864.691	13993
864.823	14005
864.954	14008
865.086	13906
865.217	13875
865.349	13841
865.48	13780
865.612	13963
865.743	14054
865.875	13936
866.006	13849
866.137	13955
866.269	13852
866.4	13852
866.531	13879
866.662	13833
866.793	13784
866.924	13887
867.055	13940
867.186	13955
867.317	13784
867.448	13681
867.579	13875
867.71	13856
867.841	13811
867.972	13887
868.103	13799
868.233	13959
868.364	13894
868.495	13959
868.625	14100
868.756	14202
868.886	13955
869.017	14180
869.147	14225
869.278	14347
869.408	14229
869.539	14073
869.669	14164
869.799	14187
869.929	14206
870.06	14259
870.19	14473
870.32	14450
870.45	14492
870.58	14530
870.71	14602
870.84	14590
870.97	14560
871.1	14454
871.23	14701
871.36	14724
871.489	14590
871.619	14667
871.749	14663
871.879	14853
872.008	14826
872.138	14762
872.267	14743
872.397	14606
872.526	14602
872.656	14583
872.785	14552
872.915	14678
873.044	14815
873.173	14743
873.303	14960
873.432	14887
873.561	14842
873.69	14781
873.819	14838
873.948	14921
874.077	14914
874.206	14716
874.335	14925
874.464	14921
874.593	15100
874.722	15112
874.851	15173
874.979	15150
875.108	15085
875.237	15055
875.365	15020
875.494	15081
875.623	15207
875.751	15108
875.88	15154
876.008	15237
876.136	15321
876.265	15511
876.393	15622
876.521	15637
876.65	15622
876.778	15511
876.906	15538
877.034	15351
877.162	15515
877.29	15458
877.418	15450
877.546	15595
877.674	15481
877.802	15580
877.93	15534
878.058	15450
878.185	15511
878.313	15553
878.441	15538
878.568	15374
878.696	15477
878.824	15530
878.951	15633
879.079	15614
879.206	15880
879.333	15762
879.461	15610
879.588	15587
879.715	15656
879.842	15861
879.97	15595
880.097	15386
880.224	15313
880.351	15466
880.478	15454
880.605	15306
880.732	15310
880.859	15603
880.986	15523
881.112	15424
881.239	15279
881.366	15123
881.493	15100
881.619	15036
881.746	15089
881.872	15043
881.999	15039
882.125	15108
882.252	15051
882.378	15062
882.505	15150
882.631	15032
882.757	14731
882.883	14914
883.01	14819
883.136	14804
883.262	14811
883.388	14708
883.514	14975
883.64	14891
883.766	14769
883.892	14697
884.018	14727
884.143	14796
884.269	14994
884.395	14716
884.52	14473
884.646	14583
884.772	14484
884.897	14522
885.023	14602
885.148	14617
885.274	14792
885.399	14670
885.524	14579
885.65	14560
885.775	14594
885.9	14537
886.025	14750
886.15	14598
886.275	14590
886.4	14492
886.525	14686
886.65	14537
886.775	14537
886.9	14815
887.025	14743
887.149	14568
887.274	14415
887.399	14419
887.523	14339
887.648	14267
887.773	14358
887.897	14393
888.021	14469
888.146	14389
888.27	14492
888.395	14488
888.519	14393
888.643	14396
888.767	14427
888.891	14309
889.015	14248
889.139	14362
889.263	14202
889.387	14358
889.511	14404
889.635	14355
889.759	14298
889.883	14176
890.006	14252
890.13	14355
890.254	14180
890.377	14187
890.501	14065
890.624	14008
890.748	14096
890.871	14008
890.995	13902
891.118	13852
891.241	13974
891.364	13890
891.488	14119
891.611	14005
891.734	14031
891.857	14027
891.98	14035
892.103	14073
892.226	14039
892.349	13947
892.471	13830
892.594	13963
892.717	14016
892.839	14005
892.962	13902
893.085	14077
893.207	13959
893.33	13913
893.452	13879
893.575	13978
893.697	13970
893.819	14088
893.941	14134
894.064	14115
894.186	13989
894.308	13967
894.43	14077
894.552	14161
894.674	14187
894.796	13932
894.918	13963
895.04	14012
895.161	14065
895.283	14107
895.405	14043
895.526	13982
895.648	14039
895.769	14126
895.891	14024
896.012	14069
896.134	14111
896.255	14145
896.376	14123
896.498	14092
896.619	14157
896.74	14077
896.861	14206
896.982	14442
897.103	14598
897.224	14469
897.345	14362
897.466	14282
897.587	14317
897.708	14522
897.828	14442
897.949	14370
898.07	14252
898.19	14389
898.311	14537
898.431	14469
898.552	14438
898.672	14648
898.792	14579
898.913	14518
899.033	14461
899.153	14355
899.273	14282
899.393	14301
899.513	14355
899.633	14313
899.753	14336
899.873	14343
899.993	14358
900.113	14389
900.232	14332
900.352	14358
900.472	14244
900.591	14138
900.711	14176
900.83	14229
900.95	14305
901.069	14355
901.189	14123
901.308	13978
901.427	13784
901.546	13837
901.665	13967
901.784	13784
901.904	13788
902.023	13685
902.141	13578
902.26	13411
902.379	13639
902.498	13483
902.617	13506
902.735	13438
902.854	13468
902.973	13407
903.091	13164
903.21	13129
903.328	13145
903.446	13088
903.565	13145
903.683	13080
903.801	12894
903.919	12909
904.038	13069
904.156	12894
904.274	12901
904.392	12806
904.51	12829
904.627	12829
904.745	12863
904.863	12878
904.981	12692
905.098	12536
905.216	12570
905.334	12551
905.451	12563
905.569	12525
905.686	12601
905.803	12597
905.921	12426
906.038	12483
906.155	12353
906.272	12213
906.389	12224
906.506	12144
906.623	12076
906.74	12167
906.857	12026
906.974	12034
907.091	12148
907.208	12262
907.324	12213
907.441	12045
907.557	11912
907.674	11859
907.79	11771
907.907	11870
908.023	11885
908.139	11912
908.256	11893
908.372	11767
908.488	11824
908.604	11676
908.72	11642
908.836	11634
908.952	11619
909.068	11707
909.184	11733
909.3	11596
909.415	11695
909.531	11585
909.647	11482
909.762	11436
909.878	11406
909.993	11452
910.108	11410
910.224	11429
910.339	11334
910.454	11299
910.57	11299
910.685	11337
910.8	11505
910.915	11364
911.03	11277
911.145	11109
911.259	11132
911.374	11132
911.489	11060
911.604	10972
911.718	10923
911.833	10896
911.947	10748
912.062	10774
912.176	10866
912.291	10862
912.405	10877
912.519	11010
912.633	11098
912.748	10919
912.862	10793
912.976	10736
913.09	10656
913.204	10725
913.318	10736
913.431	10877
913.545	10797
913.659	10873
913.772	10793
913.886	10664
914	10611
914.113	10759
914.226	10786
914.34	10675
914.453	10519
914.566	10721
914.68	10538
914.793	10637
914.906	10405
915.019	10322
915.132	10299
915.245	10367
915.358	10352
915.47	10352
915.583	10440
915.696	10405
915.809	10516
915.921	10527
916.034	10333
916.146	10390
916.259	10322
916.371	10440
916.483	10417
916.595	10329
916.708	10257
916.82	10299
916.932	10261
917.044	10371
917.156	10318
917.268	10261
917.38	10230
917.491	10204
917.603	10196
917.715	10249
917.826	10390
917.938	10227
918.049	10120
918.161	10257
918.272	10360
918.384	10341
918.495	10295
918.606	10143
918.717	10063
918.828	10090
918.939	10188
919.05	9975
919.161	10040
919.272	9903
919.383	9934
919.494	10211
919.604	10341
919.715	10200
919.826	10021
919.936	10128
920.047	10154
920.157	10112
920.267	10322
920.378	10166
920.488	10086
920.598	10318
920.708	10428
920.818	10310
920.928	10333
921.038	10478
921.148	10527
921.258	10173
921.368	10063
921.477	9975
921.587	9941
921.697	9842
921.806	10059
921.916	9846
922.025	9759
922.134	9717
922.244	9679
922.353	9675
922.462	9530
922.571	9473
922.68	9408
922.789	9348
922.898	9386
923.007	9275
923.116	9416
923.224	9348
923.333	9378
923.442	9298
923.55	9222
923.659	9321
923.767	9382
923.876	9310
923.984	9283
924.092	9165
924.201	9230
924.309	9272
924.417	9302
924.525	9188
924.633	9211
924.741	9979
924.849	9005
924.956	9199
925.064	8994
925.172	8937
925.279	8948
925.387	9051
925.494	9009
925.602	9176
925.709	9157
925.816	9020
925.924	9085
926.031	9085
926.138	9043
926.245	9070
926.352	8933
926.459	9070
926.566	9119
926.673	9070
926.779	8925
926.886	8952
926.993	8781
927.099	8754
927.206	8754
927.312	8815
927.419	8830
927.525	8754
927.631	8796
927.737	8632
927.843	8689
927.95	8507
928.056	8632
928.162	8708
928.267	8758
928.373	9245
928.479	8743
928.585	8480
928.69	8598
928.796	8617
928.901	8583
929.007	8396
929.112	8590
929.218	8530
929.323	8522
929.428	8499
929.533	8602
929.638	8374
929.743	8450
929.848	8488
929.953	8495
930.058	8415
930.163	8210
930.267	8256
930.372	8419
930.477	8176
930.581	8518
930.685	8294
930.79	8180
930.894	8187
930.998	8126
931.103	8339
931.207	8008
931.311	7932
931.415	7818
931.519	7712
931.623	7731
