Data from test_V78500241_3571.txt Node
Date: Fri Mar 25 14:58:34 CST 2022
User: usil
Spectrometer: V785-0024
Trigger mode: 0
Integration Time (sec): 4.000000E-1
Scans to average: 1
Nonlinearity correction enabled: false
Boxcar width: 0
Storing dark spectrum: false
XAxis mode: Wavelengths
Number of Pixels in Spectrum: 1024
>>>>>Begin Spectral Data<<<<<
801.071	21907
801.214	21759
801.356	21553
801.499	21443
801.641	21386
801.783	21233
801.926	21317
802.068	21279
802.211	21146
802.353	21142
802.496	20948
802.638	20880
802.78	20777
802.923	20594
803.065	20590
803.208	20598
803.35	20625
803.492	20678
803.635	20807
803.777	20651
803.919	20644
804.061	20986
804.204	20712
804.346	20549
804.488	20427
804.63	20598
804.773	20431
804.915	20442
805.057	20507
805.199	20358
805.341	20469
805.483	20617
805.626	20667
805.768	20495
805.91	20522
806.052	20636
806.194	20473
806.336	20606
806.478	20415
806.62	20332
806.762	20568
806.904	20697
807.046	20944
807.188	20804
807.33	20735
807.472	20826
807.614	20849
807.756	20731
807.898	20648
808.04	20541
808.182	20617
808.324	20552
808.465	20560
808.607	20769
808.749	20899
808.891	20910
809.033	21066
809.174	20944
809.316	20845
809.458	20838
809.6	20796
809.741	20906
809.883	20895
810.025	21039
810.166	20963
810.308	20963
810.45	20994
810.591	20861
810.733	20617
810.875	20602
811.016	20568
811.158	20568
811.299	20602
811.441	20731
811.582	20796
811.724	20545
811.865	20674
812.007	20495
812.148	20465
812.29	20743
812.431	20758
812.573	20883
812.714	21036
812.855	21055
812.997	21150
813.138	21374
813.279	21214
813.421	20994
813.562	21036
813.703	20769
813.845	20670
813.986	20415
814.127	20343
814.268	20328
814.41	20218
814.551	20176
814.692	20157
814.833	20005
814.974	20100
815.115	20130
815.256	19963
815.397	19913
815.539	20035
815.68	19887
815.821	19784
815.962	19951
816.103	19830
816.244	19807
816.385	19514
816.526	19571
816.666	19346
816.807	19259
816.948	19343
817.089	19346
817.23	19225
817.371	19449
817.512	19304
817.653	19221
817.793	19255
817.934	19263
818.075	19362
818.216	19285
818.356	19244
818.497	19084
818.638	18901
818.778	18973
818.919	18985
819.06	18989
819.2	19255
819.341	19103
819.481	19221
819.622	19407
819.762	19476
819.903	19426
820.043	19320
820.184	19175
820.324	19270
820.465	19312
820.605	19217
820.746	19259
820.886	19118
821.026	19148
821.167	19126
821.307	19278
821.447	19240
821.588	19072
821.728	18814
821.868	18935
822.008	18574
822.149	18681
822.289	18646
822.429	18509
822.569	18380
822.709	18391
822.849	18243
822.99	18232
823.13	18087
823.27	18038
823.41	17901
823.55	17863
823.69	17916
823.83	17870
823.97	17843
824.11	17741
824.25	17691
824.389	17703
824.529	17912
824.669	17752
824.809	17893
824.949	17809
825.089	17786
825.228	17756
825.368	17592
825.508	17467
825.648	17623
825.787	17581
825.927	17566
826.067	17497
826.206	17448
826.346	17497
826.485	17577
826.625	17592
826.765	17627
826.904	17558
827.044	17261
827.183	17204
827.323	17189
827.462	17231
827.601	17246
827.741	17140
827.88	17307
828.02	17162
828.159	17090
828.298	17170
828.437	17208
828.577	17132
828.716	17349
828.855	17185
828.994	17033
829.134	17037
829.273	16934
829.412	16953
829.551	17041
829.69	16987
829.829	16904
829.968	17117
830.107	16965
830.246	16984
830.385	16892
830.524	16946
830.663	16805
830.802	16687
830.941	16538
831.08	16698
831.219	16733
831.357	16660
831.496	16843
831.635	16550
831.774	16561
831.913	16459
832.051	16470
832.19	16459
832.329	16394
832.467	16356
832.606	16261
832.744	16276
832.883	16329
833.022	16200
833.16	16287
833.299	16299
833.437	16405
833.576	16299
833.714	16310
833.852	16405
833.991	16394
834.129	16459
834.267	16462
834.406	16474
834.544	16382
834.682	16390
834.821	16314
834.959	16478
835.097	16268
835.235	16451
835.373	16352
835.511	16424
835.65	16265
835.788	16314
835.926	16055
836.064	16124
836.202	16162
836.34	16337
836.478	16409
836.615	16261
836.753	16341
836.891	16459
837.029	16314
837.167	16367
837.305	16128
837.443	16185
837.58	16192
837.718	16192
837.856	16090
837.993	16139
838.131	16101
838.269	16093
838.406	16128
838.544	16017
838.681	15876
838.819	15831
838.956	15778
839.094	15728
839.231	15690
839.369	15880
839.506	16162
839.643	15979
839.781	15762
839.918	15633
840.055	15728
840.193	15743
840.33	15766
840.467	15713
840.604	15854
840.742	15987
840.879	15549
841.016	15637
841.153	15671
841.29	15762
841.427	15747
841.564	15785
841.701	15698
841.838	15675
841.975	15747
842.112	15698
842.249	15504
842.385	15485
842.522	15732
842.659	15488
842.796	15447
842.933	15557
843.069	15424
843.206	15435
843.343	15557
843.479	15511
843.616	15545
843.752	15336
843.889	15256
844.025	15435
844.162	15211
844.298	15447
844.435	15344
844.571	15291
844.708	15317
844.844	15367
844.98	15485
845.117	15378
845.253	15306
845.389	15291
845.525	15211
845.661	15157
845.798	15051
845.934	15169
846.07	15009
846.206	15077
846.342	15214
846.478	15135
846.614	14975
846.75	14849
846.886	14948
847.022	15051
847.158	14952
847.294	14971
847.429	14948
847.565	14773
847.701	15081
847.837	14644
847.972	14621
848.108	14754
848.244	14594
848.379	14549
848.515	14473
848.65	14431
848.786	14442
848.921	14514
849.057	14537
849.192	14549
849.328	14503
849.463	14503
849.598	14480
849.734	14305
849.869	14355
850.004	14206
850.14	14332
850.275	14320
850.41	14145
850.545	14237
850.68	14199
850.815	14168
850.95	14191
851.085	14419
851.22	14358
851.355	14233
851.49	14210
851.625	14195
851.76	14214
851.895	14065
852.03	14149
852.165	14271
852.299	14259
852.434	14412
852.569	14271
852.703	14252
852.838	14332
852.973	14427
853.107	14446
853.242	14328
853.376	14183
853.511	13944
853.645	14130
853.78	14225
853.914	14103
854.048	14138
854.183	14035
854.317	14130
854.451	14244
854.585	14142
854.72	14088
854.854	14119
854.988	14119
855.122	14039
855.256	13940
855.39	14088
855.524	14195
855.658	14058
855.792	14161
855.926	14153
856.06	14168
856.194	14191
856.327	14077
856.461	14069
856.595	14039
856.729	14012
856.862	14210
856.996	14130
857.13	14172
857.263	14199
857.397	14123
857.53	14058
857.664	14229
857.797	14157
857.931	14210
858.064	14176
858.197	14225
858.331	14153
858.464	14126
858.597	14069
858.731	14073
858.864	14062
858.997	14065
859.13	14153
859.263	14103
859.396	14290
859.529	14100
859.662	14153
859.795	14062
859.928	14164
860.061	14259
860.194	14301
860.327	14126
860.46	14020
860.592	14263
860.725	14237
860.858	14275
860.99	14164
861.123	14103
861.256	14065
861.388	14065
861.521	14925
861.653	13951
861.786	14020
861.918	13925
862.05	14008
862.183	14027
862.315	14123
862.447	14164
862.58	14084
862.712	13959
862.844	13769
862.976	13898
863.108	13982
863.24	14218
863.372	13890
863.504	13928
863.636	13917
863.768	13967
863.9	14043
864.032	13883
864.164	13909
864.296	13875
864.428	13978
864.559	13947
864.691	14035
864.823	13875
864.954	13959
865.086	13936
865.217	13860
865.349	13890
865.48	13944
865.612	13909
865.743	13989
865.875	13890
866.006	13818
866.137	13841
866.269	13883
866.4	13902
866.531	13738
866.662	13849
866.793	13864
866.924	13845
867.055	13902
867.186	13807
867.317	13807
867.448	13769
867.579	13791
867.71	13807
867.841	13811
867.972	13864
868.103	13890
868.233	13856
868.364	13894
868.495	13894
868.625	14020
868.756	14218
868.886	14088
869.017	14119
869.147	14320
869.278	14305
869.408	14134
869.539	14096
869.669	14221
869.799	14142
869.929	14252
870.06	14305
870.19	14503
870.32	14469
870.45	14518
870.58	14518
870.71	14659
870.84	14636
870.97	14518
871.1	14495
871.23	14674
871.36	14705
871.489	14746
871.619	14716
871.749	14750
871.879	14811
872.008	14792
872.138	14739
872.267	14834
872.397	14606
872.526	14552
872.656	14545
872.785	14590
872.915	14754
873.044	14853
873.173	14781
873.303	14788
873.432	14830
873.561	14853
873.69	14842
873.819	14792
873.948	14781
874.077	14868
874.206	14788
874.335	14887
874.464	15009
874.593	15062
874.722	15009
874.851	15169
874.979	15104
875.108	15165
875.237	15070
875.365	15028
875.494	15051
875.623	15093
875.751	15047
875.88	15097
876.008	15313
876.136	15283
876.265	15485
876.393	15610
876.521	15603
876.65	15652
876.778	15606
876.906	15519
877.034	15477
877.162	15458
877.29	15466
877.418	15542
877.546	15496
877.674	15557
877.802	15454
877.93	15557
878.058	15450
878.185	15477
878.313	15473
878.441	15485
878.568	15431
878.696	15431
878.824	15477
878.951	15663
879.079	15781
879.206	15869
879.333	15816
879.461	15564
879.588	15641
879.715	15701
879.842	15857
879.97	15648
880.097	15424
880.224	15344
880.351	15374
880.478	15439
880.605	15382
880.732	15401
880.859	15526
880.986	15393
881.112	15428
881.239	15279
881.366	15138
881.493	15252
881.619	15001
881.746	15097
881.872	15039
881.999	15055
882.125	14967
882.252	15233
882.378	15195
882.505	15180
882.631	14994
882.757	14750
882.883	14918
883.01	14868
883.136	14731
883.262	14708
883.388	14712
883.514	14952
883.64	14941
883.766	14743
883.892	14674
884.018	14735
884.143	14868
884.269	14895
884.395	14693
884.52	14568
884.646	14583
884.772	14492
884.897	14412
885.023	14617
885.148	14667
885.274	14686
885.399	14651
885.524	14476
885.65	14587
885.775	14537
885.9	14606
886.025	14727
886.15	14568
886.275	14530
886.4	14385
886.525	14556
886.65	14484
886.775	14545
886.9	14720
887.025	14735
887.149	14632
887.274	14450
887.399	14454
887.523	14355
887.648	14377
887.773	14259
887.897	14454
888.021	14339
888.146	14358
888.27	14503
888.395	14492
888.519	14438
888.643	14461
888.767	14499
888.891	14256
889.015	14275
889.139	14317
889.263	14290
889.387	14358
889.511	14522
889.635	14400
889.759	14183
889.883	14301
890.006	14275
890.13	14415
890.254	14153
890.377	14180
890.501	14073
890.624	13959
890.748	14195
890.871	13928
890.995	13913
891.118	13826
891.241	13928
891.364	13993
891.488	14069
891.611	13974
891.734	14005
891.857	13951
891.98	13944
892.103	14039
892.226	14012
892.349	13963
892.471	13795
892.594	13898
892.717	14050
892.839	13902
892.962	13989
893.085	14016
893.207	13925
893.33	13833
893.452	13982
893.575	14031
893.697	13925
893.819	14172
893.941	14142
894.064	14103
894.186	13868
894.308	13879
894.43	14050
894.552	14103
894.674	14084
894.796	14005
894.918	14012
895.04	14046
895.161	14126
895.283	14100
895.405	14016
895.526	14077
895.648	14081
895.769	14134
895.891	14050
896.012	14138
896.134	14229
896.255	14020
896.376	14103
896.498	14096
896.619	14187
896.74	14100
896.861	14221
896.982	14442
897.103	14640
897.224	14526
897.345	14385
897.466	14362
897.587	14362
897.708	14480
897.828	14484
897.949	14431
898.07	14267
898.19	14328
898.311	14644
898.431	14408
898.552	14488
898.672	14503
898.792	14606
898.913	14575
899.033	14412
899.153	14385
899.273	14195
899.393	14294
899.513	14339
899.633	14370
899.753	14400
899.873	14389
899.993	14431
900.113	14389
900.232	14370
900.352	14218
900.472	14244
900.591	14237
900.711	14233
900.83	14214
900.95	14199
901.069	14282
901.189	14187
901.308	13856
901.427	13822
901.546	13833
901.665	13883
901.784	13921
901.904	13715
902.023	13674
902.141	13445
902.26	13510
902.379	13495
902.498	13525
902.617	13403
902.735	13453
902.854	13506
902.973	13384
903.091	13183
903.21	13126
903.328	13137
903.446	13038
903.565	13019
903.683	13126
903.801	12890
903.919	13046
904.038	13019
904.156	12916
904.274	12894
904.392	12802
904.51	12791
904.627	12806
904.745	12863
904.863	12943
904.981	12688
905.098	12403
905.216	12525
905.334	12551
905.451	12479
905.569	12551
905.686	12582
905.803	12509
905.921	12308
906.038	12429
906.155	12342
906.272	12178
906.389	12213
906.506	12060
906.623	12102
906.74	12102
906.857	12026
906.974	12049
907.091	12171
907.208	12304
907.324	12167
907.441	12026
907.557	11954
907.674	11813
907.79	11756
907.907	11885
908.023	11897
908.139	11901
908.256	11786
908.372	11840
908.488	11783
908.604	11707
908.72	11562
908.836	11615
908.952	11649
909.068	11596
909.184	11752
909.3	11619
909.415	11726
909.531	11623
909.647	11417
909.762	11448
909.878	11406
909.993	11516
910.108	11436
910.224	11349
910.339	11414
910.454	11227
910.57	11239
910.685	11185
910.8	11509
910.915	11482
911.03	11345
911.145	11143
911.259	11147
911.374	11178
911.489	11045
911.604	10972
911.718	10869
911.833	10885
911.947	10752
912.062	10687
912.176	10869
912.291	10843
912.405	10900
912.519	11056
912.633	11109
912.748	10934
912.862	10854
912.976	10740
913.09	10645
913.204	10733
913.318	10809
913.431	10904
913.545	10771
913.659	10843
913.772	10755
913.886	10668
914	10618
914.113	10733
914.226	10767
914.34	10694
914.453	10580
914.566	10763
914.68	10584
914.793	10599
914.906	10417
915.019	10348
915.132	10344
915.245	10367
915.358	10424
915.47	10428
915.583	10504
915.696	10379
915.809	10554
915.921	10455
916.034	10382
916.146	10394
916.259	10367
916.371	10470
916.483	10440
916.595	10257
916.708	10348
916.82	10382
916.932	10207
917.044	10367
917.156	10280
917.268	10227
917.38	10333
917.491	10299
917.603	10303
917.715	10303
917.826	10257
917.938	10253
918.049	10055
918.161	10219
918.272	10413
918.384	10333
918.495	10280
918.606	10131
918.717	10055
918.828	10177
918.939	10154
919.05	10002
919.161	10112
919.272	9918
919.383	9968
919.494	10166
919.604	10280
919.715	10158
919.826	10063
919.936	10093
920.047	10276
920.157	10135
920.267	10371
920.378	10147
920.488	10055
920.598	10352
920.708	10493
920.818	10238
920.928	10344
921.038	10523
921.148	10535
921.258	10207
921.368	10067
921.477	9998
921.587	9960
921.697	9827
921.806	10021
921.916	9888
922.025	9713
922.134	9717
922.244	9622
922.353	9740
922.462	9568
922.571	9530
922.68	9382
922.789	9428
922.898	9321
923.007	9344
923.116	9389
923.224	9397
923.333	9348
923.442	9233
923.55	9275
923.659	9325
923.767	9306
923.876	9226
923.984	9272
924.092	9184
924.201	9302
924.309	9161
924.417	9237
924.525	9123
924.633	9268
924.741	9983
924.849	9028
924.956	9180
925.064	9039
925.172	8948
925.279	8998
925.387	9077
925.494	9047
925.602	9173
925.709	9127
925.816	8990
925.924	9074
926.031	9131
926.138	8982
926.245	9119
926.352	8986
926.459	9036
926.566	9131
926.673	8971
926.779	8948
926.886	8906
926.993	8746
927.099	8781
927.206	8724
927.312	8758
927.419	8762
927.525	8727
927.631	8826
927.737	8674
927.843	8663
927.95	8514
928.056	8632
928.162	8686
928.267	8682
928.373	9321
928.479	8731
928.585	8495
928.69	8667
928.796	8735
928.901	8606
929.007	8404
929.112	8575
929.218	8556
929.323	8552
929.428	8419
929.533	8606
929.638	8454
929.743	8488
929.848	8537
929.953	8450
930.058	8301
930.163	8172
930.267	8259
930.372	8438
930.477	8225
930.581	8434
930.685	8298
930.79	8176
930.894	8221
930.998	8187
931.103	8275
931.207	7974
931.311	7890
931.415	7883
931.519	7715
931.623	7647
