Data from test_V78500241_3356.txt Node
Date: Fri Mar 25 14:57:04 CST 2022
User: usil
Spectrometer: V785-0024
Trigger mode: 0
Integration Time (sec): 4.000000E-1
Scans to average: 1
Nonlinearity correction enabled: false
Boxcar width: 0
Storing dark spectrum: false
XAxis mode: Wavelengths
Number of Pixels in Spectrum: 1024
>>>>>Begin Spectral Data<<<<<
801.071	21991
801.214	21865
801.356	21568
801.499	21526
801.641	21340
801.783	21332
801.926	21336
802.068	21355
802.211	21169
802.353	21131
802.496	20967
802.638	20777
802.78	20777
802.923	20625
803.065	20705
803.208	20640
803.35	20686
803.492	20788
803.635	20796
803.777	20689
803.919	20842
804.061	21020
804.204	20705
804.346	20640
804.488	20473
804.63	20571
804.773	20564
804.915	20461
805.057	20712
805.199	20613
805.341	20556
805.483	20674
805.626	20602
805.768	20556
805.91	20507
806.052	20625
806.194	20492
806.336	20667
806.478	20568
806.62	20419
806.762	20465
806.904	20815
807.046	20937
807.188	20887
807.33	20815
807.472	20960
807.614	20853
807.756	20838
807.898	20693
808.04	20507
808.182	20575
808.324	20533
808.465	20670
808.607	20754
808.749	20933
808.891	20902
809.033	21093
809.174	20998
809.316	20899
809.458	20982
809.6	20845
809.741	20960
809.883	20971
810.025	21062
810.166	21032
810.308	21036
810.45	20933
810.591	20883
810.733	20792
810.875	20739
811.016	20609
811.158	20564
811.299	20686
811.441	20868
811.582	20823
811.724	20678
811.865	20579
812.007	20648
812.148	20606
812.29	20670
812.431	20758
812.573	21058
812.714	20967
812.855	21146
812.997	21184
813.138	21298
813.279	21256
813.421	21310
813.562	21066
813.703	20899
813.845	20880
813.986	20541
814.127	20343
814.268	20313
814.41	20172
814.551	20145
814.692	20225
814.833	20122
814.974	20157
815.115	20134
815.256	20092
815.397	20111
815.539	20050
815.68	19955
815.821	19852
815.962	20035
816.103	19845
816.244	19849
816.385	19712
816.526	19666
816.666	19586
816.807	19331
816.948	19472
817.089	19578
817.23	19438
817.371	19362
817.512	19228
817.653	19339
817.793	19316
817.934	19289
818.075	19438
818.216	19335
818.356	19194
818.497	19129
818.638	19050
818.778	19065
818.919	19012
819.06	19107
819.2	19179
819.341	19331
819.481	19255
819.622	19362
819.762	19529
819.903	19510
820.043	19396
820.184	19320
820.324	19350
820.465	19331
820.605	19365
820.746	19285
820.886	19148
821.026	19308
821.167	19263
821.307	19388
821.447	19297
821.588	19160
821.728	19027
821.868	18817
822.008	18715
822.149	18646
822.289	18715
822.429	18506
822.569	18342
822.709	18369
822.849	18194
822.99	18174
823.13	18129
823.27	18026
823.41	18060
823.55	17973
823.69	18053
823.83	18095
823.97	17977
824.11	17798
824.25	17843
824.389	17843
824.529	17821
824.669	17729
824.809	17901
824.949	17893
825.089	17809
825.228	17813
825.368	17653
825.508	17653
825.648	17547
825.787	17657
825.927	17585
826.067	17570
826.206	17562
826.346	17600
826.485	17600
826.625	17566
826.765	17767
826.904	17554
827.044	17356
827.183	17292
827.323	17318
827.462	17311
827.601	17402
827.741	17223
827.88	17326
828.02	17178
828.159	17273
828.298	17334
828.437	17398
828.577	17273
828.716	17326
828.855	17296
828.994	17003
829.134	17041
829.273	17075
829.412	17124
829.551	16915
829.69	17071
829.829	17003
829.968	17109
830.107	17109
830.246	17136
830.385	17029
830.524	16949
830.663	16869
830.802	16771
830.941	16516
831.08	16641
831.219	16740
831.357	16801
831.496	16889
831.635	16668
831.774	16577
831.913	16535
832.051	16440
832.19	16428
832.329	16550
832.467	16451
832.606	16303
832.744	16337
832.883	16421
833.022	16325
833.16	16253
833.299	16367
833.437	16295
833.576	16459
833.714	16497
833.852	16523
833.991	16459
834.129	16481
834.267	16405
834.406	16466
834.544	16390
834.682	16390
834.821	16459
834.959	16535
835.097	16367
835.235	16451
835.373	16478
835.511	16504
835.65	16352
835.788	16265
835.926	16071
836.064	16219
836.202	16284
836.34	16356
836.478	16379
836.615	16287
836.753	16276
836.891	16474
837.029	16421
837.167	16253
837.305	16242
837.443	16246
837.58	16276
837.718	16268
837.856	16246
837.993	16097
838.131	16192
838.269	16124
838.406	16188
838.544	16147
838.681	15880
838.819	15907
838.956	15751
839.094	15690
839.231	15831
839.369	15918
839.506	16185
839.643	16074
839.781	15854
839.918	15656
840.055	15797
840.193	15804
840.33	15728
840.467	15766
840.604	15743
840.742	16017
840.879	15584
841.016	15648
841.153	15713
841.29	15884
841.427	15743
841.564	15816
841.701	15713
841.838	15724
841.975	15629
842.112	15732
842.249	15591
842.385	15618
842.522	15762
842.659	15507
842.796	15534
842.933	15545
843.069	15507
843.206	15439
843.343	15652
843.479	15553
843.616	15523
843.752	15412
843.889	15344
844.025	15496
844.162	15268
844.298	15466
844.435	15317
844.571	15329
844.708	15412
844.844	15450
844.98	15389
845.117	15545
845.253	15249
845.389	15222
845.525	15230
845.661	15241
845.798	15097
845.934	15222
846.07	15146
846.206	15150
846.342	15283
846.478	15154
846.614	14986
846.75	14826
846.886	14883
847.022	14979
847.158	14914
847.294	14929
847.429	14941
847.565	14842
847.701	15116
847.837	14750
847.972	14670
848.108	14777
848.244	14720
848.379	14362
848.515	14461
848.65	14465
848.786	14476
848.921	14492
849.057	14689
849.192	14674
849.328	14537
849.463	14579
849.598	14564
849.734	14431
849.869	14317
850.004	14248
850.14	14282
850.275	14309
850.41	14180
850.545	14210
850.68	14176
850.815	14309
850.95	14191
851.085	14484
851.22	14374
851.355	14309
851.49	14134
851.625	14183
851.76	14244
851.895	14126
852.03	14225
852.165	14259
852.299	14252
852.434	14324
852.569	14164
852.703	14305
852.838	14370
852.973	14400
853.107	14457
853.242	14282
853.376	14180
853.511	14031
853.645	14130
853.78	14218
853.914	14111
854.048	14103
854.183	14119
854.317	14130
854.451	14377
854.585	14191
854.72	14084
854.854	14206
854.988	14111
855.122	14077
855.256	13986
855.39	14157
855.524	14278
855.658	14168
855.792	14138
855.926	14206
856.06	14142
856.194	14206
856.327	14164
856.461	14062
856.595	14092
856.729	14039
856.862	14290
856.996	14202
857.13	14138
857.263	14199
857.397	14328
857.53	14187
857.664	14206
857.797	14199
857.931	14233
858.064	14168
858.197	14202
858.331	14130
858.464	14062
858.597	13959
858.731	14065
858.864	14103
858.997	14172
859.13	14282
859.263	14195
859.396	14195
859.529	14092
859.662	14115
859.795	14111
859.928	14107
860.061	14317
860.194	14389
860.327	14214
860.46	14233
860.592	14332
860.725	14362
860.858	14248
860.99	14180
861.123	14123
861.256	14065
861.388	14157
861.521	15017
861.653	14012
861.786	13902
861.918	14012
862.05	14081
862.183	14111
862.315	14290
862.447	14183
862.58	14115
862.712	13974
862.844	13826
862.976	13921
863.108	13902
863.24	14385
863.372	13830
863.504	13902
863.636	13951
863.768	13993
863.9	13986
864.032	13849
864.164	13894
864.296	13982
864.428	14008
864.559	14020
864.691	14024
864.823	14001
864.954	13940
865.086	13974
865.217	13845
865.349	13849
865.48	13856
865.612	13936
865.743	14065
865.875	13932
866.006	13822
866.137	13909
866.269	13906
866.4	13811
866.531	13849
866.662	13890
866.793	13868
866.924	13883
867.055	14035
867.186	13928
867.317	13917
867.448	13769
867.579	13803
867.71	13856
867.841	13818
867.972	14039
868.103	13940
868.233	13925
868.364	13940
868.495	14005
868.625	14275
868.756	14202
868.886	14100
869.017	14130
869.147	14271
869.278	14195
869.408	14309
869.539	14191
869.669	14218
869.799	14138
869.929	14286
870.06	14286
870.19	14560
870.32	14396
870.45	14492
870.58	14613
870.71	14606
870.84	14670
870.97	14602
871.1	14541
871.23	14815
871.36	14811
871.489	14636
871.619	14648
871.749	14686
871.879	14769
872.008	14857
872.138	14765
872.267	14807
872.397	14590
872.526	14579
872.656	14507
872.785	14610
872.915	14781
873.044	14864
873.173	14777
873.303	14956
873.432	14918
873.561	14853
873.69	14880
873.819	14880
873.948	14811
874.077	14845
874.206	14731
874.335	14826
874.464	14967
874.593	15066
874.722	14994
874.851	15154
874.979	15207
875.108	15127
875.237	15127
875.365	15062
875.494	15211
875.623	15268
875.751	15119
875.88	15313
876.008	15336
876.136	15428
876.265	15644
876.393	15682
876.521	15644
876.65	15679
876.778	15652
876.906	15606
877.034	15584
877.162	15538
877.29	15538
877.418	15584
877.546	15587
877.674	15603
877.802	15580
877.93	15561
878.058	15549
878.185	15443
878.313	15606
878.441	15648
878.568	15466
878.696	15564
878.824	15671
878.951	15679
879.079	15762
879.206	15918
879.333	15759
879.461	15622
879.588	15656
879.715	15835
879.842	15899
879.97	15599
880.097	15454
880.224	15420
880.351	15458
880.478	15545
880.605	15325
880.732	15416
880.859	15675
880.986	15523
881.112	15485
881.239	15344
881.366	15302
881.493	15165
881.619	15112
881.746	15165
881.872	15047
881.999	15085
882.125	15051
882.252	15154
882.378	15074
882.505	15169
882.631	15039
882.757	15024
882.883	14902
883.01	14880
883.136	14880
883.262	14746
883.388	14781
883.514	14910
883.64	14925
883.766	14773
883.892	14750
884.018	14727
884.143	14933
884.269	14944
884.395	14655
884.52	14488
884.646	14644
884.772	14571
884.897	14476
885.023	14598
885.148	14705
885.274	14796
885.399	14682
885.524	14693
885.65	14640
885.775	14644
885.9	14712
886.025	14648
886.15	14606
886.275	14670
886.4	14530
886.525	14568
886.65	14568
886.775	14480
886.9	14754
887.025	14842
887.149	14598
887.274	14575
887.399	14404
887.523	14446
887.648	14385
887.773	14442
887.897	14492
888.021	14579
888.146	14408
888.27	14526
888.395	14568
888.519	14526
888.643	14545
888.767	14587
888.891	14431
889.015	14237
889.139	14275
889.263	14278
889.387	14415
889.511	14541
889.635	14431
889.759	14290
889.883	14233
890.006	14282
890.13	14434
890.254	14294
890.377	14290
890.501	14100
890.624	14081
890.748	14233
890.871	14130
890.995	13940
891.118	13974
891.241	14103
891.364	14043
891.488	14081
891.611	14054
891.734	14119
891.857	14062
891.98	14073
892.103	14100
892.226	14058
892.349	13955
892.471	13887
892.594	13997
892.717	14012
892.839	14001
892.962	13997
893.085	14050
893.207	14062
893.33	13967
893.452	13890
893.575	14084
893.697	14020
893.819	14256
893.941	14142
894.064	14172
894.186	13959
894.308	14001
894.43	14126
894.552	14180
894.674	14180
894.796	13909
894.918	14024
895.04	14103
895.161	14134
895.283	14157
895.405	14176
895.526	14123
895.648	14153
895.769	14149
895.891	14145
896.012	14374
896.134	14267
896.255	14199
896.376	14168
896.498	14172
896.619	14259
896.74	14214
896.861	14278
896.982	14621
897.103	14651
897.224	14560
897.345	14461
897.466	14301
897.587	14434
897.708	14533
897.828	14549
897.949	14438
898.07	14237
898.19	14400
898.311	14621
898.431	14450
898.552	14602
898.672	14663
898.792	14640
898.913	14621
899.033	14457
899.153	14404
899.273	14381
899.393	14332
899.513	14480
899.633	14374
899.753	14434
899.873	14305
899.993	14495
900.113	14423
900.232	14476
900.352	14446
900.472	14294
900.591	14248
900.711	14218
900.83	14271
900.95	14332
901.069	14339
901.189	14202
901.308	14111
901.427	13906
901.546	13955
901.665	13951
901.784	13982
901.904	13849
902.023	13719
902.141	13571
902.26	13480
902.379	13578
902.498	13502
902.617	13453
902.735	13544
902.854	13502
902.973	13483
903.091	13236
903.21	13206
903.328	13236
903.446	13247
903.565	13027
903.683	12989
903.801	13069
903.919	13053
904.038	13065
904.156	12996
904.274	13034
904.392	12993
904.51	12932
904.627	12901
904.745	12947
904.863	12943
904.981	12707
905.098	12566
905.216	12536
905.334	12654
905.451	12612
905.569	12532
905.686	12585
905.803	12650
905.921	12475
906.038	12452
906.155	12418
906.272	12369
906.389	12357
906.506	12205
906.623	12197
906.74	12117
906.857	12060
906.974	12053
907.091	12232
907.208	12357
907.324	12175
907.441	12175
907.557	11931
907.674	12007
907.79	11874
907.907	11904
908.023	11927
908.139	11988
908.256	11866
908.372	11897
908.488	11882
908.604	11707
908.72	11684
908.836	11695
908.952	11665
909.068	11722
909.184	11779
909.3	11691
909.415	11722
909.531	11760
909.647	11486
909.762	11455
909.878	11471
909.993	11509
910.108	11474
910.224	11364
910.339	11524
910.454	11326
910.57	11379
910.685	11265
910.8	11581
910.915	11497
911.03	11341
911.145	11208
911.259	11181
911.374	11181
911.489	10972
911.604	11090
911.718	10923
911.833	10854
911.947	10786
912.062	10744
912.176	10862
912.291	10923
912.405	10919
912.519	11094
912.633	11162
912.748	11014
912.862	10877
912.976	10759
913.09	10649
913.204	10774
913.318	10778
913.431	10869
913.545	10946
913.659	10911
913.772	10721
913.886	10706
914	10698
914.113	10778
914.226	10881
914.34	10816
914.453	10584
914.566	10824
914.68	10584
914.793	10683
914.906	10500
915.019	10409
915.132	10367
915.245	10421
915.358	10462
915.47	10459
915.583	10466
915.696	10455
915.809	10531
915.921	10546
916.034	10470
916.146	10367
916.259	10371
916.371	10394
916.483	10443
916.595	10348
916.708	10379
916.82	10363
916.932	10390
917.044	10455
917.156	10405
917.268	10249
917.38	10287
917.491	10242
917.603	10318
917.715	10432
917.826	10371
917.938	10325
918.049	10124
918.161	10227
918.272	10398
918.384	10379
918.495	10268
918.606	10185
918.717	10101
918.828	10135
918.939	10223
919.05	10067
919.161	10059
919.272	9895
919.383	9937
919.494	10253
919.604	10337
919.715	10181
919.826	10112
919.936	10143
920.047	10219
920.157	10162
920.267	10322
920.378	10234
920.488	10162
920.598	10276
920.708	10512
920.818	10268
920.928	10390
921.038	10440
921.148	10447
921.258	10162
921.368	10109
921.477	9960
921.587	10059
921.697	9888
921.806	10067
921.916	9972
922.025	9720
922.134	9759
922.244	9667
922.353	9789
922.462	9660
922.571	9485
922.68	9424
922.789	9378
922.898	9412
923.007	9405
923.116	9386
923.224	9363
923.333	9424
923.442	9264
923.55	9313
923.659	9351
923.767	9310
923.876	9260
923.984	9298
924.092	9192
924.201	9294
924.309	9233
924.417	9241
924.525	9249
924.633	9161
924.741	10139
924.849	9043
924.956	9165
925.064	9043
925.172	8982
925.279	9104
925.387	9081
925.494	9020
925.602	9146
925.709	9135
925.816	9013
925.924	9039
926.031	9123
926.138	9104
926.245	9154
926.352	8990
926.459	9161
926.566	9142
926.673	9020
926.779	8918
926.886	8960
926.993	8796
927.099	8800
927.206	8769
927.312	8727
927.419	8792
927.525	8826
927.631	8853
927.737	8739
927.843	8617
927.95	8587
928.056	8629
928.162	8712
928.267	8682
928.373	9416
928.479	8857
928.585	8484
928.69	8720
928.796	8682
928.901	8625
929.007	8423
929.112	8663
929.218	8541
929.323	8511
929.428	8476
929.533	8659
929.638	8465
929.743	8514
929.848	8537
929.953	8499
930.058	8412
930.163	8282
930.267	8244
930.372	8431
930.477	8244
930.581	8484
930.685	8355
930.79	8233
930.894	8259
930.998	8221
931.103	8305
931.207	7997
931.311	7940
931.415	7883
931.519	7712
931.623	7693
