Data from test_V78500241_264.txt Node
Date: Fri Mar 25 14:35:33 CST 2022
User: usil
Spectrometer: V785-0024
Trigger mode: 0
Integration Time (sec): 4.000000E-1
Scans to average: 1
Nonlinearity correction enabled: false
Boxcar width: 0
Storing dark spectrum: false
XAxis mode: Wavelengths
Number of Pixels in Spectrum: 1024
>>>>>Begin Spectral Data<<<<<
801.071	27481
801.214	27424
801.356	27043
801.499	27085
801.641	26876
801.783	26701
801.926	26952
802.068	26762
802.211	26583
802.353	26701
802.496	26332
802.638	26469
802.78	26404
802.923	26343
803.065	26259
803.208	26206
803.35	26374
803.492	26518
803.635	26419
803.777	26351
803.919	26495
804.061	26807
804.204	26427
804.346	26381
804.488	26275
804.63	26442
804.773	26298
804.915	26271
805.057	26480
805.199	26393
805.341	26412
805.483	26278
805.626	26488
805.768	26453
805.91	26465
806.052	26552
806.194	26229
806.336	26629
806.478	26533
806.62	26282
806.762	26469
806.904	26530
807.046	26750
807.188	26762
807.33	26834
807.472	26853
807.614	26659
807.756	26659
807.898	26594
808.04	26651
808.182	26590
808.324	26727
808.465	26644
808.607	26895
808.749	27039
808.891	27214
809.033	27260
809.174	27150
809.316	27085
809.458	26956
809.6	26944
809.741	26948
809.883	26868
810.025	27135
810.166	27222
810.308	27093
810.45	26899
810.591	26990
810.733	26918
810.875	26823
811.016	26716
811.158	26724
811.299	26842
811.441	26754
811.582	27047
811.724	26735
811.865	26727
812.007	26765
812.148	26648
812.29	26754
812.431	26925
812.573	27047
812.714	27104
812.855	27245
812.997	27382
813.138	27431
813.279	27355
813.421	27252
813.562	27249
813.703	27237
813.845	27001
813.986	26571
814.127	26385
814.268	26339
814.41	26351
814.551	26339
814.692	26374
814.833	26320
814.974	26248
815.115	26358
815.256	26233
815.397	26191
815.539	26096
815.68	26145
815.821	26020
815.962	26115
816.103	26020
816.244	25940
816.385	25776
816.526	25871
816.666	25586
816.807	25472
816.948	25491
817.089	25605
817.23	25510
817.371	25430
817.512	25441
817.653	25396
817.793	25419
817.934	25495
818.075	25392
818.216	25419
818.356	25381
818.497	25259
818.638	25133
818.778	25152
818.919	25072
819.06	25187
819.2	25308
819.341	25289
819.481	25221
819.622	25270
819.762	25658
819.903	25620
820.043	25518
820.184	25479
820.324	25354
820.465	25548
820.605	25495
820.746	25468
820.886	25175
821.026	25278
821.167	25259
821.307	25403
821.447	25297
821.588	25194
821.728	25122
821.868	24863
822.008	24833
822.149	24768
822.289	24760
822.429	24525
822.569	24395
822.709	24426
822.849	24254
822.99	24285
823.13	24190
823.27	24076
823.41	23942
823.55	23901
823.69	24038
823.83	24015
823.97	23984
824.11	23764
824.25	23615
824.389	23882
824.529	23950
824.669	23741
824.809	23832
824.949	23843
825.089	23809
825.228	23870
825.368	23551
825.508	23680
825.648	23573
825.787	23551
825.927	23547
826.067	23611
826.206	23596
826.346	23539
826.485	23653
826.625	23547
826.765	23668
826.904	23490
827.044	23337
827.183	23265
827.323	23178
827.462	23303
827.601	23261
827.741	23330
827.88	23337
828.02	23151
828.159	23208
828.298	23212
828.437	23254
828.577	23204
828.716	23246
828.855	23242
828.994	22965
829.134	23018
829.273	23048
829.412	22980
829.551	22946
829.69	23037
829.829	22991
829.968	22949
830.107	22881
830.246	22892
830.385	22713
830.524	22698
830.663	22706
830.802	22634
830.941	22603
831.08	22386
831.219	22557
831.357	22713
831.496	22706
831.635	22542
831.774	22341
831.913	22417
832.051	22265
832.19	22246
832.329	22344
832.467	22166
832.606	22120
832.744	22059
832.883	22070
833.022	22173
833.16	22082
833.299	22078
833.437	22070
833.576	22204
833.714	22112
833.852	22181
833.991	22306
834.129	22207
834.267	22124
834.406	22048
834.544	22185
834.682	22185
834.821	22120
834.959	22215
835.097	22101
835.235	22177
835.373	22204
835.511	22040
835.65	22017
835.788	21979
835.926	21918
836.064	21937
836.202	21835
836.34	21964
836.478	22029
836.615	22021
836.753	21941
836.891	21994
837.029	21991
837.167	21850
837.305	21842
837.443	21915
837.58	21823
837.718	21850
837.856	21899
837.993	21781
838.131	21850
838.269	21778
838.406	21641
838.544	21614
838.681	21393
838.819	21542
838.956	21272
839.094	21275
839.231	21355
839.369	21367
839.506	21641
839.643	21507
839.781	21180
839.918	21169
840.055	21370
840.193	21226
840.33	21085
840.467	21077
840.604	21188
840.742	21450
840.879	21024
841.016	21036
841.153	21089
841.29	21291
841.427	21138
841.564	21188
841.701	21081
841.838	21020
841.975	21089
842.112	21024
842.249	20861
842.385	20804
842.522	21020
842.659	20887
842.796	20773
842.933	20842
843.069	20872
843.206	20883
843.343	20933
843.479	20849
843.616	20902
843.752	20735
843.889	20727
844.025	20811
844.162	20587
844.298	20609
844.435	20594
844.571	20552
844.708	20556
844.844	20800
844.98	20815
845.117	20777
845.253	20552
845.389	20636
845.525	20598
845.661	20575
845.798	20514
845.934	20560
846.07	20568
846.206	20579
846.342	20731
846.478	20442
846.614	20275
846.75	20092
846.886	20145
847.022	20271
847.158	20138
847.294	20153
847.429	20012
847.565	20115
847.701	20336
847.837	19772
847.972	19719
848.108	19833
848.244	19913
848.379	19753
848.515	19567
848.65	19552
848.786	19772
848.921	19647
849.057	19753
849.192	19655
849.328	19658
849.463	19757
849.598	19677
849.734	19544
849.869	19537
850.004	19445
850.14	19434
850.275	19373
850.41	19236
850.545	19350
850.68	19365
850.815	19453
850.95	19331
851.085	19529
851.22	19358
851.355	19335
851.49	19285
851.625	19297
851.76	19282
851.895	19301
852.03	19232
852.165	19324
852.299	19331
852.434	19422
852.569	19434
852.703	19324
852.838	19396
852.973	19457
853.107	19506
853.242	19384
853.376	19293
853.511	19107
853.645	19129
853.78	19301
853.914	19175
854.048	19171
854.183	19198
854.317	19141
854.451	19396
854.585	19228
854.72	19103
854.854	19213
854.988	19129
855.122	19247
855.256	18966
855.39	19156
855.524	19263
855.658	19160
855.792	19221
855.926	19209
856.06	19168
856.194	19327
856.327	19187
856.461	19057
856.595	19084
856.729	19080
856.862	19297
856.996	19236
857.13	19274
857.263	19209
857.397	19206
857.53	19110
857.664	19156
857.797	19339
857.931	19236
858.064	19179
858.197	19236
858.331	19053
858.464	19019
858.597	19069
858.731	19126
858.864	19103
858.997	19034
859.13	19080
859.263	19164
859.396	19327
859.529	19126
859.662	19133
859.795	19084
859.928	19126
860.061	19217
860.194	19225
860.327	19194
860.46	19008
860.592	19099
860.725	19236
860.858	19190
860.99	19175
861.123	19000
861.256	19034
861.388	19103
861.521	19685
861.653	18897
861.786	18970
861.918	18901
862.05	18970
862.183	19080
862.315	19251
862.447	19327
862.58	19152
862.712	18844
862.844	18844
862.976	18993
863.108	18882
863.24	19244
863.372	18703
863.504	18749
863.636	18772
863.768	18825
863.9	18848
864.032	18684
864.164	18753
864.296	18798
864.428	18924
864.559	18837
864.691	18928
864.823	18844
864.954	18817
865.086	18764
865.217	18760
865.349	18711
865.48	18696
865.612	18665
865.743	18848
865.875	18817
866.006	18707
866.137	18741
866.269	18764
866.4	18734
866.531	18669
866.662	18696
866.793	18631
866.924	18726
867.055	18738
867.186	18650
867.317	18627
867.448	18616
867.579	18604
867.71	18559
867.841	18471
867.972	18692
868.103	18661
868.233	18635
868.364	18829
868.495	18700
868.625	18985
868.756	19008
868.886	18806
869.017	18920
869.147	18939
869.278	19023
869.408	18924
869.539	18886
869.669	19008
869.799	18878
869.929	19019
870.06	18897
870.19	19095
870.32	19126
870.45	19247
870.58	19278
870.71	19400
870.84	19304
870.97	19251
871.1	19358
871.23	19476
871.36	19506
871.489	19301
871.619	19369
871.749	19453
871.879	19434
872.008	19578
872.138	19403
872.267	19415
872.397	19400
872.526	19320
872.656	19369
872.785	19441
872.915	19502
873.044	19575
873.173	19499
873.303	19514
873.432	19544
873.561	19506
873.69	19487
873.819	19525
873.948	19594
874.077	19590
874.206	19632
874.335	19491
874.464	19658
874.593	19719
874.722	19784
874.851	19738
874.979	19811
875.108	19750
875.237	19693
875.365	19761
875.494	19693
875.623	19841
875.751	19803
875.88	19811
876.008	19845
876.136	19928
876.265	20130
876.393	20320
876.521	20317
876.65	20187
876.778	20278
876.906	20077
877.034	20107
877.162	20225
877.29	20107
877.418	20092
877.546	20225
877.674	20134
877.802	20107
877.93	20145
878.058	20103
878.185	20088
878.313	20290
878.441	20195
878.568	20005
878.696	20122
878.824	20221
878.951	20244
879.079	20370
879.206	20556
879.333	20351
879.461	20313
879.588	20355
879.715	20366
879.842	20625
879.97	20275
880.097	20050
880.224	20054
880.351	20107
880.478	20043
880.605	20107
880.732	20012
880.859	20248
880.986	20119
881.112	20073
881.239	19837
881.366	19765
881.493	19734
881.619	19731
881.746	19613
881.872	19613
881.999	19559
882.125	19571
882.252	19647
882.378	19556
882.505	19727
882.631	19635
882.757	19411
882.883	19422
883.01	19282
883.136	19301
883.262	19308
883.388	19190
883.514	19464
883.64	19381
883.766	19377
883.892	19175
884.018	19187
884.143	19407
884.269	19400
884.395	19179
884.52	18981
884.646	19148
884.772	19084
884.897	18985
885.023	19076
885.148	19198
885.274	19213
885.399	19137
885.524	19076
885.65	19000
885.775	19088
885.9	18970
886.025	19080
886.15	19053
886.275	18890
886.4	18958
886.525	18943
886.65	18821
886.775	19000
886.9	19148
887.025	19209
887.149	19015
887.274	18772
887.399	18852
887.523	18901
887.648	18642
887.773	18715
887.897	18798
888.021	18806
888.146	18821
888.27	18867
888.395	18798
888.519	18795
888.643	18726
888.767	18757
888.891	18650
889.015	18677
889.139	18654
889.263	18646
889.387	18715
889.511	18745
889.635	18688
889.759	18467
889.883	18460
890.006	18604
890.13	18604
890.254	18456
890.377	18623
890.501	18330
890.624	18346
890.748	18388
890.871	18273
890.995	18174
891.118	18152
891.241	18224
891.364	18117
891.488	18361
891.611	18258
891.734	18129
891.857	18178
891.98	18323
892.103	18292
892.226	18235
892.349	18174
892.471	18007
892.594	18060
892.717	18194
892.839	18125
892.962	18251
893.085	18239
893.207	17999
893.33	18106
893.452	18068
893.575	18159
893.697	18197
893.819	18346
893.941	18239
894.064	18296
894.186	18117
894.308	18106
894.43	18190
894.552	18273
894.674	18304
894.796	17973
894.918	18140
895.04	18121
895.161	18178
895.283	18205
895.405	18102
895.526	18110
895.648	18190
895.769	18201
895.891	18186
896.012	18300
896.134	18205
896.255	18197
896.376	18174
896.498	18178
896.619	18277
896.74	18144
896.861	18205
896.982	18506
897.103	18665
897.224	18407
897.345	18464
897.466	18429
897.587	18399
897.708	18467
897.828	18525
897.949	18429
898.07	18289
898.19	18376
898.311	18486
898.431	18369
898.552	18365
898.672	18570
898.792	18509
898.913	18399
899.033	18304
899.153	18197
899.273	18098
899.393	18163
899.513	18262
899.633	18110
899.753	18338
899.873	18038
899.993	18273
900.113	18197
900.232	18292
900.352	18178
900.472	18098
900.591	17984
900.711	18041
900.83	17969
900.95	18068
901.069	18159
901.189	17950
901.308	17707
901.427	17695
901.546	17722
901.665	17722
901.784	17634
901.904	17539
902.023	17459
902.141	17254
902.26	17140
902.379	17254
902.498	17166
902.617	17170
902.735	17170
902.854	16995
902.973	17067
903.091	16812
903.21	16809
903.328	16927
903.446	16793
903.565	16656
903.683	16641
903.801	16558
903.919	16626
904.038	16713
904.156	16504
904.274	16500
904.392	16421
904.51	16428
904.627	16310
904.745	16497
904.863	16356
904.981	16306
905.098	16154
905.216	16109
905.334	16162
905.451	16112
905.569	16006
905.686	16112
905.803	16071
905.921	15876
906.038	16074
906.155	15903
906.272	15800
906.389	15804
906.506	15534
906.623	15564
906.74	15606
906.857	15526
906.974	15515
907.091	15660
907.208	15629
907.324	15553
907.441	15584
907.557	15405
907.674	15447
907.79	15298
907.907	15180
908.023	15336
908.139	15329
908.256	15310
908.372	15249
908.488	15142
908.604	15055
908.72	15077
908.836	14963
908.952	15009
909.068	15104
909.184	15127
909.3	14944
909.415	15028
909.531	14998
909.647	14712
909.762	14712
909.878	14773
909.993	14750
910.108	14712
910.224	14758
910.339	14670
910.454	14579
910.57	14617
910.685	14473
910.8	14823
910.915	14659
911.03	14530
911.145	14404
911.259	14313
911.374	14366
911.489	14275
911.604	14199
911.718	14016
911.833	14142
911.947	14008
912.062	13894
912.176	14103
912.291	14031
912.405	14103
912.519	14202
912.633	14271
912.748	14145
912.862	14092
912.976	13932
913.09	13814
913.204	13894
913.318	13940
913.431	14035
913.545	13959
913.659	14081
913.772	14005
913.886	13856
914	13734
914.113	13868
914.226	13780
914.34	13879
914.453	13666
914.566	13868
914.68	13681
914.793	13601
914.906	13571
915.019	13403
915.132	13460
915.245	13354
915.358	13468
915.47	13533
915.583	13400
915.696	13377
915.809	13556
915.921	13613
916.034	13384
916.146	13331
916.259	13312
916.371	13400
916.483	13441
916.595	13301
916.708	13285
916.82	13274
916.932	13278
917.044	13209
917.156	13141
917.268	13069
917.38	13053
917.491	13107
917.603	13168
917.715	13141
917.826	13259
917.938	13046
918.049	12951
918.161	13107
918.272	13168
918.384	13293
918.495	13149
918.606	13038
918.717	12749
918.828	12875
918.939	12977
919.05	12859
919.161	12913
919.272	12662
919.383	12726
919.494	12920
919.604	12996
919.715	12909
919.826	12711
919.936	12798
920.047	12951
920.157	12817
920.267	13012
920.378	12924
920.488	12871
920.598	13042
920.708	13168
920.818	13080
920.928	13137
921.038	13228
921.148	13137
921.258	12901
921.368	12787
921.477	12715
921.587	12673
921.697	12544
921.806	12700
921.916	12608
922.025	12273
922.134	12323
922.244	12308
922.353	12346
922.462	12228
922.571	12114
922.68	11977
922.789	11897
922.898	11992
923.007	11996
923.116	12068
923.224	11954
923.333	11977
923.442	11897
923.55	11851
923.659	11843
923.767	11878
923.876	11836
923.984	11897
924.092	11729
924.201	11790
924.309	11748
924.417	11771
924.525	11722
924.633	11786
924.741	12677
924.849	11520
924.956	11684
925.064	11539
925.172	11512
925.279	11448
925.387	11478
925.494	11490
925.602	11608
925.709	11524
925.816	11406
925.924	11471
926.031	11551
926.138	11516
926.245	11410
926.352	11395
926.459	11482
926.566	11493
926.673	11414
926.779	11311
926.886	11345
926.993	11128
927.099	11109
927.206	11014
927.312	11029
927.419	11193
927.525	11197
927.631	11147
927.737	11037
927.843	11045
927.95	10866
928.056	11010
928.162	10976
928.267	10995
928.373	11566
928.479	11132
928.585	10850
928.69	10866
928.796	10987
928.901	10774
929.007	10771
929.112	10793
929.218	10801
929.323	10755
929.428	10675
929.533	10812
929.638	10599
929.743	10687
929.848	10675
929.953	10675
930.058	10603
930.163	10409
930.267	10474
930.372	10618
930.477	10466
930.581	10660
930.685	10554
930.79	10402
930.894	10398
930.998	10310
931.103	10409
931.207	10101
931.311	10025
931.415	9895
931.519	9694
931.623	9720
