Data from test_V78500241_822.txt Node
Date: Fri Mar 25 14:39:26 CST 2022
User: usil
Spectrometer: V785-0024
Trigger mode: 0
Integration Time (sec): 4.000000E-1
Scans to average: 1
Nonlinearity correction enabled: false
Boxcar width: 0
Storing dark spectrum: false
XAxis mode: Wavelengths
Number of Pixels in Spectrum: 1024
>>>>>Begin Spectral Data<<<<<
801.071	26317
801.214	26115
801.356	25883
801.499	25719
801.641	25540
801.783	25738
801.926	25624
802.068	25445
802.211	25449
802.353	25331
802.496	25259
802.638	25000
802.78	25206
802.923	25080
803.065	25019
803.208	24939
803.35	25137
803.492	25217
803.635	25255
803.777	25129
803.919	25129
804.061	25430
804.204	25228
804.346	25156
804.488	25080
804.63	25278
804.773	25187
804.915	25358
805.057	25354
805.199	25343
805.341	25403
805.483	25689
805.626	25620
805.768	25499
805.91	25700
806.052	25795
806.194	25784
806.336	26092
806.478	26145
806.62	26168
806.762	26427
806.904	26826
807.046	27245
807.188	27538
807.33	27633
807.472	28234
807.614	28497
807.756	29162
807.898	29805
808.04	31072
808.182	32484
808.324	34253
808.465	36532
808.607	38689
808.749	40603
808.891	41874
809.033	42083
809.174	40812
809.316	38781
809.458	36536
809.6	34029
809.741	32267
809.883	30635
810.025	29638
810.166	28850
810.308	28246
810.45	27941
810.591	27408
810.733	26990
810.875	26750
811.016	26606
811.158	26305
811.299	26408
811.441	26339
811.582	26313
811.724	25989
811.865	25814
812.007	25898
812.148	25776
812.29	25788
812.431	25860
812.573	26031
812.714	25932
812.855	26024
812.997	26096
813.138	26294
813.279	26142
813.421	26020
813.562	25864
813.703	25734
813.845	25651
813.986	25209
814.127	25065
814.268	24909
814.41	24962
814.551	24871
814.692	24772
814.833	24696
814.974	24745
815.115	24646
815.256	24631
815.397	24601
815.539	24589
815.68	24570
815.821	24300
815.962	24445
816.103	24342
816.244	24239
816.385	24228
816.526	24034
816.666	23935
816.807	23760
816.948	23726
817.089	23885
817.23	23672
817.371	23722
817.512	23767
817.653	23646
817.793	23699
817.934	23726
818.075	23649
818.216	23699
818.356	23531
818.497	23463
818.638	23452
818.778	23326
818.919	23292
819.06	23360
819.2	23543
819.341	23653
819.481	23691
819.622	23786
819.762	23756
819.903	23794
820.043	23543
820.184	23665
820.324	23512
820.465	23722
820.605	23493
820.746	23406
820.886	23398
821.026	23436
821.167	23463
821.307	23516
821.447	23452
821.588	23303
821.728	23193
821.868	23003
822.008	22938
822.149	22839
822.289	22759
822.429	22504
822.569	22508
822.709	22481
822.849	22284
822.99	22268
823.13	22211
823.27	22295
823.41	22067
823.55	21911
823.69	22021
823.83	22013
823.97	22017
824.11	21937
824.25	21884
824.389	21895
824.529	22032
824.669	21816
824.809	22025
824.949	21953
825.089	21949
825.228	21808
825.368	21705
825.508	21800
825.648	21671
825.787	21679
825.927	21720
826.067	21587
826.206	21709
826.346	21648
826.485	21686
826.625	21610
826.765	21762
826.904	21641
827.044	21420
827.183	21275
827.323	21260
827.462	21367
827.601	21313
827.741	21272
827.88	21272
828.02	21173
828.159	21348
828.298	21310
828.437	21317
828.577	21184
828.716	21359
828.855	21119
828.994	21028
829.134	20990
829.273	20967
829.412	20891
829.551	20845
829.69	21051
829.829	20937
829.968	21074
830.107	20952
830.246	20838
830.385	20834
830.524	20765
830.663	20750
830.802	20663
830.941	20587
831.08	20552
831.219	20663
831.357	20754
831.496	20842
831.635	20549
831.774	20446
831.913	20507
832.051	20393
832.19	20381
832.329	20457
832.467	20400
832.606	20358
832.744	20393
832.883	20419
833.022	20442
833.16	20511
833.299	20636
833.437	20667
833.576	20826
833.714	20891
833.852	21039
833.991	21028
834.129	21169
834.267	21195
834.406	21020
834.544	21184
834.682	20872
834.821	20918
834.959	20872
835.097	20644
835.235	20648
835.373	20537
835.511	20507
835.65	20408
835.788	20381
835.926	20119
836.064	19967
836.202	20054
836.34	20157
836.478	20328
836.615	20195
836.753	20088
836.891	20187
837.029	20054
837.167	20103
837.305	19967
837.443	19940
837.58	19917
837.718	19982
837.856	19928
837.993	19917
838.131	19879
838.269	19883
838.406	19852
838.544	19803
838.681	19616
838.819	19597
838.956	19460
839.094	19434
839.231	19487
839.369	19491
839.506	19723
839.643	19582
839.781	19339
839.918	19400
840.055	19358
840.193	19293
840.33	19324
840.467	19251
840.604	19324
840.742	19582
840.879	19148
841.016	19308
841.153	19198
841.29	19407
841.427	19339
841.564	19400
841.701	19335
841.838	19228
841.975	19297
842.112	19331
842.249	19206
842.385	19129
842.522	19403
842.659	19164
842.796	19027
842.933	19183
843.069	18958
843.206	19015
843.343	19240
843.479	19304
843.616	19263
843.752	19057
843.889	18996
844.025	19217
844.162	19160
844.298	19365
844.435	19354
844.571	19499
844.708	19674
844.844	20016
844.98	20233
845.117	20716
845.253	21233
845.389	22481
845.525	24939
845.661	28816
845.798	33698
845.934	37457
846.07	38868
846.206	38161
846.342	34900
846.478	30174
846.614	25913
846.75	23113
846.886	21481
847.022	20579
847.158	19951
847.294	19384
847.429	19069
847.565	19031
847.701	19160
847.837	18555
847.972	18384
848.108	18486
848.244	18399
848.379	18178
848.515	18102
848.65	18133
848.786	18121
848.921	18106
849.057	18129
849.192	18174
849.328	18095
849.463	18060
849.598	18022
849.734	17920
849.869	17859
850.004	17760
850.14	17855
850.275	17794
850.41	17741
850.545	17745
850.68	17737
850.815	17874
850.95	17745
851.085	17866
851.22	17836
851.355	17802
851.49	17687
851.625	17573
851.76	17745
851.895	17714
852.03	17604
852.165	17718
852.299	17737
852.434	17798
852.569	17847
852.703	17878
852.838	17859
852.973	17920
853.107	17927
853.242	17809
853.376	17695
853.511	17600
853.645	17642
853.78	17927
853.914	17832
854.048	17836
854.183	17851
854.317	17965
854.451	18053
854.585	17828
854.72	17836
854.854	17908
854.988	17745
855.122	17802
855.256	17608
855.39	17764
855.524	17832
855.658	17668
855.792	17737
855.926	17699
856.06	17691
856.194	17745
856.327	17661
856.461	17592
856.595	17570
856.729	17627
856.862	17627
856.996	17532
857.13	17638
857.263	17634
857.397	17718
857.53	17577
857.664	17596
857.797	17687
857.931	17665
858.064	17562
858.197	17661
858.331	17459
858.464	17532
858.597	17417
858.731	17349
858.864	17512
858.997	17512
859.13	17554
859.263	17459
859.396	17501
859.529	17467
859.662	17383
859.795	17387
859.928	17581
860.061	17528
860.194	17653
860.327	17448
860.46	17425
860.592	17581
860.725	17562
860.858	17581
860.99	17448
861.123	17250
861.256	17417
861.388	17455
861.521	17969
861.653	17307
861.786	17296
861.918	17364
862.05	17391
862.183	17402
862.315	17501
862.447	17383
862.58	17379
862.712	17189
862.844	17102
862.976	17124
863.108	17185
863.24	17497
863.372	17197
863.504	17098
863.636	17170
863.768	17162
863.9	17208
864.032	16938
864.164	17121
864.296	17128
864.428	17280
864.559	17246
864.691	17254
864.823	17143
864.954	17132
865.086	17170
865.217	17090
865.349	17105
865.48	17105
865.612	17155
865.743	17277
865.875	17121
866.006	17075
866.137	17162
866.269	17064
866.4	17193
866.531	17010
866.662	17098
866.793	16942
866.924	17159
867.055	17162
867.186	17090
867.317	17048
867.448	16923
867.579	17033
867.71	17041
867.841	17083
867.972	17128
868.103	17086
868.233	17151
868.364	17060
868.495	17166
868.625	17326
868.756	17486
868.886	17296
869.017	17395
869.147	17417
869.278	17512
869.408	17349
869.539	17307
869.669	17436
869.799	17417
869.929	17512
870.06	17474
870.19	17665
870.32	17611
870.45	17783
870.58	17904
870.71	17786
870.84	17923
870.97	17802
871.1	17882
871.23	18064
871.36	18011
871.489	17912
871.619	17920
871.749	18095
871.879	18057
872.008	18129
872.138	18038
872.267	18110
872.397	17935
872.526	17893
872.656	17977
872.785	17878
872.915	18072
873.044	18239
873.173	18114
873.303	18213
873.432	18228
873.561	18353
873.69	18190
873.819	18273
873.948	18311
874.077	18327
874.206	18258
874.335	18441
874.464	18437
874.593	18658
874.722	18677
874.851	18658
874.979	18612
875.108	18772
875.237	18639
875.365	18646
875.494	18688
875.623	18840
875.751	18726
875.88	18837
876.008	19088
876.136	19110
876.265	19331
876.393	19582
876.521	19468
876.65	19537
876.778	19540
876.906	19403
877.034	19537
877.162	19662
877.29	19624
877.418	19723
877.546	19803
877.674	19921
877.802	19906
877.93	20027
878.058	20092
878.185	20221
878.313	20389
878.441	20785
878.568	20819
878.696	21313
878.824	21960
878.951	22637
879.079	23988
879.206	25491
879.333	26796
879.461	27888
879.588	28915
879.715	28873
879.842	28219
879.97	26838
880.097	25156
880.224	24026
880.351	23162
880.478	22599
880.605	22101
880.732	21911
880.859	21979
880.986	21701
881.112	21488
881.239	21370
881.366	21272
881.493	21096
881.619	21116
881.746	21203
881.872	21100
881.999	21131
882.125	21169
882.252	21260
882.378	21340
882.505	21431
882.631	21351
882.757	21165
882.883	21165
883.01	21150
883.136	21043
883.262	21043
883.388	20842
883.514	21123
883.64	21123
883.766	21039
883.892	20899
884.018	20872
884.143	21150
884.269	21119
884.395	20933
884.52	20773
884.646	20762
884.772	20682
884.897	20670
885.023	20697
885.148	20921
885.274	20758
885.399	20765
885.524	20651
885.65	20678
885.775	20533
885.9	20351
886.025	20374
886.15	20278
886.275	20073
886.4	19814
886.525	19776
886.65	19700
886.775	19734
886.9	19811
887.025	19864
887.149	19449
887.274	19297
887.399	19190
887.523	19133
887.648	19031
887.773	18878
887.897	19031
888.021	18973
888.146	18764
888.27	18943
888.395	18806
888.519	18837
888.643	18798
888.767	18783
888.891	18513
889.015	18479
889.139	18536
889.263	18384
889.387	18486
889.511	18536
889.635	18494
889.759	18300
889.883	18315
890.006	18213
890.13	18414
890.254	18171
890.377	18209
890.501	17920
890.624	17965
890.748	18041
890.871	17893
890.995	17729
891.118	17733
891.241	17748
891.364	17680
891.488	17760
891.611	17729
891.734	17729
891.857	17798
891.98	17604
892.103	17627
892.226	17604
892.349	17467
892.471	17353
892.594	17452
892.717	17634
892.839	17459
892.962	17425
893.085	17592
893.207	17455
893.33	17200
893.452	17273
893.575	17356
893.697	17204
893.819	17520
893.941	17474
894.064	17539
894.186	17223
894.308	17098
894.43	17341
894.552	17391
894.674	17337
894.796	17079
894.918	17242
895.04	17090
895.161	17181
895.283	17292
895.405	17174
895.526	17174
895.648	17193
895.769	17102
895.891	17231
896.012	17239
896.134	17235
896.255	17185
896.376	17140
896.498	17075
896.619	17193
896.74	17132
896.861	17261
896.982	17349
897.103	17627
897.224	17455
897.345	17220
897.466	17368
897.587	17280
897.708	17474
897.828	17280
897.949	17315
898.07	17128
898.19	17250
898.311	17402
898.431	17254
898.552	17311
898.672	17433
898.792	17474
898.913	17341
899.033	17322
899.153	17212
899.273	17124
899.393	17109
899.513	17083
899.633	17105
899.753	17212
899.873	17105
899.993	17170
900.113	17048
900.232	17231
900.352	17029
900.472	17048
900.591	16980
900.711	17071
900.83	16980
900.95	17071
901.069	17029
901.189	16949
901.308	16660
901.427	16542
901.546	16656
901.665	16554
901.784	16634
901.904	16508
902.023	16253
902.141	16230
902.26	16112
902.379	16188
902.498	16006
902.617	16048
902.735	16036
902.854	15956
902.973	15937
903.091	15686
903.21	15717
903.328	15743
903.446	15751
903.565	15542
903.683	15549
903.801	15378
903.919	15492
904.038	15435
904.156	15272
904.274	15275
904.392	15306
904.51	15233
904.627	15313
904.745	15275
904.863	15279
904.981	15104
905.098	14979
905.216	15001
905.334	14929
905.451	14963
905.569	14902
905.686	14960
905.803	14937
905.921	14823
906.038	14830
906.155	14689
906.272	14568
906.389	14583
906.506	14511
906.623	14446
906.74	14366
906.857	14389
906.974	14324
907.091	14442
907.208	14545
907.324	14575
907.441	14377
907.557	14221
907.674	14221
907.79	14111
907.907	14138
908.023	14168
908.139	14088
908.256	14100
908.372	14069
908.488	14134
908.604	13940
908.72	13883
908.836	13955
908.952	13879
909.068	13993
909.184	13989
909.3	13947
909.415	13947
909.531	13890
909.647	13636
909.762	13658
909.878	13601
909.993	13628
910.108	13597
910.224	13616
910.339	13628
910.454	13563
910.57	13373
910.685	13381
910.8	13670
910.915	13655
911.03	13419
911.145	13255
911.259	13152
911.374	13278
911.489	13266
911.604	13160
911.718	13034
911.833	13038
911.947	12932
912.062	12806
912.176	12996
912.291	13076
912.405	12973
912.519	13190
912.633	13236
912.748	13107
912.862	13091
912.976	12840
913.09	12806
913.204	12821
913.318	12878
913.431	12989
913.545	12973
913.659	12913
913.772	12863
913.886	12768
914	12673
914.113	12882
914.226	12905
914.34	12764
914.453	12639
914.566	12844
914.68	12726
914.793	12665
914.906	12471
915.019	12380
915.132	12361
915.245	12388
915.358	12426
915.47	12536
915.583	12494
915.696	12437
915.809	12452
915.921	12616
916.034	12498
916.146	12460
916.259	12353
916.371	12490
916.483	12471
916.595	12426
916.708	12422
916.82	12384
916.932	12365
917.044	12380
917.156	12239
917.268	12190
917.38	12254
917.491	12194
917.603	12159
917.715	12369
917.826	12262
917.938	12129
918.049	12072
918.161	12136
918.272	12308
918.384	12323
918.495	12205
918.606	12098
918.717	11935
918.828	12064
918.939	12079
919.05	11859
919.161	12057
919.272	11699
919.383	11885
919.494	12079
919.604	12247
919.715	11961
919.826	11916
919.936	11935
920.047	12083
920.157	12030
920.267	12186
920.378	12030
920.488	11965
920.598	12117
920.708	12304
920.818	12110
920.928	12114
921.038	12254
921.148	12216
921.258	12015
921.368	11863
921.477	11809
921.587	11771
921.697	11672
921.806	11802
921.916	11688
922.025	11486
922.134	11497
922.244	11360
922.353	11429
922.462	11326
922.571	11277
922.68	11193
922.789	11113
922.898	11136
923.007	11128
923.116	11174
923.224	11166
923.333	11079
923.442	10927
923.55	11037
923.659	11018
923.767	10873
923.876	10938
923.984	11022
924.092	10885
924.201	10881
924.309	10847
924.417	10847
924.525	10889
924.633	10847
924.741	11760
924.849	10588
924.956	10752
925.064	10664
925.172	10626
925.279	10588
925.387	10748
925.494	10634
925.602	10782
925.709	10740
925.816	10573
925.924	10698
926.031	10702
926.138	10691
926.245	10721
926.352	10569
926.459	10687
926.566	10706
926.673	10611
926.779	10485
926.886	10535
926.993	10341
927.099	10318
927.206	10325
927.312	10261
927.419	10318
927.525	10295
927.631	10344
927.737	10287
927.843	10204
927.95	10135
928.056	10154
928.162	10219
928.267	10246
928.373	10797
928.479	10329
928.585	10051
928.69	10086
928.796	10242
928.901	10086
929.007	9918
929.112	10067
929.218	10074
929.323	9972
929.428	9991
929.533	10071
929.638	9873
929.743	9960
929.848	9979
929.953	9983
930.058	9778
930.163	9667
930.267	9766
930.372	9846
930.477	9682
930.581	9892
930.685	9812
930.79	9641
930.894	9595
930.998	9580
931.103	9736
931.207	9393
931.311	9355
931.415	9291
931.519	9135
931.623	9173
