Data from test_V78500241_2374.txt Node
Date: Fri Mar 25 14:50:14 CST 2022
User: usil
Spectrometer: V785-0024
Trigger mode: 0
Integration Time (sec): 4.000000E-1
Scans to average: 1
Nonlinearity correction enabled: false
Boxcar width: 0
Storing dark spectrum: false
XAxis mode: Wavelengths
Number of Pixels in Spectrum: 1024
>>>>>Begin Spectral Data<<<<<
801.071	22105
801.214	22029
801.356	21960
801.499	21762
801.641	21614
801.783	21462
801.926	21523
802.068	21450
802.211	21439
802.353	21317
802.496	21085
802.638	21043
802.78	20902
802.923	20872
803.065	20853
803.208	20853
803.35	20845
803.492	21043
803.635	20910
803.777	20777
803.919	21081
804.061	21169
804.204	20952
804.346	20857
804.488	20724
804.63	20906
804.773	20731
804.915	20731
805.057	20910
805.199	20682
805.341	20868
805.483	20823
805.626	20845
805.768	20811
805.91	20811
806.052	20845
806.194	20674
806.336	20948
806.478	20762
806.62	20861
806.762	20777
806.904	21043
807.046	21252
807.188	21001
807.33	21188
807.472	21089
807.614	21093
807.756	21100
807.898	20845
808.04	20792
808.182	20769
808.324	20769
808.465	20906
808.607	21017
808.749	21161
808.891	21325
809.033	21192
809.174	21226
809.316	21184
809.458	21127
809.6	21051
809.741	21214
809.883	21154
810.025	21382
810.166	21272
810.308	21264
810.45	21291
810.591	21214
810.733	21131
810.875	21058
811.016	20807
811.158	20823
811.299	20990
811.441	21039
811.582	21013
811.724	20979
811.865	20914
812.007	20887
812.148	20887
812.29	20887
812.431	21020
812.573	21131
812.714	21344
812.855	21416
812.997	21507
813.138	21667
813.279	21603
813.421	21496
813.562	21359
813.703	21218
813.845	21081
813.986	20845
814.127	20625
814.268	20427
814.41	20457
814.551	20511
814.692	20648
814.833	20362
814.974	20423
815.115	20442
815.256	20244
815.397	20328
815.539	20313
815.68	20259
815.821	20138
815.962	20195
816.103	20202
816.244	20043
816.385	20027
816.526	19799
816.666	19731
816.807	19628
816.948	19639
817.089	19753
817.23	19620
817.371	19533
817.512	19616
817.653	19632
817.793	19556
817.934	19628
818.075	19624
818.216	19693
818.356	19590
818.497	19438
818.638	19274
818.778	19148
818.919	19327
819.06	19316
819.2	19335
819.341	19449
819.481	19483
819.622	19681
819.762	19693
819.903	19616
820.043	19708
820.184	19609
820.324	19487
820.465	19620
820.605	19605
820.746	19586
820.886	19392
821.026	19620
821.167	19525
821.307	19582
821.447	19472
821.588	19422
821.728	19266
821.868	19194
822.008	18901
822.149	18962
822.289	18993
822.429	18654
822.569	18627
822.709	18627
822.849	18414
822.99	18494
823.13	18483
823.27	18528
823.41	18178
823.55	18190
823.69	18350
823.83	18262
823.97	18277
824.11	18083
824.25	17950
824.389	18030
824.529	18110
824.669	17931
824.809	18057
824.949	18174
825.089	18114
825.228	18171
825.368	17969
825.508	17855
825.648	17779
825.787	17817
825.927	17893
826.067	17878
826.206	17851
826.346	17752
826.485	17832
826.625	17783
826.765	17950
826.904	17897
827.044	17566
827.183	17474
827.323	17532
827.462	17535
827.601	17433
827.741	17520
827.88	17543
828.02	17414
828.159	17486
828.298	17467
828.437	17627
828.577	17554
828.716	17604
828.855	17516
828.994	17299
829.134	17227
829.273	17341
829.412	17242
829.551	17128
829.69	17242
829.829	17246
829.968	17360
830.107	17337
830.246	17174
830.385	17124
830.524	17083
830.663	17014
830.802	16934
830.941	16961
831.08	16965
831.219	16930
831.357	16938
831.496	17056
831.635	16850
831.774	16862
831.913	16733
832.051	16634
832.19	16615
832.329	16706
832.467	16565
832.606	16478
832.744	16592
832.883	16512
833.022	16516
833.16	16489
833.299	16569
833.437	16512
833.576	16565
833.714	16561
833.852	16592
833.991	16679
834.129	16588
834.267	16527
834.406	16615
834.544	16565
834.682	16672
834.821	16527
834.959	16873
835.097	16523
835.235	16645
835.373	16626
835.511	16637
835.65	16382
835.788	16497
835.926	16261
836.064	16246
836.202	16299
836.34	16592
836.478	16588
836.615	16493
836.753	16512
836.891	16558
837.029	16542
837.167	16561
837.305	16402
837.443	16519
837.58	16287
837.718	16478
837.856	16379
837.993	16253
838.131	16466
838.269	16329
838.406	16276
838.544	16234
838.681	16147
838.819	15949
838.956	15888
839.094	15827
839.231	15956
839.369	16124
839.506	16333
839.643	16154
839.781	15907
839.918	15918
840.055	15915
840.193	15808
840.33	15854
840.467	15922
840.604	15781
840.742	16181
840.879	15778
841.016	15778
841.153	15842
841.29	15994
841.427	15956
841.564	15972
841.701	15861
841.838	15854
841.975	15781
842.112	15880
842.249	15747
842.385	15667
842.522	15907
842.659	15755
842.796	15637
842.933	15717
843.069	15625
843.206	15584
843.343	15827
843.479	15751
843.616	15770
843.752	15492
843.889	15477
844.025	15507
844.162	15435
844.298	15568
844.435	15424
844.571	15405
844.708	15523
844.844	15584
844.98	15523
845.117	15549
845.253	15477
845.389	15306
845.525	15386
845.661	15321
845.798	15279
845.934	15336
846.07	15199
846.206	15294
846.342	15412
846.478	15272
846.614	15070
846.75	15077
846.886	14914
847.022	15097
847.158	14998
847.294	15062
847.429	15032
847.565	14960
847.701	15199
847.837	14777
847.972	14625
848.108	14952
848.244	14918
848.379	14708
848.515	14640
848.65	14610
848.786	14629
848.921	14617
849.057	14724
849.192	14765
849.328	14625
849.463	14621
849.598	14655
849.734	14484
849.869	14625
850.004	14446
850.14	14431
850.275	14385
850.41	14377
850.545	14469
850.68	14351
850.815	14446
850.95	14396
851.085	14533
851.22	14526
851.355	14461
851.49	14393
851.625	14400
851.76	14476
851.895	14259
852.03	14313
852.165	14396
852.299	14427
852.434	14537
852.569	14400
852.703	14396
852.838	14492
852.973	14587
853.107	14587
853.242	14511
853.376	14271
853.511	14153
853.645	14275
853.78	14393
853.914	14309
854.048	14256
854.183	14229
854.317	14294
854.451	14484
854.585	14351
854.72	14214
854.854	14381
854.988	14301
855.122	14191
855.256	14103
855.39	14206
855.524	14339
855.658	14427
855.792	14301
855.926	14358
856.06	14332
856.194	14393
856.327	14294
856.461	14134
856.595	14256
856.729	14267
856.862	14313
856.996	14336
857.13	14320
857.263	14374
857.397	14412
857.53	14278
857.664	14305
857.797	14332
857.931	14419
858.064	14336
858.197	14419
858.331	14145
858.464	14237
858.597	14221
858.731	14199
858.864	14145
858.997	14183
859.13	14343
859.263	14320
859.396	14389
859.529	14206
859.662	14206
859.795	14263
859.928	14278
860.061	14488
860.194	14499
860.327	14248
860.46	14290
860.592	14415
860.725	14400
860.858	14374
860.99	14263
861.123	14138
861.256	14172
861.388	14229
861.521	14765
861.653	14183
861.786	14191
861.918	14130
862.05	14187
862.183	14191
862.315	14278
862.447	14317
862.58	14237
862.712	14153
862.844	13890
862.976	14168
863.108	14180
863.24	14450
863.372	14073
863.504	14031
863.636	14062
863.768	14145
863.9	13997
864.032	14054
864.164	13974
864.296	14111
864.428	14221
864.559	14187
864.691	14149
864.823	14096
864.954	14115
865.086	14039
865.217	14103
865.349	13947
865.48	14058
865.612	14119
865.743	14199
865.875	14069
866.006	14027
866.137	14054
866.269	13936
866.4	14012
866.531	14084
866.662	13894
866.793	14062
866.924	14008
867.055	13986
867.186	14001
867.317	13951
867.448	13830
867.579	14081
867.71	14020
867.841	13963
867.972	13974
868.103	14096
868.233	14024
868.364	14073
868.495	14107
868.625	14233
868.756	14336
868.886	14031
869.017	14176
869.147	14339
869.278	14454
869.408	14275
869.539	14385
869.669	14343
869.799	14396
869.929	14400
870.06	14294
870.19	14682
870.32	14552
870.45	14598
870.58	14575
870.71	14811
870.84	14731
870.97	14640
871.1	14804
871.23	14876
871.36	14811
871.489	14697
871.619	14830
871.749	14842
871.879	14933
872.008	14963
872.138	14834
872.267	14807
872.397	14746
872.526	14819
872.656	14781
872.785	14701
872.915	14902
873.044	15074
873.173	14868
873.303	14971
873.432	14990
873.561	14948
873.69	14868
873.819	14963
873.948	15081
874.077	14941
874.206	14849
874.335	14941
874.464	15024
874.593	15230
874.722	15180
874.851	15237
874.979	15329
875.108	15348
875.237	15203
875.365	15135
875.494	15195
875.623	15241
875.751	15138
875.88	15142
876.008	15401
876.136	15420
876.265	15610
876.393	15755
876.521	15800
876.65	15686
876.778	15698
876.906	15625
877.034	15587
877.162	15637
877.29	15561
877.418	15614
877.546	15709
877.674	15675
877.802	15686
877.93	15587
878.058	15618
878.185	15587
878.313	15675
878.441	15618
878.568	15534
878.696	15576
878.824	15660
878.951	15644
879.079	15861
879.206	15926
879.333	15861
879.461	15675
879.588	15743
879.715	15770
879.842	15930
879.97	15793
880.097	15523
880.224	15458
880.351	15542
880.478	15507
880.605	15538
880.732	15538
880.859	15682
880.986	15488
881.112	15466
881.239	15393
881.366	15252
881.493	15119
881.619	15199
881.746	15195
881.872	15241
881.999	15100
882.125	15077
882.252	15203
882.378	15093
882.505	15268
882.631	15131
882.757	14971
882.883	14982
883.01	14967
883.136	14845
883.262	14773
883.388	14765
883.514	15051
883.64	15070
883.766	14880
883.892	14754
884.018	14845
884.143	15001
884.269	15020
884.395	14796
884.52	14613
884.646	14781
884.772	14678
884.897	14442
885.023	14739
885.148	14792
885.274	14845
885.399	14693
885.524	14735
885.65	14842
885.775	14667
885.9	14727
886.025	14769
886.15	14769
886.275	14724
886.4	14552
886.525	14678
886.65	14636
886.775	14617
886.9	14880
887.025	14853
887.149	14705
887.274	14556
887.399	14465
887.523	14465
887.648	14408
887.773	14457
887.897	14659
888.021	14537
888.146	14507
888.27	14526
888.395	14667
888.519	14530
888.643	14606
888.767	14571
888.891	14473
889.015	14358
889.139	14408
889.263	14374
889.387	14457
889.511	14594
889.635	14522
889.759	14366
889.883	14370
890.006	14480
890.13	14598
890.254	14252
890.377	14374
890.501	14206
890.624	14157
890.748	14294
890.871	14187
890.995	14073
891.118	13993
891.241	14111
891.364	13997
891.488	14225
891.611	14126
891.734	14081
891.857	14092
891.98	14153
892.103	14176
892.226	14077
892.349	14081
892.471	13902
892.594	14046
892.717	14115
892.839	14103
892.962	14077
893.085	14096
893.207	14062
893.33	13993
893.452	14081
893.575	14149
893.697	14020
893.819	14225
893.941	14233
894.064	14275
894.186	14123
894.308	14073
894.43	14164
894.552	14271
894.674	14180
894.796	14134
894.918	14187
895.04	14103
895.161	14229
895.283	14240
895.405	14081
895.526	14111
895.648	14183
895.769	14176
895.891	14263
896.012	14362
896.134	14336
896.255	14309
896.376	14172
896.498	14218
896.619	14339
896.74	14305
896.861	14374
896.982	14644
897.103	14807
897.224	14571
897.345	14476
897.466	14492
897.587	14457
897.708	14667
897.828	14587
897.949	14461
898.07	14389
898.19	14469
898.311	14613
898.431	14518
898.552	14708
898.672	14651
898.792	14632
898.913	14583
899.033	14522
899.153	14545
899.273	14412
899.393	14461
899.513	14511
899.633	14511
899.753	14533
899.873	14446
899.993	14545
900.113	14438
900.232	14457
900.352	14442
900.472	14339
900.591	14328
900.711	14351
900.83	14317
900.95	14518
901.069	14503
901.189	14305
901.308	14149
901.427	13936
901.546	14221
901.665	13993
901.784	14024
901.904	13940
902.023	13887
902.141	13571
902.26	13567
902.379	13795
902.498	13537
902.617	13563
902.735	13643
902.854	13578
902.973	13483
903.091	13354
903.21	13244
903.328	13282
903.446	13285
903.565	13175
903.683	13126
903.801	13061
903.919	13076
904.038	13061
904.156	12905
904.274	13004
904.392	13023
904.51	12958
904.627	12981
904.745	13019
904.863	12962
904.981	12726
905.098	12707
905.216	12574
905.334	12639
905.451	12593
905.569	12631
905.686	12711
905.803	12669
905.921	12456
906.038	12574
906.155	12414
906.272	12418
906.389	12311
906.506	12205
906.623	12311
906.74	12327
906.857	12022
906.974	12167
907.091	12296
907.208	12437
907.324	12228
907.441	12190
907.557	11977
907.674	12034
907.79	11923
907.907	11946
908.023	11980
908.139	12003
908.256	11935
908.372	11870
908.488	11904
908.604	11904
908.72	11767
908.836	11707
908.952	11630
909.068	11653
909.184	11798
909.3	11733
909.415	11817
909.531	11718
909.647	11509
909.762	11532
909.878	11486
909.993	11493
910.108	11490
910.224	11459
910.339	11516
910.454	11490
910.57	11414
910.685	11330
910.8	11467
910.915	11547
911.03	11395
911.145	11254
911.259	11204
911.374	11223
911.489	11151
911.604	11056
911.718	11041
911.833	11083
911.947	10812
912.062	10778
912.176	10904
912.291	10919
912.405	11025
912.519	11197
912.633	11201
912.748	11025
912.862	10946
912.976	10908
913.09	10710
913.204	10782
913.318	10885
913.431	10923
913.545	10919
913.659	11052
913.772	10790
913.886	10759
914	10698
914.113	10809
914.226	10774
914.34	10771
914.453	10630
914.566	10797
914.68	10679
914.793	10702
914.906	10580
915.019	10500
915.132	10398
915.245	10409
915.358	10481
915.47	10512
915.583	10447
915.696	10462
915.809	10596
915.921	10630
916.034	10394
916.146	10375
916.259	10466
916.371	10512
916.483	10455
916.595	10402
916.708	10402
916.82	10390
916.932	10333
917.044	10341
917.156	10382
917.268	10268
917.38	10325
917.491	10287
917.603	10382
917.715	10325
917.826	10402
917.938	10257
918.049	10227
918.161	10299
918.272	10436
918.384	10451
918.495	10314
918.606	10181
918.717	10147
918.828	10246
918.939	10322
919.05	10101
919.161	10147
919.272	9892
919.383	10036
919.494	10200
919.604	10478
919.715	10200
919.826	10074
919.936	10188
920.047	10181
920.157	10268
920.267	10394
920.378	10272
920.488	10162
920.598	10344
920.708	10573
920.818	10363
920.928	10363
921.038	10424
921.148	10542
921.258	10223
921.368	10166
921.477	10059
921.587	10071
921.697	9953
921.806	10120
921.916	9983
922.025	9831
922.134	9785
922.244	9747
922.353	9895
922.462	9656
922.571	9595
922.68	9450
922.789	9504
922.898	9526
923.007	9389
923.116	9511
923.224	9466
923.333	9416
923.442	9389
923.55	9306
923.659	9310
923.767	9336
923.876	9348
923.984	9363
924.092	9283
924.201	9310
924.309	9317
924.417	9355
924.525	9256
924.633	9329
924.741	10040
924.849	9119
924.956	9222
925.064	9039
925.172	9017
925.279	9093
925.387	9176
925.494	9085
925.602	9256
925.709	9154
925.816	9051
925.924	9104
926.031	9256
926.138	9192
926.245	9161
926.352	9055
926.459	9116
926.566	9241
926.673	9070
926.779	9009
926.886	8975
926.993	8811
927.099	8861
927.206	8815
927.312	8792
927.419	8872
927.525	8834
927.631	8807
927.737	8815
927.843	8731
927.95	8606
928.056	8777
928.162	8731
928.267	8750
928.373	9351
928.479	8834
928.585	8621
928.69	8693
928.796	8754
928.901	8663
929.007	8469
929.112	8648
929.218	8552
929.323	8549
929.428	8530
929.533	8670
929.638	8537
929.743	8495
929.848	8602
929.953	8476
930.058	8438
930.163	8336
930.267	8332
930.372	8412
930.477	8279
930.581	8541
930.685	8400
930.79	8210
930.894	8271
930.998	8298
931.103	8412
931.207	8081
931.311	8016
931.415	7967
931.519	7746
931.623	7784
