Data from test_V78500241_999.txt Node
Date: Fri Mar 25 14:40:40 CST 2022
User: usil
Spectrometer: V785-0024
Trigger mode: 0
Integration Time (sec): 4.000000E-1
Scans to average: 1
Nonlinearity correction enabled: false
Boxcar width: 0
Storing dark spectrum: false
XAxis mode: Wavelengths
Number of Pixels in Spectrum: 1024
>>>>>Begin Spectral Data<<<<<
801.071	23056
801.214	22881
801.356	22721
801.499	22691
801.641	22500
801.783	22527
801.926	22504
802.068	22424
802.211	22318
802.353	22246
802.496	21869
802.638	21998
802.78	22078
802.923	21964
803.065	21800
803.208	21770
803.35	21812
803.492	21873
803.635	21991
803.777	21778
803.919	21827
804.061	22147
804.204	21827
804.346	21755
804.488	21637
804.63	21861
804.773	21591
804.915	21762
805.057	21880
805.199	21774
805.341	21857
805.483	21736
805.626	21808
805.768	21709
805.91	21770
806.052	21816
806.194	21675
806.336	22002
806.478	21789
806.62	21781
806.762	21812
806.904	22013
807.046	22280
807.188	22154
807.33	22276
807.472	22344
807.614	22322
807.756	22390
807.898	22356
808.04	22341
808.182	22360
808.324	22508
808.465	22706
808.607	23018
808.749	23204
808.891	23493
809.033	23455
809.174	23311
809.316	23105
809.458	22927
809.6	22828
809.741	22736
809.883	22656
810.025	22565
810.166	22668
810.308	22649
810.45	22398
810.591	22242
810.733	22314
810.875	22086
811.016	22044
811.158	21934
811.299	22166
811.441	22143
811.582	22124
811.724	21983
811.865	21956
812.007	21945
812.148	22006
812.29	22013
812.431	22215
812.573	22352
812.714	22382
812.855	22489
812.997	22694
813.138	22824
813.279	22672
813.421	22462
813.562	22413
813.703	22219
813.845	22124
813.986	21789
814.127	21720
814.268	21568
814.41	21644
814.551	21477
814.692	21473
814.833	21526
814.974	21469
815.115	21481
815.256	21359
815.397	21447
815.539	21325
815.68	21252
815.821	21256
815.962	21462
816.103	21237
816.244	21146
816.385	21123
816.526	20918
816.666	20823
816.807	20708
816.948	20674
817.089	20826
817.23	20701
817.371	20720
817.512	20609
817.653	20697
817.793	20625
817.934	20629
818.075	20636
818.216	20689
818.356	20663
818.497	20568
818.638	20328
818.778	20320
818.919	20313
819.06	20484
819.2	20343
819.341	20564
819.481	20488
819.622	20602
819.762	20777
819.903	20785
820.043	20788
820.184	20636
820.324	20625
820.465	20689
820.605	20621
820.746	20632
820.886	20457
821.026	20644
821.167	20571
821.307	20648
821.447	20457
821.588	20374
821.728	20294
821.868	20259
822.008	19963
822.149	19898
822.289	20005
822.429	19727
822.569	19578
822.709	19731
822.849	19525
822.99	19575
823.13	19472
823.27	19518
823.41	19365
823.55	19354
823.69	19419
823.83	19362
823.97	19266
824.11	19148
824.25	19046
824.389	19019
824.529	19076
824.669	19069
824.809	19259
824.949	19148
825.089	19213
825.228	19118
825.368	18924
825.508	19012
825.648	18878
825.787	18871
825.927	18909
826.067	18894
826.206	18867
826.346	18875
826.485	18886
826.625	18821
826.765	18886
826.904	18886
827.044	18635
827.183	18490
827.323	18555
827.462	18635
827.601	18547
827.741	18608
827.88	18734
828.02	18407
828.159	18498
828.298	18528
828.437	18612
828.577	18467
828.716	18783
828.855	18513
828.994	18353
829.134	18266
829.273	18376
829.412	18224
829.551	18308
829.69	18197
829.829	18346
829.968	18289
830.107	18353
830.246	18216
830.385	18285
830.524	18281
830.663	18121
830.802	18049
830.941	17958
831.08	17794
831.219	18076
831.357	17946
831.496	18076
831.635	17889
831.774	17798
831.913	17722
832.051	17665
832.19	17665
832.329	17783
832.467	17653
832.606	17573
832.744	17680
832.883	17680
833.022	17581
833.16	17642
833.299	17615
833.437	17604
833.576	17630
833.714	17703
833.852	17798
833.991	17745
834.129	17771
834.267	17733
834.406	17684
834.544	17828
834.682	17741
834.821	17703
834.959	17798
835.097	17684
835.235	17745
835.373	17710
835.511	17668
835.65	17653
835.788	17604
835.926	17383
836.064	17433
836.202	17349
836.34	17615
836.478	17573
836.615	17509
836.753	17638
836.891	17642
837.029	17604
837.167	17490
837.305	17478
837.443	17433
837.58	17391
837.718	17497
837.856	17501
837.993	17425
838.131	17440
838.269	17303
838.406	17303
838.544	17227
838.681	17029
838.819	16984
838.956	16892
839.094	16930
839.231	17033
839.369	17037
839.506	17258
839.643	17128
839.781	17045
839.918	16873
840.055	16961
840.193	16885
840.33	16900
840.467	16847
840.604	16961
840.742	17147
840.879	16755
841.016	16862
841.153	16771
841.29	16934
841.427	16915
841.564	16953
841.701	16949
841.838	16831
841.975	16801
842.112	16748
842.249	16812
842.385	16622
842.522	16900
842.659	16721
842.796	16656
842.933	16698
843.069	16664
843.206	16626
843.343	16710
843.479	16641
843.616	16645
843.752	16546
843.889	16421
844.025	16584
844.162	16451
844.298	16546
844.435	16436
844.571	16371
844.708	16481
844.844	16656
844.98	16755
845.117	16740
845.253	16580
845.389	16630
845.525	16778
845.661	17067
845.798	17353
845.934	17638
846.07	17722
846.206	17657
846.342	17676
846.478	17083
846.614	16748
846.75	16348
846.886	16139
847.022	16341
847.158	16105
847.294	16051
847.429	16067
847.565	16021
847.701	16166
847.837	15800
847.972	15816
848.108	15854
848.244	15789
848.379	15694
848.515	15724
848.65	15576
848.786	15618
848.921	15534
849.057	15770
849.192	15641
849.328	15690
849.463	15686
849.598	15595
849.734	15606
849.869	15511
850.004	15401
850.14	15378
850.275	15405
850.41	15260
850.545	15336
850.68	15428
850.815	15412
850.95	15359
851.085	15504
851.22	15542
851.355	15386
851.49	15283
851.625	15336
851.76	15431
851.895	15256
852.03	15279
852.165	15332
852.299	15538
852.434	15386
852.569	15367
852.703	15329
852.838	15469
852.973	15599
853.107	15488
853.242	15424
853.376	15241
853.511	15150
853.645	15237
853.78	15298
853.914	15287
854.048	15199
854.183	15272
854.317	15230
854.451	15412
854.585	15218
854.72	15188
854.854	15344
854.988	15173
855.122	15207
855.256	15138
855.39	15310
855.524	15275
855.658	15230
855.792	15138
855.926	15245
856.06	15310
856.194	15332
856.327	15184
856.461	15180
856.595	15161
856.729	15039
856.862	15233
856.996	15245
857.13	15340
857.263	15351
857.397	15412
857.53	15260
857.664	15378
857.797	15329
857.931	15317
858.064	15329
858.197	15401
858.331	15260
858.464	15169
858.597	15131
858.731	15180
858.864	15218
858.997	15138
859.13	15176
859.263	15230
859.396	15252
859.529	15249
859.662	15112
859.795	15097
859.928	15249
860.061	15348
860.194	15386
860.327	15233
860.46	15226
860.592	15370
860.725	15408
860.858	15283
860.99	15211
861.123	15116
861.256	15161
861.388	15165
861.521	15808
861.653	15070
861.786	15055
861.918	15142
862.05	15188
862.183	15192
862.315	15116
862.447	15321
862.58	15001
862.712	15039
862.844	14967
862.976	15123
863.108	15074
863.24	15386
863.372	15043
863.504	14902
863.636	14982
863.768	15005
863.9	14960
864.032	14830
864.164	15055
864.296	15100
864.428	15043
864.559	15013
864.691	15043
864.823	15051
864.954	15036
865.086	15077
865.217	14895
865.349	14948
865.48	14979
865.612	14929
865.743	15150
865.875	14990
866.006	14910
866.137	14986
866.269	14929
866.4	14880
866.531	15024
866.662	14933
866.793	14906
866.924	14883
867.055	14948
867.186	14944
867.317	14872
867.448	14861
867.579	15001
867.71	14914
867.841	14925
867.972	14948
868.103	14910
868.233	14971
868.364	15047
868.495	14994
868.625	15131
868.756	15302
868.886	15192
869.017	15173
869.147	15207
869.278	15317
869.408	15264
869.539	15203
869.669	15310
869.799	15230
869.929	15367
870.06	15374
870.19	15511
870.32	15477
870.45	15526
870.58	15599
870.71	15728
870.84	15637
870.97	15614
871.1	15557
871.23	15797
871.36	15800
871.489	15751
871.619	15743
871.749	15808
871.879	15797
872.008	15899
872.138	15869
872.267	15762
872.397	15682
872.526	15644
872.656	15603
872.785	15606
872.915	15892
873.044	15915
873.173	15899
873.303	15983
873.432	15895
873.561	15880
873.69	15865
873.819	15964
873.948	16025
874.077	15873
874.206	15751
874.335	15781
874.464	15979
874.593	16196
874.722	16074
874.851	16200
874.979	16090
875.108	16112
875.237	16040
875.365	15983
875.494	16074
875.623	16238
875.751	16128
875.88	16131
876.008	16299
876.136	16512
876.265	16569
876.393	16641
876.521	16691
876.65	16729
876.778	16607
876.906	16668
877.034	16618
877.162	16550
877.29	16485
877.418	16634
877.546	16649
877.674	16675
877.802	16611
877.93	16622
878.058	16713
878.185	16474
878.313	16706
878.441	16698
878.568	16634
878.696	16664
878.824	16881
878.951	16915
879.079	17075
879.206	17277
879.333	17273
879.461	17391
879.588	17387
879.715	17421
879.842	17501
879.97	17239
880.097	16946
880.224	16793
880.351	16828
880.478	16767
880.605	16683
880.732	16493
880.859	16809
880.986	16603
881.112	16687
881.239	16489
881.366	16371
881.493	16306
881.619	16253
881.746	16295
881.872	16249
881.999	16272
882.125	16173
882.252	16333
882.378	16230
882.505	16379
882.631	16185
882.757	16124
882.883	16181
883.01	16013
883.136	15983
883.262	15892
883.388	15922
883.514	16093
883.64	16131
883.766	15956
883.892	15869
884.018	15876
884.143	16044
884.269	16093
884.395	15861
884.52	15781
884.646	15823
884.772	15762
884.897	15648
885.023	15812
885.148	15831
885.274	15911
885.399	15956
885.524	15728
885.65	15808
885.775	15778
885.9	15728
886.025	15800
886.15	15850
886.275	15736
886.4	15698
886.525	15682
886.65	15561
886.775	15641
886.9	15762
887.025	15838
887.149	15728
887.274	15549
887.399	15458
887.523	15534
887.648	15424
887.773	15367
887.897	15477
888.021	15488
888.146	15462
888.27	15591
888.395	15599
888.519	15443
888.643	15572
888.767	15549
888.891	15412
889.015	15272
889.139	15397
889.263	15321
889.387	15298
889.511	15443
889.635	15386
889.759	15291
889.883	15260
890.006	15329
890.13	15348
890.254	15291
890.377	15237
890.501	15123
890.624	15089
890.748	15211
890.871	15074
890.995	14944
891.118	14941
891.241	14899
891.364	15051
891.488	15058
891.611	14914
891.734	14960
891.857	15017
891.98	14994
892.103	14967
892.226	14929
892.349	14979
892.471	14933
892.594	14982
892.717	15009
892.839	14853
892.962	14975
893.085	14933
893.207	14929
893.33	14845
893.452	14815
893.575	15043
893.697	14914
893.819	15169
893.941	15097
894.064	15104
894.186	14853
894.308	14891
894.43	15024
894.552	15157
894.674	15081
894.796	14883
894.918	14956
895.04	14880
895.161	15154
895.283	15039
895.405	14853
895.526	15020
895.648	15104
895.769	15017
895.891	15093
896.012	15032
896.134	15028
896.255	15089
896.376	15192
896.498	14986
896.619	15135
896.74	15123
896.861	15138
896.982	15473
897.103	15591
897.224	15447
897.345	15287
897.466	15298
897.587	15287
897.708	15603
897.828	15321
897.949	15294
898.07	15135
898.19	15302
898.311	15382
898.431	15291
898.552	15386
898.672	15523
898.792	15534
898.913	15469
899.033	15420
899.153	15340
899.273	15230
899.393	15287
899.513	15310
899.633	15272
899.753	15348
899.873	15173
899.993	15378
900.113	15294
900.232	15306
900.352	15195
900.472	15146
900.591	15131
900.711	15146
900.83	15039
900.95	15279
901.069	15252
901.189	15085
901.308	14906
901.427	14750
901.546	14758
901.665	14769
901.784	14765
901.904	14640
902.023	14522
902.141	14400
902.26	14362
902.379	14404
902.498	14400
902.617	14233
902.735	14305
902.854	14305
902.973	14142
903.091	14092
903.21	14012
903.328	14138
903.446	14062
903.565	13906
903.683	13925
903.801	13852
903.919	13784
904.038	13879
904.156	13693
904.274	13753
904.392	13727
904.51	13597
904.627	13590
904.745	13616
904.863	13791
904.981	13495
905.098	13327
905.216	13320
905.334	13369
905.451	13350
905.569	13255
905.686	13362
905.803	13362
905.921	13179
906.038	13320
906.155	13282
906.272	13057
906.389	13099
906.506	12863
906.623	12989
906.74	12875
906.857	12719
906.974	12825
907.091	12913
907.208	13099
907.324	12878
907.441	12787
907.557	12684
907.674	12692
907.79	12604
907.907	12525
908.023	12772
908.139	12711
908.256	12585
908.372	12585
908.488	12525
908.604	12445
908.72	12365
908.836	12391
908.952	12323
909.068	12483
909.184	12528
909.3	12464
909.415	12467
909.531	12418
909.647	12239
909.762	12194
909.878	12152
909.993	12129
910.108	12068
910.224	12201
910.339	12205
910.454	12068
910.57	12011
910.685	11935
910.8	12205
910.915	12186
911.03	12011
911.145	11889
911.259	11889
911.374	11775
911.489	11756
911.604	11745
911.718	11592
911.833	11604
911.947	11482
912.062	11452
912.176	11714
912.291	11554
912.405	11646
912.519	11809
912.633	11771
912.748	11634
912.862	11627
912.976	11512
913.09	11364
913.204	11372
913.318	11471
913.431	11615
913.545	11539
913.659	11585
913.772	11486
913.886	11387
914	11288
914.113	11459
914.226	11417
914.34	11501
914.453	11250
914.566	11505
914.68	11277
914.793	11376
914.906	11098
915.019	11098
915.132	10869
915.245	10984
915.358	11121
915.47	11086
915.583	11105
915.696	11155
915.809	11204
915.921	11273
916.034	11014
916.146	11022
916.259	10987
916.371	11048
916.483	11185
916.595	10904
916.708	11010
916.82	11071
916.932	10968
917.044	10919
917.156	10995
917.268	10786
917.38	10889
917.491	10801
917.603	10930
917.715	11022
917.826	10961
917.938	10927
918.049	10900
918.161	10915
918.272	10976
918.384	10968
918.495	10927
918.606	10687
918.717	10607
918.828	10729
918.939	10736
919.05	10714
919.161	10679
919.272	10500
919.383	10622
919.494	10679
919.604	10942
919.715	10694
919.826	10672
919.936	10679
920.047	10877
920.157	10736
920.267	10999
920.378	10771
920.488	10714
920.598	10919
920.708	11105
920.818	10968
920.928	10927
921.038	11109
921.148	11079
921.258	10869
921.368	10725
921.477	10588
921.587	10561
921.697	10436
921.806	10558
921.916	10508
922.025	10333
922.134	10261
922.244	10268
922.353	10325
922.462	10128
922.571	10128
922.68	10013
922.789	9983
922.898	9979
923.007	9884
923.116	10101
923.224	9941
923.333	9903
923.442	9812
923.55	9819
923.659	9869
923.767	9918
923.876	9865
923.984	9816
924.092	9747
924.201	9926
924.309	9808
924.417	9823
924.525	9808
924.633	9808
924.741	10702
924.849	9625
924.956	9759
925.064	9682
925.172	9584
925.279	9515
925.387	9671
925.494	9603
925.602	9701
925.709	9713
925.816	9538
925.924	9595
926.031	9564
926.138	9614
926.245	9701
926.352	9641
926.459	9614
926.566	9743
926.673	9625
926.779	9511
926.886	9428
926.993	9363
927.099	9348
927.206	9291
927.312	9313
927.419	9393
927.525	9370
927.631	9363
927.737	9260
927.843	9226
927.95	9047
928.056	9256
928.162	9161
928.267	9256
928.373	9770
928.479	9294
928.585	9089
928.69	9127
928.796	9264
928.901	9142
929.007	8998
929.112	9108
929.218	9055
929.323	9089
929.428	9043
929.533	9127
929.638	8971
929.743	8960
929.848	9020
929.953	9085
930.058	8925
930.163	8807
930.267	8788
930.372	8975
930.477	8773
930.581	8998
930.685	8918
930.79	8781
930.894	8785
930.998	8754
931.103	8834
931.207	8556
931.311	8545
931.415	8396
931.519	8218
931.623	8210
