Data from test_V78500241_3028.txt Node
Date: Fri Mar 25 14:54:47 CST 2022
User: usil
Spectrometer: V785-0024
Trigger mode: 0
Integration Time (sec): 4.000000E-1
Scans to average: 1
Nonlinearity correction enabled: false
Boxcar width: 0
Storing dark spectrum: false
XAxis mode: Wavelengths
Number of Pixels in Spectrum: 1024
>>>>>Begin Spectral Data<<<<<
801.071	22116
801.214	21945
801.356	21728
801.499	21610
801.641	21450
801.783	21507
801.926	21466
802.068	21408
802.211	21317
802.353	21211
802.496	20990
802.638	20956
802.78	20868
802.923	20895
803.065	20708
803.208	20609
803.35	20845
803.492	20864
803.635	21043
803.777	20876
803.919	20899
804.061	21165
804.204	20971
804.346	20731
804.488	20758
804.63	20819
804.773	20697
804.915	20769
805.057	20792
805.199	20686
805.341	20716
805.483	20754
805.626	20785
805.768	20727
805.91	20708
806.052	20834
806.194	20617
806.336	20861
806.478	20629
806.62	20587
806.762	20697
806.904	20963
807.046	21005
807.188	21085
807.33	21161
807.472	21096
807.614	20914
807.756	20963
807.898	20754
808.04	20819
808.182	20724
808.324	20834
808.465	20975
808.607	21009
808.749	21135
808.891	21165
809.033	21283
809.174	21131
809.316	21013
809.458	21131
809.6	21089
809.741	21104
809.883	21184
810.025	21260
810.166	21245
810.308	21359
810.45	21176
810.591	21169
810.733	21009
810.875	20937
811.016	20883
811.158	20765
811.299	20967
811.441	20956
811.582	21047
811.724	20880
811.865	20819
812.007	20788
812.148	20705
812.29	20838
812.431	21009
812.573	21222
812.714	21321
812.855	21435
812.997	21355
813.138	21595
813.279	21553
813.421	21340
813.562	21351
813.703	21150
813.845	20975
813.986	20876
814.127	20590
814.268	20488
814.41	20412
814.551	20404
814.692	20507
814.833	20275
814.974	20339
815.115	20320
815.256	20263
815.397	20237
815.539	20286
815.68	20180
815.821	20024
815.962	20180
816.103	20130
816.244	19970
816.385	19837
816.526	19963
816.666	19632
816.807	19601
816.948	19601
817.089	19693
817.23	19540
817.371	19624
817.512	19540
817.653	19407
817.793	19438
817.934	19609
818.075	19537
818.216	19506
818.356	19358
818.497	19278
818.638	19255
818.778	19198
818.919	19221
819.06	19285
819.2	19285
819.341	19426
819.481	19407
819.622	19453
819.762	19833
819.903	19601
820.043	19495
820.184	19373
820.324	19441
820.465	19563
820.605	19392
820.746	19415
820.886	19441
821.026	19388
821.167	19422
821.307	19624
821.447	19559
821.588	19282
821.728	19228
821.868	19069
822.008	18939
822.149	18901
822.289	18928
822.429	18734
822.569	18494
822.709	18650
822.849	18243
822.99	18399
823.13	18513
823.27	18338
823.41	18144
823.55	18186
823.69	18201
823.83	18076
823.97	18049
824.11	17965
824.25	17912
824.389	17973
824.529	18133
824.669	17889
824.809	18049
824.949	18057
825.089	17958
825.228	17908
825.368	17665
825.508	17710
825.648	17855
825.787	17802
825.927	17843
826.067	17798
826.206	17691
826.346	17722
826.485	17767
826.625	17752
826.765	17779
826.904	17672
827.044	17596
827.183	17524
827.323	17429
827.462	17490
827.601	17421
827.741	17395
827.88	17421
828.02	17467
828.159	17353
828.298	17402
828.437	17551
828.577	17345
828.716	17627
828.855	17292
828.994	17200
829.134	17220
829.273	17136
829.412	17204
829.551	17151
829.69	17067
829.829	17220
829.968	17197
830.107	17208
830.246	17079
830.385	17056
830.524	17105
830.663	17029
830.802	16889
830.941	16820
831.08	16752
831.219	16843
831.357	16793
831.496	16995
831.635	16801
831.774	16702
831.913	16694
832.051	16569
832.19	16599
832.329	16596
832.467	16459
832.606	16455
832.744	16398
832.883	16462
833.022	16344
833.16	16489
833.299	16519
833.437	16382
833.576	16478
833.714	16607
833.852	16523
833.991	16527
834.129	16592
834.267	16565
834.406	16470
834.544	16531
834.682	16561
834.821	16462
834.959	16615
835.097	16500
835.235	16531
835.373	16519
835.511	16382
835.65	16447
835.788	16443
835.926	16280
836.064	16265
836.202	16249
836.34	16417
836.478	16455
836.615	16417
836.753	16413
836.891	16500
837.029	16394
837.167	16375
837.305	16322
837.443	16261
837.58	16306
837.718	16325
837.856	16310
837.993	16265
838.131	16265
838.269	16173
838.406	16215
838.544	16166
838.681	16063
838.819	15873
838.956	15823
839.094	15743
839.231	15850
839.369	15876
839.506	16158
839.643	16071
839.781	15755
839.918	15770
840.055	15903
840.193	15831
840.33	15770
840.467	15743
840.604	15762
840.742	16082
840.879	15557
841.016	15739
841.153	15679
841.29	15907
841.427	15808
841.564	15869
841.701	15842
841.838	15808
841.975	15736
842.112	15751
842.249	15584
842.385	15507
842.522	15873
842.659	15568
842.796	15576
842.933	15656
843.069	15576
843.206	15572
843.343	15576
843.479	15545
843.616	15610
843.752	15416
843.889	15348
844.025	15443
844.162	15329
844.298	15477
844.435	15321
844.571	15329
844.708	15386
844.844	15500
844.98	15511
845.117	15397
845.253	15275
845.389	15287
845.525	15287
845.661	15241
845.798	15135
845.934	15245
846.07	15119
846.206	15214
846.342	15340
846.478	15150
846.614	14952
846.75	14887
846.886	14906
847.022	15028
847.158	14982
847.294	14941
847.429	14918
847.565	14891
847.701	15256
847.837	14659
847.972	14724
848.108	14785
848.244	14845
848.379	14621
848.515	14579
848.65	14461
848.786	14552
848.921	14552
849.057	14590
849.192	14701
849.328	14629
849.463	14541
849.598	14507
849.734	14530
849.869	14457
850.004	14351
850.14	14259
850.275	14286
850.41	14199
850.545	14271
850.68	14294
850.815	14351
850.95	14320
851.085	14476
851.22	14530
851.355	14324
851.49	14259
851.625	14267
851.76	14328
851.895	14218
852.03	14180
852.165	14328
852.299	14431
852.434	14438
852.569	14396
852.703	14377
852.838	14370
852.973	14484
853.107	14450
853.242	14339
853.376	14218
853.511	14088
853.645	14153
853.78	14317
853.914	14164
854.048	14225
854.183	14115
854.317	14187
854.451	14347
854.585	14168
854.72	14088
854.854	14259
854.988	14088
855.122	14180
855.256	14035
855.39	14111
855.524	14305
855.658	14244
855.792	14168
855.926	14161
856.06	14339
856.194	14324
856.327	14214
856.461	14157
856.595	14126
856.729	14180
856.862	14282
856.996	14336
857.13	14301
857.263	14191
857.397	14301
857.53	14263
857.664	14218
857.797	14332
857.931	14301
858.064	14206
858.197	14336
858.331	14218
858.464	14172
858.597	14088
858.731	14180
858.864	14092
858.997	14145
859.13	14229
859.263	14244
859.396	14237
859.529	14138
859.662	14168
859.795	14058
859.928	14199
860.061	14332
860.194	14309
860.327	14119
860.46	14176
860.592	14267
860.725	14347
860.858	14309
860.99	14221
861.123	14183
861.256	14130
861.388	14214
861.521	14929
861.653	14039
861.786	14077
861.918	14103
862.05	14084
862.183	14096
862.315	14275
862.447	14214
862.58	14233
862.712	13982
862.844	13906
862.976	13974
863.108	13967
863.24	14351
863.372	13887
863.504	14001
863.636	13978
863.768	14149
863.9	13940
864.032	13982
864.164	13959
864.296	13898
864.428	14035
864.559	14012
864.691	14016
864.823	13989
864.954	14016
865.086	13986
865.217	14001
865.349	13913
865.48	13936
865.612	13917
865.743	14069
865.875	13921
866.006	13887
866.137	14008
866.269	13963
866.4	13932
866.531	13936
866.662	13837
866.793	13898
866.924	13864
867.055	13883
867.186	13925
867.317	13925
867.448	13807
867.579	13883
867.71	13890
867.841	13799
867.972	13913
868.103	13932
868.233	13944
868.364	13932
868.495	13955
868.625	14092
868.756	14282
868.886	14115
869.017	14126
869.147	14298
869.278	14275
869.408	14145
869.539	14225
869.669	14248
869.799	14267
869.929	14343
870.06	14278
870.19	14454
870.32	14518
870.45	14442
870.58	14575
870.71	14777
870.84	14644
870.97	14442
871.1	14598
871.23	14785
871.36	14857
871.489	14670
871.619	14769
871.749	14712
871.879	14815
872.008	14895
872.138	14792
872.267	14716
872.397	14712
872.526	14625
872.656	14629
872.785	14587
872.915	14796
873.044	14834
873.173	14815
873.303	14807
873.432	14872
873.561	14823
873.69	14731
873.819	14876
873.948	14895
874.077	14857
874.206	14842
874.335	14743
874.464	14914
874.593	15214
874.722	15127
874.851	15188
874.979	15157
875.108	15222
875.237	15074
875.365	15009
875.494	15043
875.623	15165
875.751	15161
875.88	15070
876.008	15306
876.136	15355
876.265	15686
876.393	15720
876.521	15663
876.65	15644
876.778	15614
876.906	15603
877.034	15507
877.162	15523
877.29	15447
877.418	15557
877.546	15545
877.674	15458
877.802	15504
877.93	15599
878.058	15542
878.185	15500
878.313	15477
878.441	15595
878.568	15340
878.696	15515
878.824	15679
878.951	15625
879.079	15747
879.206	15846
879.333	15819
879.461	15534
879.588	15747
879.715	15682
879.842	15739
879.97	15629
880.097	15428
880.224	15416
880.351	15526
880.478	15481
880.605	15466
880.732	15420
880.859	15629
880.986	15485
881.112	15397
881.239	15374
881.366	15226
881.493	15192
881.619	15051
881.746	15127
881.872	15123
881.999	14994
882.125	14998
882.252	15085
882.378	15211
882.505	15237
882.631	15001
882.757	14925
882.883	14967
883.01	14937
883.136	14796
883.262	14804
883.388	14743
883.514	14929
883.64	15005
883.766	14785
883.892	14693
884.018	14811
884.143	14811
884.269	15032
884.395	14663
884.52	14674
884.646	14762
884.772	14625
884.897	14499
885.023	14659
885.148	14712
885.274	14769
885.399	14785
885.524	14583
885.65	14560
885.775	14598
885.9	14606
886.025	14735
886.15	14655
886.275	14579
886.4	14526
886.525	14518
886.65	14503
886.775	14568
886.9	14758
887.025	14883
887.149	14644
887.274	14484
887.399	14454
887.523	14503
887.648	14377
887.773	14305
887.897	14473
888.021	14602
888.146	14412
888.27	14484
888.395	14602
888.519	14499
888.643	14480
888.767	14492
888.891	14358
889.015	14282
889.139	14374
889.263	14259
889.387	14415
889.511	14564
889.635	14495
889.759	14282
889.883	14214
890.006	14366
890.13	14370
890.254	14157
890.377	14305
890.501	14058
890.624	14145
890.748	14187
890.871	13967
890.995	13963
891.118	13970
891.241	14005
891.364	14031
891.488	14016
891.611	13993
891.734	14031
891.857	14050
891.98	13989
892.103	14100
892.226	13974
892.349	14107
892.471	13860
892.594	14096
892.717	13986
892.839	14008
892.962	14065
893.085	14088
893.207	13989
893.33	13864
893.452	13909
893.575	14008
893.697	14054
893.819	14161
893.941	14180
894.064	14161
894.186	14031
894.308	13997
894.43	14077
894.552	14347
894.674	14138
894.796	14001
894.918	14024
895.04	14111
895.161	14157
895.283	14157
895.405	14043
895.526	14103
895.648	14092
895.769	14130
895.891	14202
896.012	14225
896.134	14168
896.255	14164
896.376	14088
896.498	14206
896.619	14153
896.74	14199
896.861	14317
896.982	14476
897.103	14667
897.224	14545
897.345	14507
897.466	14427
897.587	14492
897.708	14636
897.828	14503
897.949	14431
898.07	14358
898.19	14385
898.311	14571
898.431	14518
898.552	14590
898.672	14625
898.792	14552
898.913	14571
899.033	14499
899.153	14438
899.273	14358
899.393	14415
899.513	14320
899.633	14499
899.753	14412
899.873	14355
899.993	14507
900.113	14377
900.232	14446
900.352	14320
900.472	14298
900.591	14210
900.711	14324
900.83	14263
900.95	14339
901.069	14404
901.189	14180
901.308	14065
901.427	13944
901.546	13864
901.665	13993
901.784	13967
901.904	13807
902.023	13693
902.141	13616
902.26	13506
902.379	13624
902.498	13487
902.617	13491
902.735	13628
902.854	13510
902.973	13521
903.091	13263
903.21	13213
903.328	13304
903.446	13232
903.565	13141
903.683	13141
903.801	12954
903.919	13050
904.038	13061
904.156	12966
904.274	12966
904.392	12840
904.51	12939
904.627	12878
904.745	12985
904.863	12894
904.981	12722
905.098	12536
905.216	12544
905.334	12650
905.451	12551
905.569	12509
905.686	12574
905.803	12639
905.921	12388
906.038	12513
906.155	12445
906.272	12270
906.389	12266
906.506	12190
906.623	12216
906.74	12194
906.857	12041
906.974	12148
907.091	12270
907.208	12251
907.324	12243
907.441	12133
907.557	11794
907.674	11954
907.79	11805
907.907	11931
908.023	11939
908.139	11920
908.256	11882
908.372	11874
908.488	11866
908.604	11710
908.72	11608
908.836	11813
908.952	11726
909.068	11646
909.184	11836
909.3	11714
909.415	11851
909.531	11737
909.647	11467
909.762	11463
909.878	11497
909.993	11398
910.108	11402
910.224	11425
910.339	11501
910.454	11311
910.57	11379
910.685	11185
910.8	11482
910.915	11444
911.03	11334
911.145	11143
911.259	11105
911.374	11178
911.489	11048
911.604	11113
911.718	10995
911.833	10869
911.947	10801
912.062	10710
912.176	10858
912.291	10923
912.405	10862
912.519	11041
912.633	11090
912.748	10991
912.862	10858
912.976	10786
913.09	10702
913.204	10702
913.318	10759
913.431	10930
913.545	10877
913.659	10919
913.772	10786
913.886	10717
914	10626
914.113	10774
914.226	10809
914.34	10828
914.453	10565
914.566	10889
914.68	10626
914.793	10626
914.906	10417
915.019	10398
915.132	10276
915.245	10436
915.358	10462
915.47	10417
915.583	10428
915.696	10478
915.809	10626
915.921	10596
916.034	10428
916.146	10394
916.259	10356
916.371	10497
916.483	10413
916.595	10341
916.708	10344
916.82	10333
916.932	10352
917.044	10348
917.156	10303
917.268	10204
917.38	10246
917.491	10219
917.603	10299
917.715	10341
917.826	10314
917.938	10215
918.049	10169
918.161	10207
918.272	10371
918.384	10386
918.495	10295
918.606	10120
918.717	10150
918.828	10116
918.939	10097
919.05	10131
919.161	10071
919.272	9884
919.383	9972
919.494	10211
919.604	10318
919.715	10204
919.826	10040
919.936	10150
920.047	10204
920.157	10135
920.267	10306
920.378	10162
920.488	10185
920.598	10390
920.708	10478
920.818	10394
920.928	10329
921.038	10523
921.148	10443
921.258	10150
921.368	10067
921.477	10029
921.587	9975
921.697	9934
921.806	9968
921.916	9930
922.025	9778
922.134	9682
922.244	9740
922.353	9690
922.462	9667
922.571	9507
922.68	9473
922.789	9393
922.898	9389
923.007	9374
923.116	9511
923.224	9405
923.333	9424
923.442	9325
923.55	9336
923.659	9351
923.767	9386
923.876	9302
923.984	9374
924.092	9253
924.201	9256
924.309	9249
924.417	9291
924.525	9218
924.633	9192
924.741	10090
924.849	9001
924.956	9233
925.064	9024
925.172	9070
925.279	9020
925.387	9089
925.494	9066
925.602	9226
925.709	9077
925.816	9051
925.924	9142
926.031	9180
926.138	9070
926.245	9199
926.352	9013
926.459	9184
926.566	9169
926.673	9051
926.779	8914
926.886	8944
926.993	8857
927.099	8811
927.206	8724
927.312	8769
927.419	8887
927.525	8777
927.631	8811
927.737	8758
927.843	8632
927.95	8526
928.056	8724
928.162	8663
928.267	8804
928.373	9249
928.479	8712
928.585	8552
928.69	8674
928.796	8663
928.901	8587
929.007	8434
929.112	8503
929.218	8587
929.323	8575
929.428	8503
929.533	8644
929.638	8419
929.743	8476
929.848	8499
929.953	8457
930.058	8389
930.163	8282
930.267	8221
930.372	8419
930.477	8229
930.581	8400
930.685	8347
930.79	8221
930.894	8225
930.998	8134
931.103	8290
931.207	8027
931.311	7989
931.415	7890
931.519	7712
931.623	7696
