Data from test_V78500241_1487.txt Node
Date: Fri Mar 25 14:44:04 CST 2022
User: usil
Spectrometer: V785-0024
Trigger mode: 0
Integration Time (sec): 4.000000E-1
Scans to average: 1
Nonlinearity correction enabled: false
Boxcar width: 0
Storing dark spectrum: false
XAxis mode: Wavelengths
Number of Pixels in Spectrum: 1024
>>>>>Begin Spectral Data<<<<<
801.071	22554
801.214	22348
801.356	22181
801.499	22082
801.641	21835
801.783	21918
801.926	21705
802.068	21705
802.211	21667
802.353	21530
802.496	21378
802.638	21477
802.78	21268
802.923	21169
803.065	21123
803.208	21127
803.35	21116
803.492	21192
803.635	21260
803.777	21146
803.919	21302
804.061	21523
804.204	21233
804.346	20986
804.488	20952
804.63	21150
804.773	21036
804.915	20990
805.057	21199
805.199	21074
805.341	21272
805.483	21306
805.626	21203
805.768	21089
805.91	21093
806.052	21093
806.194	21081
806.336	21150
806.478	21085
806.62	20956
806.762	21173
806.904	21283
807.046	21435
807.188	21447
807.33	21416
807.472	21492
807.614	21329
807.756	21386
807.898	21302
808.04	21199
808.182	21173
808.324	21260
808.465	21275
808.607	21648
808.749	21720
808.891	21789
809.033	21880
809.174	21804
809.316	21553
809.458	21511
809.6	21614
809.741	21671
809.883	21591
810.025	21667
810.166	21671
810.308	21603
810.45	21511
810.591	21428
810.733	21416
810.875	21256
811.016	21108
811.158	21112
811.299	21249
811.441	21454
811.582	21496
811.724	21226
811.865	21214
812.007	21264
812.148	21195
812.29	21249
812.431	21428
812.573	21599
812.714	21610
812.855	21698
812.997	21698
813.138	21964
813.279	21766
813.421	21728
813.562	21633
813.703	21515
813.845	21378
813.986	21230
814.127	20899
814.268	20914
814.41	20754
814.551	20807
814.692	20826
814.833	20708
814.974	20693
815.115	20876
815.256	20632
815.397	20613
815.539	20667
815.68	20514
815.821	20533
815.962	20674
816.103	20499
816.244	20339
816.385	20355
816.526	20339
816.666	20092
816.807	19963
816.948	19959
817.089	20054
817.23	19879
817.371	19925
817.512	19974
817.653	19925
817.793	19959
817.934	19894
818.075	19921
818.216	19928
818.356	19898
818.497	19814
818.638	19586
818.778	19601
818.919	19613
819.06	19620
819.2	19803
819.341	19761
819.481	19879
819.622	19944
819.762	20168
819.903	20107
820.043	19944
820.184	19871
820.324	20027
820.465	20073
820.605	19947
820.746	19986
820.886	19658
821.026	19830
821.167	19925
821.307	20081
821.447	19772
821.588	19719
821.728	19613
821.868	19480
822.008	19324
822.149	19422
822.289	19202
822.429	19061
822.569	18996
822.709	18985
822.849	18958
822.99	18772
823.13	18795
823.27	18852
823.41	18730
823.55	18623
823.69	18608
823.83	18681
823.97	18574
824.11	18380
824.25	18330
824.389	18509
824.529	18498
824.669	18399
824.809	18540
824.949	18585
825.089	18540
825.228	18437
825.368	18197
825.508	18277
825.648	18232
825.787	18220
825.927	18338
826.067	18163
826.206	18190
826.346	18174
826.485	18121
826.625	18174
826.765	18247
826.904	18251
827.044	17908
827.183	17935
827.323	17904
827.462	17992
827.601	17855
827.741	17916
827.88	17958
828.02	17752
828.159	17752
828.298	17840
828.437	17958
828.577	17764
828.716	17973
828.855	17828
828.994	17634
829.134	17604
829.273	17699
829.412	17691
829.551	17630
829.69	17589
829.829	17649
829.968	17745
830.107	17714
830.246	17745
830.385	17600
830.524	17516
830.663	17493
830.802	17341
830.941	17288
831.08	17250
831.219	17337
831.357	17337
831.496	17429
831.635	17231
831.774	17140
831.913	17143
832.051	17071
832.19	17037
832.329	17079
832.467	16968
832.606	16885
832.744	16976
832.883	16923
833.022	16812
833.16	16965
833.299	16965
833.437	17029
833.576	17025
833.714	16953
833.852	17006
833.991	17048
834.129	17147
834.267	17060
834.406	16995
834.544	17083
834.682	17018
834.821	17052
834.959	17136
835.097	16927
835.235	17048
835.373	16984
835.511	16999
835.65	17003
835.788	16816
835.926	16694
836.064	16675
836.202	16672
836.34	16900
836.478	16980
836.615	16805
836.753	16873
836.891	16904
837.029	16896
837.167	16809
837.305	16790
837.443	16767
837.58	16759
837.718	16831
837.856	16694
837.993	16611
838.131	16744
838.269	16664
838.406	16698
838.544	16603
838.681	16538
838.819	16329
838.956	16272
839.094	16299
839.231	16428
839.369	16386
839.506	16687
839.643	16500
839.781	16329
839.918	16272
840.055	16348
840.193	16375
840.33	16314
840.467	16287
840.604	16348
840.742	16485
840.879	16154
841.016	16291
841.153	16226
841.29	16306
841.427	16204
841.564	16371
841.701	16249
841.838	16257
841.975	16101
842.112	16188
842.249	16112
842.385	16025
842.522	16238
842.659	16032
842.796	16093
842.933	15994
843.069	15956
843.206	15918
843.343	16105
843.479	15972
843.616	16105
843.752	15838
843.889	15915
844.025	16017
844.162	15778
844.298	15937
844.435	15808
844.571	15774
844.708	15846
844.844	15979
844.98	15937
845.117	15888
845.253	15709
845.389	15720
845.525	15774
845.661	15873
845.798	15622
845.934	15854
846.07	15797
846.206	15937
846.342	15983
846.478	15660
846.614	15504
846.75	15412
846.886	15386
847.022	15481
847.158	15439
847.294	15443
847.429	15405
847.565	15439
847.701	15561
847.837	15154
847.972	15116
848.108	15260
848.244	15176
848.379	15013
848.515	15005
848.65	14899
848.786	14971
848.921	15058
849.057	15055
849.192	15097
849.328	15043
849.463	15097
849.598	14948
849.734	14971
849.869	14883
850.004	14720
850.14	14746
850.275	14819
850.41	14735
850.545	14697
850.68	14743
850.815	14769
850.95	14750
851.085	14960
851.22	14800
851.355	14731
851.49	14708
851.625	14762
851.76	14754
851.895	14613
852.03	14571
852.165	14735
852.299	14773
852.434	14838
852.569	14739
852.703	14883
852.838	14804
852.973	14941
853.107	14963
853.242	14754
853.376	14651
853.511	14484
853.645	14629
853.78	14769
853.914	14712
854.048	14556
854.183	14552
854.317	14564
854.451	14682
854.585	14594
854.72	14587
854.854	14727
854.988	14564
855.122	14670
855.256	14522
855.39	14507
855.524	14754
855.658	14632
855.792	14617
855.926	14598
856.06	14781
856.194	14724
856.327	14667
856.461	14606
856.595	14469
856.729	14655
856.862	14708
856.996	14583
857.13	14667
857.263	14769
857.397	14777
857.53	14667
857.664	14686
857.797	14739
857.931	14743
858.064	14629
858.197	14731
858.331	14606
858.464	14594
858.597	14446
858.731	14579
858.864	14629
858.997	14610
859.13	14708
859.263	14667
859.396	14667
859.529	14651
859.662	14598
859.795	14575
859.928	14678
860.061	14769
860.194	14743
860.327	14693
860.46	14659
860.592	14739
860.725	14800
860.858	14754
860.99	14667
861.123	14495
861.256	14522
861.388	14594
861.521	15260
861.653	14590
861.786	14450
861.918	14465
862.05	14495
862.183	14518
862.315	14587
862.447	14621
862.58	14503
862.712	14457
862.844	14309
862.976	14454
863.108	14450
863.24	14785
863.372	14290
863.504	14362
863.636	14389
863.768	14415
863.9	14427
864.032	14336
864.164	14298
864.296	14533
864.428	14484
864.559	14560
864.691	14465
864.823	14415
864.954	14457
865.086	14396
865.217	14347
865.349	14320
865.48	14366
865.612	14339
865.743	14511
865.875	14434
866.006	14366
866.137	14278
866.269	14332
866.4	14347
866.531	14286
866.662	14259
866.793	14339
866.924	14347
867.055	14415
867.186	14419
867.317	14290
867.448	14320
867.579	14301
867.71	14244
867.841	14271
867.972	14286
868.103	14347
868.233	14408
868.364	14442
868.495	14404
868.625	14667
868.756	14674
868.886	14503
869.017	14686
869.147	14823
869.278	14735
869.408	14678
869.539	14610
869.669	14705
869.799	14651
869.929	14758
870.06	14716
870.19	14918
870.32	14918
870.45	14929
870.58	14979
870.71	15230
870.84	15150
870.97	15097
871.1	15005
871.23	15222
871.36	15165
871.489	15039
871.619	15169
871.749	15260
871.879	15226
872.008	15135
872.138	15157
872.267	15211
872.397	15028
872.526	14994
872.656	15043
872.785	15009
872.915	15241
873.044	15336
873.173	15252
873.303	15279
873.432	15214
873.561	15336
873.69	15283
873.819	15237
873.948	15370
874.077	15268
874.206	15203
874.335	15306
874.464	15416
874.593	15542
874.722	15431
874.851	15656
874.979	15553
875.108	15561
875.237	15435
875.365	15496
875.494	15545
875.623	15652
875.751	15504
875.88	15652
876.008	15759
876.136	15755
876.265	15880
876.393	16124
876.521	16139
876.65	16090
876.778	16029
876.906	15899
877.034	15941
877.162	15930
877.29	16025
877.418	15968
877.546	16063
877.674	16010
877.802	16063
877.93	15998
878.058	15915
878.185	15922
878.313	15953
878.441	16010
878.568	15842
878.696	15987
878.824	15968
878.951	16116
879.079	16150
879.206	16367
879.333	16238
879.461	16067
879.588	16124
879.715	16234
879.842	16363
879.97	16234
880.097	15934
880.224	15819
880.351	15934
880.478	15831
880.605	15918
880.732	15861
880.859	15941
880.986	15934
881.112	15873
881.239	15667
881.366	15648
881.493	15515
881.619	15572
881.746	15587
881.872	15606
881.999	15553
882.125	15443
882.252	15511
882.378	15568
882.505	15629
882.631	15473
882.757	15317
882.883	15336
883.01	15416
883.136	15291
883.262	15112
883.388	15249
883.514	15313
883.64	15370
883.766	15237
883.892	15165
884.018	15233
884.143	15306
884.269	15439
884.395	15058
884.52	14979
884.646	15017
884.772	14967
884.897	14967
885.023	14994
885.148	15074
885.274	15275
885.399	15066
885.524	15036
885.65	15051
885.775	15020
885.9	14990
886.025	15154
886.15	15047
886.275	14975
886.4	14944
886.525	15036
886.65	14998
886.775	14910
886.9	15233
887.025	15272
887.149	15036
887.274	14792
887.399	14758
887.523	14842
887.648	14800
887.773	14750
887.897	14792
888.021	14876
888.146	14773
888.27	15028
888.395	15001
888.519	14815
888.643	14857
888.767	14963
888.891	14777
889.015	14716
889.139	14781
889.263	14800
889.387	14769
889.511	14902
889.635	14925
889.759	14644
889.883	14655
890.006	14708
890.13	14792
890.254	14644
890.377	14674
890.501	14507
890.624	14389
890.748	14617
890.871	14431
890.995	14252
891.118	14221
891.241	14423
891.364	14419
891.488	14495
891.611	14355
891.734	14423
891.857	14503
891.98	14412
892.103	14473
892.226	14484
892.349	14381
892.471	14225
892.594	14343
892.717	14415
892.839	14385
892.962	14347
893.085	14400
893.207	14339
893.33	14301
893.452	14301
893.575	14377
893.697	14362
893.819	14480
893.941	14644
894.064	14495
894.186	14366
894.308	14332
894.43	14511
894.552	14625
894.674	14526
894.796	14324
894.918	14434
895.04	14377
895.161	14537
895.283	14533
895.405	14366
895.526	14434
895.648	14480
895.769	14530
895.891	14552
896.012	14602
896.134	14560
896.255	14571
896.376	14526
896.498	14552
896.619	14556
896.74	14533
896.861	14507
896.982	14819
897.103	15108
897.224	14838
897.345	14667
897.466	14792
897.587	14842
897.708	14891
897.828	14845
897.949	14876
898.07	14670
898.19	14754
898.311	14921
898.431	14773
898.552	14956
898.672	14918
898.792	14956
898.913	14960
899.033	14842
899.153	14678
899.273	14674
899.393	14731
899.513	14769
899.633	14720
899.753	14720
899.873	14750
899.993	14792
900.113	14727
900.232	14800
900.352	14746
900.472	14651
900.591	14670
900.711	14659
900.83	14476
900.95	14663
901.069	14788
901.189	14590
901.308	14370
901.427	14324
901.546	14309
901.665	14339
901.784	14355
901.904	14195
902.023	14145
902.141	14020
902.26	13841
902.379	13909
902.498	13860
902.617	13837
902.735	13845
902.854	13936
902.973	13765
903.091	13552
903.21	13605
903.328	13548
903.446	13460
903.565	13506
903.683	13407
903.801	13335
903.919	13411
904.038	13365
904.156	13168
904.274	13228
904.392	13270
904.51	13289
904.627	13145
904.745	13236
904.863	13236
904.981	13023
905.098	12890
905.216	12878
905.334	12886
905.451	12901
905.569	12951
905.686	12909
905.803	12951
905.921	12677
906.038	12787
906.155	12738
906.272	12616
906.389	12665
906.506	12471
906.623	12483
906.74	12486
906.857	12353
906.974	12388
907.091	12399
907.208	12677
907.324	12555
907.441	12338
907.557	12285
907.674	12220
907.79	12167
907.907	12285
908.023	12247
908.139	12292
908.256	12129
908.372	12129
908.488	12125
908.604	11965
908.72	11973
908.836	12045
908.952	12011
909.068	11893
909.184	12110
909.3	11961
909.415	11954
909.531	12041
909.647	11741
909.762	11783
909.878	11676
909.993	11813
910.108	11802
910.224	11691
910.339	11752
910.454	11668
910.57	11695
910.685	11505
910.8	11874
910.915	11684
911.03	11577
911.145	11383
911.259	11345
911.374	11414
911.489	11303
911.604	11353
911.718	11250
911.833	11246
911.947	11102
912.062	11003
912.176	11178
912.291	11189
912.405	11261
912.519	11425
912.633	11334
912.748	11326
912.862	11189
912.976	10999
913.09	11045
913.204	10961
913.318	11060
913.431	11178
913.545	11113
913.659	11143
913.772	11067
913.886	10930
914	10961
914.113	11033
914.226	11022
914.34	11022
914.453	10847
914.566	11003
914.68	10900
914.793	10919
914.906	10725
915.019	10752
915.132	10649
915.245	10634
915.358	10759
915.47	10717
915.583	10782
915.696	10725
915.809	10805
915.921	10923
916.034	10698
916.146	10599
916.259	10588
916.371	10767
916.483	10615
916.595	10565
916.708	10611
916.82	10596
916.932	10637
917.044	10615
917.156	10554
917.268	10485
917.38	10531
917.491	10478
917.603	10580
917.715	10656
917.826	10622
917.938	10489
918.049	10398
918.161	10466
918.272	10664
918.384	10649
918.495	10462
918.606	10409
918.717	10325
918.828	10386
918.939	10390
919.05	10333
919.161	10268
919.272	10200
919.383	10211
919.494	10440
919.604	10618
919.715	10337
919.826	10348
919.936	10329
920.047	10527
920.157	10390
920.267	10607
920.378	10352
920.488	10440
920.598	10599
920.708	10752
920.818	10588
920.928	10523
921.038	10809
921.148	10714
921.258	10390
921.368	10379
921.477	10272
921.587	10268
921.697	10131
921.806	10242
921.916	10147
922.025	9975
922.134	10093
922.244	9956
922.353	9979
922.462	9880
922.571	9854
922.68	9667
922.789	9614
922.898	9682
923.007	9603
923.116	9625
923.224	9667
923.333	9663
923.442	9557
923.55	9511
923.659	9595
923.767	9625
923.876	9469
923.984	9542
924.092	9473
924.201	9538
924.309	9450
924.417	9553
924.525	9462
924.633	9401
924.741	10417
924.849	9298
924.956	9420
925.064	9272
925.172	9180
925.279	9165
925.387	9287
925.494	9336
925.602	9325
925.709	9363
925.816	9256
925.924	9313
926.031	9294
926.138	9268
926.245	9310
926.352	9287
926.459	9382
926.566	9401
926.673	9264
926.779	9192
926.886	9135
926.993	9009
927.099	9043
927.206	8944
927.312	8914
927.419	9047
927.525	9028
927.631	9093
927.737	8895
927.843	8845
927.95	8716
928.056	8815
928.162	8925
928.267	8872
928.373	9549
928.479	9024
928.585	8762
928.69	8906
928.796	8960
928.901	8739
929.007	8697
929.112	8788
929.218	8834
929.323	8724
929.428	8769
929.533	8849
929.638	8670
929.743	8610
929.848	8701
929.953	8648
930.058	8602
930.163	8461
930.267	8533
930.372	8659
930.477	8514
930.581	8705
930.685	8579
930.79	8415
930.894	8412
930.998	8393
931.103	8514
931.207	8237
931.311	8142
931.415	8058
931.519	7925
931.623	7955
