Data from test_V78500241_1308.txt Node
Date: Fri Mar 25 14:42:49 CST 2022
User: usil
Spectrometer: V785-0024
Trigger mode: 0
Integration Time (sec): 4.000000E-1
Scans to average: 1
Nonlinearity correction enabled: false
Boxcar width: 0
Storing dark spectrum: false
XAxis mode: Wavelengths
Number of Pixels in Spectrum: 1024
>>>>>Begin Spectral Data<<<<<
801.071	22409
801.214	22295
801.356	22150
801.499	21819
801.641	21713
801.783	21789
801.926	21876
802.068	21622
802.211	21629
802.353	21599
802.496	21260
802.638	21268
802.78	21230
802.923	21085
803.065	21028
803.208	21032
803.35	21081
803.492	21211
803.635	21131
803.777	21127
803.919	21211
804.061	21477
804.204	21188
804.346	21055
804.488	20956
804.63	21108
804.773	20979
804.915	21036
805.057	21245
805.199	21024
805.341	21112
805.483	21066
805.626	21127
805.768	21070
805.91	21017
806.052	21013
806.194	21013
806.336	21176
806.478	20975
806.62	21017
806.762	21066
806.904	21100
807.046	21302
807.188	21351
807.33	21389
807.472	21363
807.614	21287
807.756	21252
807.898	21173
808.04	21127
808.182	21211
808.324	21317
808.465	21287
808.607	21447
808.749	21511
808.891	21641
809.033	21751
809.174	21595
809.316	21526
809.458	21500
809.6	21526
809.741	21576
809.883	21614
810.025	21652
810.166	21633
810.308	21660
810.45	21488
810.591	21496
810.733	21378
810.875	21329
811.016	21161
811.158	21062
811.299	21222
811.441	21340
811.582	21325
811.724	21180
811.865	21226
812.007	21119
812.148	21226
812.29	21192
812.431	21401
812.573	21481
812.714	21538
812.855	21781
812.997	21804
813.138	21789
813.279	21785
813.421	21595
813.562	21606
813.703	21519
813.845	21397
813.986	21123
814.127	21005
814.268	20838
814.41	20880
814.551	20887
814.692	20804
814.833	20625
814.974	20686
815.115	20762
815.256	20552
815.397	20476
815.539	20594
815.68	20396
815.821	20419
815.962	20461
816.103	20522
816.244	20256
816.385	20218
816.526	20191
816.666	20020
816.807	20031
816.948	19978
817.089	19932
817.23	19978
817.371	19913
817.512	19913
817.653	19887
817.793	19849
817.934	19898
818.075	19890
818.216	19852
818.356	19845
818.497	19734
818.638	19601
818.778	19567
818.919	19590
819.06	19689
819.2	19799
819.341	19734
819.481	19826
819.622	19932
819.762	20020
819.903	20012
820.043	19993
820.184	19947
820.324	19868
820.465	19986
820.605	19868
820.746	19849
820.886	19715
821.026	19849
821.167	19807
821.307	19928
821.447	19803
821.588	19689
821.728	19643
821.868	19373
822.008	19324
822.149	19251
822.289	19297
822.429	18981
822.569	18985
822.709	18886
822.849	18821
822.99	18722
823.13	18829
823.27	18677
823.41	18570
823.55	18544
823.69	18673
823.83	18506
823.97	18399
824.11	18319
824.25	18357
824.389	18372
824.529	18292
824.669	18429
824.809	18334
824.949	18467
825.089	18418
825.228	18391
825.368	18232
825.508	18148
825.648	18095
825.787	18209
825.927	18243
826.067	18152
826.206	18167
826.346	18247
826.485	18095
826.625	18133
826.765	18277
826.904	18266
827.044	17931
827.183	17878
827.323	17794
827.462	17851
827.601	17786
827.741	17794
827.88	17786
828.02	17687
828.159	17676
828.298	17889
828.437	17843
828.577	17764
828.716	18003
828.855	17756
828.994	17665
829.134	17627
829.273	17581
829.412	17497
829.551	17592
829.69	17649
829.829	17585
829.968	17680
830.107	17646
830.246	17611
830.385	17493
830.524	17467
830.663	17463
830.802	17284
830.941	17303
831.08	17090
831.219	17181
831.357	17254
831.496	17353
831.635	17132
831.774	17124
831.913	17071
832.051	17022
832.19	17083
832.329	17098
832.467	16919
832.606	16938
832.744	16934
832.883	16828
833.022	16786
833.16	16839
833.299	16972
833.437	17025
833.576	16995
833.714	16938
833.852	17006
833.991	16968
834.129	17014
834.267	17018
834.406	17029
834.544	16942
834.682	16991
834.821	16980
834.959	17128
835.097	16908
835.235	17018
835.373	16904
835.511	16831
835.65	16946
835.788	16843
835.926	16687
836.064	16672
836.202	16615
836.34	16862
836.478	16850
836.615	16778
836.753	16915
836.891	16919
837.029	16816
837.167	16797
837.305	16816
837.443	16733
837.58	16710
837.718	16782
837.856	16824
837.993	16725
838.131	16797
838.269	16592
838.406	16694
838.544	16626
838.681	16409
838.819	16367
838.956	16226
839.094	16265
839.231	16333
839.369	16405
839.506	16694
839.643	16443
839.781	16352
839.918	16272
840.055	16287
840.193	16306
840.33	16204
840.467	16246
840.604	16344
840.742	16493
840.879	16074
841.016	16299
841.153	16204
841.29	16451
841.427	16257
841.564	16261
841.701	16261
841.838	16173
841.975	16204
842.112	16272
842.249	16025
842.385	16040
842.522	16162
842.659	16105
842.796	16010
842.933	16055
843.069	16017
843.206	16006
843.343	16124
843.479	16017
843.616	16036
843.752	15857
843.889	15884
844.025	16044
844.162	15774
844.298	15937
844.435	15816
844.571	15781
844.708	15766
844.844	16032
844.98	16021
845.117	15903
845.253	15781
845.389	15838
845.525	15850
845.661	15888
845.798	15686
845.934	15930
846.07	15762
846.206	15918
846.342	15926
846.478	15785
846.614	15435
846.75	15378
846.886	15431
847.022	15469
847.158	15393
847.294	15401
847.429	15443
847.565	15397
847.701	15545
847.837	15165
847.972	15077
848.108	15199
848.244	15245
848.379	14975
848.515	15024
848.65	14960
848.786	15055
848.921	15036
849.057	15089
849.192	15192
849.328	14963
849.463	15024
849.598	14925
849.734	14963
849.869	14880
850.004	14811
850.14	14899
850.275	14826
850.41	14762
850.545	14682
850.68	14872
850.815	14655
850.95	14765
851.085	14830
851.22	14807
851.355	14781
851.49	14697
851.625	14724
851.76	14777
851.895	14617
852.03	14667
852.165	14788
852.299	14712
852.434	14933
852.569	14804
852.703	14769
852.838	14834
852.973	14941
853.107	14948
853.242	14663
853.376	14644
853.511	14522
853.645	14511
853.78	14746
853.914	14659
854.048	14693
854.183	14594
854.317	14686
854.451	14727
854.585	14613
854.72	14625
854.854	14678
854.988	14518
855.122	14552
855.256	14556
855.39	14545
855.524	14788
855.658	14758
855.792	14735
855.926	14716
856.06	14693
856.194	14746
856.327	14697
856.461	14610
856.595	14644
856.729	14686
856.862	14689
856.996	14648
857.13	14769
857.263	14689
857.397	14750
857.53	14621
857.664	14686
857.797	14758
857.931	14724
858.064	14678
858.197	14773
858.331	14682
858.464	14564
858.597	14594
858.731	14575
858.864	14587
858.997	14579
859.13	14621
859.263	14651
859.396	14693
859.529	14590
859.662	14651
859.795	14629
859.928	14678
860.061	14773
860.194	14777
860.327	14663
860.46	14556
860.592	14746
860.725	14746
860.858	14823
860.99	14663
861.123	14526
861.256	14507
861.388	14644
861.521	15389
861.653	14556
861.786	14518
861.918	14476
862.05	14549
862.183	14507
862.315	14568
862.447	14720
862.58	14564
862.712	14336
862.844	14358
862.976	14518
863.108	14488
863.24	14883
863.372	14317
863.504	14450
863.636	14461
863.768	14457
863.9	14499
864.032	14286
864.164	14389
864.296	14454
864.428	14571
864.559	14583
864.691	14511
864.823	14514
864.954	14492
865.086	14495
865.217	14438
865.349	14298
865.48	14434
865.612	14366
865.743	14636
865.875	14438
866.006	14412
866.137	14412
866.269	14492
866.4	14351
866.531	14385
866.662	14366
866.793	14313
866.924	14473
867.055	14492
867.186	14415
867.317	14332
867.448	14339
867.579	14351
867.71	14328
867.841	14282
867.972	14385
868.103	14317
868.233	14461
868.364	14404
868.495	14465
868.625	14674
868.756	14754
868.886	14610
869.017	14606
869.147	14739
869.278	14739
869.408	14598
869.539	14678
869.669	14758
869.799	14765
869.929	14830
870.06	14823
870.19	14994
870.32	14986
870.45	15001
870.58	15100
870.71	15173
870.84	15169
870.97	15001
871.1	14982
871.23	15260
871.36	15260
871.489	15195
871.619	15218
871.749	15272
871.879	15310
872.008	15382
872.138	15230
872.267	15146
872.397	15062
872.526	15032
872.656	15036
872.785	15214
872.915	15287
873.044	15386
873.173	15382
873.303	15344
873.432	15355
873.561	15435
873.69	15298
873.819	15306
873.948	15344
874.077	15306
874.206	15306
874.335	15332
874.464	15443
874.593	15526
874.722	15530
874.851	15633
874.979	15686
875.108	15652
875.237	15488
875.365	15568
875.494	15580
875.623	15701
875.751	15625
875.88	15614
876.008	15816
876.136	15774
876.265	16074
876.393	16211
876.521	16078
876.65	16055
876.778	15987
876.906	15998
877.034	15937
877.162	16021
877.29	15949
877.418	15956
877.546	16017
877.674	16040
877.802	15983
877.93	16013
878.058	16025
878.185	15926
878.313	16063
878.441	16101
878.568	15903
878.696	16021
878.824	16112
878.951	16200
879.079	16238
879.206	16417
879.333	16287
879.461	16215
879.588	16192
879.715	16344
879.842	16390
879.97	16268
880.097	15899
880.224	15903
880.351	16002
880.478	15956
880.605	15907
880.732	15907
880.859	16219
880.986	15899
881.112	15994
881.239	15865
881.366	15751
881.493	15629
881.619	15606
881.746	15580
881.872	15534
881.999	15542
882.125	15431
882.252	15682
882.378	15633
882.505	15724
882.631	15614
882.757	15397
882.883	15519
883.01	15431
883.136	15340
883.262	15237
883.388	15291
883.514	15317
883.64	15473
883.766	15275
883.892	15104
884.018	15222
884.143	15363
884.269	15466
884.395	15142
884.52	15039
884.646	15146
884.772	15028
884.897	14971
885.023	15020
885.148	15135
885.274	15165
885.399	15135
885.524	15077
885.65	15051
885.775	15081
885.9	15104
886.025	15173
886.15	15074
886.275	14975
886.4	14994
886.525	15138
886.65	15005
886.775	14944
886.9	15264
887.025	15298
887.149	15047
887.274	14887
887.399	14902
887.523	14895
887.648	14800
887.773	14788
887.897	15013
888.021	14975
888.146	14785
888.27	14956
888.395	15005
888.519	14887
888.643	14918
888.767	14971
888.891	14731
889.015	14651
889.139	14800
889.263	14678
889.387	14853
889.511	14933
889.635	14861
889.759	14667
889.883	14754
890.006	14788
890.13	14830
890.254	14701
890.377	14686
890.501	14564
890.624	14533
890.748	14632
890.871	14499
890.995	14317
891.118	14309
891.241	14480
891.364	14461
891.488	14450
891.611	14374
891.734	14423
891.857	14499
891.98	14446
892.103	14499
892.226	14556
892.349	14336
892.471	14252
892.594	14511
892.717	14400
892.839	14381
892.962	14454
893.085	14518
893.207	14366
893.33	14256
893.452	14351
893.575	14568
893.697	14419
893.819	14617
893.941	14720
894.064	14610
894.186	14370
894.308	14408
894.43	14571
894.552	14697
894.674	14465
894.796	14423
894.918	14431
895.04	14434
895.161	14556
895.283	14514
895.405	14450
895.526	14636
895.648	14564
895.769	14431
895.891	14598
896.012	14648
896.134	14705
896.255	14560
896.376	14499
896.498	14606
896.619	14602
896.74	14602
896.861	14727
896.982	14921
897.103	15066
897.224	14880
897.345	14864
897.466	14804
897.587	14906
897.708	14933
897.828	14895
897.949	14891
898.07	14720
898.19	14800
898.311	14975
898.431	14883
898.552	14944
898.672	14948
898.792	14872
898.913	14948
899.033	14849
899.153	14758
899.273	14769
899.393	14792
899.513	14735
899.633	14834
899.753	14880
899.873	14762
899.993	14910
900.113	14773
900.232	14857
900.352	14720
900.472	14590
900.591	14575
900.711	14617
900.83	14518
900.95	14712
901.069	14785
901.189	14575
901.308	14476
901.427	14263
901.546	14313
901.665	14389
901.784	14434
901.904	14168
902.023	14020
902.141	13921
902.26	13932
902.379	13997
902.498	13742
902.617	13833
902.735	13902
902.854	13822
902.973	13780
903.091	13700
903.21	13487
903.328	13575
903.446	13358
903.565	13445
903.683	13457
903.801	13316
903.919	13400
904.038	13384
904.156	13278
904.274	13381
904.392	13244
904.51	13247
904.627	13255
904.745	13308
904.863	13266
904.981	13084
905.098	12954
905.216	12966
905.334	13000
905.451	12863
905.569	12913
905.686	12909
905.803	12913
905.921	12776
906.038	12909
906.155	12715
906.272	12620
906.389	12589
906.506	12475
906.623	12525
906.74	12593
906.857	12445
906.974	12460
907.091	12662
907.208	12604
907.324	12566
907.441	12445
907.557	12330
907.674	12251
907.79	12216
907.907	12178
908.023	12289
908.139	12277
908.256	12186
908.372	12213
908.488	12060
908.604	12034
908.72	11988
908.836	12019
908.952	11893
909.068	11999
909.184	12068
909.3	12019
909.415	12007
909.531	11977
909.647	11851
909.762	11794
909.878	11752
909.993	11817
910.108	11726
910.224	11832
910.339	11802
910.454	11722
910.57	11589
910.685	11604
910.8	11866
910.915	11794
911.03	11688
911.145	11509
911.259	11467
911.374	11482
911.489	11391
911.604	11326
911.718	11201
911.833	11288
911.947	11143
912.062	11159
912.176	11151
912.291	11212
912.405	11170
912.519	11414
912.633	11436
912.748	11296
912.862	11307
912.976	11094
913.09	10991
913.204	11018
913.318	11155
913.431	11288
913.545	11231
913.659	11204
913.772	11079
913.886	11025
914	10984
914.113	11094
914.226	11075
914.34	11075
914.453	10946
914.566	11147
914.68	10900
914.793	10847
914.906	10824
915.019	10634
915.132	10641
915.245	10672
915.358	10717
915.47	10740
915.583	10736
915.696	10831
915.809	10831
915.921	10866
916.034	10820
916.146	10736
916.259	10687
916.371	10744
916.483	10771
916.595	10672
916.708	10607
916.82	10596
916.932	10691
917.044	10668
917.156	10656
917.268	10615
917.38	10641
917.491	10497
917.603	10538
917.715	10630
917.826	10641
917.938	10512
918.049	10478
918.161	10550
918.272	10755
918.384	10668
918.495	10569
918.606	10443
918.717	10409
918.828	10436
918.939	10405
919.05	10325
919.161	10382
919.272	10249
919.383	10265
919.494	10481
919.604	10706
919.715	10443
919.826	10417
919.936	10466
920.047	10588
920.157	10443
920.267	10653
920.378	10497
920.488	10462
920.598	10675
920.708	10816
920.818	10687
920.928	10626
921.038	10771
921.148	10721
921.258	10428
921.368	10371
921.477	10322
921.587	10215
921.697	10166
921.806	10314
921.916	10093
922.025	10147
922.134	10021
922.244	9934
922.353	10013
922.462	9812
922.571	9808
922.68	9663
922.789	9633
922.898	9705
923.007	9591
923.116	9713
923.224	9618
923.333	9652
923.442	9618
923.55	9515
923.659	9622
923.767	9679
923.876	9549
923.984	9576
924.092	9450
924.201	9504
924.309	9526
924.417	9591
924.525	9496
924.633	9488
924.741	10215
924.849	9336
924.956	9443
925.064	9313
925.172	9253
925.279	9192
925.387	9351
925.494	9348
925.602	9477
925.709	9416
925.816	9294
925.924	9344
926.031	9401
926.138	9363
926.245	9306
926.352	9268
926.459	9329
926.566	9492
926.673	9291
926.779	9157
926.886	9188
926.993	9024
927.099	9017
927.206	8963
927.312	8960
927.419	9036
927.525	9024
927.631	9097
927.737	8925
927.843	8876
927.95	8735
928.056	8891
928.162	8895
928.267	9009
928.373	9568
928.479	8998
928.585	8777
928.69	8834
928.796	8815
928.901	8823
929.007	8788
929.112	8766
929.218	8781
929.323	8739
929.428	8682
929.533	8914
929.638	8678
929.743	8769
929.848	8773
929.953	8689
930.058	8629
930.163	8503
930.267	8488
930.372	8667
930.477	8488
930.581	8720
930.685	8556
930.79	8476
930.894	8488
930.998	8495
931.103	8632
931.207	8256
931.311	8233
931.415	8161
931.519	7940
931.623	7928
