Data from test_V78500241_829.txt Node
Date: Fri Mar 25 14:39:29 CST 2022
User: usil
Spectrometer: V785-0024
Trigger mode: 0
Integration Time (sec): 4.000000E-1
Scans to average: 1
Nonlinearity correction enabled: false
Boxcar width: 0
Storing dark spectrum: false
XAxis mode: Wavelengths
Number of Pixels in Spectrum: 1024
>>>>>Begin Spectral Data<<<<<
801.071	26275
801.214	26107
801.356	25803
801.499	25757
801.641	25544
801.783	25563
801.926	25639
802.068	25247
802.211	25316
802.353	25282
802.496	25099
802.638	25038
802.78	25072
802.923	24791
803.065	24783
803.208	24829
803.35	25050
803.492	25023
803.635	25194
803.777	24932
803.919	25107
804.061	25365
804.204	25251
804.346	25031
804.488	25019
804.63	25034
804.773	25091
804.915	25091
805.057	25392
805.199	25228
805.341	25358
805.483	25460
805.626	25392
805.768	25339
805.91	25457
806.052	25537
806.194	25643
806.336	25868
806.478	26035
806.62	26084
806.762	26225
806.904	26674
807.046	27047
807.188	27138
807.33	27389
807.472	27861
807.614	28246
807.756	28923
807.898	29516
808.04	30593
808.182	31887
808.324	33599
808.465	35608
808.607	37845
808.749	39876
808.891	40881
809.033	41037
809.174	39736
809.316	38054
809.458	35706
809.6	33359
809.741	31723
809.883	30197
810.025	29364
810.166	28653
810.308	28188
810.45	27477
810.591	27329
810.733	26796
810.875	26488
811.016	26362
811.158	26309
811.299	26366
811.441	26195
811.582	26027
811.724	25879
811.865	25708
812.007	25651
812.148	25753
812.29	25643
812.431	25624
812.573	25936
812.714	25833
812.855	25917
812.997	26001
813.138	26088
813.279	26016
813.421	25852
813.562	25780
813.703	25662
813.845	25590
813.986	25179
814.127	24882
814.268	24814
814.41	24810
814.551	24677
814.692	24753
814.833	24734
814.974	24707
815.115	24779
815.256	24456
815.397	24467
815.539	24479
815.68	24410
815.821	24410
815.962	24407
816.103	24243
816.244	24163
816.385	24003
816.526	23950
816.666	23855
816.807	23691
816.948	23813
817.089	23760
817.23	23748
817.371	23748
817.512	23581
817.653	23657
817.793	23634
817.934	23543
818.075	23623
818.216	23668
818.356	23581
818.497	23406
818.638	23292
818.778	23296
818.919	23398
819.06	23379
819.2	23341
819.341	23531
819.481	23455
819.622	23653
819.762	23710
819.903	23764
820.043	23592
820.184	23592
820.324	23528
820.465	23623
820.605	23642
820.746	23436
820.886	23288
821.026	23433
821.167	23425
821.307	23497
821.447	23372
821.588	23246
821.728	23151
821.868	22919
822.008	22816
822.149	22809
822.289	22656
822.429	22531
822.569	22485
822.709	22375
822.849	22177
822.99	22253
823.13	22147
823.27	22192
823.41	22040
823.55	21926
823.69	22067
823.83	21964
823.97	21964
824.11	21842
824.25	21831
824.389	21804
824.529	21759
824.669	21892
824.809	21861
824.949	21880
825.089	21739
825.228	21751
825.368	21622
825.508	21648
825.648	21576
825.787	21618
825.927	21625
826.067	21606
826.206	21583
826.346	21633
826.485	21583
826.625	21545
826.765	21660
826.904	21614
827.044	21313
827.183	21321
827.323	21348
827.462	21214
827.601	21180
827.741	21298
827.88	21252
828.02	21013
828.159	21119
828.298	21123
828.437	21313
828.577	21142
828.716	21340
828.855	21214
828.994	20872
829.134	21032
829.273	20937
829.412	20876
829.551	20849
829.69	20880
829.829	20842
829.968	20944
830.107	21009
830.246	20948
830.385	20952
830.524	20765
830.663	20762
830.802	20606
830.941	20556
831.08	20415
831.219	20564
831.357	20511
831.496	20720
831.635	20457
831.774	20442
831.913	20503
832.051	20320
832.19	20328
832.329	20412
832.467	20240
832.606	20183
832.744	20271
832.883	20324
833.022	20336
833.16	20431
833.299	20522
833.437	20606
833.576	20785
833.714	20830
833.852	20937
833.991	20941
834.129	21066
834.267	21051
834.406	20960
834.544	20883
834.682	20868
834.821	20720
834.959	20906
835.097	20571
835.235	20621
835.373	20355
835.511	20362
835.65	20240
835.788	20244
835.926	19974
836.064	20058
836.202	19959
836.34	20180
836.478	20142
836.615	20153
836.753	19928
836.891	20168
837.029	20084
837.167	20016
837.305	20027
837.443	20001
837.58	19791
837.718	19944
837.856	19845
837.993	19845
838.131	19932
838.269	19734
838.406	19731
838.544	19594
838.681	19552
838.819	19578
838.956	19312
839.094	19289
839.231	19396
839.369	19487
839.506	19700
839.643	19480
839.781	19339
839.918	19190
840.055	19392
840.193	19232
840.33	19312
840.467	19343
840.604	19240
840.742	19510
840.879	19217
841.016	19175
841.153	19065
841.29	19312
841.427	19312
841.564	19278
841.701	19312
841.838	19221
841.975	19148
842.112	19171
842.249	19137
842.385	19095
842.522	19232
842.659	19118
842.796	19095
842.933	19069
843.069	19057
843.206	19042
843.343	19190
843.479	19114
843.616	19285
843.752	19034
843.889	19084
844.025	19137
844.162	19061
844.298	19282
844.435	19301
844.571	19369
844.708	19666
844.844	19780
844.98	20309
845.117	20568
845.253	21032
845.389	22120
845.525	24414
845.661	28150
845.798	32587
845.934	36315
846.07	37594
846.206	36836
846.342	33854
846.478	29452
846.614	25514
846.75	22862
846.886	21165
847.022	20362
847.158	19696
847.294	19335
847.429	19095
847.565	18867
847.701	19107
847.837	18536
847.972	18350
848.108	18456
848.244	18391
848.379	18106
848.515	18041
848.65	18095
848.786	18098
848.921	18060
849.057	18110
849.192	18110
849.328	18026
849.463	17980
849.598	17885
849.734	17931
849.869	17828
850.004	17779
850.14	17764
850.275	17764
850.41	17638
850.545	17668
850.68	17775
850.815	17695
850.95	17703
851.085	17912
851.22	17779
851.355	17649
851.49	17619
851.625	17665
851.76	17630
851.895	17653
852.03	17505
852.165	17817
852.299	17699
852.434	17760
852.569	17748
852.703	17733
852.838	17813
852.973	17897
853.107	17764
853.242	17718
853.376	17676
853.511	17653
853.645	17733
853.78	17840
853.914	17828
854.048	17828
854.183	17695
854.317	17775
854.451	17939
854.585	17684
854.72	17767
854.854	17824
854.988	17710
855.122	17775
855.256	17543
855.39	17684
855.524	17699
855.658	17665
855.792	17657
855.926	17581
856.06	17653
856.194	17695
856.327	17627
856.461	17596
856.595	17482
856.729	17570
856.862	17653
856.996	17467
857.13	17703
857.263	17570
857.397	17649
857.53	17570
857.664	17455
857.797	17672
857.931	17604
858.064	17448
858.197	17573
858.331	17436
858.464	17532
858.597	17273
858.731	17379
858.864	17398
858.997	17356
859.13	17543
859.263	17463
859.396	17581
859.529	17440
859.662	17379
859.795	17463
859.928	17417
860.061	17581
860.194	17482
860.327	17455
860.46	17448
860.592	17512
860.725	17516
860.858	17539
860.99	17467
861.123	17330
861.256	17410
861.388	17376
861.521	17882
861.653	17334
861.786	17197
861.918	17235
862.05	17326
862.183	17296
862.315	17474
862.447	17452
862.58	17364
862.712	17075
862.844	17189
862.976	17395
863.108	17227
863.24	17558
863.372	16957
863.504	17193
863.636	17121
863.768	17151
863.9	17193
864.032	16999
864.164	17193
864.296	17124
864.428	17162
864.559	17235
864.691	17250
864.823	17212
864.954	17216
865.086	17071
865.217	17181
865.349	17102
865.48	17178
865.612	16987
865.743	17265
865.875	17200
866.006	17064
866.137	17067
866.269	17060
866.4	17052
866.531	17060
866.662	16987
866.793	17033
866.924	17064
867.055	17079
867.186	17052
867.317	16934
867.448	16972
867.579	17033
867.71	17014
867.841	16892
867.972	17136
868.103	17010
868.233	17037
868.364	17048
868.495	17132
868.625	17170
868.756	17444
868.886	17193
869.017	17311
869.147	17532
869.278	17425
869.408	17467
869.539	17250
869.669	17398
869.799	17364
869.929	17474
870.06	17410
870.19	17623
870.32	17589
870.45	17573
870.58	17623
870.71	17889
870.84	17859
870.97	17729
871.1	17741
871.23	17893
871.36	18011
871.489	17828
871.619	17904
871.749	17882
871.879	17935
872.008	18057
872.138	17988
872.267	17901
872.397	17855
872.526	17863
872.656	17824
872.785	17912
872.915	18049
873.044	18213
873.173	18110
873.303	18091
873.432	18182
873.561	18216
873.69	18194
873.819	18144
873.948	18273
874.077	18205
874.206	18262
874.335	18277
874.464	18410
874.593	18460
874.722	18479
874.851	18551
874.979	18620
875.108	18589
875.237	18559
875.365	18620
875.494	18715
875.623	18730
875.751	18715
875.88	18829
876.008	19031
876.136	19046
876.265	19270
876.393	19362
876.521	19346
876.65	19434
876.778	19468
876.906	19339
877.034	19343
877.162	19476
877.29	19529
877.418	19597
877.546	19712
877.674	19715
877.802	19830
877.93	19852
878.058	19928
878.185	20157
878.313	20362
878.441	20495
878.568	20621
878.696	21157
878.824	21701
878.951	22409
879.079	23528
879.206	24882
879.333	26142
879.461	27348
879.588	28124
879.715	28219
879.842	27606
879.97	26176
880.097	24722
880.224	23642
880.351	22831
880.478	22211
880.605	21861
880.732	21606
880.859	21682
880.986	21405
881.112	21310
881.239	21058
881.366	21081
881.493	20994
881.619	20868
881.746	20914
881.872	20933
881.999	20906
882.125	20933
882.252	20979
882.378	21150
882.505	21245
882.631	21024
882.757	20792
882.883	20998
883.01	20971
883.136	20823
883.262	20743
883.388	20659
883.514	20876
883.64	21028
883.766	20746
883.892	20571
884.018	20712
884.143	20727
884.269	20963
884.395	20693
884.52	20507
884.646	20579
884.772	20537
884.897	20457
885.023	20651
885.148	20720
885.274	20655
885.399	20427
885.524	20370
885.65	20317
885.775	20256
885.9	20130
886.025	20103
886.15	19982
886.275	19750
886.4	19742
886.525	19514
886.65	19502
886.775	19365
886.9	19510
887.025	19662
887.149	19407
887.274	19065
887.399	19061
887.523	18989
887.648	18817
887.773	18795
887.897	18886
888.021	18764
888.146	18703
888.27	18753
888.395	18791
888.519	18711
888.643	18593
888.767	18665
888.891	18525
889.015	18350
889.139	18460
889.263	18270
889.387	18357
889.511	18532
889.635	18399
889.759	18159
889.883	18136
890.006	18190
890.13	18266
890.254	18220
890.377	18019
890.501	17916
890.624	17684
890.748	17859
890.871	17714
890.995	17684
891.118	17634
891.241	17691
891.364	17611
891.488	17646
891.611	17714
891.734	17566
891.857	17638
891.98	17554
892.103	17627
892.226	17551
892.349	17524
892.471	17250
892.594	17376
892.717	17376
892.839	17227
892.962	17318
893.085	17368
893.207	17318
893.33	17216
893.452	17242
893.575	17254
893.697	17189
893.819	17337
893.941	17402
894.064	17349
894.186	17136
894.308	17098
894.43	17212
894.552	17288
894.674	17231
894.796	17136
894.918	17109
895.04	17067
895.161	17269
895.283	17155
895.405	17052
895.526	17090
895.648	16984
895.769	17140
895.891	17189
896.012	17117
896.134	16987
896.255	17220
896.376	17018
896.498	17022
896.619	17071
896.74	17060
896.861	17159
896.982	17433
897.103	17562
897.224	17345
897.345	17181
897.466	17208
897.587	17242
897.708	17398
897.828	17334
897.949	17258
898.07	17143
898.19	17227
898.311	17356
898.431	17284
898.552	17311
898.672	17387
898.792	17417
898.913	17239
899.033	17254
899.153	17086
899.273	16976
899.393	17071
899.513	17113
899.633	17121
899.753	17136
899.873	17025
899.993	17311
900.113	17094
900.232	17197
900.352	17029
900.472	17010
900.591	16809
900.711	16900
900.83	16877
900.95	17010
901.069	17083
901.189	16797
901.308	16672
901.427	16599
901.546	16459
901.665	16497
901.784	16535
901.904	16470
902.023	16204
902.141	16154
902.26	16078
902.379	16154
902.498	16078
902.617	15915
902.735	16036
902.854	15915
902.973	15873
903.091	15652
903.21	15633
903.328	15785
903.446	15572
903.565	15496
903.683	15431
903.801	15355
903.919	15500
904.038	15412
904.156	15272
904.274	15272
904.392	15233
904.51	15192
904.627	15135
904.745	15241
904.863	15241
904.981	15081
905.098	14883
905.216	14921
905.334	14918
905.451	14872
905.569	14887
905.686	14979
905.803	14872
905.921	14682
906.038	14876
906.155	14648
906.272	14610
906.389	14594
906.506	14396
906.623	14461
906.74	14434
906.857	14336
906.974	14358
907.091	14556
907.208	14545
907.324	14313
907.441	14370
907.557	14191
907.674	14187
907.79	14012
907.907	14103
908.023	14195
908.139	14092
908.256	14031
908.372	14058
908.488	13967
908.604	13875
908.72	13841
908.836	13871
908.952	13765
909.068	13887
909.184	13940
909.3	13784
909.415	13936
909.531	13860
909.647	13613
909.762	13674
909.878	13605
909.993	13552
910.108	13594
910.224	13540
910.339	13544
910.454	13518
910.57	13434
910.685	13438
910.8	13639
910.915	13491
911.03	13426
911.145	13278
911.259	13270
911.374	13251
911.489	13175
911.604	13156
911.718	12928
911.833	13122
911.947	12852
912.062	12840
912.176	12954
912.291	12939
912.405	12920
912.519	13183
912.633	13164
912.748	13015
912.862	12947
912.976	12871
913.09	12730
913.204	12817
913.318	12867
913.431	12859
913.545	12913
913.659	12901
913.772	12829
913.886	12791
914	12688
914.113	12764
914.226	12852
914.34	12837
914.453	12662
914.566	12741
914.68	12646
914.793	12635
914.906	12433
915.019	12357
915.132	12296
915.245	12407
915.358	12414
915.47	12422
915.583	12521
915.696	12521
915.809	12502
915.921	12597
916.034	12395
916.146	12391
916.259	12319
916.371	12445
916.483	12410
916.595	12346
916.708	12388
916.82	12372
916.932	12380
917.044	12311
917.156	12289
917.268	12175
917.38	12243
917.491	12201
917.603	12205
917.715	12239
917.826	12292
917.938	12163
918.049	12060
918.161	12136
918.272	12213
918.384	12300
918.495	12087
918.606	12011
918.717	11935
918.828	12045
918.939	12068
919.05	11908
919.161	11942
919.272	11722
919.383	11843
919.494	11999
919.604	12194
919.715	11958
919.826	11832
919.936	11942
920.047	12026
920.157	11961
920.267	12106
920.378	11996
920.488	11882
920.598	12144
920.708	12254
920.818	12076
920.928	12125
921.038	12304
921.148	12251
921.258	11961
921.368	11817
921.477	11821
921.587	11748
921.697	11657
921.806	11824
921.916	11703
922.025	11482
922.134	11391
922.244	11379
922.353	11452
922.462	11307
922.571	11216
922.68	11159
922.789	11159
922.898	11041
923.007	10999
923.116	11105
923.224	11147
923.333	11117
923.442	10976
923.55	10831
923.659	10953
923.767	10961
923.876	10892
923.984	11006
924.092	10816
924.201	10968
924.309	10896
924.417	10847
924.525	10858
924.633	10889
924.741	11840
924.849	10592
924.956	10862
925.064	10698
925.172	10580
925.279	10565
925.387	10668
925.494	10683
925.602	10847
925.709	10649
925.816	10519
925.924	10664
926.031	10755
926.138	10622
926.245	10733
926.352	10618
926.459	10683
926.566	10706
926.673	10637
926.779	10440
926.886	10481
926.993	10386
927.099	10287
927.206	10265
927.312	10272
927.419	10360
927.525	10356
927.631	10360
927.737	10287
927.843	10227
927.95	10181
928.056	10196
928.162	10185
928.267	10371
928.373	10831
928.479	10299
928.585	10093
928.69	10173
928.796	10242
928.901	10051
929.007	9903
929.112	10143
929.218	10181
929.323	9968
929.428	10013
929.533	10010
929.638	9945
929.743	9895
929.848	10036
929.953	9945
930.058	9884
930.163	9740
930.267	9713
930.372	9789
930.477	9660
930.581	9918
930.685	9789
930.79	9606
930.894	9671
930.998	9656
931.103	9759
931.207	9500
931.311	9332
931.415	9294
931.519	9135
931.623	9108
