Data from test_V78500241_2111.txt Node
Date: Fri Mar 25 14:48:24 CST 2022
User: usil
Spectrometer: V785-0024
Trigger mode: 0
Integration Time (sec): 4.000000E-1
Scans to average: 1
Nonlinearity correction enabled: false
Boxcar width: 0
Storing dark spectrum: false
XAxis mode: Wavelengths
Number of Pixels in Spectrum: 1024
>>>>>Begin Spectral Data<<<<<
801.071	21994
801.214	22090
801.356	21762
801.499	21595
801.641	21462
801.783	21408
801.926	21511
802.068	21389
802.211	21272
802.353	21195
802.496	21043
802.638	21055
802.78	20975
802.923	20899
803.065	20693
803.208	20743
803.35	21009
803.492	20864
803.635	21017
803.777	20815
803.919	20952
804.061	21093
804.204	20910
804.346	20727
804.488	20826
804.63	20735
804.773	20712
804.915	20769
805.057	20800
805.199	20758
805.341	20811
805.483	20929
805.626	20857
805.768	20712
805.91	20758
806.052	20743
806.194	20720
806.336	20826
806.478	20701
806.62	20754
806.762	20735
806.904	20902
807.046	21112
807.188	20986
807.33	21135
807.472	21077
807.614	20941
807.756	21081
807.898	20826
808.04	20727
808.182	20655
808.324	20830
808.465	20872
808.607	21074
808.749	21176
808.891	21313
809.033	21416
809.174	21184
809.316	21047
809.458	21138
809.6	21013
809.741	21199
809.883	21218
810.025	21317
810.166	21317
810.308	21245
810.45	21180
810.591	21127
810.733	20956
810.875	20941
811.016	20785
811.158	20674
811.299	20842
811.441	20975
811.582	21058
811.724	20895
811.865	20853
812.007	20785
812.148	20758
812.29	20906
812.431	20982
812.573	21157
812.714	21184
812.855	21370
812.997	21530
813.138	21485
813.279	21397
813.421	21283
813.562	21386
813.703	21108
813.845	21039
813.986	20712
814.127	20549
814.268	20560
814.41	20575
814.551	20503
814.692	20503
814.833	20419
814.974	20309
815.115	20526
815.256	20336
815.397	20282
815.539	20180
815.68	20191
815.821	20077
815.962	20275
816.103	20084
816.244	19989
816.385	20088
816.526	19913
816.666	19719
816.807	19544
816.948	19708
817.089	19788
817.23	19468
817.371	19540
817.512	19544
817.653	19601
817.793	19457
817.934	19525
818.075	19609
818.216	19605
818.356	19487
818.497	19438
818.638	19316
818.778	19255
818.919	19308
819.06	19278
819.2	19483
819.341	19502
819.481	19487
819.622	19734
819.762	19890
819.903	19658
820.043	19620
820.184	19540
820.324	19544
820.465	19575
820.605	19594
820.746	19464
820.886	19449
821.026	19518
821.167	19537
821.307	19506
821.447	19499
821.588	19339
821.728	19263
821.868	19168
822.008	19023
822.149	18996
822.289	18970
822.429	18757
822.569	18623
822.709	18722
822.849	18528
822.99	18551
823.13	18475
823.27	18536
823.41	18308
823.55	18197
823.69	18418
823.83	18422
823.97	18167
824.11	18019
824.25	18098
824.389	18053
824.529	18079
824.669	18007
824.809	18205
824.949	18064
825.089	18110
825.228	18076
825.368	17863
825.508	17786
825.648	17752
825.787	17958
825.927	17912
826.067	17809
826.206	17760
826.346	17904
826.485	17775
826.625	17737
826.765	17882
826.904	17882
827.044	17649
827.183	17520
827.323	17562
827.462	17543
827.601	17516
827.741	17414
827.88	17642
828.02	17292
828.159	17562
828.298	17528
828.437	17573
828.577	17478
828.716	17421
828.855	17615
828.994	17356
829.134	17197
829.273	17307
829.412	17166
829.551	17178
829.69	17227
829.829	17326
829.968	17288
830.107	17292
830.246	17318
830.385	17250
830.524	17185
830.663	17128
830.802	17029
830.941	17022
831.08	16873
831.219	17029
831.357	16930
831.496	17147
831.635	17060
831.774	16782
831.913	16790
832.051	16679
832.19	16733
832.329	16679
832.467	16645
832.606	16535
832.744	16592
832.883	16565
833.022	16497
833.16	16630
833.299	16584
833.437	16516
833.576	16660
833.714	16626
833.852	16615
833.991	16706
834.129	16694
834.267	16702
834.406	16584
834.544	16660
834.682	16759
834.821	16713
834.959	16793
835.097	16759
835.235	16637
835.373	16637
835.511	16672
835.65	16565
835.788	16599
835.926	16455
836.064	16421
836.202	16459
836.34	16645
836.478	16675
836.615	16459
836.753	16645
836.891	16653
837.029	16618
837.167	16569
837.305	16565
837.443	16413
837.58	16497
837.718	16550
837.856	16466
837.993	16272
838.131	16440
838.269	16363
838.406	16428
838.544	16276
838.681	16242
838.819	16154
838.956	15930
839.094	15953
839.231	16051
839.369	16086
839.506	16382
839.643	16223
839.781	16082
839.918	15899
840.055	16067
840.193	16105
840.33	15987
840.467	15987
840.604	16017
840.742	16219
840.879	15857
841.016	15918
841.153	15880
841.29	16105
841.427	16010
841.564	16032
841.701	16036
841.838	15937
841.975	15876
842.112	16006
842.249	15797
842.385	15762
842.522	15991
842.659	15831
842.796	15682
842.933	15739
843.069	15736
843.206	15762
843.343	15892
843.479	15747
843.616	15736
843.752	15580
843.889	15530
844.025	15842
844.162	15504
844.298	15705
844.435	15580
844.571	15523
844.708	15591
844.844	15778
844.98	15732
845.117	15698
845.253	15542
845.389	15405
845.525	15405
845.661	15545
845.798	15329
845.934	15466
846.07	15317
846.206	15412
846.342	15549
846.478	15310
846.614	15112
846.75	15150
846.886	15066
847.022	15226
847.158	15142
847.294	15142
847.429	15100
847.565	15116
847.701	15313
847.837	14937
847.972	14792
848.108	14982
848.244	14887
848.379	14777
848.515	14731
848.65	14754
848.786	14758
848.921	14724
849.057	14769
849.192	14861
849.328	14849
849.463	14735
849.598	14651
849.734	14655
849.869	14568
850.004	14484
850.14	14564
850.275	14511
850.41	14454
850.545	14396
850.68	14492
850.815	14469
850.95	14560
851.085	14606
851.22	14522
851.355	14454
851.49	14450
851.625	14522
851.76	14423
851.895	14450
852.03	14317
852.165	14393
852.299	14461
852.434	14457
852.569	14503
852.703	14446
852.838	14598
852.973	14602
853.107	14579
853.242	14385
853.376	14358
853.511	14149
853.645	14275
853.78	14389
853.914	14473
854.048	14385
854.183	14320
854.317	14454
854.451	14484
854.585	14317
854.72	14263
854.854	14431
854.988	14240
855.122	14339
855.256	14172
855.39	14313
855.524	14415
855.658	14374
855.792	14423
855.926	14347
856.06	14351
856.194	14408
856.327	14271
856.461	14278
856.595	14233
856.729	14290
856.862	14412
856.996	14465
857.13	14492
857.263	14495
857.397	14488
857.53	14389
857.664	14476
857.797	14457
857.931	14377
858.064	14400
858.197	14469
858.331	14393
858.464	14282
858.597	14256
858.731	14278
858.864	14320
858.997	14298
859.13	14381
859.263	14427
859.396	14415
859.529	14393
859.662	14317
859.795	14313
859.928	14400
860.061	14450
860.194	14473
860.327	14396
860.46	14282
860.592	14480
860.725	14465
860.858	14412
860.99	14317
861.123	14298
861.256	14286
861.388	14377
861.521	14948
861.653	14206
861.786	14138
861.918	14210
862.05	14256
862.183	14290
862.315	14214
862.447	14298
862.58	14252
862.712	14065
862.844	14107
862.976	14202
863.108	14176
863.24	14530
863.372	14069
863.504	14096
863.636	14065
863.768	14145
863.9	14149
864.032	14145
864.164	14035
864.296	14191
864.428	14259
864.559	14271
864.691	14153
864.823	14225
864.954	14111
865.086	14180
865.217	14088
865.349	14134
865.48	14111
865.612	14043
865.743	14202
865.875	14050
866.006	14092
866.137	14115
866.269	14138
866.4	14172
866.531	14111
866.662	14065
866.793	13955
866.924	14107
867.055	14187
867.186	14092
867.317	14012
867.448	13944
867.579	14142
867.71	14016
867.841	14005
867.972	14096
868.103	14142
868.233	14145
868.364	14073
868.495	14248
868.625	14355
868.756	14438
868.886	14214
869.017	14313
869.147	14374
869.278	14434
869.408	14301
869.539	14358
869.669	14434
869.799	14374
869.929	14503
870.06	14473
870.19	14670
870.32	14693
870.45	14670
870.58	14750
870.71	14880
870.84	14861
870.97	14823
871.1	14765
871.23	14887
871.36	14960
871.489	14845
871.619	14956
871.749	14929
871.879	15051
872.008	15055
872.138	14906
872.267	14925
872.397	14788
872.526	14796
872.656	14739
872.785	14845
872.915	15017
873.044	14990
873.173	14918
873.303	14979
873.432	14967
873.561	15100
873.69	15032
873.819	14929
873.948	14990
874.077	15093
874.206	14952
874.335	15074
874.464	15195
874.593	15283
874.722	15161
874.851	15310
874.979	15241
875.108	15344
875.237	15203
875.365	15256
875.494	15264
875.623	15355
875.751	15264
875.88	15435
876.008	15469
876.136	15530
876.265	15747
876.393	15956
876.521	15911
876.65	15766
876.778	15774
876.906	15709
877.034	15694
877.162	15743
877.29	15595
877.418	15671
877.546	15808
877.674	15743
877.802	15728
877.93	15686
878.058	15717
878.185	15580
878.313	15800
878.441	15663
878.568	15580
878.696	15728
878.824	15732
878.951	15766
879.079	15903
879.206	16029
879.333	15960
879.461	15797
879.588	15789
879.715	15911
879.842	15930
879.97	15717
880.097	15538
880.224	15511
880.351	15671
880.478	15504
880.605	15481
880.732	15580
880.859	15800
880.986	15507
881.112	15660
881.239	15500
881.366	15359
881.493	15241
881.619	15146
881.746	15184
881.872	15249
881.999	15176
882.125	15165
882.252	15192
882.378	15241
882.505	15428
882.631	15157
882.757	15116
882.883	15104
883.01	14979
883.136	14956
883.262	14887
883.388	14952
883.514	15081
883.64	15070
883.766	14921
883.892	14773
884.018	14937
884.143	15005
884.269	15112
884.395	14853
884.52	14712
884.646	14788
884.772	14701
884.897	14651
885.023	14731
885.148	14834
885.274	14868
885.399	14963
885.524	14735
885.65	14720
885.775	14838
885.9	14781
886.025	14956
886.15	14815
886.275	14731
886.4	14636
886.525	14727
886.65	14705
886.775	14693
886.9	14895
887.025	14937
887.149	14720
887.274	14575
887.399	14564
887.523	14610
887.648	14533
887.773	14571
887.897	14689
888.021	14587
888.146	14511
888.27	14640
888.395	14823
888.519	14629
888.643	14606
888.767	14686
888.891	14503
889.015	14457
889.139	14484
889.263	14457
889.387	14499
889.511	14648
889.635	14598
889.759	14473
889.883	14450
890.006	14457
890.13	14602
890.254	14317
890.377	14465
890.501	14199
890.624	14225
890.748	14298
890.871	14233
890.995	14069
891.118	14062
891.241	14248
891.364	14123
891.488	14202
891.611	14218
891.734	14172
891.857	14210
891.98	14084
892.103	14206
892.226	14172
892.349	14134
892.471	13959
892.594	14103
892.717	14103
892.839	14183
892.962	14244
893.085	14142
893.207	14119
893.33	14092
893.452	14153
893.575	14199
893.697	14088
893.819	14286
893.941	14229
894.064	14294
894.186	14123
894.308	14081
894.43	14336
894.552	14404
894.674	14339
894.796	14107
894.918	14187
895.04	14320
895.161	14229
895.283	14286
895.405	14138
895.526	14214
895.648	14225
895.769	14221
895.891	14275
896.012	14332
896.134	14370
896.255	14252
896.376	14180
896.498	14328
896.619	14370
896.74	14347
896.861	14389
896.982	14693
897.103	14796
897.224	14640
897.345	14583
897.466	14537
897.587	14549
897.708	14610
897.828	14648
897.949	14541
898.07	14385
898.19	14533
898.311	14720
898.431	14594
898.552	14754
898.672	14663
898.792	14701
898.913	14735
899.033	14621
899.153	14511
899.273	14400
899.393	14507
899.513	14499
899.633	14522
899.753	14606
899.873	14522
899.993	14499
900.113	14526
900.232	14564
900.352	14484
900.472	14332
900.591	14366
900.711	14362
900.83	14385
900.95	14476
901.069	14533
901.189	14328
901.308	14164
901.427	13974
901.546	14088
901.665	14043
901.784	14103
901.904	13947
902.023	13837
902.141	13594
902.26	13620
902.379	13643
902.498	13605
902.617	13502
902.735	13708
902.854	13590
902.973	13525
903.091	13346
903.21	13278
903.328	13388
903.446	13331
903.565	13282
903.683	13187
903.801	13110
903.919	13209
904.038	13187
904.156	13080
904.274	13034
904.392	13015
904.51	13008
904.627	13027
904.745	13008
904.863	13069
904.981	12715
905.098	12616
905.216	12623
905.334	12692
905.451	12677
905.569	12654
905.686	12722
905.803	12741
905.921	12502
906.038	12715
906.155	12490
906.272	12509
906.389	12448
906.506	12304
906.623	12235
906.74	12262
906.857	12239
906.974	12266
907.091	12270
907.208	12365
907.324	12300
907.441	12201
907.557	12045
907.674	12038
907.79	11954
907.907	11984
908.023	12053
908.139	12057
908.256	11980
908.372	11954
908.488	11942
908.604	11794
908.72	11847
908.836	11805
908.952	11767
909.068	11813
909.184	11874
909.3	11729
909.415	11863
909.531	11817
909.647	11551
909.762	11554
909.878	11619
909.993	11558
910.108	11566
910.224	11554
910.339	11554
910.454	11478
910.57	11459
910.685	11337
910.8	11642
910.915	11562
911.03	11395
911.145	11239
911.259	11197
911.374	11242
911.489	11181
911.604	11155
911.718	11014
911.833	11075
911.947	10946
912.062	10862
912.176	11025
912.291	11010
912.405	11010
912.519	11185
912.633	11189
912.748	11083
912.862	11071
912.976	10866
913.09	10801
913.204	10831
913.318	10889
913.431	10987
913.545	10915
913.659	10972
913.772	10938
913.886	10793
914	10805
914.113	10843
914.226	10930
914.34	10915
914.453	10649
914.566	10854
914.68	10763
914.793	10668
914.906	10569
915.019	10504
915.132	10523
915.245	10516
915.358	10577
915.47	10470
915.583	10497
915.696	10558
915.809	10729
915.921	10687
916.034	10523
916.146	10443
916.259	10459
916.371	10527
916.483	10561
916.595	10459
916.708	10447
916.82	10538
916.932	10432
917.044	10466
917.156	10360
917.268	10265
917.38	10352
917.491	10215
917.603	10375
917.715	10436
917.826	10455
917.938	10299
918.049	10219
918.161	10356
918.272	10455
918.384	10523
918.495	10344
918.606	10188
918.717	10227
918.828	10215
918.939	10211
919.05	10192
919.161	10246
919.272	10048
919.383	10124
919.494	10337
919.604	10481
919.715	10227
919.826	10211
919.936	10207
920.047	10379
920.157	10287
920.267	10504
920.378	10261
920.488	10276
920.598	10508
920.708	10550
920.818	10417
920.928	10455
921.038	10622
921.148	10573
921.258	10242
921.368	10188
921.477	10135
921.587	10006
921.697	9930
921.806	10150
921.916	10010
922.025	9831
922.134	9793
922.244	9728
922.353	9892
922.462	9671
922.571	9656
922.68	9534
922.789	9488
922.898	9553
923.007	9412
923.116	9568
923.224	9416
923.333	9500
923.442	9450
923.55	9355
923.659	9351
923.767	9439
923.876	9363
923.984	9496
924.092	9260
924.201	9340
924.309	9401
924.417	9393
924.525	9306
924.633	9306
924.741	10150
924.849	9165
924.956	9359
925.064	9131
925.172	9036
925.279	9157
925.387	9123
925.494	9127
925.602	9306
925.709	9211
925.816	9142
925.924	9188
926.031	9226
926.138	9211
926.245	9195
926.352	9055
926.459	9161
926.566	9291
926.673	9097
926.779	9047
926.886	9009
926.993	8842
927.099	8845
927.206	8792
927.312	8777
927.419	8921
927.525	8941
927.631	8914
927.737	8773
927.843	8758
927.95	8678
928.056	8727
928.162	8758
928.267	8811
928.373	9329
928.479	8861
928.585	8617
928.69	8754
928.796	8781
928.901	8651
929.007	8530
929.112	8693
929.218	8640
929.323	8575
929.428	8571
929.533	8731
929.638	8476
929.743	8495
929.848	8667
929.953	8587
930.058	8492
930.163	8362
930.267	8355
930.372	8469
930.477	8320
930.581	8594
930.685	8442
930.79	8233
930.894	8294
930.998	8298
931.103	8374
931.207	8065
931.311	8005
931.415	7982
931.519	7852
931.623	7742
