Data from test_V78500241_813.txt Node
Date: Fri Mar 25 14:39:22 CST 2022
User: usil
Spectrometer: V785-0024
Trigger mode: 0
Integration Time (sec): 4.000000E-1
Scans to average: 1
Nonlinearity correction enabled: false
Boxcar width: 0
Storing dark spectrum: false
XAxis mode: Wavelengths
Number of Pixels in Spectrum: 1024
>>>>>Begin Spectral Data<<<<<
801.071	26317
801.214	26027
801.356	25944
801.499	25917
801.641	25651
801.783	25734
801.926	25635
802.068	25586
802.211	25632
802.353	25339
802.496	25133
802.638	25110
802.78	25175
802.923	25065
803.065	25156
803.208	25137
803.35	25179
803.492	25194
803.635	25297
803.777	25240
803.919	25282
804.061	25628
804.204	25278
804.346	25358
804.488	25168
804.63	25209
804.773	25206
804.915	25369
805.057	25320
805.199	25407
805.341	25502
805.483	25826
805.626	25620
805.768	25696
805.91	25689
806.052	25921
806.194	25898
806.336	26191
806.478	26237
806.62	26317
806.762	26507
806.904	27009
807.046	27420
807.188	27500
807.33	27804
807.472	28455
807.614	28752
807.756	29402
807.898	30239
808.04	31304
808.182	32807
808.324	34839
808.465	36970
808.607	39427
808.749	41668
808.891	42821
809.033	42867
809.174	41737
809.316	39618
809.458	37023
809.6	34462
809.741	32404
809.883	30973
810.025	29946
810.166	28953
810.308	28360
810.45	28002
810.591	27580
810.733	27039
810.875	26815
811.016	26739
811.158	26484
811.299	26423
811.441	26404
811.582	26301
811.724	26134
811.865	26016
812.007	25864
812.148	25947
812.29	25906
812.431	26031
812.573	26035
812.714	26278
812.855	26221
812.997	26275
813.138	26370
813.279	26214
813.421	25978
813.562	25811
813.703	25814
813.845	25578
813.986	25282
814.127	25171
814.268	24871
814.41	25015
814.551	24886
814.692	24916
814.833	24787
814.974	24878
815.115	24764
815.256	24692
815.397	24464
815.539	24513
815.68	24597
815.821	24498
815.962	24547
816.103	24361
816.244	24224
816.385	24140
816.526	24087
816.666	24117
816.807	23965
816.948	23878
817.089	23824
817.23	23897
817.371	23665
817.512	23813
817.653	23813
817.793	23783
817.934	23691
818.075	23703
818.216	23630
818.356	23634
818.497	23642
818.638	23341
818.778	23330
818.919	23448
819.06	23387
819.2	23646
819.341	23558
819.481	23676
819.622	23687
819.762	23908
819.903	23805
820.043	23836
820.184	23672
820.324	23661
820.465	23733
820.605	23539
820.746	23729
820.886	23421
821.026	23551
821.167	23497
821.307	23577
821.447	23376
821.588	23417
821.728	23315
821.868	22968
822.008	22850
822.149	22908
822.289	22828
822.429	22653
822.569	22580
822.709	22596
822.849	22303
822.99	22337
823.13	22291
823.27	22226
823.41	22124
823.55	21998
823.69	22219
823.83	22105
823.97	22013
824.11	21899
824.25	21922
824.389	21861
824.529	21979
824.669	21915
824.809	22036
824.949	22025
825.089	22059
825.228	21956
825.368	21732
825.508	21660
825.648	21789
825.787	21656
825.927	21698
826.067	21606
826.206	21618
826.346	21709
826.485	21675
826.625	21568
826.765	21614
826.904	21728
827.044	21393
827.183	21367
827.323	21241
827.462	21389
827.601	21351
827.741	21233
827.88	21317
828.02	21074
828.159	21329
828.298	21317
828.437	21294
828.577	21230
828.716	21313
828.855	20998
828.994	21020
829.134	21009
829.273	21093
829.412	21017
829.551	20921
829.69	21013
829.829	20948
829.968	21039
830.107	21100
830.246	20975
830.385	20864
830.524	20777
830.663	20792
830.802	20781
830.941	20758
831.08	20613
831.219	20659
831.357	20598
831.496	20762
831.635	20511
831.774	20514
831.913	20522
832.051	20434
832.19	20488
832.329	20556
832.467	20286
832.606	20408
832.744	20377
832.883	20579
833.022	20518
833.16	20621
833.299	20735
833.437	20872
833.576	20838
833.714	20948
833.852	21100
833.991	21226
834.129	21192
834.267	21275
834.406	21119
834.544	21157
834.682	20956
834.821	20941
834.959	20982
835.097	20826
835.235	20693
835.373	20750
835.511	20530
835.65	20339
835.788	20427
835.926	20161
836.064	20054
836.202	20172
836.34	20210
836.478	20218
836.615	20115
836.753	20240
836.891	20107
837.029	20259
837.167	20043
837.305	20119
837.443	20024
837.58	19894
837.718	20062
837.856	19925
837.993	19951
838.131	20039
838.269	19845
838.406	19742
838.544	19856
838.681	19624
838.819	19506
838.956	19426
839.094	19293
839.231	19415
839.369	19605
839.506	19814
839.643	19635
839.781	19377
839.918	19453
840.055	19362
840.193	19396
840.33	19312
840.467	19316
840.604	19400
840.742	19681
840.879	19324
841.016	19259
841.153	19274
841.29	19491
841.427	19373
841.564	19430
841.701	19301
841.838	19384
841.975	19228
842.112	19259
842.249	19225
842.385	19084
842.522	19297
842.659	19285
842.796	19091
842.933	19308
843.069	19175
843.206	19228
843.343	19308
843.479	19251
843.616	19297
843.752	19198
843.889	19110
844.025	19350
844.162	19236
844.298	19434
844.435	19320
844.571	19464
844.708	19772
844.844	20210
844.98	20522
845.117	20826
845.253	21576
845.389	22873
845.525	25316
845.661	29509
845.798	34447
845.934	38408
846.07	40181
846.206	39260
846.342	35878
846.478	30791
846.614	26233
846.75	23493
846.886	21698
847.022	20735
847.158	19974
847.294	19495
847.429	19335
847.565	19076
847.701	19343
847.837	18681
847.972	18410
848.108	18597
848.244	18540
848.379	18292
848.515	18239
848.65	18098
848.786	18148
848.921	18194
849.057	18209
849.192	18243
849.328	18213
849.463	18110
849.598	18091
849.734	18003
849.869	17931
850.004	17870
850.14	17840
850.275	17885
850.41	17775
850.545	17794
850.68	17828
850.815	17729
850.95	17824
851.085	17916
851.22	17889
851.355	17824
851.49	17760
851.625	17741
851.76	17726
851.895	17668
852.03	17745
852.165	17840
852.299	17889
852.434	17882
852.569	17897
852.703	17935
852.838	17946
852.973	18076
853.107	17999
853.242	17893
853.376	17783
853.511	17695
853.645	17836
853.78	17984
853.914	17855
854.048	17901
854.183	18022
854.317	17954
854.451	18262
854.585	17977
854.72	17939
854.854	18030
854.988	17832
855.122	17802
855.256	17615
855.39	17779
855.524	17794
855.658	17794
855.792	17756
855.926	17680
856.06	17672
856.194	17714
856.327	17756
856.461	17634
856.595	17543
856.729	17619
856.862	17745
856.996	17718
857.13	17729
857.263	17733
857.397	17748
857.53	17619
857.664	17691
857.797	17646
857.931	17657
858.064	17649
858.197	17623
858.331	17611
858.464	17509
858.597	17482
858.731	17490
858.864	17497
858.997	17558
859.13	17528
859.263	17467
859.396	17604
859.529	17528
859.662	17425
859.795	17433
859.928	17562
860.061	17691
860.194	17714
860.327	17535
860.46	17471
860.592	17581
860.725	17695
860.858	17649
860.99	17547
861.123	17558
861.256	17440
861.388	17474
861.521	18110
861.653	17402
861.786	17345
861.918	17383
862.05	17436
862.183	17482
862.315	17471
862.447	17436
862.58	17417
862.712	17277
862.844	17197
862.976	17284
863.108	17311
863.24	17676
863.372	17124
863.504	17132
863.636	17197
863.768	17174
863.9	17105
864.032	17083
864.164	17151
864.296	17128
864.428	17284
864.559	17288
864.691	17254
864.823	17273
864.954	17155
865.086	17231
865.217	17220
865.349	17029
865.48	17162
865.612	17231
865.743	17220
865.875	17136
866.006	17067
866.137	17136
866.269	17174
866.4	17109
866.531	17079
866.662	17018
866.793	17090
866.924	16908
867.055	17197
867.186	17033
867.317	17075
867.448	17033
867.579	17075
867.71	16972
867.841	16987
867.972	17147
868.103	17128
868.233	17109
868.364	17014
868.495	17231
868.625	17349
868.756	17391
868.886	17277
869.017	17368
869.147	17509
869.278	17482
869.408	17391
869.539	17364
869.669	17566
869.799	17410
869.929	17520
870.06	17433
870.19	17824
870.32	17729
870.45	17828
870.58	17889
870.71	17935
870.84	17863
870.97	17821
871.1	17897
871.23	18034
871.36	18174
871.489	17980
871.619	18076
871.749	18079
871.879	18125
872.008	18102
872.138	18072
872.267	18076
872.397	18091
872.526	17893
872.656	17977
872.785	18007
872.915	18167
873.044	18311
873.173	18266
873.303	18300
873.432	18369
873.561	18315
873.69	18289
873.819	18391
873.948	18502
874.077	18403
874.206	18361
874.335	18388
874.464	18566
874.593	18669
874.722	18608
874.851	18749
874.979	18719
875.108	18939
875.237	18665
875.365	18757
875.494	18840
875.623	19000
875.751	18901
875.88	18970
876.008	19088
876.136	19297
876.265	19510
876.393	19529
876.521	19753
876.65	19643
876.778	19765
876.906	19552
877.034	19715
877.162	19757
877.29	19658
877.418	19913
877.546	19776
877.674	20043
877.802	20107
877.93	20157
878.058	20233
878.185	20347
878.313	20564
878.441	20902
878.568	21096
878.696	21603
878.824	22169
878.951	23105
879.079	24300
879.206	25807
879.333	27123
879.461	28466
879.588	29463
879.715	29490
879.842	28759
879.97	27321
880.097	25677
880.224	24148
880.351	23474
880.478	22763
880.605	22478
880.732	22078
880.859	22185
880.986	21785
881.112	21804
881.239	21568
881.366	21443
881.493	21340
881.619	21340
881.746	21473
881.872	21397
881.999	21382
882.125	21359
882.252	21648
882.378	21507
882.505	21625
882.631	21485
882.757	21294
882.883	21473
883.01	21401
883.136	21241
883.262	21321
883.388	21165
883.514	21336
883.64	21378
883.766	21264
883.892	21184
884.018	21100
884.143	21203
884.269	21325
884.395	21070
884.52	20990
884.646	21077
884.772	20990
884.897	20819
885.023	21089
885.148	21150
885.274	21100
885.399	21062
885.524	20872
885.65	20648
885.775	20636
885.9	20602
886.025	20564
886.15	20423
886.275	20271
886.4	19989
886.525	20058
886.65	19925
886.775	19734
886.9	19913
887.025	19928
887.149	19734
887.274	19430
887.399	19297
887.523	19316
887.648	19190
887.773	19088
887.897	19183
888.021	19050
888.146	19042
888.27	19061
888.395	19118
888.519	18951
888.643	18897
888.767	18993
888.891	18837
889.015	18612
889.139	18582
889.263	18601
889.387	18544
889.511	18738
889.635	18631
889.759	18585
889.883	18502
890.006	18350
890.13	18513
890.254	18239
890.377	18258
890.501	18152
890.624	17965
890.748	17984
890.871	18041
890.995	17794
891.118	17764
891.241	17821
891.364	17863
891.488	17889
891.611	17866
891.734	17824
891.857	17672
891.98	17737
892.103	17794
892.226	17665
892.349	17581
892.471	17551
892.594	17566
892.717	17554
892.839	17512
892.962	17509
893.085	17493
893.207	17410
893.33	17284
893.452	17414
893.575	17547
893.697	17345
893.819	17501
893.941	17509
894.064	17509
894.186	17322
894.308	17220
894.43	17330
894.552	17402
894.674	17280
894.796	17208
894.918	17261
895.04	17208
895.161	17242
895.283	17242
895.405	17083
895.526	17124
895.648	17189
895.769	17227
895.891	17261
896.012	17250
896.134	17185
896.255	17140
896.376	17109
896.498	17174
896.619	17227
896.74	17231
896.861	17273
896.982	17493
897.103	17703
897.224	17398
897.345	17406
897.466	17296
897.587	17398
897.708	17501
897.828	17345
897.949	17330
898.07	17258
898.19	17227
898.311	17425
898.431	17307
898.552	17410
898.672	17516
898.792	17444
898.913	17368
899.033	17284
899.153	17216
899.273	17117
899.393	17147
899.513	17246
899.633	17235
899.753	17204
899.873	17200
899.993	17208
900.113	17280
900.232	17170
900.352	17155
900.472	17083
900.591	17064
900.711	17067
900.83	16904
900.95	17064
901.069	17064
901.189	16900
901.308	16755
901.427	16558
901.546	16603
901.665	16542
901.784	16641
901.904	16603
902.023	16519
902.141	16192
902.26	16086
902.379	16287
902.498	16147
902.617	16093
902.735	16139
902.854	16017
902.973	16013
903.091	15785
903.21	15648
903.328	15675
903.446	15732
903.565	15591
903.683	15530
903.801	15443
903.919	15507
904.038	15469
904.156	15279
904.274	15393
904.392	15340
904.51	15329
904.627	15367
904.745	15344
904.863	15310
904.981	15085
905.098	14925
905.216	14975
905.334	14994
905.451	15058
905.569	14921
905.686	15028
905.803	14933
905.921	14785
906.038	14921
906.155	14705
906.272	14625
906.389	14693
906.506	14537
906.623	14560
906.74	14476
906.857	14404
906.974	14431
907.091	14640
907.208	14705
907.324	14552
907.441	14366
907.557	14237
907.674	14275
907.79	14134
907.907	14180
908.023	14176
908.139	14191
908.256	14134
908.372	14123
908.488	14092
908.604	14027
908.72	13925
908.836	13959
908.952	13909
909.068	13894
909.184	13997
909.3	13936
909.415	13925
909.531	13932
909.647	13742
909.762	13708
909.878	13590
909.993	13712
910.108	13655
910.224	13689
910.339	13624
910.454	13636
910.57	13586
910.685	13426
910.8	13791
910.915	13647
911.03	13552
911.145	13388
911.259	13297
911.374	13396
911.489	13244
911.604	13244
911.718	13160
911.833	13149
911.947	13095
912.062	12897
912.176	13004
912.291	13050
912.405	13065
912.519	13118
912.633	13316
912.748	13110
912.862	12993
912.976	12905
913.09	12867
913.204	12924
913.318	12924
913.431	12966
913.545	13019
913.659	12993
913.772	12871
913.886	12837
914	12783
914.113	12867
914.226	12928
914.34	12825
914.453	12696
914.566	12852
914.68	12650
914.793	12700
914.906	12593
915.019	12517
915.132	12418
915.245	12479
915.358	12528
915.47	12483
915.583	12547
915.696	12532
915.809	12642
915.921	12528
916.034	12437
916.146	12376
916.259	12384
916.371	12532
916.483	12506
916.595	12399
916.708	12403
916.82	12403
916.932	12350
917.044	12429
917.156	12426
917.268	12289
917.38	12292
917.491	12243
917.603	12296
917.715	12308
917.826	12304
917.938	12213
918.049	12209
918.161	12171
918.272	12315
918.384	12380
918.495	12235
918.606	12114
918.717	11904
918.828	12060
918.939	12110
919.05	11973
919.161	11988
919.272	11809
919.383	11904
919.494	12064
919.604	12159
919.715	12041
919.826	11954
919.936	12053
920.047	12076
920.157	11973
920.267	12258
920.378	12155
920.488	11927
920.598	12117
920.708	12334
920.818	12136
920.928	12251
921.038	12410
921.148	12251
921.258	12068
921.368	11920
921.477	11851
921.587	11779
921.697	11710
921.806	11767
921.916	11737
922.025	11486
922.134	11482
922.244	11512
922.353	11573
922.462	11372
922.571	11395
922.68	11223
922.789	11223
922.898	11193
923.007	11124
923.116	11235
923.224	11083
923.333	11193
923.442	11109
923.55	10968
923.659	11014
923.767	11166
923.876	10972
923.984	11048
924.092	10965
924.201	11037
924.309	10938
924.417	10949
924.525	10900
924.633	10934
924.741	11794
924.849	10729
924.956	10858
925.064	10824
925.172	10634
925.279	10634
925.387	10725
925.494	10774
925.602	10767
925.709	10736
925.816	10607
925.924	10748
926.031	10801
926.138	10656
926.245	10755
926.352	10599
926.459	10664
926.566	10816
926.673	10611
926.779	10569
926.886	10535
926.993	10447
927.099	10367
927.206	10409
927.312	10360
927.419	10322
927.525	10325
927.631	10409
927.737	10280
927.843	10204
927.95	10078
928.056	10246
928.162	10177
928.267	10219
928.373	10930
928.479	10230
928.585	9979
928.69	10215
928.796	10215
928.901	10082
929.007	9941
929.112	10090
929.218	10067
929.323	10051
929.428	10032
929.533	10185
929.638	9888
929.743	9972
929.848	9994
929.953	9937
930.058	9907
930.163	9690
930.267	9759
930.372	9838
930.477	9724
930.581	9956
930.685	9759
930.79	9614
930.894	9625
930.998	9591
931.103	9793
931.207	9401
931.311	9416
931.415	9279
931.519	9154
931.623	9142
