Data from test_V78500241_3567.txt Node
Date: Fri Mar 25 14:58:33 CST 2022
User: usil
Spectrometer: V785-0024
Trigger mode: 0
Integration Time (sec): 4.000000E-1
Scans to average: 1
Nonlinearity correction enabled: false
Boxcar width: 0
Storing dark spectrum: false
XAxis mode: Wavelengths
Number of Pixels in Spectrum: 1024
>>>>>Begin Spectral Data<<<<<
801.071	21880
801.214	21728
801.356	21644
801.499	21469
801.641	21393
801.783	21233
801.926	21336
802.068	21306
802.211	21161
802.353	21070
802.496	20895
802.638	20716
802.78	20842
802.923	20754
803.065	20632
803.208	20621
803.35	20644
803.492	20720
803.635	20807
803.777	20594
803.919	20739
804.061	20967
804.204	20819
804.346	20598
804.488	20465
804.63	20651
804.773	20423
804.915	20499
805.057	20568
805.199	20442
805.341	20434
805.483	20636
805.626	20457
805.768	20530
805.91	20495
806.052	20465
806.194	20419
806.336	20743
806.478	20533
806.62	20385
806.762	20530
806.904	20712
807.046	20868
807.188	20819
807.33	20819
807.472	20876
807.614	20686
807.756	20758
807.898	20602
808.04	20636
808.182	20560
808.324	20568
808.465	20590
808.607	20746
808.749	20811
808.891	20960
809.033	21066
809.174	20921
809.316	20769
809.458	20785
809.6	20689
809.741	20986
809.883	20948
810.025	21039
810.166	21131
810.308	21024
810.45	20952
810.591	20750
810.733	20712
810.875	20644
811.016	20499
811.158	20560
811.299	20629
811.441	20804
811.582	20701
811.724	20636
811.865	20632
812.007	20667
812.148	20606
812.29	20712
812.431	20754
812.573	20925
812.714	20895
812.855	21157
812.997	21157
813.138	21283
813.279	21214
813.421	21150
813.562	20971
813.703	20937
813.845	20621
813.986	20511
814.127	20374
814.268	20298
814.41	20210
814.551	20218
814.692	20149
814.833	20069
814.974	20138
815.115	20069
815.256	19997
815.397	20024
815.539	20043
815.68	19974
815.821	19803
815.962	19940
816.103	19795
816.244	19719
816.385	19559
816.526	19529
816.666	19464
816.807	19312
816.948	19358
817.089	19358
817.23	19346
817.371	19293
817.512	19362
817.653	19247
817.793	19297
817.934	19331
818.075	19247
818.216	19384
818.356	19259
818.497	19168
818.638	19084
818.778	19004
818.919	18989
819.06	19038
819.2	19069
819.341	19202
819.481	19122
819.622	19308
819.762	19506
819.903	19400
820.043	19213
820.184	19225
820.324	19331
820.465	19354
820.605	19297
820.746	19285
820.886	19103
821.026	19251
821.167	19312
821.307	19301
821.447	19190
821.588	19137
821.728	18947
821.868	18791
822.008	18745
822.149	18654
822.289	18764
822.429	18403
822.569	18323
822.709	18342
822.849	18216
822.99	18129
823.13	18129
823.27	18190
823.41	18015
823.55	17939
823.69	17939
823.83	18026
823.97	17973
824.11	17748
824.25	17680
824.389	17786
824.529	17703
824.669	17775
824.809	17786
824.949	17897
825.089	17855
825.228	17726
825.368	17592
825.508	17585
825.648	17573
825.787	17566
825.927	17573
826.067	17547
826.206	17467
826.346	17543
826.485	17562
826.625	17501
826.765	17714
826.904	17543
827.044	17376
827.183	17307
827.323	17284
827.462	17345
827.601	17174
827.741	17292
827.88	17288
828.02	17128
828.159	17356
828.298	17303
828.437	17326
828.577	17227
828.716	17406
828.855	17258
828.994	16953
829.134	17071
829.273	17014
829.412	16923
829.551	16946
829.69	17006
829.829	17094
829.968	17094
830.107	17094
830.246	16984
830.385	16900
830.524	16915
830.663	16828
830.802	16850
830.941	16668
831.08	16618
831.219	16683
831.357	16694
831.496	16824
831.635	16660
831.774	16474
831.913	16489
832.051	16421
832.19	16413
832.329	16462
832.467	16230
832.606	16329
832.744	16246
832.883	16363
833.022	16230
833.16	16398
833.299	16318
833.437	16432
833.576	16405
833.714	16325
833.852	16390
833.991	16390
834.129	16481
834.267	16546
834.406	16295
834.544	16363
834.682	16371
834.821	16268
834.959	16474
835.097	16398
835.235	16428
835.373	16390
835.511	16421
835.65	16341
835.788	16280
835.926	16204
836.064	16044
836.202	16188
836.34	16303
836.478	16417
836.615	16272
836.753	16253
836.891	16329
837.029	16295
837.167	16447
837.305	16306
837.443	16211
837.58	16105
837.718	16280
837.856	16249
837.993	16166
838.131	16166
838.269	16078
838.406	16010
838.544	16093
838.681	15884
838.819	15842
838.956	15686
839.094	15728
839.231	15682
839.369	15918
839.506	16044
839.643	15964
839.781	15701
839.918	15679
840.055	15682
840.193	15717
840.33	15671
840.467	15717
840.604	15770
840.742	15915
840.879	15660
841.016	15633
841.153	15614
841.29	15842
841.427	15701
841.564	15785
841.701	15732
841.838	15701
841.975	15747
842.112	15644
842.249	15568
842.385	15458
842.522	15751
842.659	15534
842.796	15454
842.933	15568
843.069	15405
843.206	15507
843.343	15610
843.479	15462
843.616	15519
843.752	15340
843.889	15329
844.025	15424
844.162	15268
844.298	15374
844.435	15355
844.571	15268
844.708	15492
844.844	15367
844.98	15515
845.117	15397
845.253	15310
845.389	15203
845.525	15184
845.661	15169
845.798	15077
845.934	15135
846.07	14994
846.206	15157
846.342	15268
846.478	15097
846.614	14986
846.75	14845
846.886	14724
847.022	14880
847.158	14918
847.294	14868
847.429	14880
847.565	14906
847.701	15165
847.837	14598
847.972	14560
848.108	14750
848.244	14632
848.379	14590
848.515	14442
848.65	14530
848.786	14393
848.921	14450
849.057	14625
849.192	14720
849.328	14590
849.463	14499
849.598	14446
849.734	14336
849.869	14362
850.004	14282
850.14	14381
850.275	14339
850.41	14103
850.545	14240
850.68	14134
850.815	14259
850.95	14263
851.085	14446
851.22	14374
851.355	14168
851.49	14240
851.625	14256
851.76	14313
851.895	14172
852.03	14058
852.165	14161
852.299	14256
852.434	14275
852.569	14305
852.703	14263
852.838	14385
852.973	14412
853.107	14415
853.242	14225
853.376	14153
853.511	14115
853.645	14069
853.78	14214
853.914	14145
854.048	14077
854.183	14020
854.317	14103
854.451	14412
854.585	14111
854.72	14126
854.854	14130
854.988	14081
855.122	14065
855.256	13947
855.39	14092
855.524	14240
855.658	14176
855.792	14187
855.926	14183
856.06	14138
856.194	14164
856.327	14119
856.461	14058
856.595	13970
856.729	14134
856.862	14191
856.996	14138
857.13	14240
857.263	14164
857.397	14202
857.53	14103
857.664	14187
857.797	14278
857.931	14199
858.064	14164
858.197	14202
858.331	14149
858.464	14039
858.597	14096
858.731	14039
858.864	14199
858.997	14172
859.13	14100
859.263	14134
859.396	14233
859.529	14130
859.662	14103
859.795	14005
859.928	14161
860.061	14248
860.194	14328
860.327	14172
860.46	14062
860.592	14275
860.725	14221
860.858	14259
860.99	14096
861.123	14134
861.256	14031
861.388	14024
861.521	14902
861.653	14081
861.786	13856
861.918	14043
862.05	14103
862.183	14103
862.315	14100
862.447	14267
862.58	14115
862.712	13936
862.844	13868
862.976	13974
863.108	13947
863.24	14252
863.372	13890
863.504	13955
863.636	13936
863.768	13982
863.9	13917
864.032	13883
864.164	13826
864.296	13955
864.428	14050
864.559	13986
864.691	14001
864.823	14039
864.954	13940
865.086	13963
865.217	13890
865.349	13837
865.48	13849
865.612	13917
865.743	13986
865.875	13830
866.006	13791
866.137	13883
866.269	13909
866.4	13791
866.531	13830
866.662	13833
866.793	13742
866.924	13921
867.055	13822
867.186	13913
867.317	13799
867.448	13807
867.579	13761
867.71	13909
867.841	13830
867.972	13917
868.103	13928
868.233	13864
868.364	13871
868.495	13997
868.625	14088
868.756	14229
868.886	14035
869.017	14084
869.147	14172
869.278	14263
869.408	14206
869.539	14084
869.669	14214
869.799	14187
869.929	14324
870.06	14298
870.19	14499
870.32	14499
870.45	14442
870.58	14556
870.71	14648
870.84	14602
870.97	14552
871.1	14507
871.23	14686
871.36	14792
871.489	14686
871.619	14724
871.749	14701
871.879	14804
872.008	14864
872.138	14746
872.267	14792
872.397	14663
872.526	14488
872.656	14549
872.785	14446
872.915	14785
873.044	14864
873.173	14838
873.303	14746
873.432	14792
873.561	14842
873.69	14800
873.819	14921
873.948	14834
874.077	14823
874.206	14842
874.335	14773
874.464	14918
874.593	15169
874.722	15085
874.851	15112
874.979	15169
875.108	15123
875.237	15138
875.365	15013
875.494	15093
875.623	15146
875.751	15116
875.88	15180
876.008	15237
876.136	15272
876.265	15599
876.393	15648
876.521	15705
876.65	15564
876.778	15511
876.906	15572
877.034	15447
877.162	15545
877.29	15458
877.418	15542
877.546	15561
877.674	15557
877.802	15523
877.93	15515
878.058	15428
878.185	15431
878.313	15481
878.441	15549
878.568	15363
878.696	15561
878.824	15564
878.951	15580
879.079	15663
879.206	15892
879.333	15675
879.461	15542
879.588	15644
879.715	15778
879.842	15846
879.97	15614
880.097	15507
880.224	15363
880.351	15268
880.478	15386
880.605	15412
880.732	15264
880.859	15629
880.986	15424
881.112	15420
881.239	15306
881.366	15256
881.493	15005
881.619	15074
881.746	15051
881.872	15009
881.999	14979
882.125	15009
882.252	15097
882.378	15169
882.505	15237
882.631	15013
882.757	14891
882.883	14986
883.01	14933
883.136	14777
883.262	14735
883.388	14762
883.514	14887
883.64	14819
883.766	14830
883.892	14712
884.018	14693
884.143	14853
884.269	15001
884.395	14598
884.52	14537
884.646	14549
884.772	14427
884.897	14514
885.023	14598
885.148	14693
885.274	14727
885.399	14617
885.524	14625
885.65	14617
885.775	14674
885.9	14629
886.025	14712
886.15	14651
886.275	14492
886.4	14488
886.525	14598
886.65	14499
886.775	14473
886.9	14701
887.025	14804
887.149	14625
887.274	14301
887.399	14396
887.523	14442
887.648	14389
887.773	14267
887.897	14465
888.021	14511
888.146	14347
888.27	14484
888.395	14533
888.519	14442
888.643	14465
888.767	14412
888.891	14248
889.015	14301
889.139	14275
889.263	14191
889.387	14301
889.511	14366
889.635	14370
889.759	14244
889.883	14267
890.006	14278
890.13	14370
890.254	14218
890.377	14256
890.501	14073
890.624	14088
890.748	14157
890.871	14035
890.995	13936
891.118	13814
891.241	13925
891.364	14001
891.488	14046
891.611	14035
891.734	14058
891.857	13982
891.98	13951
892.103	14054
892.226	13944
892.349	14001
892.471	13769
892.594	13951
892.717	13978
892.839	14005
892.962	13963
893.085	14084
893.207	13928
893.33	13974
893.452	13845
893.575	14001
893.697	13978
893.819	14168
893.941	14168
894.064	14111
894.186	13902
894.308	13868
894.43	14092
894.552	14126
894.674	14229
894.796	13951
894.918	13967
895.04	13959
895.161	14103
895.283	14100
895.405	13936
895.526	14035
895.648	13993
895.769	14035
895.891	14054
896.012	14126
896.134	14164
896.255	14195
896.376	14123
896.498	14103
896.619	14275
896.74	14077
896.861	14191
896.982	14465
897.103	14655
897.224	14461
897.345	14385
897.466	14332
897.587	14366
897.708	14541
897.828	14465
897.949	14385
898.07	14278
898.19	14427
898.311	14495
898.431	14400
898.552	14446
898.672	14526
898.792	14526
898.913	14556
899.033	14415
899.153	14404
899.273	14271
899.393	14366
899.513	14347
899.633	14336
899.753	14400
899.873	14332
899.993	14400
900.113	14385
900.232	14431
900.352	14275
900.472	14271
900.591	14199
900.711	14278
900.83	14195
900.95	14355
901.069	14286
901.189	14092
901.308	13940
901.427	13860
901.546	13757
901.665	13925
901.784	13944
901.904	13814
902.023	13677
902.141	13537
902.26	13388
902.379	13491
902.498	13518
902.617	13441
902.735	13499
902.854	13510
902.973	13301
903.091	13156
903.21	13103
903.328	13175
903.446	13023
903.565	13042
903.683	12985
903.801	12924
903.919	13080
904.038	12989
904.156	12825
904.274	12848
904.392	12875
904.51	12886
904.627	12795
904.745	12916
904.863	12856
904.981	12623
905.098	12578
905.216	12502
905.334	12563
905.451	12654
905.569	12540
905.686	12601
905.803	12559
905.921	12376
906.038	12498
906.155	12296
906.272	12342
906.389	12277
906.506	12175
906.623	12133
906.74	12140
906.857	12011
906.974	12068
907.091	12232
907.208	12281
907.324	12110
907.441	12007
907.557	11935
907.674	11961
907.79	11805
907.907	11878
908.023	11863
908.139	11866
908.256	11821
908.372	11779
908.488	11741
908.604	11672
908.72	11608
908.836	11649
908.952	11604
909.068	11684
909.184	11737
909.3	11638
909.415	11771
909.531	11688
909.647	11395
909.762	11429
909.878	11395
909.993	11436
910.108	11425
910.224	11433
910.339	11402
910.454	11398
910.57	11330
910.685	11258
910.8	11581
910.915	11417
911.03	11345
911.145	11094
911.259	11147
911.374	11052
911.489	11025
911.604	10900
911.718	10877
911.833	10915
911.947	10812
912.062	10809
912.176	10858
912.291	10877
912.405	10930
912.519	11022
912.633	11105
912.748	10991
912.862	10911
912.976	10847
913.09	10656
913.204	10717
913.318	10759
913.431	10809
913.545	10831
913.659	10877
913.772	10801
913.886	10649
914	10656
914.113	10721
914.226	10816
914.34	10687
914.453	10535
914.566	10801
914.68	10596
914.793	10626
914.906	10405
915.019	10337
915.132	10325
915.245	10310
915.358	10451
915.47	10371
915.583	10436
915.696	10489
915.809	10596
915.921	10519
916.034	10455
916.146	10333
916.259	10318
916.371	10413
916.483	10447
916.595	10348
916.708	10303
916.82	10379
916.932	10333
917.044	10280
917.156	10230
917.268	10261
917.38	10192
917.491	10265
917.603	10173
917.715	10382
917.826	10394
917.938	10253
918.049	10177
918.161	10253
918.272	10447
918.384	10295
918.495	10227
918.606	10162
918.717	9987
918.828	10192
918.939	10158
919.05	10063
919.161	10124
919.272	9930
919.383	10040
919.494	10131
919.604	10268
919.715	10120
919.826	10105
919.936	10090
920.047	10227
920.157	10105
920.267	10314
920.378	10185
920.488	10063
920.598	10310
920.708	10474
920.818	10329
920.928	10257
921.038	10402
921.148	10527
921.258	10238
921.368	10086
921.477	9960
921.587	9953
921.697	9987
921.806	9945
921.916	9915
922.025	9728
922.134	9682
922.244	9622
922.353	9671
922.462	9641
922.571	9477
922.68	9336
922.789	9340
922.898	9355
923.007	9359
923.116	9416
923.224	9389
923.333	9355
923.442	9306
923.55	9302
923.659	9256
923.767	9367
923.876	9180
923.984	9344
924.092	9127
924.201	9222
924.309	9344
924.417	9253
924.525	9195
924.633	9203
924.741	9888
924.849	9058
924.956	9207
925.064	9039
925.172	8971
925.279	8998
925.387	9077
925.494	9028
925.602	9161
925.709	9093
925.816	8842
925.924	9051
926.031	9001
926.138	9009
926.245	9176
926.352	8918
926.459	9108
926.566	9165
926.673	9051
926.779	8929
926.886	8868
926.993	8777
927.099	8682
927.206	8716
927.312	8705
927.419	8807
927.525	8708
927.631	8788
927.737	8693
927.843	8598
927.95	8587
928.056	8629
928.162	8659
928.267	8746
928.373	9325
928.479	8689
928.585	8568
928.69	8632
928.796	8659
928.901	8621
929.007	8419
929.112	8579
929.218	8541
929.323	8495
929.428	8473
929.533	8606
929.638	8408
929.743	8427
929.848	8495
929.953	8450
930.058	8400
930.163	8229
930.267	8267
930.372	8370
930.477	8199
930.581	8393
930.685	8328
930.79	8187
930.894	8229
930.998	8123
931.103	8370
931.207	8027
931.311	7883
931.415	7951
931.519	7746
931.623	7704
