Data from test_V78500241_1135.txt Node
Date: Fri Mar 25 14:41:37 CST 2022
User: usil
Spectrometer: V785-0024
Trigger mode: 0
Integration Time (sec): 4.000000E-1
Scans to average: 1
Nonlinearity correction enabled: false
Boxcar width: 0
Storing dark spectrum: false
XAxis mode: Wavelengths
Number of Pixels in Spectrum: 1024
>>>>>Begin Spectral Data<<<<<
801.071	22550
801.214	22405
801.356	22291
801.499	22188
801.641	22067
801.783	21876
801.926	21915
802.068	21842
802.211	21869
802.353	21690
802.496	21549
802.638	21386
802.78	21367
802.923	21310
803.065	21260
803.208	21237
803.35	21332
803.492	21435
803.635	21488
803.777	21287
803.919	21477
804.061	21595
804.204	21348
804.346	21169
804.488	21260
804.63	21237
804.773	21116
804.915	21195
805.057	21348
805.199	21211
805.341	21325
805.483	21272
805.626	21389
805.768	21207
805.91	21112
806.052	21226
806.194	21146
806.336	21294
806.478	21287
806.62	21150
806.762	21313
806.904	21329
807.046	21698
807.188	21629
807.33	21583
807.472	21610
807.614	21705
807.756	21553
807.898	21420
808.04	21374
808.182	21412
808.324	21428
808.465	21424
808.607	21747
808.749	21842
808.891	22055
809.033	22036
809.174	21937
809.316	21827
809.458	21732
809.6	21686
809.741	21812
809.883	21736
810.025	21907
810.166	21846
810.308	21797
810.45	21743
810.591	21736
810.733	21526
810.875	21557
811.016	21363
811.158	21325
811.299	21523
811.441	21519
811.582	21606
811.724	21332
811.865	21321
812.007	21412
812.148	21462
812.29	21355
812.431	21580
812.573	21648
812.714	21797
812.855	21884
812.997	21968
813.138	22204
813.279	21956
813.421	21907
813.562	21800
813.703	21694
813.845	21564
813.986	21321
814.127	21161
814.268	21093
814.41	21028
814.551	20899
814.692	20914
814.833	20716
814.974	20735
815.115	20937
815.256	20663
815.397	20826
815.539	20883
815.68	20743
815.821	20693
815.962	20777
816.103	20678
816.244	20568
816.385	20431
816.526	20362
816.666	20214
816.807	20130
816.948	20202
817.089	20172
817.23	20161
817.371	20191
817.512	20107
817.653	20039
817.793	20119
817.934	20073
818.075	20172
818.216	20153
818.356	20077
818.497	19879
818.638	19624
818.778	19841
818.919	19799
819.06	19799
819.2	19868
819.341	20065
819.481	19986
819.622	20043
819.762	20309
819.903	20278
820.043	20126
820.184	20081
820.324	20050
820.465	20073
820.605	20134
820.746	20107
820.886	19955
821.026	19993
821.167	19955
821.307	20054
821.447	20027
821.588	19799
821.728	19742
821.868	19567
822.008	19559
822.149	19480
822.289	19476
822.429	19175
822.569	19080
822.709	19095
822.849	18913
822.99	19023
823.13	18848
823.27	18958
823.41	18829
823.55	18753
823.69	18821
823.83	18863
823.97	18715
824.11	18486
824.25	18494
824.389	18574
824.529	18555
824.669	18627
824.809	18658
824.949	18654
825.089	18639
825.228	18517
825.368	18445
825.508	18285
825.648	18346
825.787	18369
825.927	18426
826.067	18235
826.206	18407
826.346	18380
826.485	18426
826.625	18262
826.765	18509
826.904	18395
827.044	18304
827.183	18083
827.323	18019
827.462	17996
827.601	18038
827.741	17923
827.88	18087
828.02	17939
828.159	18026
828.298	18026
828.437	17965
828.577	18026
828.716	18125
828.855	18019
828.994	17802
829.134	17752
829.273	17779
829.412	17733
829.551	17684
829.69	17786
829.829	17672
829.968	17885
830.107	17828
830.246	17809
830.385	17726
830.524	17676
830.663	17672
830.802	17585
830.941	17410
831.08	17376
831.219	17558
831.357	17387
831.496	17592
831.635	17414
831.774	17334
831.913	17284
832.051	17124
832.19	17269
832.329	17143
832.467	17136
832.606	16995
832.744	17121
832.883	17197
833.022	17155
833.16	17166
833.299	17124
833.437	17143
833.576	17254
833.714	17223
833.852	17136
833.991	17124
834.129	17250
834.267	17197
834.406	17102
834.544	17200
834.682	17170
834.821	17109
834.959	17356
835.097	17151
835.235	17242
835.373	17212
835.511	17159
835.65	17143
835.788	17014
835.926	16919
836.064	16927
836.202	16904
836.34	17083
836.478	17094
836.615	17090
836.753	17208
836.891	17162
837.029	17105
837.167	17132
837.305	16968
837.443	17010
837.58	16858
837.718	17060
837.856	16923
837.993	16885
838.131	16881
838.269	16820
838.406	16835
838.544	16763
838.681	16717
838.819	16535
838.956	16440
839.094	16485
839.231	16584
839.369	16656
839.506	16850
839.643	16713
839.781	16573
839.918	16402
840.055	16538
840.193	16386
840.33	16436
840.467	16421
840.604	16500
840.742	16656
840.879	16386
841.016	16265
841.153	16459
841.29	16584
841.427	16451
841.564	16375
841.701	16459
841.838	16371
841.975	16356
842.112	16367
842.249	16207
842.385	16291
842.522	16409
842.659	16211
842.796	16185
842.933	16242
843.069	16276
843.206	16200
843.343	16276
843.479	16337
843.616	16268
843.752	15994
843.889	16071
844.025	16173
844.162	15934
844.298	16158
844.435	16036
844.571	16051
844.708	16101
844.844	16162
844.98	16200
845.117	16207
845.253	16063
845.389	15941
845.525	16067
845.661	16166
845.798	16067
845.934	16204
846.07	16234
846.206	16204
846.342	16230
846.478	16071
846.614	15766
846.75	15629
846.886	15663
847.022	15682
847.158	15599
847.294	15610
847.429	15568
847.565	15530
847.701	15804
847.837	15260
847.972	15382
848.108	15408
848.244	15367
848.379	15264
848.515	15116
848.65	15077
848.786	15245
848.921	15199
849.057	15344
849.192	15272
849.328	15226
849.463	15157
849.598	15062
849.734	15077
849.869	15039
850.004	15062
850.14	14990
850.275	14979
850.41	14921
850.545	14868
850.68	14956
850.815	14948
850.95	14960
851.085	15142
851.22	15093
851.355	15131
851.49	14960
851.625	14914
851.76	14941
851.895	14880
852.03	14838
852.165	14887
852.299	14963
852.434	15100
852.569	14982
852.703	14918
852.838	15066
852.973	15020
853.107	15081
853.242	14735
853.376	14815
853.511	14705
853.645	14720
853.78	14941
853.914	14792
854.048	14750
854.183	14811
854.317	14853
854.451	15013
854.585	14823
854.72	14899
854.854	14826
854.988	14693
855.122	14800
855.256	14587
855.39	14800
855.524	14971
855.658	14842
855.792	14868
855.926	14777
856.06	14849
856.194	14876
856.327	14845
856.461	14781
856.595	14800
856.729	14807
856.862	14883
856.996	14853
857.13	14994
857.263	14811
857.397	14998
857.53	14781
857.664	14899
857.797	14990
857.931	14899
858.064	14853
858.197	14910
858.331	14796
858.464	14746
858.597	14762
858.731	14773
858.864	14883
858.997	14792
859.13	14845
859.263	14895
859.396	14982
859.529	14857
859.662	14773
859.795	14838
859.928	14823
860.061	14937
860.194	14967
860.327	14804
860.46	14773
860.592	14914
860.725	14937
860.858	14895
860.99	14845
861.123	14762
861.256	14731
861.388	14727
861.521	15576
861.653	14629
861.786	14514
861.918	14701
862.05	14762
862.183	14708
862.315	14811
862.447	14819
862.58	14758
862.712	14526
862.844	14533
862.976	14579
863.108	14594
863.24	14982
863.372	14518
863.504	14507
863.636	14579
863.768	14655
863.9	14621
864.032	14514
864.164	14541
864.296	14583
864.428	14644
864.559	14674
864.691	14670
864.823	14648
864.954	14648
865.086	14636
865.217	14564
865.349	14480
865.48	14579
865.612	14606
865.743	14826
865.875	14545
866.006	14571
866.137	14640
866.269	14598
866.4	14537
866.531	14465
866.662	14476
866.793	14556
866.924	14537
867.055	14594
867.186	14613
867.317	14560
867.448	14469
867.579	14495
867.71	14499
867.841	14556
867.972	14549
868.103	14533
868.233	14541
868.364	14613
868.495	14602
868.625	14693
868.756	14933
868.886	14727
869.017	14819
869.147	14910
869.278	14998
869.408	14838
869.539	14773
869.669	14743
869.799	14861
869.929	14906
870.06	14876
870.19	15135
870.32	15085
870.45	15146
870.58	15226
870.71	15283
870.84	15370
870.97	15230
871.1	15165
871.23	15374
871.36	15454
871.489	15291
871.619	15374
871.749	15443
871.879	15416
872.008	15447
872.138	15325
872.267	15355
872.397	15272
872.526	15275
872.656	15256
872.785	15222
872.915	15477
873.044	15526
873.173	15412
873.303	15477
873.432	15561
873.561	15500
873.69	15549
873.819	15439
873.948	15545
874.077	15408
874.206	15496
874.335	15526
874.464	15599
874.593	15682
874.722	15671
874.851	15797
874.979	15778
875.108	15743
875.237	15739
875.365	15599
875.494	15682
875.623	15899
875.751	15728
875.88	15854
876.008	15759
876.136	15960
876.265	16177
876.393	16379
876.521	16246
876.65	16234
876.778	16287
876.906	16169
877.034	16040
877.162	16185
877.29	16071
877.418	16192
877.546	16265
877.674	16226
877.802	16169
877.93	16230
878.058	16105
878.185	16013
878.313	16246
878.441	16219
878.568	16029
878.696	16204
878.824	16253
878.951	16268
879.079	16405
879.206	16516
879.333	16542
879.461	16329
879.588	16470
879.715	16489
879.842	16538
879.97	16356
880.097	16128
880.224	16044
880.351	16082
880.478	16067
880.605	15994
880.732	16078
880.859	16249
880.986	16067
881.112	16093
881.239	15987
881.366	15926
881.493	15812
881.619	15690
881.746	15800
881.872	15747
881.999	15675
882.125	15622
882.252	15732
882.378	15751
882.505	15835
882.631	15663
882.757	15553
882.883	15561
883.01	15641
883.136	15405
883.262	15420
883.388	15321
883.514	15549
883.64	15622
883.766	15488
883.892	15355
884.018	15382
884.143	15553
884.269	15587
884.395	15439
884.52	15348
884.646	15256
884.772	15321
884.897	15100
885.023	15405
885.148	15317
885.274	15401
885.399	15363
885.524	15306
885.65	15199
885.775	15336
885.9	15260
886.025	15389
886.15	15298
886.275	15294
886.4	15123
886.525	15127
886.65	15184
886.775	15161
886.9	15325
887.025	15458
887.149	15291
887.274	15116
887.399	14902
887.523	15112
887.648	15009
887.773	15005
887.897	15241
888.021	15077
888.146	14948
888.27	15081
888.395	15245
888.519	15165
888.643	15119
888.767	15176
888.891	15055
889.015	14902
889.139	15100
889.263	14895
889.387	15093
889.511	15108
889.635	15039
889.759	14914
889.883	14948
890.006	14994
890.13	15039
890.254	14819
890.377	14842
890.501	14712
890.624	14720
890.748	14785
890.871	14663
890.995	14602
891.118	14552
891.241	14598
891.364	14678
891.488	14670
891.611	14564
891.734	14583
891.857	14670
891.98	14598
892.103	14716
892.226	14606
892.349	14583
892.471	14503
892.594	14503
892.717	14655
892.839	14571
892.962	14560
893.085	14701
893.207	14549
893.33	14469
893.452	14495
893.575	14511
893.697	14560
893.819	14773
893.941	14746
894.064	14853
894.186	14465
894.308	14629
894.43	14674
894.552	14678
894.674	14773
894.796	14552
894.918	14629
895.04	14575
895.161	14701
895.283	14659
895.405	14629
895.526	14651
895.648	14727
895.769	14727
895.891	14804
896.012	14853
896.134	14838
896.255	14724
896.376	14731
896.498	14743
896.619	14853
896.74	14758
896.861	14838
896.982	15112
897.103	15272
897.224	14960
897.345	14902
897.466	14853
897.587	14952
897.708	15097
897.828	15131
897.949	15066
898.07	14864
898.19	15036
898.311	15154
898.431	15081
898.552	15085
898.672	15138
898.792	15256
898.913	15112
899.033	15058
899.153	14921
899.273	14864
899.393	14921
899.513	14975
899.633	14861
899.753	14952
899.873	14895
899.993	15017
900.113	14975
900.232	14952
900.352	14967
900.472	14838
900.591	14762
900.711	14739
900.83	14689
900.95	14876
901.069	14967
901.189	14739
901.308	14564
901.427	14434
901.546	14450
901.665	14457
901.784	14537
901.904	14332
902.023	14294
902.141	14058
902.26	14027
902.379	14088
902.498	14039
902.617	13940
902.735	14016
902.854	13989
902.973	13928
903.091	13780
903.21	13708
903.328	13791
903.446	13681
903.565	13590
903.683	13628
903.801	13476
903.919	13609
904.038	13628
904.156	13460
904.274	13529
904.392	13350
904.51	13377
904.627	13407
904.745	13384
904.863	13468
904.981	13236
905.098	13080
905.216	13114
905.334	13175
905.451	13190
905.569	13080
905.686	13057
905.803	13012
905.921	12871
906.038	13019
906.155	12909
906.272	12787
906.389	12871
906.506	12707
906.623	12696
906.74	12662
906.857	12521
906.974	12532
907.091	12707
907.208	12779
907.324	12760
907.441	12559
907.557	12414
907.674	12464
907.79	12350
907.907	12403
908.023	12486
908.139	12426
908.256	12319
908.372	12369
908.488	12323
908.604	12213
908.72	12190
908.836	12136
908.952	12114
909.068	12140
909.184	12273
909.3	12148
909.415	12235
909.531	12209
909.647	11992
909.762	11916
909.878	11885
909.993	11984
910.108	11920
910.224	11878
910.339	11935
910.454	11786
910.57	11790
910.685	11718
910.8	12034
910.915	11870
911.03	11805
911.145	11619
911.259	11611
911.374	11592
911.489	11528
911.604	11467
911.718	11356
911.833	11402
911.947	11273
912.062	11265
912.176	11246
912.291	11368
912.405	11273
912.519	11566
912.633	11516
912.748	11444
912.862	11372
912.976	11174
913.09	11258
913.204	11204
913.318	11254
913.431	11376
913.545	11326
913.659	11360
913.772	11201
913.886	11147
914	11178
914.113	11174
914.226	11239
914.34	11239
914.453	11105
914.566	11140
914.68	11083
914.793	10968
914.906	10904
915.019	10828
915.132	10816
915.245	10812
915.358	10873
915.47	10938
915.583	10858
915.696	11006
915.809	11037
915.921	11003
916.034	10843
916.146	10816
916.259	10820
916.371	10911
916.483	10828
916.595	10763
916.708	10862
916.82	10805
916.932	10725
917.044	10816
917.156	10714
917.268	10584
917.38	10645
917.491	10687
917.603	10698
917.715	10805
917.826	10824
917.938	10630
918.049	10573
918.161	10679
918.272	10797
918.384	10820
918.495	10656
918.606	10554
918.717	10462
918.828	10538
918.939	10554
919.05	10478
919.161	10478
919.272	10428
919.383	10386
919.494	10561
919.604	10748
919.715	10558
919.826	10474
919.936	10565
920.047	10664
920.157	10535
920.267	10710
920.378	10550
920.488	10523
920.598	10755
920.708	10889
920.818	10740
920.928	10752
921.038	10904
921.148	10908
921.258	10584
921.368	10538
921.477	10329
921.587	10413
921.697	10253
921.806	10519
921.916	10276
922.025	10109
922.134	10131
922.244	10036
922.353	10112
922.462	9994
922.571	9941
922.68	9766
922.789	9740
922.898	9831
923.007	9751
923.116	9865
923.224	9793
923.333	9778
923.442	9671
923.55	9652
923.659	9755
923.767	9755
923.876	9660
923.984	9709
924.092	9595
924.201	9641
924.309	9637
924.417	9576
924.525	9564
924.633	9667
924.741	10382
924.849	9359
924.956	9534
925.064	9481
925.172	9310
925.279	9405
925.387	9477
925.494	9412
925.602	9496
925.709	9568
925.816	9279
925.924	9378
926.031	9481
926.138	9504
926.245	9393
926.352	9359
926.459	9500
926.566	9496
926.673	9439
926.779	9195
926.886	9272
926.993	9154
927.099	9142
927.206	9138
927.312	9074
927.419	9161
927.525	9157
927.631	9157
927.737	9039
927.843	8952
927.95	8876
928.056	9047
928.162	9013
928.267	9028
928.373	9694
928.479	9116
928.585	8876
928.69	8979
928.796	9051
928.901	8956
929.007	8781
929.112	8937
929.218	8899
929.323	8872
929.428	8826
929.533	8990
929.638	8746
929.743	8766
929.848	8845
929.953	8876
930.058	8731
930.163	8552
930.267	8606
930.372	8727
930.477	8556
930.581	8811
930.685	8682
930.79	8480
930.894	8556
930.998	8503
931.103	8651
931.207	8313
931.311	8282
931.415	8180
931.519	8024
931.623	8050
