Data from test_V78500241_1368.txt Node
Date: Fri Mar 25 14:43:14 CST 2022
User: usil
Spectrometer: V785-0024
Trigger mode: 0
Integration Time (sec): 4.000000E-1
Scans to average: 1
Nonlinearity correction enabled: false
Boxcar width: 0
Storing dark spectrum: false
XAxis mode: Wavelengths
Number of Pixels in Spectrum: 1024
>>>>>Begin Spectral Data<<<<<
801.071	22497
801.214	22367
801.356	22044
801.499	21903
801.641	21850
801.783	21816
801.926	21869
802.068	21732
802.211	21576
802.353	21614
802.496	21367
802.638	21374
802.78	21226
802.923	21173
803.065	20956
803.208	21119
803.35	21089
803.492	21192
803.635	21302
803.777	21203
803.919	21272
804.061	21469
804.204	21214
804.346	21024
804.488	20899
804.63	21055
804.773	20899
804.915	21051
805.057	21150
805.199	21112
805.341	21089
805.483	21138
805.626	21100
805.768	20929
805.91	21028
806.052	21043
806.194	20994
806.336	21241
806.478	20948
806.62	21047
806.762	21104
806.904	21291
807.046	21397
807.188	21294
807.33	21374
807.472	21523
807.614	21340
807.756	21485
807.898	21256
808.04	21241
808.182	21275
808.324	21249
808.465	21348
808.607	21401
808.749	21564
808.891	21823
809.033	21766
809.174	21812
809.316	21694
809.458	21690
809.6	21515
809.741	21492
809.883	21603
810.025	21641
810.166	21724
810.308	21671
810.45	21614
810.591	21538
810.733	21336
810.875	21230
811.016	21207
811.158	21055
811.299	21363
811.441	21329
811.582	21386
811.724	21283
811.865	21268
812.007	21176
812.148	21214
812.29	21237
812.431	21447
812.573	21485
812.714	21603
812.855	21778
812.997	21827
813.138	21953
813.279	21778
813.421	21625
813.562	21755
813.703	21526
813.845	21435
813.986	21112
814.127	20960
814.268	20883
814.41	20746
814.551	20834
814.692	20937
814.833	20777
814.974	20697
815.115	20769
815.256	20465
815.397	20617
815.539	20530
815.68	20476
815.821	20495
815.962	20590
816.103	20450
816.244	20507
816.385	20290
816.526	20164
816.666	20138
816.807	19921
816.948	20107
817.089	20035
817.23	19978
817.371	19887
817.512	19978
817.653	19883
817.793	19936
817.934	19841
818.075	19944
818.216	19951
818.356	19906
818.497	19738
818.638	19662
818.778	19635
818.919	19609
819.06	19647
819.2	19719
819.341	19750
819.481	19734
819.622	19814
819.762	20073
819.903	20031
820.043	19879
820.184	19982
820.324	19955
820.465	19967
820.605	19837
820.746	19807
820.886	19814
821.026	19712
821.167	19822
821.307	19894
821.447	19856
821.588	19753
821.728	19594
821.868	19449
822.008	19369
822.149	19221
822.289	19202
822.429	19091
822.569	19008
822.709	19000
822.849	18787
822.99	18681
823.13	18817
823.27	18688
823.41	18582
823.55	18517
823.69	18566
823.83	18722
823.97	18441
824.11	18369
824.25	18357
824.389	18372
824.529	18475
824.669	18441
824.809	18490
824.949	18536
825.089	18395
825.228	18388
825.368	18251
825.508	18125
825.648	18273
825.787	18144
825.927	18239
826.067	18144
826.206	18098
826.346	18243
826.485	18190
826.625	18194
826.765	18235
826.904	18095
827.044	17969
827.183	17939
827.323	17783
827.462	17889
827.601	17866
827.741	17775
827.88	17821
828.02	17741
828.159	17733
828.298	17847
828.437	17942
828.577	17737
828.716	17935
828.855	17783
828.994	17611
829.134	17596
829.273	17596
829.412	17619
829.551	17528
829.69	17448
829.829	17600
829.968	17737
830.107	17657
830.246	17710
830.385	17528
830.524	17448
830.663	17402
830.802	17303
830.941	17246
831.08	17189
831.219	17258
831.357	17208
831.496	17444
831.635	17227
831.774	17178
831.913	17105
832.051	17052
832.19	16965
832.329	17010
832.467	16919
832.606	16911
832.744	16881
832.883	16839
833.022	16869
833.16	16949
833.299	16923
833.437	16965
833.576	17014
833.714	16961
833.852	16946
833.991	16972
834.129	17136
834.267	17041
834.406	16972
834.544	17003
834.682	17041
834.821	16934
834.959	17079
835.097	16987
835.235	16995
835.373	16923
835.511	17102
835.65	16915
835.788	16934
835.926	16759
836.064	16649
836.202	16774
836.34	16946
836.478	16923
836.615	16858
836.753	16927
836.891	16919
837.029	16896
837.167	16824
837.305	16812
837.443	16755
837.58	16748
837.718	16679
837.856	16828
837.993	16694
838.131	16721
838.269	16721
838.406	16630
838.544	16615
838.681	16375
838.819	16390
838.956	16287
839.094	16310
839.231	16352
839.369	16341
839.506	16603
839.643	16607
839.781	16318
839.918	16234
840.055	16268
840.193	16276
840.33	16268
840.467	16253
840.604	16272
840.742	16485
840.879	16154
841.016	16200
841.153	16150
841.29	16428
841.427	16215
841.564	16352
841.701	16238
841.838	16124
841.975	16135
842.112	16112
842.249	16032
842.385	15979
842.522	16169
842.659	16131
842.796	16025
842.933	16036
843.069	16097
843.206	15975
843.343	16090
843.479	16116
843.616	16036
843.752	15827
843.889	15793
844.025	16029
844.162	15819
844.298	15930
844.435	15854
844.571	15827
844.708	15812
844.844	15911
844.98	15994
845.117	16002
845.253	15895
845.389	15717
845.525	15884
845.661	15861
845.798	15854
845.934	16010
846.07	15907
846.206	16002
846.342	16036
846.478	15755
846.614	15587
846.75	15428
846.886	15439
847.022	15477
847.158	15500
847.294	15431
847.429	15450
847.565	15401
847.701	15641
847.837	15203
847.972	15154
848.108	15195
848.244	15188
848.379	15043
848.515	14982
848.65	15032
848.786	14990
848.921	14937
849.057	15093
849.192	15142
849.328	15039
849.463	15024
849.598	14906
849.734	14963
849.869	14895
850.004	14826
850.14	14769
850.275	14785
850.41	14625
850.545	14781
850.68	14754
850.815	14731
850.95	14727
851.085	14990
851.22	14800
851.355	14788
851.49	14735
851.625	14731
851.76	14773
851.895	14655
852.03	14644
852.165	14796
852.299	14773
852.434	14845
852.569	14853
852.703	14804
852.838	14910
852.973	15028
853.107	14944
853.242	14773
853.376	14667
853.511	14575
853.645	14613
853.78	14788
853.914	14632
854.048	14629
854.183	14621
854.317	14617
854.451	14826
854.585	14648
854.72	14552
854.854	14644
854.988	14526
855.122	14606
855.256	14431
855.39	14549
855.524	14648
855.658	14693
855.792	14644
855.926	14682
856.06	14731
856.194	14731
856.327	14629
856.461	14640
856.595	14571
856.729	14610
856.862	14727
856.996	14655
857.13	14682
857.263	14804
857.397	14773
857.53	14598
857.664	14727
857.797	14712
857.931	14655
858.064	14701
858.197	14598
858.331	14568
858.464	14507
858.597	14533
858.731	14514
858.864	14598
858.997	14689
859.13	14560
859.263	14632
859.396	14796
859.529	14564
859.662	14541
859.795	14492
859.928	14701
860.061	14811
860.194	14807
860.327	14712
860.46	14648
860.592	14769
860.725	14796
860.858	14678
860.99	14587
861.123	14598
861.256	14499
861.388	14590
861.521	15351
861.653	14514
861.786	14473
861.918	14549
862.05	14568
862.183	14625
862.315	14575
862.447	14590
862.58	14522
862.712	14385
862.844	14252
862.976	14408
863.108	14423
863.24	14804
863.372	14427
863.504	14450
863.636	14374
863.768	14415
863.9	14423
864.032	14343
864.164	14286
864.296	14366
864.428	14610
864.559	14590
864.691	14514
864.823	14522
864.954	14476
865.086	14412
865.217	14366
865.349	14393
865.48	14442
865.612	14579
865.743	14488
865.875	14476
866.006	14248
866.137	14347
866.269	14454
866.4	14408
866.531	14343
866.662	14248
866.793	14412
866.924	14309
867.055	14396
867.186	14412
867.317	14282
867.448	14313
867.579	14347
867.71	14195
867.841	14290
867.972	14381
868.103	14396
868.233	14415
868.364	14461
868.495	14423
868.625	14617
868.756	14674
868.886	14545
869.017	14606
869.147	14689
869.278	14769
869.408	14689
869.539	14617
869.669	14720
869.799	14556
869.929	14727
870.06	14701
870.19	14914
870.32	14876
870.45	14982
870.58	15055
870.71	15135
870.84	15161
870.97	15043
871.1	14971
871.23	15100
871.36	15256
871.489	15123
871.619	15195
871.749	15283
871.879	15188
872.008	15386
872.138	15264
872.267	15184
872.397	15176
872.526	15039
872.656	15043
872.785	15104
872.915	15310
873.044	15367
873.173	15298
873.303	15344
873.432	15317
873.561	15397
873.69	15283
873.819	15260
873.948	15363
874.077	15340
874.206	15116
874.335	15291
874.464	15473
874.593	15526
874.722	15553
874.851	15648
874.979	15656
875.108	15698
875.237	15622
875.365	15405
875.494	15622
875.623	15564
875.751	15584
875.88	15751
876.008	15671
876.136	15793
876.265	16025
876.393	16093
876.521	16021
876.65	16055
876.778	16067
876.906	15903
877.034	15968
877.162	16040
877.29	15922
877.418	16006
877.546	16074
877.674	16006
877.802	16017
877.93	16010
878.058	15953
878.185	15884
878.313	16006
878.441	16036
878.568	15835
878.696	15972
878.824	16097
878.951	16143
879.079	16265
879.206	16481
879.333	16306
879.461	16154
879.588	16211
879.715	16276
879.842	16348
879.97	16238
880.097	15850
880.224	15907
880.351	15911
880.478	15884
880.605	15945
880.732	15850
880.859	16109
880.986	15934
881.112	15850
881.239	15812
881.366	15720
881.493	15576
881.619	15485
881.746	15667
881.872	15625
881.999	15466
882.125	15515
882.252	15542
882.378	15584
882.505	15660
882.631	15523
882.757	15355
882.883	15420
883.01	15363
883.136	15287
883.262	15199
883.388	15169
883.514	15397
883.64	15405
883.766	15302
883.892	15123
884.018	15165
884.143	15302
884.269	15412
884.395	15123
884.52	15089
884.646	15081
884.772	15013
884.897	14960
885.023	15077
885.148	15180
885.274	15131
885.399	15131
885.524	15032
885.65	15051
885.775	15108
885.9	15104
886.025	15131
886.15	15055
886.275	15028
886.4	14933
886.525	14994
886.65	14998
886.775	14967
886.9	15173
887.025	15230
887.149	15066
887.274	14868
887.399	14823
887.523	14883
887.648	14792
887.773	14758
887.897	15024
888.021	14967
888.146	14807
888.27	14941
888.395	14937
888.519	14910
888.643	14952
888.767	14914
888.891	14762
889.015	14689
889.139	14826
889.263	14678
889.387	14842
889.511	14887
889.635	14853
889.759	14689
889.883	14682
890.006	14697
890.13	14807
890.254	14640
890.377	14651
890.501	14473
890.624	14537
890.748	14537
890.871	14446
890.995	14355
891.118	14374
891.241	14351
891.364	14347
891.488	14454
891.611	14385
891.734	14396
891.857	14541
891.98	14461
892.103	14473
892.226	14495
892.349	14351
892.471	14275
892.594	14419
892.717	14492
892.839	14450
892.962	14404
893.085	14465
893.207	14457
893.33	14374
893.452	14271
893.575	14438
893.697	14343
893.819	14610
893.941	14446
894.064	14556
894.186	14381
894.308	14332
894.43	14503
894.552	14541
894.674	14434
894.796	14358
894.918	14465
895.04	14412
895.161	14564
895.283	14476
895.405	14377
895.526	14385
895.648	14461
895.769	14518
895.891	14484
896.012	14640
896.134	14560
896.255	14644
896.376	14606
896.498	14450
896.619	14587
896.74	14537
896.861	14636
896.982	14883
897.103	15055
897.224	14849
897.345	14792
897.466	14815
897.587	14853
897.708	14883
897.828	14902
897.949	14807
898.07	14731
898.19	14686
898.311	14948
898.431	14823
898.552	14986
898.672	14956
898.792	14929
898.913	14906
899.033	14834
899.153	14800
899.273	14731
899.393	14663
899.513	14716
899.633	14754
899.753	14750
899.873	14716
899.993	14800
900.113	14617
900.232	14735
900.352	14739
900.472	14727
900.591	14537
900.711	14571
900.83	14499
900.95	14610
901.069	14788
901.189	14560
901.308	14339
901.427	14278
901.546	14320
901.665	14301
901.784	14339
901.904	14092
902.023	14221
902.141	13921
902.26	13818
902.379	13967
902.498	13864
902.617	13841
902.735	13852
902.854	13902
902.973	13791
903.091	13537
903.21	13544
903.328	13460
903.446	13483
903.565	13354
903.683	13480
903.801	13365
903.919	13457
904.038	13388
904.156	13304
904.274	13396
904.392	13179
904.51	13263
904.627	13221
904.745	13285
904.863	13274
904.981	13091
905.098	12837
905.216	12878
905.334	12993
905.451	12924
905.569	12920
905.686	13023
905.803	12878
905.921	12684
906.038	12833
906.155	12730
906.272	12681
906.389	12688
906.506	12540
906.623	12490
906.74	12502
906.857	12323
906.974	12395
907.091	12582
907.208	12608
907.324	12601
907.441	12384
907.557	12296
907.674	12136
907.79	12197
907.907	12194
908.023	12254
908.139	12270
908.256	12190
908.372	12186
908.488	12178
908.604	12034
908.72	12038
908.836	12003
908.952	11939
909.068	12034
909.184	12049
909.3	12053
909.415	12072
909.531	11908
909.647	11741
909.762	11688
909.878	11737
909.993	11813
910.108	11809
910.224	11710
910.339	11695
910.454	11745
910.57	11653
910.685	11570
910.8	11840
910.915	11779
911.03	11661
911.145	11474
911.259	11532
911.374	11440
911.489	11356
911.604	11360
911.718	11265
911.833	11124
911.947	11128
912.062	11079
912.176	11239
912.291	11307
912.405	11189
912.519	11383
912.633	11406
912.748	11326
912.862	11204
912.976	11109
913.09	10934
913.204	11064
913.318	11117
913.431	11151
913.545	11181
913.659	11178
913.772	11185
913.886	10854
914	10991
914.113	11090
914.226	11052
914.34	11075
914.453	10839
914.566	10991
914.68	10984
914.793	10991
914.906	10740
915.019	10706
915.132	10637
915.245	10744
915.358	10702
915.47	10679
915.583	10771
915.696	10752
915.809	10801
915.921	10866
916.034	10755
916.146	10767
916.259	10630
916.371	10782
916.483	10691
916.595	10603
916.708	10603
916.82	10630
916.932	10641
917.044	10630
917.156	10569
917.268	10474
917.38	10500
917.491	10519
917.603	10573
917.715	10592
917.826	10694
917.938	10497
918.049	10440
918.161	10516
918.272	10683
918.384	10596
918.495	10512
918.606	10352
918.717	10272
918.828	10424
918.939	10459
919.05	10348
919.161	10360
919.272	10227
919.383	10295
919.494	10417
919.604	10702
919.715	10443
919.826	10253
919.936	10363
920.047	10508
920.157	10432
920.267	10660
920.378	10455
920.488	10512
920.598	10596
920.708	10729
920.818	10599
920.928	10592
921.038	10763
921.148	10729
921.258	10436
921.368	10337
921.477	10265
921.587	10276
921.697	10124
921.806	10379
921.916	10188
922.025	10059
922.134	9945
922.244	9972
922.353	9930
922.462	9842
922.571	9884
922.68	9724
922.789	9675
922.898	9690
923.007	9606
923.116	9641
923.224	9671
923.333	9587
923.442	9557
923.55	9420
923.659	9553
923.767	9526
923.876	9443
923.984	9595
924.092	9466
924.201	9454
924.309	9519
924.417	9538
924.525	9492
924.633	9477
924.741	10341
924.849	9363
924.956	9397
925.064	9214
925.172	9169
925.279	9226
925.387	9260
925.494	9260
925.602	9412
925.709	9363
925.816	9211
925.924	9317
926.031	9389
926.138	9283
926.245	9317
926.352	9184
926.459	9344
926.566	9473
926.673	9279
926.779	9116
926.886	9161
926.993	9058
927.099	9009
927.206	8948
927.312	8975
927.419	9058
927.525	9036
927.631	9047
927.737	8933
927.843	8948
927.95	8792
928.056	8902
928.162	8823
928.267	9017
928.373	9542
928.479	8937
928.585	8830
928.69	8883
928.796	8963
928.901	8811
929.007	8686
929.112	8845
929.218	8807
929.323	8720
929.428	8746
929.533	8804
929.638	8697
929.743	8739
929.848	8743
929.953	8727
930.058	8545
930.163	8473
930.267	8457
930.372	8640
930.477	8389
930.581	8701
930.685	8583
930.79	8385
930.894	8431
930.998	8381
931.103	8465
931.207	8172
931.311	8214
931.415	8092
931.519	7917
931.623	7898
