Data from test_V78500241_195.txt Node
Date: Fri Mar 25 14:35:04 CST 2022
User: usil
Spectrometer: V785-0024
Trigger mode: 0
Integration Time (sec): 4.000000E-1
Scans to average: 1
Nonlinearity correction enabled: false
Boxcar width: 0
Storing dark spectrum: false
XAxis mode: Wavelengths
Number of Pixels in Spectrum: 1024
>>>>>Begin Spectral Data<<<<<
801.071	28249
801.214	28181
801.356	27892
801.499	27774
801.641	27717
801.783	27629
801.926	27648
802.068	27568
802.211	27393
802.353	27389
802.496	27226
802.638	27237
802.78	27058
802.923	26998
803.065	27146
803.208	27131
803.35	27070
803.492	27237
803.635	27264
803.777	27131
803.919	27340
804.061	27622
804.204	27116
804.346	27085
804.488	27199
804.63	27055
804.773	27043
804.915	27127
805.057	27237
805.199	27085
805.341	27264
805.483	27256
805.626	27199
805.768	27043
805.91	27214
806.052	27336
806.194	27119
806.336	27370
806.478	27310
806.62	27256
806.762	27363
806.904	27473
807.046	27709
807.188	27709
807.33	27717
807.472	27895
807.614	27720
807.756	27713
807.898	27679
808.04	27732
808.182	27770
808.324	27846
808.465	28105
808.607	28265
808.749	28554
808.891	28767
809.033	28999
809.174	28675
809.316	28561
809.458	28421
809.6	28257
809.741	28143
809.883	27964
810.025	28192
810.166	28086
810.308	28036
810.45	27937
810.591	27781
810.733	27705
810.875	27675
811.016	27637
811.158	27583
811.299	27614
811.441	27648
811.582	27739
811.724	27591
811.865	27507
812.007	27671
812.148	27663
812.29	27637
812.431	27671
812.573	27819
812.714	28017
812.855	28048
812.997	28086
813.138	28090
813.279	28173
813.421	28097
813.562	27960
813.703	27705
813.845	27812
813.986	27511
814.127	27176
814.268	27070
814.41	27081
814.551	27096
814.692	27142
814.833	27070
814.974	27039
815.115	27146
815.256	26956
815.397	26872
815.539	26975
815.68	26765
815.821	26686
815.962	26861
816.103	26826
816.244	26621
816.385	26476
816.526	26564
816.666	26343
816.807	26206
816.948	26431
817.089	26343
817.23	26233
817.371	26218
817.512	26240
817.653	26195
817.793	26153
817.934	26164
818.075	26286
818.216	26153
818.356	26149
818.497	25989
818.638	25765
818.778	25837
818.919	25894
819.06	25887
819.2	26012
819.341	26092
819.481	26119
819.622	26286
819.762	26393
819.903	26355
820.043	26195
820.184	26214
820.324	26035
820.465	26153
820.605	26138
820.746	26138
820.886	25982
821.026	26058
821.167	26008
821.307	26202
821.447	26077
821.588	25947
821.728	25753
821.868	25590
822.008	25563
822.149	25586
822.289	25556
822.429	25263
822.569	25148
822.709	25080
822.849	24973
822.99	24924
823.13	24875
823.27	25004
823.41	24616
823.55	24650
823.69	24928
823.83	24616
823.97	24688
824.11	24620
824.25	24486
824.389	24456
824.529	24456
824.669	24525
824.809	24559
824.949	24582
825.089	24585
825.228	24627
825.368	24285
825.508	24357
825.648	24304
825.787	24369
825.927	24391
826.067	24319
826.206	24285
826.346	24418
826.485	24471
826.625	24262
826.765	24490
826.904	24391
827.044	24114
827.183	24041
827.323	23954
827.462	24133
827.601	24064
827.741	23866
827.88	24049
828.02	23893
828.159	23836
828.298	24072
828.437	23992
828.577	23942
828.716	24057
828.855	23927
828.994	23775
829.134	23634
829.273	23627
829.412	23630
829.551	23653
829.69	23585
829.829	23646
829.968	23840
830.107	23722
830.246	23570
830.385	23528
830.524	23471
830.663	23455
830.802	23292
830.941	23258
831.08	23235
831.219	23250
831.357	23288
831.496	23440
831.635	23246
831.774	23128
831.913	23025
832.051	22953
832.19	22919
832.329	23075
832.467	23003
832.606	22869
832.744	22854
832.883	22812
833.022	22869
833.16	22816
833.299	22900
833.437	22824
833.576	22885
833.714	22828
833.852	22961
833.991	23014
834.129	22995
834.267	22869
834.406	22889
834.544	22911
834.682	22961
834.821	22847
834.959	23083
835.097	22767
835.235	22968
835.373	22854
835.511	22809
835.65	22596
835.788	22668
835.926	22531
836.064	22508
836.202	22538
836.34	22675
836.478	22771
836.615	22546
836.753	22687
836.891	22733
837.029	22618
837.167	22538
837.305	22611
837.443	22497
837.58	22466
837.718	22538
837.856	22565
837.993	22310
838.131	22497
838.269	22371
838.406	22417
838.544	22284
838.681	22128
838.819	22226
838.956	21911
839.094	21873
839.231	22013
839.369	22032
839.506	22322
839.643	22196
839.781	21800
839.918	21880
840.055	21876
840.193	21880
840.33	21804
840.467	21770
840.604	21842
840.742	22116
840.879	21747
841.016	21694
841.153	21652
841.29	21888
841.427	21686
841.564	21823
841.701	21831
841.838	21759
841.975	21587
842.112	21629
842.249	21622
842.385	21595
842.522	21686
842.659	21637
842.796	21572
842.933	21507
843.069	21542
843.206	21519
843.343	21557
843.479	21443
843.616	21504
843.752	21321
843.889	21313
844.025	21447
844.162	21211
844.298	21443
844.435	21298
844.571	21161
844.708	21268
844.844	21523
844.98	21515
845.117	21428
845.253	21344
845.389	21428
845.525	21370
845.661	21652
845.798	21854
845.934	22211
846.07	22177
846.206	22318
846.342	22280
846.478	21701
846.614	21237
846.75	21005
846.886	20956
847.022	20895
847.158	20788
847.294	20861
847.429	20880
847.565	20712
847.701	21058
847.837	20484
847.972	20408
848.108	20522
848.244	20594
848.379	20374
848.515	20313
848.65	20240
848.786	20332
848.921	20290
849.057	20499
849.192	20355
849.328	20290
849.463	20221
849.598	20103
849.734	20206
849.869	20145
850.004	20111
850.14	20050
850.275	20058
850.41	19974
850.545	19959
850.68	19970
850.815	20073
850.95	20058
851.085	20164
851.22	20096
851.355	20046
851.49	19963
851.625	19909
851.76	20012
851.895	19776
852.03	19651
852.165	20016
852.299	19970
852.434	20062
852.569	19997
852.703	19963
852.838	20020
852.973	19993
853.107	20130
853.242	19970
853.376	19795
853.511	19715
853.645	19791
853.78	19917
853.914	19803
854.048	19803
854.183	19734
854.317	19917
854.451	19959
854.585	19772
854.72	19887
854.854	19860
854.988	19780
855.122	19906
855.256	19677
855.39	19860
855.524	19852
855.658	19772
855.792	19879
855.926	19849
856.06	19814
856.194	19909
856.327	19856
856.461	19594
856.595	19750
856.729	19776
856.862	19849
856.996	19845
857.13	19860
857.263	19868
857.397	19849
857.53	19685
857.664	19807
857.797	19864
857.931	19761
858.064	19826
858.197	19799
858.331	19799
858.464	19639
858.597	19609
858.731	19681
858.864	19708
858.997	19643
859.13	19662
859.263	19738
859.396	19776
859.529	19750
859.662	19704
859.795	19704
859.928	19791
860.061	19902
860.194	19849
860.327	19719
860.46	19658
860.592	19753
860.725	19753
860.858	19928
860.99	19681
861.123	19700
861.256	19502
861.388	19655
861.521	20351
861.653	19533
861.786	19506
861.918	19635
862.05	19700
862.183	19780
862.315	19811
862.447	19818
862.58	19757
862.712	19453
862.844	19346
862.976	19571
863.108	19434
863.24	19799
863.372	19346
863.504	19400
863.636	19453
863.768	19449
863.9	19320
864.032	19354
864.164	19373
864.296	19392
864.428	19495
864.559	19438
864.691	19415
864.823	19384
864.954	19422
865.086	19365
865.217	19392
865.349	19285
865.48	19335
865.612	19232
865.743	19491
865.875	19244
866.006	19335
866.137	19388
866.269	19255
866.4	19240
866.531	19190
866.662	19209
866.793	19217
866.924	19297
867.055	19282
867.186	19266
867.317	19266
867.448	19099
867.579	19228
867.71	19129
867.841	19206
867.972	19301
868.103	19282
868.233	19263
868.364	19251
868.495	19324
868.625	19472
868.756	19582
868.886	19445
869.017	19476
869.147	19502
869.278	19556
869.408	19434
869.539	19403
869.669	19521
869.799	19476
869.929	19632
870.06	19597
870.19	19818
870.32	19818
870.45	19761
870.58	19936
870.71	19906
870.84	19906
870.97	19974
871.1	19837
871.23	20229
871.36	20111
871.489	19951
871.619	19913
871.749	20012
871.879	20046
872.008	20172
872.138	20096
872.267	20077
872.397	20001
872.526	19875
872.656	19883
872.785	19989
872.915	20119
873.044	20134
873.173	20164
873.303	20065
873.432	20065
873.561	20183
873.69	20237
873.819	20050
873.948	20069
874.077	20065
874.206	20088
874.335	20195
874.464	20275
874.593	20381
874.722	20309
874.851	20415
874.979	20309
875.108	20454
875.237	20339
875.365	20374
875.494	20374
875.623	20533
875.751	20385
875.88	20518
876.008	20579
876.136	20503
876.265	20781
876.393	20883
876.521	20914
876.65	20842
876.778	20823
876.906	20853
877.034	20746
877.162	20811
877.29	20712
877.418	20811
877.546	20670
877.674	20906
877.802	20853
877.93	20918
878.058	20823
878.185	20663
878.313	20887
878.441	20765
878.568	20693
878.696	20781
878.824	20887
878.951	21146
879.079	21214
879.206	21302
879.333	21450
879.461	21424
879.588	21428
879.715	21549
879.842	21583
879.97	21405
880.097	21100
880.224	20918
880.351	20868
880.478	20777
880.605	20667
880.732	20872
880.859	21051
880.986	20724
881.112	20921
881.239	20667
881.366	20587
881.493	20434
881.619	20412
881.746	20434
881.872	20339
881.999	20358
882.125	20290
882.252	20396
882.378	20381
882.505	20446
882.631	20278
882.757	20164
882.883	20229
883.01	20081
883.136	20039
883.262	20024
883.388	19963
883.514	20039
883.64	20100
883.766	20081
883.892	19864
884.018	19951
884.143	20031
884.269	20202
884.395	19807
884.52	19803
884.646	19674
884.772	19685
884.897	19795
885.023	19837
885.148	19852
885.274	19860
885.399	19887
885.524	19681
885.65	19807
885.775	19849
885.9	19731
886.025	19723
886.15	19753
886.275	19765
886.4	19582
886.525	19586
886.65	19559
886.775	19578
886.9	19753
887.025	19799
887.149	19590
887.274	19445
887.399	19377
887.523	19434
887.648	19434
887.773	19324
887.897	19491
888.021	19487
888.146	19400
888.27	19358
888.395	19472
888.519	19453
888.643	19381
888.767	19521
888.891	19285
889.015	19148
889.139	19251
889.263	19209
889.387	19206
889.511	19266
889.635	19183
889.759	19152
889.883	19373
890.006	19221
890.13	19304
890.254	19084
890.377	19099
890.501	18783
890.624	18943
890.748	19008
890.871	18852
890.995	18730
891.118	18681
891.241	18840
891.364	18726
891.488	18772
891.611	18753
891.734	18795
891.857	18913
891.98	18783
892.103	18825
892.226	18817
892.349	18738
892.471	18646
892.594	18604
892.717	18692
892.839	18703
892.962	18692
893.085	18707
893.207	18817
893.33	18650
893.452	18559
893.575	18658
893.697	18692
893.819	18757
893.941	18810
894.064	18772
894.186	18593
894.308	18612
894.43	18764
894.552	18871
894.674	18661
894.796	18661
894.918	18719
895.04	18661
895.161	18749
895.283	18696
895.405	18665
895.526	18673
895.648	18540
895.769	18802
895.891	18719
896.012	18768
896.134	18848
896.255	18738
896.376	18772
896.498	18688
896.619	18684
896.74	18791
896.861	18848
896.982	19148
897.103	19236
897.224	19072
897.345	19061
897.466	18981
897.587	18970
897.708	19046
897.828	18943
897.949	18951
898.07	18848
898.19	18856
898.311	19053
898.431	18882
898.552	18985
898.672	19095
898.792	18970
898.913	19019
899.033	18920
899.153	18707
899.273	18665
899.393	18703
899.513	18749
899.633	18700
899.753	18719
899.873	18703
899.993	18722
900.113	18654
900.232	18741
900.352	18589
900.472	18627
900.591	18460
900.711	18608
900.83	18502
900.95	18684
901.069	18745
901.189	18551
901.308	18220
901.427	18220
901.546	18102
901.665	18167
901.784	18167
901.904	18007
902.023	17882
902.141	17722
902.26	17676
902.379	17760
902.498	17707
902.617	17687
902.735	17680
902.854	17634
902.973	17577
903.091	17292
903.21	17246
903.328	17326
903.446	17223
903.565	17170
903.683	17117
903.801	17056
903.919	16995
904.038	17216
904.156	16934
904.274	17003
904.392	16911
904.51	16885
904.627	16889
904.745	16934
904.863	16976
904.981	16687
905.098	16516
905.216	16561
905.334	16512
905.451	16615
905.569	16508
905.686	16580
905.803	16417
905.921	16386
906.038	16432
906.155	16466
906.272	16226
906.389	16253
906.506	16048
906.623	16032
906.74	16097
906.857	16086
906.974	16025
907.091	16150
907.208	16135
907.324	15972
907.441	15975
907.557	15804
907.674	15785
907.79	15690
907.907	15675
908.023	15785
908.139	15812
908.256	15766
908.372	15637
908.488	15595
908.604	15462
908.72	15439
908.836	15443
908.952	15458
909.068	15477
909.184	15591
909.3	15466
909.415	15485
909.531	15408
909.647	15245
909.762	15085
909.878	15070
909.993	15237
910.108	15195
910.224	15089
910.339	15112
910.454	15001
910.57	15039
910.685	14895
910.8	15252
910.915	15108
911.03	15024
911.145	14773
911.259	14739
911.374	14823
911.489	14693
911.604	14537
911.718	14484
911.833	14571
911.947	14442
912.062	14294
912.176	14518
912.291	14404
912.405	14465
912.519	14765
912.633	14655
912.748	14537
912.862	14511
912.976	14336
913.09	14282
913.204	14225
913.318	14309
913.431	14404
913.545	14381
913.659	14408
913.772	14290
913.886	14180
914	14145
914.113	14210
914.226	14309
914.34	14237
914.453	14081
914.566	14225
914.68	14081
914.793	14024
914.906	13932
915.019	13822
915.132	13727
915.245	13731
915.358	13917
915.47	13822
915.583	13776
915.696	13807
915.809	13917
915.921	13883
916.034	13700
916.146	13715
916.259	13704
916.371	13833
916.483	13807
916.595	13685
916.708	13666
916.82	13674
916.932	13715
917.044	13609
917.156	13655
917.268	13537
917.38	13609
917.491	13533
917.603	13453
917.715	13506
917.826	13590
917.938	13491
918.049	13232
918.161	13434
918.272	13624
918.384	13453
918.495	13483
918.606	13324
918.717	13221
918.828	13240
918.939	13190
919.05	13171
919.161	13225
919.272	12962
919.383	13114
919.494	13327
919.604	13457
919.715	13240
919.826	13194
919.936	13164
920.047	13240
920.157	13209
920.267	13457
920.378	13221
920.488	13103
920.598	13422
920.708	13499
920.818	13388
920.928	13343
921.038	13415
921.148	13468
921.258	13183
921.368	13000
921.477	12958
921.587	12962
921.697	12897
921.806	13061
921.916	12821
922.025	12738
922.134	12570
922.244	12555
922.353	12665
922.462	12467
922.571	12456
922.68	12342
922.789	12190
922.898	12311
923.007	12140
923.116	12201
923.224	12300
923.333	12342
923.442	12194
923.55	12045
923.659	12136
923.767	12148
923.876	12079
923.984	12060
924.092	12057
924.201	12095
924.309	12011
924.417	12034
924.525	12030
924.633	12007
924.741	12935
924.849	11847
924.956	11931
925.064	11748
925.172	11767
925.279	11737
925.387	11790
925.494	11729
925.602	11912
925.709	11859
925.816	11665
925.924	11745
926.031	11847
926.138	11771
926.245	11802
926.352	11653
926.459	11767
926.566	11916
926.673	11668
926.779	11623
926.886	11490
926.993	11387
927.099	11349
927.206	11383
927.312	11356
927.419	11341
927.525	11364
927.631	11387
927.737	11269
927.843	11140
927.95	11132
928.056	11227
928.162	11223
928.267	11261
928.373	11965
928.479	11212
928.585	11064
928.69	11239
928.796	11174
928.901	11064
929.007	10919
929.112	11071
929.218	11086
929.323	11098
929.428	10892
929.533	11086
929.638	10972
929.743	11014
929.848	11006
929.953	10972
930.058	10892
930.163	10702
930.267	10687
930.372	10782
930.477	10535
930.581	10801
930.685	10767
930.79	10512
930.894	10626
930.998	10550
931.103	10675
931.207	10280
931.311	10242
931.415	10074
931.519	9964
931.623	9888
