Data from test_V78500241_2359.txt Node
Date: Fri Mar 25 14:50:08 CST 2022
User: usil
Spectrometer: V785-0024
Trigger mode: 0
Integration Time (sec): 4.000000E-1
Scans to average: 1
Nonlinearity correction enabled: false
Boxcar width: 0
Storing dark spectrum: false
XAxis mode: Wavelengths
Number of Pixels in Spectrum: 1024
>>>>>Begin Spectral Data<<<<<
801.071	22036
801.214	22017
801.356	21831
801.499	21736
801.641	21557
801.783	21519
801.926	21523
802.068	21424
802.211	21325
802.353	21245
802.496	21161
802.638	20994
802.78	20982
802.923	20918
803.065	20895
803.208	20773
803.35	20807
803.492	21032
803.635	20994
803.777	20883
803.919	20952
804.061	21233
804.204	20986
804.346	20830
804.488	20758
804.63	20788
804.773	20678
804.915	20735
805.057	20963
805.199	20857
805.341	20937
805.483	20857
805.626	20872
805.768	20735
805.91	20800
806.052	20876
806.194	20693
806.336	21001
806.478	20705
806.62	20769
806.762	20811
806.904	21013
807.046	21207
807.188	21249
807.33	21112
807.472	21184
807.614	20937
807.756	21093
807.898	20921
808.04	20918
808.182	20739
808.324	20895
808.465	20963
808.607	21055
808.749	21249
808.891	21317
809.033	21306
809.174	21252
809.316	21112
809.458	21146
809.6	21245
809.741	21173
809.883	21302
810.025	21336
810.166	21332
810.308	21252
810.45	21378
810.591	21207
810.733	21108
810.875	21024
811.016	20902
811.158	20864
811.299	21024
811.441	20998
811.582	20963
811.724	20914
811.865	20986
812.007	20960
812.148	21074
812.29	20986
812.431	21116
812.573	21321
812.714	21272
812.855	21351
812.997	21523
813.138	21564
813.279	21481
813.421	21511
813.562	21226
813.703	21119
813.845	21104
813.986	20826
814.127	20594
814.268	20651
814.41	20564
814.551	20492
814.692	20404
814.833	20450
814.974	20332
815.115	20412
815.256	20366
815.397	20290
815.539	20339
815.68	20252
815.821	20164
815.962	20244
816.103	20202
816.244	19970
816.385	19890
816.526	20046
816.666	19677
816.807	19521
816.948	19788
817.089	19715
817.23	19685
817.371	19639
817.512	19460
817.653	19533
817.793	19559
817.934	19575
818.075	19632
818.216	19620
818.356	19518
818.497	19449
818.638	19350
818.778	19270
818.919	19297
819.06	19266
819.2	19491
819.341	19582
819.481	19491
819.622	19700
819.762	19757
819.903	19761
820.043	19742
820.184	19582
820.324	19635
820.465	19704
820.605	19605
820.746	19582
820.886	19346
821.026	19556
821.167	19548
821.307	19616
821.447	19590
821.588	19480
821.728	19400
821.868	19187
822.008	19008
822.149	19107
822.289	18886
822.429	18726
822.569	18673
822.709	18635
822.849	18475
822.99	18479
823.13	18433
823.27	18365
823.41	18315
823.55	18258
823.69	18327
823.83	18296
823.97	18273
824.11	18079
824.25	17939
824.389	18072
824.529	18148
824.669	18079
824.809	18159
824.949	18064
825.089	18136
825.228	17984
825.368	17939
825.508	17855
825.648	17859
825.787	17836
825.927	17973
826.067	17798
826.206	17813
826.346	17840
826.485	17863
826.625	17973
826.765	17904
826.904	17878
827.044	17657
827.183	17566
827.323	17433
827.462	17604
827.601	17490
827.741	17535
827.88	17604
828.02	17387
828.159	17486
828.298	17474
828.437	17611
828.577	17493
828.716	17657
828.855	17448
828.994	17341
829.134	17216
829.273	17250
829.412	17265
829.551	17181
829.69	17185
829.829	17265
829.968	17341
830.107	17280
830.246	17307
830.385	17227
830.524	17223
830.663	17159
830.802	16972
830.941	16847
831.08	16805
831.219	16968
831.357	16896
831.496	17166
831.635	16831
831.774	16820
831.913	16790
832.051	16634
832.19	16668
832.329	16713
832.467	16558
832.606	16531
832.744	16542
832.883	16565
833.022	16390
833.16	16542
833.299	16569
833.437	16599
833.576	16573
833.714	16615
833.852	16592
833.991	16565
834.129	16675
834.267	16664
834.406	16698
834.544	16664
834.682	16474
834.821	16679
834.959	16774
835.097	16561
835.235	16717
835.373	16577
835.511	16637
835.65	16459
835.788	16504
835.926	16382
836.064	16325
836.202	16386
836.34	16542
836.478	16565
836.615	16489
836.753	16588
836.891	16641
837.029	16596
837.167	16497
837.305	16424
837.443	16443
837.58	16272
837.718	16497
837.856	16466
837.993	16382
838.131	16440
838.269	16303
838.406	16413
838.544	16253
838.681	16074
838.819	16036
838.956	15812
839.094	15835
839.231	15945
839.369	16071
839.506	16356
839.643	16192
839.781	15975
839.918	15998
840.055	15869
840.193	15937
840.33	15884
840.467	15903
840.604	15907
840.742	16272
840.879	15846
841.016	15816
841.153	15861
841.29	15994
841.427	15953
841.564	15876
841.701	15979
841.838	15888
841.975	15857
842.112	15835
842.249	15743
842.385	15679
842.522	15895
842.659	15751
842.796	15599
842.933	15705
843.069	15603
843.206	15660
843.343	15751
843.479	15637
843.616	15778
843.752	15500
843.889	15485
844.025	15561
844.162	15447
844.298	15660
844.435	15564
844.571	15462
844.708	15561
844.844	15603
844.98	15515
845.117	15641
845.253	15492
845.389	15359
845.525	15485
845.661	15378
845.798	15317
845.934	15287
846.07	15294
846.206	15389
846.342	15428
846.478	15302
846.614	15081
846.75	15093
846.886	14986
847.022	15093
847.158	15036
847.294	15032
847.429	15081
847.565	14937
847.701	15256
847.837	14762
847.972	14720
848.108	14849
848.244	14842
848.379	14724
848.515	14617
848.65	14602
848.786	14518
848.921	14617
849.057	14762
849.192	14689
849.328	14754
849.463	14629
849.598	14663
849.734	14613
849.869	14492
850.004	14362
850.14	14442
850.275	14434
850.41	14377
850.545	14355
850.68	14438
850.815	14419
850.95	14488
851.085	14541
851.22	14492
851.355	14434
851.49	14408
851.625	14465
851.76	14389
851.895	14351
852.03	14218
852.165	14339
852.299	14362
852.434	14408
852.569	14431
852.703	14431
852.838	14396
852.973	14579
853.107	14438
853.242	14355
853.376	14320
853.511	14195
853.645	14161
853.78	14362
853.914	14263
854.048	14263
854.183	14244
854.317	14336
854.451	14526
854.585	14164
854.72	14240
854.854	14237
854.988	14191
855.122	14183
855.256	14183
855.39	14240
855.524	14400
855.658	14385
855.792	14282
855.926	14263
856.06	14358
856.194	14377
856.327	14259
856.461	14237
856.595	14278
856.729	14225
856.862	14366
856.996	14256
857.13	14393
857.263	14404
857.397	14396
857.53	14271
857.664	14252
857.797	14317
857.931	14412
858.064	14355
858.197	14298
858.331	14240
858.464	14237
858.597	14218
858.731	14320
858.864	14210
858.997	14332
859.13	14328
859.263	14294
859.396	14381
859.529	14206
859.662	14263
859.795	14240
859.928	14237
860.061	14499
860.194	14556
860.327	14233
860.46	14267
860.592	14343
860.725	14423
860.858	14412
860.99	14355
861.123	14214
861.256	14252
861.388	14332
861.521	14777
861.653	14256
861.786	14161
861.918	14100
862.05	14202
862.183	14259
862.315	14271
862.447	14355
862.58	14237
862.712	14008
862.844	13955
862.976	14172
863.108	14115
863.24	14473
863.372	14016
863.504	14107
863.636	14008
863.768	14107
863.9	14115
864.032	14046
864.164	13997
864.296	14058
864.428	14180
864.559	14138
864.691	14157
864.823	14187
864.954	14065
865.086	14050
865.217	14123
865.349	13982
865.48	14005
865.612	14050
865.743	14183
865.875	14084
866.006	13989
866.137	14035
866.269	14058
866.4	14035
866.531	14020
866.662	13986
866.793	14005
866.924	13989
867.055	14016
867.186	14005
867.317	13898
867.448	13841
867.579	14031
867.71	13978
867.841	13978
867.972	14119
868.103	14111
868.233	14096
868.364	14046
868.495	14176
868.625	14294
868.756	14473
868.886	14134
869.017	14267
869.147	14396
869.278	14393
869.408	14305
869.539	14290
869.669	14309
869.799	14328
869.929	14454
870.06	14393
870.19	14632
870.32	14545
870.45	14610
870.58	14632
870.71	14788
870.84	14800
870.97	14644
871.1	14746
871.23	14902
871.36	14842
871.489	14811
871.619	14975
871.749	14925
871.879	14956
872.008	14967
872.138	14921
872.267	14830
872.397	14750
872.526	14739
872.656	14720
872.785	14807
872.915	14956
873.044	14967
873.173	14899
873.303	14960
873.432	14979
873.561	15028
873.69	14975
873.819	14914
873.948	15051
874.077	14895
874.206	14971
874.335	14876
874.464	15089
874.593	15161
874.722	15142
874.851	15249
874.979	15180
875.108	15203
875.237	15165
875.365	15207
875.494	15173
875.623	15298
875.751	15233
875.88	15298
876.008	15420
876.136	15466
876.265	15644
876.393	15755
876.521	15694
876.65	15713
876.778	15720
876.906	15629
877.034	15610
877.162	15622
877.29	15641
877.418	15686
877.546	15618
877.674	15644
877.802	15629
877.93	15637
878.058	15610
878.185	15549
878.313	15633
878.441	15751
878.568	15500
878.696	15625
878.824	15698
878.951	15705
879.079	15899
879.206	15964
879.333	15842
879.461	15667
879.588	15880
879.715	15831
879.842	15937
879.97	15739
880.097	15485
880.224	15534
880.351	15561
880.478	15469
880.605	15408
880.732	15515
880.859	15762
880.986	15492
881.112	15572
881.239	15447
881.366	15329
881.493	15249
881.619	15169
881.746	15119
881.872	15112
881.999	15214
882.125	15150
882.252	15180
882.378	15157
882.505	15325
882.631	15104
882.757	14921
882.883	14925
883.01	14910
883.136	14910
883.262	14941
883.388	14925
883.514	15020
883.64	15131
883.766	15005
883.892	14800
884.018	14712
884.143	14895
884.269	15119
884.395	14697
884.52	14708
884.646	14727
884.772	14670
884.897	14659
885.023	14708
885.148	14838
885.274	14800
885.399	14807
885.524	14716
885.65	14739
885.775	14648
885.9	14697
886.025	14849
886.15	14781
886.275	14678
886.4	14708
886.525	14670
886.65	14640
886.775	14610
886.9	14705
887.025	14952
887.149	14670
887.274	14503
887.399	14469
887.523	14495
887.648	14469
887.773	14408
887.897	14587
888.021	14537
888.146	14530
888.27	14594
888.395	14632
888.519	14594
888.643	14552
888.767	14617
888.891	14450
889.015	14408
889.139	14381
889.263	14286
889.387	14400
889.511	14556
889.635	14537
889.759	14328
889.883	14294
890.006	14499
890.13	14545
890.254	14347
890.377	14400
890.501	14328
890.624	14084
890.748	14237
890.871	14187
890.995	14046
891.118	14001
891.241	14069
891.364	14039
891.488	14218
891.611	14062
891.734	14115
891.857	14164
891.98	14065
892.103	14183
892.226	14161
892.349	14088
892.471	14024
892.594	13970
892.717	14103
892.839	14081
892.962	14130
893.085	14149
893.207	14062
893.33	13932
893.452	13944
893.575	14180
893.697	14077
893.819	14259
893.941	14259
894.064	14229
894.186	14001
894.308	14054
894.43	14199
894.552	14294
894.674	14111
894.796	14077
894.918	14172
895.04	14126
895.161	14210
895.283	14237
895.405	14145
895.526	14187
895.648	14256
895.769	14164
895.891	14244
896.012	14343
896.134	14313
896.255	14149
896.376	14237
896.498	14237
896.619	14244
896.74	14290
896.861	14324
896.982	14583
897.103	14693
897.224	14560
897.345	14492
897.466	14495
897.587	14488
897.708	14617
897.828	14575
897.949	14526
898.07	14465
898.19	14606
898.311	14594
898.431	14575
898.552	14556
898.672	14746
898.792	14659
898.913	14674
899.033	14579
899.153	14423
899.273	14412
899.393	14404
899.513	14556
899.633	14488
899.753	14537
899.873	14419
899.993	14469
900.113	14412
900.232	14560
900.352	14434
900.472	14374
900.591	14298
900.711	14328
900.83	14298
900.95	14336
901.069	14450
901.189	14313
901.308	14176
901.427	14001
901.546	14012
901.665	14035
901.784	14073
901.904	13864
902.023	13776
902.141	13609
902.26	13731
902.379	13723
902.498	13670
902.617	13578
902.735	13620
902.854	13582
902.973	13480
903.091	13324
903.21	13278
903.328	13251
903.446	13179
903.565	13168
903.683	13183
903.801	12958
903.919	13149
904.038	13057
904.156	12958
904.274	13065
904.392	13042
904.51	12932
904.627	12966
904.745	13034
904.863	12928
904.981	12749
905.098	12589
905.216	12722
905.334	12730
905.451	12669
905.569	12635
905.686	12654
905.803	12627
905.921	12429
906.038	12650
906.155	12486
906.272	12391
906.389	12376
906.506	12239
906.623	12194
906.74	12251
906.857	12136
906.974	12209
907.091	12361
907.208	12376
907.324	12308
907.441	12220
907.557	11984
907.674	11988
907.79	11874
907.907	12007
908.023	12011
908.139	11935
908.256	11950
908.372	11980
908.488	11901
908.604	11741
908.72	11726
908.836	11798
908.952	11741
909.068	11733
909.184	11840
909.3	11775
909.415	11840
909.531	11783
909.647	11554
909.762	11528
909.878	11459
909.993	11562
910.108	11482
910.224	11459
910.339	11520
910.454	11433
910.57	11368
910.685	11318
910.8	11596
910.915	11528
911.03	11387
911.145	11223
911.259	11212
911.374	11185
911.489	11124
911.604	11109
911.718	10965
911.833	11079
911.947	10877
912.062	10714
912.176	10946
912.291	10995
912.405	11052
912.519	11231
912.633	11143
912.748	11025
912.862	10976
912.976	10828
913.09	10831
913.204	10904
913.318	10850
913.431	10965
913.545	10930
913.659	10953
913.772	10740
913.886	10805
914	10733
914.113	10790
914.226	10873
914.34	10786
914.453	10729
914.566	10835
914.68	10675
914.793	10729
914.906	10561
915.019	10451
915.132	10367
915.245	10497
915.358	10538
915.47	10519
915.583	10508
915.696	10573
915.809	10554
915.921	10622
916.034	10432
916.146	10527
916.259	10405
916.371	10584
916.483	10523
916.595	10424
916.708	10413
916.82	10466
916.932	10314
917.044	10451
917.156	10367
917.268	10299
917.38	10318
917.491	10325
917.603	10265
917.715	10409
917.826	10413
917.938	10310
918.049	10139
918.161	10325
918.272	10512
918.384	10455
918.495	10265
918.606	10223
918.717	10128
918.828	10253
918.939	10101
919.05	10093
919.161	10143
919.272	10006
919.383	10135
919.494	10253
919.604	10417
919.715	10234
919.826	10090
919.936	10112
920.047	10318
920.157	10162
920.267	10413
920.378	10230
920.488	10143
920.598	10382
920.708	10592
920.818	10462
920.928	10371
921.038	10607
921.148	10561
921.258	10230
921.368	10246
921.477	10097
921.587	9975
921.697	9945
921.806	10059
921.916	9956
922.025	9838
922.134	9770
922.244	9728
922.353	9774
922.462	9656
922.571	9644
922.68	9492
922.789	9447
922.898	9504
923.007	9492
923.116	9488
923.224	9462
923.333	9431
923.442	9367
923.55	9382
923.659	9408
923.767	9428
923.876	9306
923.984	9405
924.092	9291
924.201	9344
924.309	9325
924.417	9313
924.525	9279
924.633	9336
924.741	10017
924.849	9135
924.956	9332
925.064	9169
925.172	9017
925.279	9135
925.387	9108
925.494	9184
925.602	9195
925.709	9237
925.816	9036
925.924	9180
926.031	9138
926.138	9051
926.245	9211
926.352	8986
926.459	9203
926.566	9207
926.673	9028
926.779	9005
926.886	8986
926.993	8849
927.099	8823
927.206	8758
927.312	8883
927.419	8918
927.525	8864
927.631	8902
927.737	8750
927.843	8743
927.95	8571
928.056	8621
928.162	8785
928.267	8785
928.373	9378
928.479	8804
928.585	8579
928.69	8682
928.796	8788
928.901	8606
929.007	8530
929.112	8670
929.218	8583
929.323	8549
929.428	8461
929.533	8705
929.638	8454
929.743	8575
929.848	8560
929.953	8598
930.058	8377
930.163	8332
930.267	8313
930.372	8442
930.477	8275
930.581	8621
930.685	8381
930.79	8263
930.894	8313
930.998	8240
931.103	8438
931.207	8016
931.311	8008
931.415	7967
931.519	7750
931.623	7837
