Data from test_V78500241_2982.txt Node
Date: Fri Mar 25 14:54:28 CST 2022
User: usil
Spectrometer: V785-0024
Trigger mode: 0
Integration Time (sec): 4.000000E-1
Scans to average: 1
Nonlinearity correction enabled: false
Boxcar width: 0
Storing dark spectrum: false
XAxis mode: Wavelengths
Number of Pixels in Spectrum: 1024
>>>>>Begin Spectral Data<<<<<
801.071	22154
801.214	21968
801.356	21774
801.499	21656
801.641	21458
801.783	21348
801.926	21488
802.068	21428
802.211	21378
802.353	21279
802.496	21043
802.638	21005
802.78	20819
802.923	20811
803.065	20720
803.208	20724
803.35	20811
803.492	20902
803.635	20952
803.777	20849
803.919	20830
804.061	21081
804.204	20899
804.346	20674
804.488	20701
804.63	20826
804.773	20682
804.915	20708
805.057	20872
805.199	20800
805.341	20674
805.483	20724
805.626	20746
805.768	20682
805.91	20712
806.052	20811
806.194	20651
806.336	20853
806.478	20663
806.62	20682
806.762	20777
806.904	20857
807.046	21043
807.188	21020
807.33	21055
807.472	21070
807.614	20990
807.756	20941
807.898	20826
808.04	20792
808.182	20724
808.324	20914
808.465	20872
808.607	20891
808.749	21199
808.891	21062
809.033	21237
809.174	21112
809.316	21017
809.458	21131
809.6	21028
809.741	21112
809.883	21233
810.025	21313
810.166	21260
810.308	21169
810.45	21173
810.591	21195
810.733	20845
810.875	20883
811.016	20807
811.158	20773
811.299	20918
811.441	20944
811.582	20971
811.724	20750
811.865	20731
812.007	20785
812.148	20781
812.29	20910
812.431	21017
812.573	21081
812.714	21264
812.855	21363
812.997	21526
813.138	21412
813.279	21313
813.421	21294
813.562	21359
813.703	21062
813.845	20971
813.986	20712
814.127	20473
814.268	20454
814.41	20438
814.551	20317
814.692	20461
814.833	20404
814.974	20351
815.115	20328
815.256	20305
815.397	20313
815.539	20275
815.68	20149
815.821	20035
815.962	20202
816.103	20103
816.244	20119
816.385	19902
816.526	19864
816.666	19761
816.807	19639
816.948	19655
817.089	19719
817.23	19597
817.371	19567
817.512	19624
817.653	19468
817.793	19339
817.934	19495
818.075	19556
818.216	19639
818.356	19506
818.497	19320
818.638	19110
818.778	19118
818.919	19160
819.06	19168
819.2	19278
819.341	19434
819.481	19422
819.622	19647
819.762	19727
819.903	19635
820.043	19647
820.184	19445
820.324	19571
820.465	19529
820.605	19403
820.746	19514
820.886	19358
821.026	19460
821.167	19472
821.307	19563
821.447	19460
821.588	19320
821.728	19244
821.868	19050
822.008	18939
822.149	18749
822.289	18871
822.429	18654
822.569	18582
822.709	18593
822.849	18456
822.99	18418
823.13	18350
823.27	18300
823.41	18247
823.55	18224
823.69	18213
823.83	18197
823.97	18125
824.11	18030
824.25	17908
824.389	17992
824.529	18026
824.669	17885
824.809	18136
824.949	18053
825.089	17950
825.228	18003
825.368	17863
825.508	17722
825.648	17714
825.787	17760
825.927	17775
826.067	17699
826.206	17691
826.346	17794
826.485	17779
826.625	17680
826.765	17885
826.904	17726
827.044	17429
827.183	17512
827.323	17387
827.462	17455
827.601	17474
827.741	17364
827.88	17353
828.02	17284
828.159	17425
828.298	17303
828.437	17410
828.577	17330
828.716	17482
828.855	17284
828.994	17143
829.134	17162
829.273	17140
829.412	17151
829.551	17128
829.69	17159
829.829	17242
829.968	17189
830.107	17200
830.246	17353
830.385	17079
830.524	17003
830.663	16946
830.802	16892
830.941	16706
831.08	16774
831.219	16866
831.357	16790
831.496	17064
831.635	16869
831.774	16767
831.913	16660
832.051	16542
832.19	16592
832.329	16542
832.467	16565
832.606	16379
832.744	16428
832.883	16341
833.022	16409
833.16	16531
833.299	16489
833.437	16447
833.576	16455
833.714	16478
833.852	16497
833.991	16531
834.129	16698
834.267	16569
834.406	16440
834.544	16519
834.682	16599
834.821	16489
834.959	16649
835.097	16497
835.235	16603
835.373	16550
835.511	16497
835.65	16379
835.788	16398
835.926	16272
836.064	16226
836.202	16363
836.34	16565
836.478	16554
836.615	16367
836.753	16402
836.891	16451
837.029	16432
837.167	16390
837.305	16402
837.443	16318
837.58	16215
837.718	16356
837.856	16394
837.993	16280
838.131	16344
838.269	16196
838.406	16162
838.544	16051
838.681	16002
838.819	15884
838.956	15823
839.094	15751
839.231	15880
839.369	15854
839.506	16291
839.643	16032
839.781	15831
839.918	15682
840.055	15774
840.193	15831
840.33	15800
840.467	15823
840.604	15835
840.742	16025
840.879	15610
841.016	15614
841.153	15823
841.29	15979
841.427	15667
841.564	15876
841.701	15876
841.838	15785
841.975	15713
842.112	15739
842.249	15580
842.385	15648
842.522	15663
842.659	15610
842.796	15564
842.933	15519
843.069	15519
843.206	15519
843.343	15667
843.479	15644
843.616	15603
843.752	15412
843.889	15310
844.025	15523
844.162	15329
844.298	15633
844.435	15332
844.571	15344
844.708	15428
844.844	15606
844.98	15538
845.117	15435
845.253	15359
845.389	15218
845.525	15313
845.661	15184
845.798	15108
845.934	15214
846.07	15188
846.206	15146
846.342	15245
846.478	15138
846.614	14975
846.75	14937
846.886	14853
847.022	15058
847.158	14975
847.294	14910
847.429	14956
847.565	14925
847.701	15199
847.837	14632
847.972	14640
848.108	14716
848.244	14644
848.379	14617
848.515	14530
848.65	14613
848.786	14663
848.921	14575
849.057	14731
849.192	14682
849.328	14655
849.463	14495
849.598	14488
849.734	14503
849.869	14374
850.004	14339
850.14	14362
850.275	14244
850.41	14240
850.545	14214
850.68	14263
850.815	14351
850.95	14320
851.085	14461
851.22	14377
851.355	14317
851.49	14275
851.625	14290
851.76	14317
851.895	14145
852.03	14187
852.165	14294
852.299	14336
852.434	14473
852.569	14248
852.703	14362
852.838	14301
852.973	14370
853.107	14530
853.242	14339
853.376	14134
853.511	14005
853.645	14168
853.78	14298
853.914	14225
854.048	14100
854.183	14191
854.317	14252
854.451	14324
854.585	14088
854.72	14172
854.854	14195
854.988	14073
855.122	14252
855.256	14020
855.39	14256
855.524	14267
855.658	14149
855.792	14183
855.926	14248
856.06	14172
856.194	14233
856.327	14145
856.461	14126
856.595	14130
856.729	14176
856.862	14267
856.996	14157
857.13	14248
857.263	14313
857.397	14248
857.53	14229
857.664	14210
857.797	14252
857.931	14328
858.064	14183
858.197	14252
858.331	14153
858.464	14206
858.597	14164
858.731	14107
858.864	14096
858.997	14130
859.13	14267
859.263	14180
859.396	14298
859.529	14214
859.662	14134
859.795	14180
859.928	14164
860.061	14259
860.194	14385
860.327	14237
860.46	14191
860.592	14267
860.725	14393
860.858	14252
860.99	14164
861.123	14126
861.256	14134
861.388	14199
861.521	14899
861.653	14050
861.786	14073
861.918	13936
862.05	14103
862.183	14096
862.315	14210
862.447	14248
862.58	14138
862.712	14058
862.844	13970
862.976	14050
863.108	14111
863.24	14400
863.372	13864
863.504	13967
863.636	14020
863.768	13989
863.9	14073
864.032	13860
864.164	13875
864.296	14027
864.428	14145
864.559	14206
864.691	14043
864.823	14020
864.954	13989
865.086	14081
865.217	13928
865.349	13921
865.48	13921
865.612	13944
865.743	14065
865.875	13947
866.006	13963
866.137	13944
866.269	14012
866.4	13944
866.531	13989
866.662	13849
866.793	13795
866.924	13864
867.055	14024
867.186	13932
867.317	13944
867.448	13833
867.579	13871
867.71	13871
867.841	13871
867.972	13967
868.103	13913
868.233	13932
868.364	14024
868.495	14088
868.625	14168
868.756	14229
868.886	14058
869.017	14123
869.147	14317
869.278	14332
869.408	14244
869.539	14149
869.669	14214
869.799	14259
869.929	14298
870.06	14336
870.19	14556
870.32	14507
870.45	14533
870.58	14617
870.71	14716
870.84	14693
870.97	14541
871.1	14587
871.23	14800
871.36	14781
871.489	14720
871.619	14811
871.749	14735
871.879	14785
872.008	14918
872.138	14777
872.267	14762
872.397	14632
872.526	14564
872.656	14655
872.785	14590
872.915	14826
873.044	14880
873.173	14769
873.303	14906
873.432	14857
873.561	14864
873.69	14792
873.819	14861
873.948	14982
874.077	14971
874.206	14834
874.335	14906
874.464	15070
874.593	15154
874.722	14956
874.851	15195
874.979	15245
875.108	15180
875.237	15085
875.365	15020
875.494	15085
875.623	15230
875.751	15024
875.88	15214
876.008	15393
876.136	15313
876.265	15545
876.393	15709
876.521	15739
876.65	15732
876.778	15488
876.906	15496
877.034	15511
877.162	15599
877.29	15519
877.418	15660
877.546	15549
877.674	15610
877.802	15587
877.93	15644
878.058	15526
878.185	15557
878.313	15530
878.441	15523
878.568	15382
878.696	15469
878.824	15618
878.951	15694
879.079	15743
879.206	15899
879.333	15762
879.461	15648
879.588	15720
879.715	15713
879.842	15823
879.97	15705
880.097	15488
880.224	15378
880.351	15408
880.478	15401
880.605	15370
880.732	15317
880.859	15603
880.986	15496
881.112	15428
881.239	15325
881.366	15233
881.493	15116
881.619	15020
881.746	15077
881.872	15116
881.999	15074
882.125	15024
882.252	15074
882.378	15013
882.505	15154
882.631	14982
882.757	14872
882.883	14921
883.01	14937
883.136	14823
883.262	14724
883.388	14670
883.514	14914
883.64	14941
883.766	14925
883.892	14708
884.018	14792
884.143	14872
884.269	14883
884.395	14602
884.52	14625
884.646	14640
884.772	14571
884.897	14503
885.023	14598
885.148	14602
885.274	14857
885.399	14689
885.524	14610
885.65	14735
885.775	14678
885.9	14610
886.025	14655
886.15	14625
886.275	14682
886.4	14571
886.525	14579
886.65	14404
886.775	14541
886.9	14750
887.025	14842
887.149	14617
887.274	14552
887.399	14484
887.523	14370
887.648	14461
887.773	14385
887.897	14450
888.021	14457
888.146	14412
888.27	14552
888.395	14632
888.519	14457
888.643	14518
888.767	14473
888.891	14385
889.015	14301
889.139	14339
889.263	14210
889.387	14412
889.511	14503
889.635	14469
889.759	14248
889.883	14336
890.006	14343
890.13	14415
890.254	14290
890.377	14199
890.501	14096
890.624	14039
890.748	14233
890.871	14008
890.995	13997
891.118	13936
891.241	13986
891.364	14035
891.488	14149
891.611	14024
891.734	13993
891.857	14008
891.98	14092
892.103	14027
892.226	13963
892.349	13970
892.471	13852
892.594	13906
892.717	14054
892.839	13944
892.962	14077
893.085	14084
893.207	14050
893.33	13921
893.452	13993
893.575	14084
893.697	13997
893.819	14153
893.941	14290
894.064	14218
894.186	14027
894.308	13936
894.43	14138
894.552	14214
894.674	14191
894.796	13925
894.918	14058
895.04	14024
895.161	14225
895.283	14081
895.405	14214
895.526	14123
895.648	14119
895.769	14153
895.891	14134
896.012	14199
896.134	14225
896.255	14180
896.376	14138
896.498	14248
896.619	14313
896.74	14187
896.861	14202
896.982	14530
897.103	14632
897.224	14503
897.345	14476
897.466	14419
897.587	14476
897.708	14549
897.828	14522
897.949	14389
898.07	14347
898.19	14423
898.311	14575
898.431	14412
898.552	14549
898.672	14575
898.792	14758
898.913	14590
899.033	14385
899.153	14408
899.273	14385
899.393	14419
899.513	14442
899.633	14374
899.753	14431
899.873	14377
899.993	14415
900.113	14358
900.232	14412
900.352	14484
900.472	14339
900.591	14259
900.711	14259
900.83	14202
900.95	14374
901.069	14278
901.189	14199
901.308	14058
901.427	13986
901.546	13887
901.665	13970
901.784	13917
901.904	13784
902.023	13803
902.141	13662
902.26	13483
902.379	13685
902.498	13483
902.617	13445
902.735	13540
902.854	13457
902.973	13449
903.091	13278
903.21	13240
903.328	13251
903.446	13202
903.565	13038
903.683	13095
903.801	13027
903.919	13095
904.038	13050
904.156	12863
904.274	12939
904.392	12913
904.51	12856
904.627	12856
904.745	12973
904.863	12962
904.981	12616
905.098	12570
905.216	12681
905.334	12593
905.451	12646
905.569	12582
905.686	12578
905.803	12650
905.921	12369
906.038	12448
906.155	12376
906.272	12353
906.389	12330
906.506	12140
906.623	12197
906.74	12175
906.857	12095
906.974	12095
907.091	12285
907.208	12258
907.324	12155
907.441	12087
907.557	11916
907.674	11954
907.79	11885
907.907	11942
908.023	11935
908.139	11939
908.256	11904
908.372	11859
908.488	11748
908.604	11733
908.72	11707
908.836	11703
908.952	11630
909.068	11688
909.184	11794
909.3	11707
909.415	11661
909.531	11680
909.647	11372
909.762	11471
909.878	11551
909.993	11421
910.108	11463
910.224	11410
910.339	11440
910.454	11349
910.57	11345
910.685	11212
910.8	11520
910.915	11467
911.03	11326
911.145	11060
911.259	11102
911.374	11181
911.489	11090
911.604	10957
911.718	10957
911.833	10911
911.947	10828
912.062	10850
912.176	10930
912.291	10904
912.405	10961
912.519	11143
912.633	11086
912.748	10957
912.862	10873
912.976	10850
913.09	10649
913.204	10702
913.318	10702
913.431	10908
913.545	10957
913.659	10919
913.772	10812
913.886	10569
914	10611
914.113	10710
914.226	10809
914.34	10733
914.453	10554
914.566	10729
914.68	10611
914.793	10645
914.906	10436
915.019	10402
915.132	10265
915.245	10459
915.358	10409
915.47	10421
915.583	10424
915.696	10489
915.809	10615
915.921	10626
916.034	10310
916.146	10337
916.259	10303
916.371	10508
916.483	10386
916.595	10363
916.708	10405
916.82	10348
916.932	10314
917.044	10413
917.156	10329
917.268	10253
917.38	10215
917.491	10253
917.603	10291
917.715	10371
917.826	10325
917.938	10303
918.049	10181
918.161	10325
918.272	10371
918.384	10405
918.495	10314
918.606	10162
918.717	10128
918.828	10158
918.939	10143
919.05	9975
919.161	10124
919.272	9983
919.383	9945
919.494	10227
919.604	10333
919.715	10154
919.826	10036
919.936	10207
920.047	10200
920.157	10230
920.267	10344
920.378	10188
920.488	10223
920.598	10375
920.708	10516
920.818	10447
920.928	10333
921.038	10550
921.148	10561
921.258	10265
921.368	10124
921.477	10105
921.587	10071
921.697	9892
921.806	10074
921.916	9964
922.025	9793
922.134	9740
922.244	9740
922.353	9724
922.462	9675
922.571	9591
922.68	9389
922.789	9408
922.898	9466
923.007	9420
923.116	9511
923.224	9519
923.333	9488
923.442	9405
923.55	9317
923.659	9351
923.767	9340
923.876	9321
923.984	9382
924.092	9173
924.201	9393
924.309	9298
924.417	9374
924.525	9287
924.633	9302
924.741	10192
924.849	9165
924.956	9237
925.064	9089
925.172	9039
925.279	9108
925.387	9142
925.494	9112
925.602	9233
925.709	9184
925.816	9127
925.924	9097
926.031	9279
926.138	9180
926.245	9199
926.352	8960
926.459	9173
926.566	9188
926.673	9028
926.779	8933
926.886	9032
926.993	8887
927.099	8773
927.206	8739
927.312	8773
927.419	8849
927.525	8834
927.631	8918
927.737	8766
927.843	8712
927.95	8613
928.056	8758
928.162	8735
928.267	8777
928.373	9401
928.479	8819
928.585	8571
928.69	8708
928.796	8693
928.901	8598
929.007	8560
929.112	8644
929.218	8632
929.323	8522
929.428	8526
929.533	8724
929.638	8499
929.743	8450
929.848	8602
929.953	8594
930.058	8412
930.163	8259
930.267	8313
930.372	8473
930.477	8279
930.581	8541
930.685	8446
930.79	8313
930.894	8324
930.998	8298
931.103	8404
931.207	8088
931.311	7967
931.415	7928
931.519	7727
931.623	7689
