Data from test_V78500241_1894.txt Node
Date: Fri Mar 25 14:46:54 CST 2022
User: usil
Spectrometer: V785-0024
Trigger mode: 0
Integration Time (sec): 4.000000E-1
Scans to average: 1
Nonlinearity correction enabled: false
Boxcar width: 0
Storing dark spectrum: false
XAxis mode: Wavelengths
Number of Pixels in Spectrum: 1024
>>>>>Begin Spectral Data<<<<<
801.071	22025
801.214	21956
801.356	21876
801.499	21557
801.641	21576
801.783	21420
801.926	21534
802.068	21466
802.211	21344
802.353	21157
802.496	20998
802.638	20994
802.78	21013
802.923	20952
803.065	20727
803.208	20663
803.35	20746
803.492	20872
803.635	20975
803.777	20762
803.919	20948
804.061	21051
804.204	20921
804.346	20705
804.488	20632
804.63	20765
804.773	20625
804.915	20712
805.057	20853
805.199	20701
805.341	20849
805.483	20800
805.626	20716
805.768	20606
805.91	20670
806.052	20754
806.194	20636
806.336	20876
806.478	20674
806.62	20727
806.762	20762
806.904	20864
807.046	21127
807.188	21043
807.33	20944
807.472	21100
807.614	20979
807.756	21013
807.898	20796
808.04	20750
808.182	20754
808.324	20857
808.465	20853
808.607	20960
808.749	21081
808.891	21203
809.033	21367
809.174	21108
809.316	21085
809.458	21051
809.6	20990
809.741	21131
809.883	21157
810.025	21272
810.166	21287
810.308	21211
810.45	21211
810.591	21119
810.733	20952
810.875	20941
811.016	20785
811.158	20762
811.299	20891
811.441	20895
811.582	20956
811.724	20834
811.865	20834
812.007	20880
812.148	20849
812.29	21013
812.431	21005
812.573	21252
812.714	21165
812.855	21332
812.997	21557
813.138	21504
813.279	21424
813.421	21382
813.562	21294
813.703	21081
813.845	21028
813.986	20720
814.127	20495
814.268	20484
814.41	20480
814.551	20423
814.692	20533
814.833	20377
814.974	20423
815.115	20374
815.256	20183
815.397	20267
815.539	20305
815.68	20142
815.821	20073
815.962	20244
816.103	20145
816.244	19970
816.385	19906
816.526	19803
816.666	19689
816.807	19753
816.948	19689
817.089	19605
817.23	19601
817.371	19514
817.512	19571
817.653	19502
817.793	19407
817.934	19559
818.075	19533
818.216	19483
818.356	19575
818.497	19407
818.638	19232
818.778	19198
818.919	19213
819.06	19331
819.2	19304
819.341	19419
819.481	19373
819.622	19540
819.762	19753
819.903	19791
820.043	19537
820.184	19506
820.324	19628
820.465	19715
820.605	19521
820.746	19518
820.886	19312
821.026	19556
821.167	19480
821.307	19483
821.447	19506
821.588	19415
821.728	19282
821.868	19164
822.008	18928
822.149	18871
822.289	18897
822.429	18646
822.569	18604
822.709	18646
822.849	18486
822.99	18448
823.13	18486
823.27	18258
823.41	18235
823.55	18220
823.69	18330
823.83	18273
823.97	18197
824.11	18003
824.25	17984
824.389	18045
824.529	18106
824.669	18087
824.809	18117
824.949	18121
825.089	18213
825.228	18072
825.368	17733
825.508	17748
825.648	17885
825.787	17859
825.927	17889
826.067	17767
826.206	17798
826.346	17794
826.485	17832
826.625	17745
826.765	17912
826.904	17836
827.044	17589
827.183	17509
827.323	17406
827.462	17509
827.601	17543
827.741	17486
827.88	17482
828.02	17444
828.159	17463
828.298	17471
828.437	17493
828.577	17429
828.716	17680
828.855	17493
828.994	17246
829.134	17292
829.273	17143
829.412	17162
829.551	17094
829.69	17334
829.829	17200
829.968	17383
830.107	17280
830.246	17288
830.385	17181
830.524	17128
830.663	17117
830.802	17033
830.941	16915
831.08	16820
831.219	16881
831.357	17025
831.496	17166
831.635	16824
831.774	16736
831.913	16736
832.051	16637
832.19	16702
832.329	16702
832.467	16717
832.606	16523
832.744	16462
832.883	16660
833.022	16474
833.16	16664
833.299	16630
833.437	16554
833.576	16561
833.714	16649
833.852	16641
833.991	16558
834.129	16584
834.267	16615
834.406	16630
834.544	16672
834.682	16687
834.821	16588
834.959	16854
835.097	16554
835.235	16656
835.373	16569
835.511	16656
835.65	16459
835.788	16489
835.926	16409
836.064	16276
836.202	16367
836.34	16523
836.478	16542
836.615	16440
836.753	16527
836.891	16615
837.029	16672
837.167	16512
837.305	16527
837.443	16466
837.58	16421
837.718	16390
837.856	16447
837.993	16432
838.131	16474
838.269	16333
838.406	16424
838.544	16276
838.681	16090
838.819	16074
838.956	15983
839.094	15880
839.231	15987
839.369	15968
839.506	16375
839.643	16150
839.781	16040
839.918	16040
840.055	16013
840.193	15975
840.33	15987
840.467	15998
840.604	16002
840.742	16188
840.879	15800
841.016	15846
841.153	15884
841.29	16093
841.427	15983
841.564	15987
841.701	15956
841.838	15865
841.975	15838
842.112	15964
842.249	15789
842.385	15751
842.522	15888
842.659	15793
842.796	15694
842.933	15633
843.069	15751
843.206	15633
843.343	15785
843.479	15717
843.616	15743
843.752	15515
843.889	15572
844.025	15652
844.162	15466
844.298	15781
844.435	15610
844.571	15496
844.708	15507
844.844	15644
844.98	15648
845.117	15739
845.253	15542
845.389	15542
845.525	15302
845.661	15431
845.798	15370
845.934	15332
846.07	15313
846.206	15378
846.342	15515
846.478	15298
846.614	15165
846.75	15081
846.886	15150
847.022	15199
847.158	15070
847.294	15108
847.429	15226
847.565	15089
847.701	15275
847.837	14921
847.972	14735
848.108	14933
848.244	14998
848.379	14792
848.515	14705
848.65	14682
848.786	14674
848.921	14712
849.057	14746
849.192	14792
849.328	14758
849.463	14804
849.598	14735
849.734	14552
849.869	14606
850.004	14473
850.14	14613
850.275	14522
850.41	14446
850.545	14389
850.68	14461
850.815	14522
850.95	14495
851.085	14598
851.22	14617
851.355	14476
851.49	14404
851.625	14469
851.76	14438
851.895	14499
852.03	14309
852.165	14404
852.299	14545
852.434	14602
852.569	14549
852.703	14454
852.838	14564
852.973	14636
853.107	14594
853.242	14423
853.376	14332
853.511	14248
853.645	14252
853.78	14503
853.914	14347
854.048	14305
854.183	14385
854.317	14290
854.451	14552
854.585	14313
854.72	14294
854.854	14366
854.988	14229
855.122	14256
855.256	14161
855.39	14347
855.524	14351
855.658	14377
855.792	14298
855.926	14351
856.06	14556
856.194	14431
856.327	14328
856.461	14275
856.595	14317
856.729	14267
856.862	14408
856.996	14427
857.13	14450
857.263	14469
857.397	14484
857.53	14320
857.664	14389
857.797	14442
857.931	14434
858.064	14396
858.197	14549
858.331	14290
858.464	14385
858.597	14237
858.731	14313
858.864	14362
858.997	14389
859.13	14305
859.263	14355
859.396	14495
859.529	14290
859.662	14396
859.795	14309
859.928	14328
860.061	14495
860.194	14400
860.327	14419
860.46	14328
860.592	14461
860.725	14450
860.858	14419
860.99	14339
861.123	14290
861.256	14305
861.388	14263
861.521	14990
861.653	14252
861.786	14145
861.918	14240
862.05	14214
862.183	14259
862.315	14240
862.447	14431
862.58	14278
862.712	14145
862.844	14088
862.976	14111
863.108	14149
863.24	14556
863.372	14035
863.504	14039
863.636	14180
863.768	14199
863.9	14077
864.032	14024
864.164	14199
864.296	14199
864.428	14233
864.559	14237
864.691	14240
864.823	14153
864.954	14142
865.086	14191
865.217	14176
865.349	14005
865.48	14199
865.612	14115
865.743	14282
865.875	14107
866.006	14039
866.137	14088
866.269	14126
866.4	14088
866.531	14065
866.662	13951
866.793	14103
866.924	14130
867.055	14126
867.186	14058
867.317	14111
867.448	14050
867.579	14046
867.71	14062
867.841	14039
867.972	14058
868.103	14123
868.233	14172
868.364	14050
868.495	14149
868.625	14419
868.756	14492
868.886	14168
869.017	14309
869.147	14492
869.278	14469
869.408	14332
869.539	14370
869.669	14457
869.799	14393
869.929	14404
870.06	14598
870.19	14705
870.32	14648
870.45	14705
870.58	14720
870.71	14876
870.84	14762
870.97	14800
871.1	14773
871.23	14857
871.36	14902
871.489	14834
871.619	14952
871.749	15039
871.879	14990
872.008	14994
872.138	15005
872.267	14933
872.397	14826
872.526	14788
872.656	14838
872.785	14804
872.915	15039
873.044	15085
873.173	14891
873.303	15028
873.432	15051
873.561	15036
873.69	15097
873.819	15074
873.948	15047
874.077	15005
874.206	14929
874.335	14963
874.464	15058
874.593	15321
874.722	15233
874.851	15279
874.979	15294
875.108	15317
875.237	15279
875.365	15264
875.494	15287
875.623	15416
875.751	15329
875.88	15420
876.008	15466
876.136	15553
876.265	15713
876.393	15869
876.521	15831
876.65	15857
876.778	15698
876.906	15682
877.034	15698
877.162	15793
877.29	15584
877.418	15682
877.546	15759
877.674	15736
877.802	15682
877.93	15804
878.058	15629
878.185	15747
878.313	15743
878.441	15675
878.568	15606
878.696	15587
878.824	15785
878.951	15907
879.079	15918
879.206	15972
879.333	15842
879.461	15618
879.588	15892
879.715	15918
879.842	16017
879.97	15861
880.097	15637
880.224	15568
880.351	15614
880.478	15625
880.605	15641
880.732	15542
880.859	15884
880.986	15652
881.112	15656
881.239	15401
881.366	15367
881.493	15325
881.619	15222
881.746	15233
881.872	15218
881.999	15195
882.125	15264
882.252	15351
882.378	15355
882.505	15298
882.631	15226
882.757	15051
882.883	15100
883.01	15047
883.136	15024
883.262	14941
883.388	14883
883.514	15043
883.64	15127
883.766	14967
883.892	14887
884.018	14925
884.143	15043
884.269	15127
884.395	14849
884.52	14762
884.646	14724
884.772	14804
884.897	14579
885.023	14731
885.148	14845
885.274	14887
885.399	14838
885.524	14705
885.65	14804
885.775	14804
885.9	14823
886.025	14830
886.15	14830
886.275	14678
886.4	14667
886.525	14754
886.65	14754
886.775	14568
886.9	14872
887.025	14990
887.149	14773
887.274	14579
887.399	14537
887.523	14545
887.648	14568
887.773	14552
887.897	14667
888.021	14579
888.146	14560
888.27	14731
888.395	14746
888.519	14602
888.643	14644
888.767	14739
888.891	14549
889.015	14488
889.139	14442
889.263	14377
889.387	14598
889.511	14606
889.635	14454
889.759	14419
889.883	14412
890.006	14434
890.13	14632
890.254	14374
890.377	14309
890.501	14275
890.624	14248
890.748	14278
890.871	14218
890.995	14039
891.118	14054
891.241	14244
891.364	14100
891.488	14381
891.611	14240
891.734	14161
891.857	14252
891.98	14134
892.103	14214
892.226	14138
892.349	14233
892.471	14012
892.594	14149
892.717	14084
892.839	14107
892.962	14161
893.085	14199
893.207	14271
893.33	14062
893.452	14123
893.575	14180
893.697	14126
893.819	14358
893.941	14400
894.064	14358
894.186	14149
894.308	14161
894.43	14347
894.552	14256
894.674	14263
894.796	14084
894.918	14088
895.04	14172
895.161	14252
895.283	14278
895.405	14168
895.526	14248
895.648	14115
895.769	14305
895.891	14275
896.012	14366
896.134	14358
896.255	14347
896.376	14233
896.498	14305
896.619	14343
896.74	14366
896.861	14374
896.982	14613
897.103	14758
897.224	14708
897.345	14530
897.466	14415
897.587	14625
897.708	14640
897.828	14594
897.949	14484
898.07	14537
898.19	14480
898.311	14823
898.431	14598
898.552	14636
898.672	14769
898.792	14807
898.913	14716
899.033	14552
899.153	14583
899.273	14377
899.393	14374
899.513	14571
899.633	14469
899.753	14442
899.873	14503
899.993	14438
900.113	14484
900.232	14606
900.352	14473
900.472	14404
900.591	14366
900.711	14389
900.83	14366
900.95	14450
901.069	14434
901.189	14298
901.308	14183
901.427	13940
901.546	14027
901.665	14138
901.784	14161
901.904	13986
902.023	13921
902.141	13681
902.26	13628
902.379	13632
902.498	13548
902.617	13575
902.735	13628
902.854	13601
902.973	13506
903.091	13388
903.21	13282
903.328	13365
903.446	13236
903.565	13171
903.683	13228
903.801	13213
903.919	13171
904.038	13141
904.156	12985
904.274	13129
904.392	13034
904.51	12993
904.627	13031
904.745	13019
904.863	13031
904.981	12859
905.098	12715
905.216	12669
905.334	12753
905.451	12665
905.569	12669
905.686	12654
905.803	12738
905.921	12589
906.038	12623
906.155	12475
906.272	12498
906.389	12509
906.506	12281
906.623	12304
906.74	12372
906.857	12205
906.974	12232
907.091	12323
907.208	12429
907.324	12304
907.441	12216
907.557	12057
907.674	12117
907.79	11927
907.907	12057
908.023	12110
908.139	12030
908.256	11942
908.372	11973
908.488	11961
908.604	11726
908.72	11745
908.836	11786
908.952	11866
909.068	11729
909.184	11912
909.3	11779
909.415	11851
909.531	11714
909.647	11665
909.762	11558
909.878	11543
909.993	11615
910.108	11573
910.224	11558
910.339	11577
910.454	11501
910.57	11436
910.685	11387
910.8	11570
910.915	11596
911.03	11486
911.145	11246
911.259	11299
911.374	11239
911.489	11216
911.604	11185
911.718	10995
911.833	10961
911.947	10877
912.062	10858
912.176	11105
912.291	11022
912.405	11010
912.519	11136
912.633	11284
912.748	11162
912.862	11064
912.976	10957
913.09	10831
913.204	10923
913.318	10942
913.431	10968
913.545	10934
913.659	11052
913.772	10911
913.886	10828
914	10729
914.113	10858
914.226	10896
914.34	10820
914.453	10782
914.566	10873
914.68	10771
914.793	10771
914.906	10558
915.019	10569
915.132	10440
915.245	10455
915.358	10577
915.47	10538
915.583	10569
915.696	10527
915.809	10664
915.921	10729
916.034	10603
916.146	10447
916.259	10508
916.371	10615
916.483	10546
916.595	10451
916.708	10500
916.82	10455
916.932	10379
917.044	10500
917.156	10508
917.268	10322
917.38	10329
917.491	10367
917.603	10348
917.715	10398
917.826	10424
917.938	10417
918.049	10337
918.161	10348
918.272	10451
918.384	10440
918.495	10352
918.606	10200
918.717	10200
918.828	10318
918.939	10227
919.05	10200
919.161	10211
919.272	9975
919.383	10116
919.494	10272
919.604	10478
919.715	10249
919.826	10215
919.936	10227
920.047	10371
920.157	10276
920.267	10432
920.378	10295
920.488	10227
920.598	10474
920.708	10615
920.818	10398
920.928	10436
921.038	10596
921.148	10500
921.258	10249
921.368	10188
921.477	10112
921.587	10055
921.697	10051
921.806	10086
921.916	10082
922.025	9816
922.134	9892
922.244	9762
922.353	9850
922.462	9663
922.571	9644
922.68	9549
922.789	9450
922.898	9523
923.007	9523
923.116	9530
923.224	9584
923.333	9496
923.442	9348
923.55	9325
923.659	9420
923.767	9500
923.876	9355
923.984	9420
924.092	9336
924.201	9321
924.309	9401
924.417	9370
924.525	9355
924.633	9374
924.741	10242
924.849	9135
924.956	9291
925.064	9119
925.172	9085
925.279	9097
925.387	9176
925.494	9184
925.602	9302
925.709	9195
925.816	9150
925.924	9192
926.031	9222
926.138	9154
926.245	9176
926.352	9089
926.459	9207
926.566	9176
926.673	9036
926.779	9055
926.886	9009
926.993	8876
927.099	8868
927.206	8819
927.312	8830
927.419	8918
927.525	8925
927.631	8910
927.737	8781
927.843	8735
927.95	8724
928.056	8720
928.162	8727
928.267	8750
928.373	9329
928.479	8861
928.585	8617
928.69	8682
928.796	8766
928.901	8594
929.007	8499
929.112	8686
929.218	8663
929.323	8571
929.428	8522
929.533	8689
929.638	8488
929.743	8530
929.848	8625
929.953	8564
930.058	8461
930.163	8366
930.267	8328
930.372	8454
930.477	8336
930.581	8526
930.685	8492
930.79	8275
930.894	8313
930.998	8286
931.103	8423
931.207	8096
931.311	8005
931.415	7978
931.519	7845
931.623	7750
