Data from test_V78500241_930.txt Node
Date: Fri Mar 25 14:40:11 CST 2022
User: usil
Spectrometer: V785-0024
Trigger mode: 0
Integration Time (sec): 4.000000E-1
Scans to average: 1
Nonlinearity correction enabled: false
Boxcar width: 0
Storing dark spectrum: false
XAxis mode: Wavelengths
Number of Pixels in Spectrum: 1024
>>>>>Begin Spectral Data<<<<<
801.071	24498
801.214	24593
801.356	24327
801.499	24079
801.641	24087
801.783	23958
801.926	23973
802.068	23870
802.211	23695
802.353	23733
802.496	23501
802.638	23425
802.78	23429
802.923	23486
803.065	23433
803.208	23193
803.35	23311
803.492	23360
803.635	23486
803.777	23414
803.919	23395
804.061	23661
804.204	23402
804.346	23170
804.488	23212
804.63	23223
804.773	23197
804.915	23166
805.057	23368
805.199	23223
805.341	23406
805.483	23642
805.626	23493
805.768	23200
805.91	23254
806.052	23341
806.194	23197
806.336	23528
806.478	23493
806.62	23417
806.762	23554
806.904	23786
807.046	23992
807.188	24041
807.33	24015
807.472	24243
807.614	24205
807.756	24391
807.898	24532
808.04	24525
808.182	24814
808.324	25027
808.465	25381
808.607	26252
808.749	26556
808.891	26857
809.033	26899
809.174	26667
809.316	26050
809.458	25772
809.6	25156
809.741	24909
809.883	24722
810.025	24658
810.166	24574
810.308	24403
810.45	24365
810.591	24163
810.733	23824
810.875	23980
811.016	23695
811.158	23695
811.299	23809
811.441	23809
811.582	23821
811.724	23589
811.865	23581
812.007	23657
812.148	23577
812.29	23566
812.431	23710
812.573	23923
812.714	23866
812.855	24098
812.997	24342
813.138	24273
813.279	24300
813.421	24125
813.562	23954
813.703	23821
813.845	23687
813.986	23421
814.127	23181
814.268	23231
814.41	22987
814.551	23014
814.692	23086
814.833	22965
814.974	23014
815.115	23067
815.256	22847
815.397	22873
815.539	23006
815.68	22702
815.821	22774
815.962	22793
816.103	22778
816.244	22630
816.385	22554
816.526	22561
816.666	22394
816.807	22253
816.948	22310
817.089	22333
817.23	22299
817.371	22234
817.512	22242
817.653	22238
817.793	22147
817.934	22211
818.075	22257
818.216	22097
818.356	22192
818.497	21991
818.638	21808
818.778	21831
818.919	21934
819.06	21835
819.2	21838
819.341	22040
819.481	22029
819.622	22150
819.762	22318
819.903	22402
820.043	22223
820.184	22029
820.324	22215
820.465	22249
820.605	22120
820.746	22173
820.886	21888
821.026	22059
821.167	22040
821.307	22188
821.447	21998
821.588	21949
821.728	21644
821.868	21663
822.008	21549
822.149	21492
822.289	21500
822.429	21195
822.569	21165
822.709	21294
822.849	20967
822.99	20933
823.13	20880
823.27	20853
823.41	20845
823.55	20705
823.69	20819
823.83	20823
823.97	20708
824.11	20488
824.25	20469
824.389	20583
824.529	20571
824.669	20594
824.809	20499
824.949	20663
825.089	20606
825.228	20473
825.368	20252
825.508	20355
825.648	20400
825.787	20320
825.927	20358
826.067	20355
826.206	20218
826.346	20252
826.485	20419
826.625	20309
826.765	20396
826.904	20347
827.044	20035
827.183	20100
827.323	19989
827.462	20100
827.601	19951
827.741	20005
827.88	19875
828.02	19959
828.159	19932
828.298	19997
828.437	20005
828.577	19917
828.716	20100
828.855	20012
828.994	19830
829.134	19719
829.273	19807
829.412	19685
829.551	19575
829.69	19677
829.829	19670
829.968	19780
830.107	19757
830.246	19761
830.385	19499
830.524	19712
830.663	19556
830.802	19324
830.941	19274
831.08	19324
831.219	19384
831.357	19289
831.496	19460
831.635	19255
831.774	19282
831.913	19160
832.051	19061
832.19	19099
832.329	19168
832.467	19042
832.606	18954
832.744	19023
832.883	18962
833.022	18985
833.16	19114
833.299	19091
833.437	19034
833.576	19129
833.714	19118
833.852	19225
833.991	19209
834.129	19308
834.267	19156
834.406	19069
834.544	19217
834.682	19168
834.821	19091
834.959	19213
835.097	19114
835.235	19126
835.373	19027
835.511	19042
835.65	18916
835.788	18939
835.926	18779
836.064	18604
836.202	18703
836.34	18859
836.478	18977
836.615	18878
836.753	18871
836.891	18882
837.029	18958
837.167	18753
837.305	18741
837.443	18825
837.58	18688
837.718	18753
837.856	18783
837.993	18711
838.131	18658
838.269	18616
838.406	18677
838.544	18654
838.681	18239
838.819	18342
838.956	18178
839.094	18194
839.231	18357
839.369	18243
839.506	18688
839.643	18429
839.781	18220
839.918	18068
840.055	18224
840.193	18144
840.33	18205
840.467	18178
840.604	18243
840.742	18467
840.879	18003
841.016	18011
841.153	18003
841.29	18285
841.427	18068
841.564	18117
841.701	18098
841.838	18041
841.975	18034
842.112	18091
842.249	17973
842.385	17950
842.522	18003
842.659	17954
842.796	17954
842.933	17863
843.069	17935
843.206	17847
843.343	18079
843.479	17840
843.616	17878
843.752	17714
843.889	17672
844.025	17794
844.162	17745
844.298	17741
844.435	17729
844.571	17752
844.708	17855
844.844	17984
844.98	17999
845.117	18098
845.253	17999
845.389	18232
845.525	18642
845.661	19289
845.798	20024
845.934	20883
846.07	21013
846.206	21055
846.342	20549
846.478	19635
846.614	18616
846.75	17999
846.886	17764
847.022	17665
847.158	17414
847.294	17356
847.429	17364
847.565	17208
847.701	17455
847.837	16904
847.972	17025
848.108	17067
848.244	17037
848.379	16828
848.515	16801
848.65	16778
848.786	16748
848.921	16862
849.057	16904
849.192	16919
849.328	16790
849.463	16831
849.598	16706
849.734	16653
849.869	16599
850.004	16569
850.14	16554
850.275	16474
850.41	16413
850.545	16554
850.68	16447
850.815	16550
850.95	16611
851.085	16729
851.22	16455
851.355	16580
851.49	16443
851.625	16436
851.76	16516
851.895	16379
852.03	16348
852.165	16531
852.299	16542
852.434	16565
852.569	16512
852.703	16550
852.838	16569
852.973	16653
853.107	16668
853.242	16519
853.376	16386
853.511	16322
853.645	16428
853.78	16527
853.914	16402
854.048	16409
854.183	16421
854.317	16386
854.451	16554
854.585	16371
854.72	16382
854.854	16367
854.988	16284
855.122	16405
855.256	16200
855.39	16268
855.524	16550
855.658	16462
855.792	16337
855.926	16440
856.06	16481
856.194	16542
856.327	16329
856.461	16367
856.595	16265
856.729	16303
856.862	16565
856.996	16360
857.13	16436
857.263	16474
857.397	16447
857.53	16310
857.664	16443
857.797	16489
857.931	16478
858.064	16394
858.197	16443
858.331	16333
858.464	16265
858.597	16200
858.731	16333
858.864	16329
858.997	16246
859.13	16421
859.263	16360
859.396	16367
859.529	16303
859.662	16276
859.795	16280
859.928	16360
860.061	16497
860.194	16489
860.327	16371
860.46	16325
860.592	16367
860.725	16432
860.858	16299
860.99	16333
861.123	16223
861.256	16177
861.388	16322
861.521	16938
861.653	16109
861.786	16124
861.918	16128
862.05	16257
862.183	16268
862.315	16249
862.447	16360
862.58	16299
862.712	16105
862.844	16010
862.976	16143
863.108	16158
863.24	16580
863.372	15975
863.504	16177
863.636	16025
863.768	16177
863.9	16147
864.032	15956
864.164	15994
864.296	16040
864.428	16207
864.559	16090
864.691	16185
864.823	16067
864.954	16036
865.086	16048
865.217	15994
865.349	15918
865.48	15918
865.612	16055
865.743	16120
865.875	16021
866.006	16048
866.137	15975
866.269	16013
866.4	15956
866.531	15998
866.662	15922
866.793	15918
866.924	15975
867.055	16002
867.186	15994
867.317	15972
867.448	15873
867.579	15922
867.71	15918
867.841	15987
867.972	15979
868.103	16044
868.233	16002
868.364	15945
868.495	16128
868.625	16261
868.756	16291
868.886	16265
869.017	16101
869.147	16333
869.278	16322
869.408	16207
869.539	16265
869.669	16375
869.799	16314
869.929	16424
870.06	16337
870.19	16615
870.32	16375
870.45	16550
870.58	16675
870.71	16679
870.84	16702
870.97	16649
871.1	16626
871.23	16763
871.36	16877
871.489	16843
871.619	16820
871.749	16793
871.879	16801
872.008	16942
872.138	16892
872.267	16790
872.397	16679
872.526	16637
872.656	16550
872.785	16649
872.915	16824
873.044	16828
873.173	16927
873.303	16965
873.432	16991
873.561	16968
873.69	16885
873.819	16877
873.948	16987
874.077	16904
874.206	16809
874.335	16957
874.464	17151
874.593	17216
874.722	17147
874.851	17284
874.979	17292
875.108	17292
875.237	17181
875.365	17052
875.494	17121
875.623	17360
875.751	17242
875.88	17208
876.008	17349
876.136	17467
876.265	17600
876.393	17847
876.521	17805
876.65	17691
876.778	17646
876.906	17551
877.034	17585
877.162	17634
877.29	17592
877.418	17741
877.546	17726
877.674	17809
877.802	17695
877.93	17779
878.058	17733
878.185	17737
878.313	17847
878.441	17927
878.568	17878
878.696	18019
878.824	18095
878.951	18384
879.079	18654
879.206	19190
879.333	19175
879.461	19499
879.588	19575
879.715	19632
879.842	19529
879.97	19069
880.097	18658
880.224	18410
880.351	18243
880.478	18201
880.605	17942
880.732	17999
880.859	18213
880.986	17893
881.112	18106
881.239	17733
881.366	17680
881.493	17619
881.619	17585
881.746	17509
881.872	17543
881.999	17600
882.125	17551
882.252	17615
882.378	17627
882.505	17779
882.631	17467
882.757	17376
882.883	17425
883.01	17383
883.136	17299
883.262	17269
883.388	17269
883.514	17311
883.64	17425
883.766	17227
883.892	17155
884.018	17136
884.143	17395
884.269	17448
884.395	17246
884.52	17022
884.646	16968
884.772	17010
884.897	16987
885.023	17124
885.148	17227
885.274	17261
885.399	17109
885.524	17064
885.65	17045
885.775	17064
885.9	16919
886.025	17067
886.15	17067
886.275	16915
886.4	16774
886.525	16919
886.65	16721
886.775	16820
886.9	16995
887.025	17105
887.149	16862
887.274	16653
887.399	16588
887.523	16546
887.648	16527
887.773	16615
887.897	16611
888.021	16744
888.146	16618
888.27	16668
888.395	16713
888.519	16626
888.643	16603
888.767	16618
888.891	16409
889.015	16443
889.139	16390
889.263	16341
889.387	16527
889.511	16561
889.635	16417
889.759	16333
889.883	16390
890.006	16333
890.13	16478
890.254	16226
890.377	16219
890.501	16162
890.624	16139
890.748	16185
890.871	16067
890.995	15934
891.118	15846
891.241	16040
891.364	16010
891.488	16128
891.611	16029
891.734	16067
891.857	15926
891.98	15998
892.103	15953
892.226	15918
892.349	15785
892.471	15808
892.594	15819
892.717	16017
892.839	15812
892.962	15854
893.085	15945
893.207	15888
893.33	15736
893.452	15732
893.575	15888
893.697	15861
893.819	16063
893.941	15979
894.064	15960
894.186	15869
894.308	15808
894.43	15949
894.552	16128
894.674	16025
894.796	15850
894.918	15907
895.04	15926
895.161	15998
895.283	15930
895.405	15857
895.526	15979
895.648	15937
895.769	16017
895.891	16074
896.012	15975
896.134	16048
896.255	15945
896.376	15987
896.498	15994
896.619	16093
896.74	16055
896.861	15975
896.982	16356
897.103	16466
897.224	16249
897.345	16196
897.466	16200
897.587	16219
897.708	16371
897.828	16314
897.949	16261
898.07	16082
898.19	16177
898.311	16207
898.431	16181
898.552	16291
898.672	16390
898.792	16398
898.913	16329
899.033	16238
899.153	16162
899.273	16093
899.393	16040
899.513	16230
899.633	16150
899.753	16188
899.873	16013
899.993	16185
900.113	16169
900.232	16185
900.352	16154
900.472	16090
900.591	16044
900.711	15968
900.83	15873
900.95	15991
901.069	16078
901.189	15903
901.308	15835
901.427	15633
901.546	15637
901.665	15625
901.784	15644
901.904	15477
902.023	15462
902.141	15161
902.26	15218
902.379	15272
902.498	15150
902.617	15081
902.735	15173
902.854	15104
902.973	15077
903.091	14864
903.21	14883
903.328	14861
903.446	14777
903.565	14655
903.683	14701
903.801	14571
903.919	14629
904.038	14613
904.156	14434
904.274	14602
904.392	14415
904.51	14450
904.627	14507
904.745	14514
904.863	14408
904.981	14259
905.098	14077
905.216	14142
905.334	14183
905.451	14267
905.569	14103
905.686	14161
905.803	14069
905.921	13917
906.038	13993
906.155	13978
906.272	13750
906.389	13776
906.506	13746
906.623	13704
906.74	13700
906.857	13544
906.974	13567
907.091	13750
907.208	13788
907.324	13822
907.441	13597
907.557	13407
907.674	13419
907.79	13297
907.907	13438
908.023	13434
908.139	13422
908.256	13388
908.372	13304
908.488	13278
908.604	13152
908.72	13141
908.836	13114
908.952	13145
909.068	13187
909.184	13179
909.3	13110
909.415	13194
909.531	13091
909.647	12932
909.762	12932
909.878	12829
909.993	12814
910.108	12882
910.224	12776
910.339	12840
910.454	12882
910.57	12726
910.685	12684
910.8	12894
910.915	12909
911.03	12798
911.145	12540
911.259	12551
911.374	12620
911.489	12403
911.604	12498
911.718	12380
911.833	12334
911.947	12171
912.062	12110
912.176	12239
912.291	12281
912.405	12266
912.519	12570
912.633	12426
912.748	12330
912.862	12235
912.976	12155
913.09	12068
913.204	12102
913.318	12163
913.431	12319
913.545	12121
913.659	12201
913.772	12015
913.886	12038
914	12011
914.113	12133
914.226	12076
914.34	12091
914.453	11920
914.566	12079
914.68	11942
914.793	11923
914.906	11836
915.019	11786
915.132	11615
915.245	11684
915.358	11764
915.47	11691
915.583	11737
915.696	11729
915.809	11828
915.921	11866
916.034	11611
916.146	11600
916.259	11657
916.371	11752
916.483	11718
916.595	11554
916.708	11604
916.82	11638
916.932	11600
917.044	11577
917.156	11566
917.268	11467
917.38	11581
917.491	11524
917.603	11493
917.715	11570
917.826	11585
917.938	11440
918.049	11299
918.161	11490
918.272	11589
918.384	11554
918.495	11417
918.606	11330
918.717	11235
918.828	11444
918.939	11349
919.05	11170
919.161	11387
919.272	11102
919.383	11235
919.494	11326
919.604	11528
919.715	11425
919.826	11349
919.936	11318
920.047	11353
920.157	11334
920.267	11512
920.378	11356
920.488	11261
920.598	11512
920.708	11619
920.818	11467
920.928	11596
921.038	11623
921.148	11547
921.258	11376
921.368	11235
921.477	11117
921.587	11155
921.697	10972
921.806	11124
921.916	11010
922.025	10824
922.134	10797
922.244	10717
922.353	10782
922.462	10706
922.571	10664
922.68	10561
922.789	10489
922.898	10527
923.007	10451
923.116	10634
923.224	10485
923.333	10531
923.442	10337
923.55	10344
923.659	10371
923.767	10363
923.876	10360
923.984	10447
924.092	10219
924.201	10341
924.309	10265
924.417	10284
924.525	10329
924.633	10375
924.741	11090
924.849	10082
924.956	10249
925.064	10109
925.172	10051
925.279	10090
925.387	10143
925.494	10082
925.602	10265
925.709	10177
925.816	10032
925.924	10067
926.031	10223
926.138	10078
926.245	10124
926.352	10013
926.459	10204
926.566	10234
926.673	10036
926.779	9956
926.886	9930
926.993	9755
927.099	9785
927.206	9781
927.312	9728
927.419	9850
927.525	9766
927.631	9842
927.737	9736
927.843	9644
927.95	9553
928.056	9572
928.162	9660
928.267	9690
928.373	10207
928.479	9774
928.585	9561
928.69	9652
928.796	9663
928.901	9545
929.007	9473
929.112	9603
929.218	9458
929.323	9458
929.428	9466
929.533	9641
929.638	9477
929.743	9450
929.848	9481
929.953	9424
930.058	9389
930.163	9108
930.267	9199
930.372	9317
930.477	9138
930.581	9405
930.685	9260
930.79	9154
930.894	9131
930.998	9093
931.103	9298
931.207	8887
931.311	8883
931.415	8788
931.519	8530
931.623	8545
