Data from test_V78500241_467.txt Node
Date: Fri Mar 25 14:36:58 CST 2022
User: usil
Spectrometer: V785-0024
Trigger mode: 0
Integration Time (sec): 4.000000E-1
Scans to average: 1
Nonlinearity correction enabled: false
Boxcar width: 0
Storing dark spectrum: false
XAxis mode: Wavelengths
Number of Pixels in Spectrum: 1024
>>>>>Begin Spectral Data<<<<<
801.071	26556
801.214	26457
801.356	26130
801.499	26005
801.641	25959
801.783	25944
801.926	25978
802.068	26031
802.211	25799
802.353	25746
802.496	25670
802.638	25544
802.78	25635
802.923	25384
803.065	25259
803.208	25499
803.35	25384
803.492	25533
803.635	25548
803.777	25445
803.919	25643
804.061	25849
804.204	25609
804.346	25381
804.488	25384
804.63	25548
804.773	25384
804.915	25377
805.057	25647
805.199	25499
805.341	25384
805.483	25635
805.626	25407
805.768	25445
805.91	25499
806.052	25578
806.194	25438
806.336	25632
806.478	25430
806.62	25468
806.762	25704
806.904	25708
807.046	26008
807.188	25845
807.33	25871
807.472	25966
807.614	25841
807.756	25746
807.898	25700
808.04	25647
808.182	25533
808.324	25620
808.465	25655
808.607	25769
808.749	26016
808.891	26187
809.033	26172
809.174	26126
809.316	26043
809.458	25917
809.6	25936
809.741	26199
809.883	26058
810.025	26172
810.166	26157
810.308	26054
810.45	26020
810.591	25947
810.733	25974
810.875	25868
811.016	25696
811.158	25723
811.299	26073
811.441	25947
811.582	25894
811.724	25830
811.865	25807
812.007	25963
812.148	25837
812.29	25780
812.431	25978
812.573	26164
812.714	26199
812.855	26336
812.997	26343
813.138	26511
813.279	26423
813.421	26278
813.562	26328
813.703	26039
813.845	25951
813.986	25715
814.127	25502
814.268	25441
814.41	25434
814.551	25293
814.692	25472
814.833	25365
814.974	25343
815.115	25365
815.256	25160
815.397	25008
815.539	25080
815.68	25053
815.821	25171
815.962	25004
816.103	25141
816.244	25057
816.385	24829
816.526	24825
816.666	24703
816.807	24490
816.948	24544
817.089	24707
817.23	24544
817.371	24475
817.512	24608
817.653	24528
817.793	24414
817.934	24490
818.075	24513
818.216	24574
818.356	24441
818.497	24433
818.638	24163
818.778	24232
818.919	24144
819.06	24243
819.2	24330
819.341	24365
819.481	24369
819.622	24505
819.762	24791
819.903	24547
820.043	24547
820.184	24426
820.324	24448
820.465	24585
820.605	24505
820.746	24388
820.886	24388
821.026	24464
821.167	24490
821.307	24460
821.447	24205
821.588	24201
821.728	24106
821.868	23942
822.008	23882
822.149	23817
822.289	23840
822.429	23653
822.569	23615
822.709	23417
822.849	23315
822.99	23372
823.13	23189
823.27	23200
823.41	23033
823.55	22972
823.69	23121
823.83	23098
823.97	22980
824.11	22831
824.25	22729
824.389	22885
824.529	22892
824.669	22782
824.809	22987
824.949	22911
825.089	22927
825.228	22892
825.368	22679
825.508	22675
825.648	22736
825.787	22736
825.927	22675
826.067	22512
826.206	22725
826.346	22618
826.485	22569
826.625	22611
826.765	22767
826.904	22679
827.044	22329
827.183	22344
827.323	22375
827.462	22360
827.601	22162
827.741	22268
827.88	22367
828.02	22169
828.159	22409
828.298	22234
828.437	22382
828.577	22192
828.716	22352
828.855	22223
828.994	21979
829.134	22029
829.273	22139
829.412	21983
829.551	21934
829.69	21956
829.829	22063
829.968	22090
830.107	22040
830.246	22036
830.385	21888
830.524	21930
830.663	21770
830.802	21720
830.941	21515
831.08	21534
831.219	21641
831.357	21656
831.496	21686
831.635	21500
831.774	21450
831.913	21545
832.051	21359
832.19	21317
832.329	21386
832.467	21287
832.606	21188
832.744	21226
832.883	21245
833.022	21100
833.16	21272
833.299	21306
833.437	21260
833.576	21344
833.714	21317
833.852	21313
833.991	21310
834.129	21378
834.267	21412
834.406	21173
834.544	21188
834.682	21135
834.821	21146
834.959	21317
835.097	21116
835.235	21317
835.373	21226
835.511	21287
835.65	21043
835.788	21001
835.926	20982
836.064	21047
836.202	20849
836.34	21142
836.478	21150
836.615	21112
836.753	21135
836.891	21214
837.029	21093
837.167	21165
837.305	20937
837.443	21047
837.58	20948
837.718	20963
837.856	21028
837.993	20712
838.131	20944
838.269	20872
838.406	20899
838.544	20891
838.681	20655
838.819	20568
838.956	20476
839.094	20404
839.231	20419
839.369	20503
839.506	20758
839.643	20568
839.781	20427
839.918	20446
840.055	20377
840.193	20309
840.33	20244
840.467	20309
840.604	20343
840.742	20583
840.879	20271
841.016	20259
841.153	20244
841.29	20457
841.427	20332
841.564	20347
841.701	20240
841.838	20183
841.975	20168
842.112	20263
842.249	20111
842.385	20088
842.522	20275
842.659	20073
842.796	19963
842.933	20043
843.069	20054
843.206	19997
843.343	19986
843.479	20062
843.616	20043
843.752	19837
843.889	19845
844.025	19970
844.162	19757
844.298	19944
844.435	19772
844.571	19677
844.708	19871
844.844	19909
844.98	19989
845.117	19868
845.253	19818
845.389	19632
845.525	19655
845.661	19620
845.798	19628
845.934	19586
846.07	19586
846.206	19655
846.342	19563
846.478	19590
846.614	19343
846.75	19240
846.886	19141
847.022	19324
847.158	19308
847.294	19369
847.429	19278
847.565	19255
847.701	19419
847.837	18993
847.972	18852
848.108	19050
848.244	18905
848.379	18867
848.515	18821
848.65	18817
848.786	18894
848.921	18814
849.057	18901
849.192	18848
849.328	18707
849.463	18806
849.598	18867
849.734	18772
849.869	18601
850.004	18551
850.14	18566
850.275	18570
850.41	18494
850.545	18597
850.68	18486
850.815	18631
850.95	18544
851.085	18776
851.22	18696
851.355	18631
851.49	18570
851.625	18460
851.76	18429
851.895	18486
852.03	18399
852.165	18448
852.299	18547
852.434	18582
852.569	18646
852.703	18513
852.838	18551
852.973	18688
853.107	18688
853.242	18506
853.376	18445
853.511	18266
853.645	18380
853.78	18433
853.914	18311
854.048	18426
854.183	18399
854.317	18433
854.451	18403
854.585	18369
854.72	18323
854.854	18391
854.988	18174
855.122	18330
855.256	18190
855.39	18372
855.524	18506
855.658	18361
855.792	18456
855.926	18346
856.06	18353
856.194	18578
856.327	18456
856.461	18338
856.595	18182
856.729	18369
856.862	18407
856.996	18445
857.13	18467
857.263	18547
857.397	18513
857.53	18407
857.664	18437
857.797	18460
857.931	18441
858.064	18521
858.197	18448
858.331	18350
858.464	18300
858.597	18369
858.731	18361
858.864	18338
858.997	18384
859.13	18323
859.263	18350
859.396	18467
859.529	18315
859.662	18289
859.795	18315
859.928	18327
860.061	18429
860.194	18551
860.327	18323
860.46	18342
860.592	18471
860.725	18460
860.858	18338
860.99	18311
861.123	18152
861.256	18315
861.388	18292
861.521	19110
861.653	18251
861.786	18159
861.918	18304
862.05	18308
862.183	18399
862.315	18429
862.447	18395
862.58	18361
862.712	18091
862.844	18174
862.976	18121
863.108	18136
863.24	18289
863.372	17999
863.504	18125
863.636	17999
863.768	18057
863.9	18079
864.032	17912
864.164	18030
864.296	18072
864.428	18197
864.559	18159
864.691	18258
864.823	18114
864.954	18034
865.086	17977
865.217	18030
865.349	17988
865.48	18022
865.612	17969
865.743	18003
865.875	18079
866.006	18022
866.137	17996
866.269	18098
866.4	17923
866.531	17988
866.662	17836
866.793	17828
866.924	17988
867.055	17969
867.186	17847
867.317	17870
867.448	17847
867.579	17904
867.71	17939
867.841	17908
867.972	17923
868.103	17931
868.233	17988
868.364	17992
868.495	18015
868.625	18110
868.756	18197
868.886	18117
869.017	18152
869.147	18399
869.278	18171
869.408	18232
869.539	18254
869.669	18201
869.799	18186
869.929	18323
870.06	18262
870.19	18460
870.32	18308
870.45	18517
870.58	18574
870.71	18616
870.84	18791
870.97	18608
871.1	18574
871.23	18779
871.36	18772
871.489	18711
871.619	18741
871.749	18768
871.879	18772
872.008	18821
872.138	18673
872.267	18772
872.397	18658
872.526	18509
872.656	18612
872.785	18559
872.915	18837
873.044	18726
873.173	18806
873.303	18825
873.432	18749
873.561	18924
873.69	18848
873.819	18840
873.948	18837
874.077	18806
874.206	18707
874.335	18711
874.464	18913
874.593	18943
874.722	18958
874.851	18973
874.979	19065
875.108	19031
875.237	19034
875.365	18973
875.494	19091
875.623	19190
875.751	19050
875.88	19171
876.008	19152
876.136	19312
876.265	19354
876.393	19613
876.521	19624
876.65	19529
876.778	19597
876.906	19434
877.034	19434
877.162	19388
877.29	19373
877.418	19480
877.546	19403
877.674	19514
877.802	19449
877.93	19419
878.058	19369
878.185	19365
878.313	19483
878.441	19441
878.568	19289
878.696	19384
878.824	19502
878.951	19609
879.079	19674
879.206	19795
879.333	19613
879.461	19453
879.588	19556
879.715	19658
879.842	19757
879.97	19521
880.097	19232
880.224	19312
880.351	19373
880.478	19285
880.605	19244
880.732	19339
880.859	19586
880.986	19365
881.112	19388
881.239	19285
881.366	19141
881.493	18973
881.619	18875
881.746	18977
881.872	18935
881.999	18901
882.125	18924
882.252	19046
882.378	19008
882.505	19095
882.631	18817
882.757	18658
882.883	18798
883.01	18757
883.136	18574
883.262	18502
883.388	18513
883.514	18654
883.64	18749
883.766	18726
883.892	18490
884.018	18422
884.143	18635
884.269	18753
884.395	18456
884.52	18357
884.646	18315
884.772	18144
884.897	18304
885.023	18391
885.148	18429
885.274	18483
885.399	18410
885.524	18365
885.65	18384
885.775	18353
885.9	18448
886.025	18441
886.15	18460
886.275	18239
886.4	18327
886.525	18273
886.65	18254
886.775	18300
886.9	18437
887.025	18452
887.149	18353
887.274	18254
887.399	18064
887.523	18144
887.648	18026
887.773	17980
887.897	18087
888.021	18129
888.146	18110
888.27	18281
888.395	18140
888.519	18136
888.643	18159
888.767	18121
888.891	17984
889.015	18007
889.139	18019
889.263	17939
889.387	18083
889.511	18167
889.635	17969
889.759	17931
889.883	17889
890.006	17935
890.13	18007
890.254	17840
890.377	17828
890.501	17649
890.624	17547
890.748	17859
890.871	17608
890.995	17592
891.118	17493
891.241	17600
891.364	17543
891.488	17649
891.611	17630
891.734	17539
891.857	17668
891.98	17592
892.103	17630
892.226	17551
892.349	17455
892.471	17356
892.594	17455
892.717	17535
892.839	17391
892.962	17539
893.085	17596
893.207	17585
893.33	17322
893.452	17417
893.575	17528
893.697	17448
893.819	17623
893.941	17623
894.064	17516
894.186	17414
894.308	17364
894.43	17604
894.552	17710
894.674	17528
894.796	17391
894.918	17524
895.04	17482
895.161	17592
895.283	17596
895.405	17505
895.526	17493
895.648	17516
895.769	17493
895.891	17638
896.012	17611
896.134	17558
896.255	17623
896.376	17608
896.498	17562
896.619	17577
896.74	17596
896.861	17714
896.982	17931
897.103	17980
897.224	17942
897.345	17836
897.466	17802
897.587	17851
897.708	17904
897.828	17809
897.949	17729
898.07	17764
898.19	17817
898.311	17882
898.431	17756
898.552	17783
898.672	17775
898.792	17798
898.913	17847
899.033	17691
899.153	17661
899.273	17585
899.393	17486
899.513	17596
899.633	17657
899.753	17516
899.873	17467
899.993	17691
900.113	17524
900.232	17657
900.352	17520
900.472	17512
900.591	17360
900.711	17364
900.83	17292
900.95	17585
901.069	17573
901.189	17379
901.308	17147
901.427	17006
901.546	17094
901.665	17121
901.784	17143
901.904	17006
902.023	16850
902.141	16656
902.26	16618
902.379	16584
902.498	16527
902.617	16443
902.735	16641
902.854	16611
902.973	16386
903.091	16211
903.21	16246
903.328	16246
903.446	16147
903.565	16078
903.683	16131
903.801	15968
903.919	16147
904.038	16082
904.156	15899
904.274	16006
904.392	15816
904.51	15869
904.627	15846
904.745	15918
904.863	15953
904.981	15762
905.098	15500
905.216	15576
905.334	15568
905.451	15515
905.569	15428
905.686	15511
905.803	15519
905.921	15359
906.038	15428
906.155	15370
906.272	15291
906.389	15252
906.506	15066
906.623	15116
906.74	15066
906.857	14956
906.974	14982
907.091	15180
907.208	15169
907.324	15150
907.441	15013
907.557	14842
907.674	14739
907.79	14735
907.907	14750
908.023	14804
908.139	14788
908.256	14678
908.372	14670
908.488	14727
908.604	14583
908.72	14442
908.836	14480
908.952	14427
909.068	14495
909.184	14526
909.3	14480
909.415	14545
909.531	14454
909.647	14263
909.762	14259
909.878	14161
909.993	14252
910.108	14240
910.224	14229
910.339	14202
910.454	14145
910.57	14016
910.685	14035
910.8	14229
910.915	14221
911.03	14100
911.145	13822
911.259	13795
911.374	13833
911.489	13841
911.604	13696
911.718	13620
911.833	13556
911.947	13441
912.062	13419
912.176	13559
912.291	13639
912.405	13510
912.519	13723
912.633	13788
912.748	13651
912.862	13582
912.976	13419
913.09	13263
913.204	13483
913.318	13339
913.431	13586
913.545	13415
913.659	13502
913.772	13533
913.886	13373
914	13255
914.113	13293
914.226	13384
914.34	13263
914.453	13152
914.566	13407
914.68	13168
914.793	13122
914.906	13004
915.019	13015
915.132	12871
915.245	12905
915.358	12996
915.47	13038
915.583	12973
915.696	13000
915.809	13015
915.921	13084
916.034	12920
916.146	12913
916.259	12810
916.371	12951
916.483	12867
916.595	12814
916.708	12890
916.82	12829
916.932	12764
917.044	12779
917.156	12738
917.268	12722
917.38	12703
917.491	12662
917.603	12681
917.715	12711
917.826	12730
917.938	12673
918.049	12483
918.161	12662
918.272	12783
918.384	12757
918.495	12681
918.606	12536
918.717	12395
918.828	12608
918.939	12502
919.05	12384
919.161	12441
919.272	12216
919.383	12292
919.494	12486
919.604	12601
919.715	12365
919.826	12395
919.936	12422
920.047	12490
920.157	12429
920.267	12604
920.378	12471
920.488	12426
920.598	12585
920.708	12806
920.818	12593
920.928	12627
921.038	12776
921.148	12639
921.258	12407
921.368	12330
921.477	12270
921.587	12273
921.697	12041
921.806	12194
921.916	12144
922.025	11923
922.134	11836
922.244	11863
922.353	11908
922.462	11790
922.571	11714
922.68	11615
922.789	11478
922.898	11653
923.007	11509
923.116	11703
923.224	11577
923.333	11581
923.442	11436
923.55	11398
923.659	11395
923.767	11512
923.876	11334
923.984	11440
924.092	11364
924.201	11368
924.309	11349
924.417	11337
924.525	11246
924.633	11334
924.741	12167
924.849	11178
924.956	11307
925.064	11079
925.172	11014
925.279	11079
925.387	11197
925.494	11090
925.602	11292
925.709	11140
925.816	11075
925.924	11136
926.031	11261
926.138	11064
926.245	11090
926.352	11041
926.459	11208
926.566	11128
926.673	10987
926.779	10885
926.886	10923
926.993	10790
927.099	10748
927.206	10683
927.312	10767
927.419	10782
927.525	10816
927.631	10812
927.737	10698
927.843	10596
927.95	10561
928.056	10554
928.162	10573
928.267	10675
928.373	11235
928.479	10702
928.585	10440
928.69	10626
928.796	10641
928.901	10417
929.007	10333
929.112	10637
929.218	10474
929.323	10382
929.428	10371
929.533	10516
929.638	10360
929.743	10333
929.848	10382
929.953	10306
930.058	10268
930.163	10093
930.267	10139
930.372	10246
930.477	10006
930.581	10291
930.685	10181
930.79	9975
930.894	10017
930.998	10044
931.103	10086
931.207	9766
931.311	9641
931.415	9587
931.519	9363
931.623	9401
