Data from test_V78500241_3212.txt Node
Date: Fri Mar 25 14:56:04 CST 2022
User: usil
Spectrometer: V785-0024
Trigger mode: 0
Integration Time (sec): 4.000000E-1
Scans to average: 1
Nonlinearity correction enabled: false
Boxcar width: 0
Storing dark spectrum: false
XAxis mode: Wavelengths
Number of Pixels in Spectrum: 1024
>>>>>Begin Spectral Data<<<<<
801.071	22070
801.214	21964
801.356	21690
801.499	21542
801.641	21370
801.783	21382
801.926	21435
802.068	21298
802.211	21260
802.353	21188
802.496	20937
802.638	20899
802.78	20956
802.923	20765
803.065	20705
803.208	20724
803.35	20609
803.492	20830
803.635	20765
803.777	20826
803.919	20944
804.061	21047
804.204	20826
804.346	20651
804.488	20629
804.63	20670
804.773	20579
804.915	20697
805.057	20762
805.199	20560
805.341	20693
805.483	20777
805.626	20739
805.768	20587
805.91	20648
806.052	20655
806.194	20590
806.336	20785
806.478	20617
806.62	20632
806.762	20674
806.904	20739
807.046	21081
807.188	20925
807.33	20941
807.472	20941
807.614	20902
807.756	20887
807.898	20731
808.04	20667
808.182	20655
808.324	20655
808.465	20705
808.607	20864
808.749	21074
808.891	21081
809.033	21138
809.174	20963
809.316	20975
809.458	21013
809.6	20982
809.741	21112
809.883	21093
810.025	21070
810.166	21116
810.308	21039
810.45	21093
810.591	20887
810.733	20876
810.875	20697
811.016	20663
811.158	20815
811.299	20758
811.441	20880
811.582	20842
811.724	20731
811.865	20693
812.007	20655
812.148	20727
812.29	20849
812.431	20918
812.573	21081
812.714	21112
812.855	21146
812.997	21317
813.138	21416
813.279	21268
813.421	21412
813.562	21058
813.703	21005
813.845	20792
813.986	20686
814.127	20442
814.268	20351
814.41	20343
814.551	20298
814.692	20385
814.833	20214
814.974	20339
815.115	20336
815.256	20111
815.397	20142
815.539	20084
815.68	19894
815.821	19868
815.962	19989
816.103	19986
816.244	19864
816.385	19818
816.526	19769
816.666	19540
816.807	19434
816.948	19445
817.089	19616
817.23	19460
817.371	19449
817.512	19426
817.653	19445
817.793	19301
817.934	19362
818.075	19502
818.216	19381
818.356	19411
818.497	19266
818.638	19061
818.778	19194
818.919	19160
819.06	19103
819.2	19259
819.341	19297
819.481	19213
819.622	19426
819.762	19601
819.903	19502
820.043	19438
820.184	19434
820.324	19438
820.465	19491
820.605	19308
820.746	19346
820.886	19255
821.026	19453
821.167	19350
821.307	19377
821.447	19373
821.588	19278
821.728	19114
821.868	19031
822.008	18817
822.149	18783
822.289	18722
822.429	18547
822.569	18464
822.709	18445
822.849	18292
822.99	18323
823.13	18277
823.27	18285
823.41	18121
823.55	18076
823.69	18072
823.83	18121
823.97	18045
824.11	17916
824.25	17722
824.389	17775
824.529	17870
824.669	17817
824.809	17897
824.949	18026
825.089	17866
825.228	17821
825.368	17672
825.508	17680
825.648	17684
825.787	17687
825.927	17680
826.067	17554
826.206	17657
826.346	17642
826.485	17611
826.625	17573
826.765	17707
826.904	17581
827.044	17444
827.183	17391
827.323	17212
827.462	17383
827.601	17353
827.741	17261
827.88	17307
828.02	17170
828.159	17269
828.298	17322
828.437	17383
828.577	17261
828.716	17368
828.855	17265
828.994	17121
829.134	17155
829.273	17166
829.412	17041
829.551	17014
829.69	17014
829.829	17102
829.968	17102
830.107	17018
830.246	17090
830.385	17102
830.524	17075
830.663	16991
830.802	16782
830.941	16691
831.08	16656
831.219	16771
831.357	16691
831.496	16862
831.635	16706
831.774	16618
831.913	16596
832.051	16497
832.19	16428
832.329	16584
832.467	16341
832.606	16360
832.744	16379
832.883	16459
833.022	16367
833.16	16394
833.299	16405
833.437	16322
833.576	16371
833.714	16436
833.852	16382
833.991	16402
834.129	16519
834.267	16462
834.406	16474
834.544	16580
834.682	16462
834.821	16398
834.959	16649
835.097	16367
835.235	16531
835.373	16554
835.511	16417
835.65	16314
835.788	16287
835.926	16249
836.064	16082
836.202	16257
836.34	16257
836.478	16538
836.615	16341
836.753	16303
836.891	16436
837.029	16329
837.167	16303
837.305	16226
837.443	16234
837.58	16109
837.718	16158
837.856	16249
837.993	16192
838.131	16234
838.269	16067
838.406	16185
838.544	16063
838.681	15953
838.819	15899
838.956	15743
839.094	15789
839.231	15812
839.369	15884
839.506	16173
839.643	16025
839.781	15747
839.918	15838
840.055	15838
840.193	15766
840.33	15873
840.467	15732
840.604	15682
840.742	15987
840.879	15739
841.016	15606
841.153	15747
841.29	15873
841.427	15759
841.564	15816
841.701	15831
841.838	15774
841.975	15705
842.112	15618
842.249	15549
842.385	15469
842.522	15736
842.659	15690
842.796	15523
842.933	15553
843.069	15564
843.206	15557
843.343	15660
843.479	15488
843.616	15618
843.752	15378
843.889	15428
844.025	15420
844.162	15317
844.298	15485
844.435	15317
844.571	15252
844.708	15462
844.844	15584
844.98	15416
845.117	15397
845.253	15340
845.389	15241
845.525	15344
845.661	15233
845.798	15192
845.934	15165
846.07	15146
846.206	15180
846.342	15275
846.478	15127
846.614	15020
846.75	14838
846.886	14868
847.022	14982
847.158	14864
847.294	14948
847.429	14925
847.565	14902
847.701	15214
847.837	14716
847.972	14640
848.108	14697
848.244	14644
848.379	14549
848.515	14579
848.65	14434
848.786	14503
848.921	14568
849.057	14617
849.192	14552
849.328	14606
849.463	14533
849.598	14594
849.734	14442
849.869	14408
850.004	14396
850.14	14252
850.275	14256
850.41	14214
850.545	14244
850.68	14172
850.815	14385
850.95	14301
851.085	14488
851.22	14507
851.355	14282
851.49	14286
851.625	14214
851.76	14252
851.895	14069
852.03	14077
852.165	14248
852.299	14240
852.434	14393
852.569	14339
852.703	14237
852.838	14298
852.973	14408
853.107	14408
853.242	14202
853.376	14168
853.511	14065
853.645	14073
853.78	14237
853.914	14115
854.048	14206
854.183	14107
854.317	14115
854.451	14309
854.585	14153
854.72	14103
854.854	14301
854.988	14092
855.122	14115
855.256	14012
855.39	14084
855.524	14221
855.658	14187
855.792	14100
855.926	14084
856.06	14294
856.194	14252
856.327	14134
856.461	14164
856.595	14126
856.729	14119
856.862	14225
856.996	14199
857.13	14229
857.263	14298
857.397	14221
857.53	14100
857.664	14256
857.797	14240
857.931	14256
858.064	14183
858.197	14298
858.331	14126
858.464	14126
858.597	14096
858.731	14073
858.864	14176
858.997	14138
859.13	14134
859.263	14187
859.396	14237
859.529	14123
859.662	14119
859.795	14084
859.928	14187
860.061	14305
860.194	14332
860.327	14244
860.46	14107
860.592	14233
860.725	14263
860.858	14263
860.99	14191
861.123	14138
861.256	14005
861.388	14088
861.521	14921
861.653	14157
861.786	13967
861.918	14035
862.05	14027
862.183	14054
862.315	14081
862.447	14210
862.58	14069
862.712	13917
862.844	13856
862.976	13978
863.108	13997
863.24	14415
863.372	13795
863.504	13833
863.636	13868
863.768	13860
863.9	13944
864.032	13925
864.164	13822
864.296	13932
864.428	14046
864.559	14058
864.691	14077
864.823	13982
864.954	13967
865.086	14001
865.217	13982
865.349	13852
865.48	13936
865.612	14001
865.743	14123
865.875	13913
866.006	13833
866.137	13963
866.269	13986
866.4	13818
866.531	13822
866.662	13803
866.793	13921
866.924	13955
867.055	13959
867.186	13890
867.317	13868
867.448	13818
867.579	13921
867.71	13822
867.841	13799
867.972	13955
868.103	13974
868.233	13970
868.364	13967
868.495	14058
868.625	14119
868.756	14225
868.886	14077
869.017	14202
869.147	14320
869.278	14343
869.408	14142
869.539	14134
869.669	14271
869.799	14199
869.929	14298
870.06	14244
870.19	14400
870.32	14389
870.45	14484
870.58	14579
870.71	14708
870.84	14667
870.97	14579
871.1	14533
871.23	14777
871.36	14826
871.489	14632
871.619	14663
871.749	14750
871.879	14830
872.008	14861
872.138	14826
872.267	14750
872.397	14667
872.526	14625
872.656	14537
872.785	14651
872.915	14712
873.044	14830
873.173	14864
873.303	14937
873.432	14929
873.561	14838
873.69	14876
873.819	14777
873.948	14914
874.077	14804
874.206	14720
874.335	14800
874.464	14956
874.593	15081
874.722	14960
874.851	15173
874.979	15108
875.108	15184
875.237	15127
875.365	15058
875.494	15199
875.623	15218
875.751	14921
875.88	15176
876.008	15363
876.136	15386
876.265	15526
876.393	15667
876.521	15629
876.65	15698
876.778	15587
876.906	15580
877.034	15412
877.162	15500
877.29	15424
877.418	15618
877.546	15469
877.674	15637
877.802	15462
877.93	15545
878.058	15564
878.185	15405
878.313	15511
878.441	15625
878.568	15450
878.696	15462
878.824	15603
878.951	15694
879.079	15663
879.206	15907
879.333	15728
879.461	15591
879.588	15644
879.715	15778
879.842	15876
879.97	15713
880.097	15454
880.224	15382
880.351	15492
880.478	15412
880.605	15416
880.732	15378
880.859	15629
880.986	15458
881.112	15408
881.239	15302
881.366	15233
881.493	15036
881.619	15032
881.746	15108
881.872	15077
881.999	15089
882.125	15077
882.252	15066
882.378	15100
882.505	15169
882.631	15009
882.757	14861
882.883	14902
883.01	14899
883.136	14819
883.262	14765
883.388	14731
883.514	14811
883.64	14811
883.766	14994
883.892	14720
884.018	14773
884.143	14845
884.269	15062
884.395	14663
884.52	14587
884.646	14575
884.772	14590
884.897	14511
885.023	14636
885.148	14651
885.274	14815
885.399	14682
885.524	14549
885.65	14568
885.775	14708
885.9	14579
886.025	14651
886.15	14651
886.275	14556
886.4	14366
886.525	14602
886.65	14526
886.775	14514
886.9	14758
887.025	14861
887.149	14476
887.274	14454
887.399	14336
887.523	14324
887.648	14450
887.773	14339
887.897	14560
888.021	14533
888.146	14476
888.27	14613
888.395	14537
888.519	14492
888.643	14434
888.767	14522
888.891	14328
889.015	14271
889.139	14374
889.263	14320
889.387	14530
889.511	14522
889.635	14351
889.759	14218
889.883	14286
890.006	14366
890.13	14389
890.254	14153
890.377	14218
890.501	14187
890.624	14005
890.748	14100
890.871	13955
890.995	13963
891.118	13917
891.241	13955
891.364	14020
891.488	14123
891.611	14046
891.734	13970
891.857	14058
891.98	14005
892.103	14130
892.226	14016
892.349	13955
892.471	13864
892.594	13970
892.717	14039
892.839	14043
892.962	13925
893.085	13967
893.207	13963
893.33	13849
893.452	13963
893.575	13970
893.697	14008
893.819	14244
893.941	14183
894.064	14187
894.186	13940
894.308	13944
894.43	14115
894.552	14164
894.674	14069
894.796	13989
894.918	14012
895.04	13982
895.161	14168
895.283	14123
895.405	13909
895.526	14103
895.648	14096
895.769	14084
895.891	14191
896.012	14248
896.134	14176
896.255	14130
896.376	14084
896.498	14168
896.619	14176
896.74	14115
896.861	14195
896.982	14465
897.103	14720
897.224	14552
897.345	14393
897.466	14343
897.587	14469
897.708	14568
897.828	14575
897.949	14355
898.07	14313
898.19	14427
898.311	14492
898.431	14469
898.552	14556
898.672	14549
898.792	14625
898.913	14568
899.033	14404
899.153	14423
899.273	14377
899.393	14434
899.513	14404
899.633	14320
899.753	14415
899.873	14381
899.993	14434
900.113	14396
900.232	14434
900.352	14298
900.472	14336
900.591	14103
900.711	14294
900.83	14221
900.95	14336
901.069	14400
901.189	14199
901.308	13986
901.427	13925
901.546	13909
901.665	14065
901.784	13955
901.904	13860
902.023	13727
902.141	13499
902.26	13491
902.379	13533
902.498	13529
902.617	13464
902.735	13510
902.854	13544
902.973	13434
903.091	13217
903.21	13160
903.328	13240
903.446	13221
903.565	13050
903.683	13175
903.801	12943
903.919	13012
904.038	13031
904.156	12821
904.274	12954
904.392	12806
904.51	12856
904.627	12867
904.745	12939
904.863	13000
904.981	12696
905.098	12528
905.216	12525
905.334	12578
905.451	12582
905.569	12589
905.686	12665
905.803	12574
905.921	12369
906.038	12509
906.155	12407
906.272	12300
906.389	12273
906.506	12216
906.623	12102
906.74	12076
906.857	12083
906.974	12079
907.091	12167
907.208	12353
907.324	12213
907.441	12117
907.557	11904
907.674	11927
907.79	11733
907.907	11824
908.023	11908
908.139	11946
908.256	11760
908.372	11870
908.488	11821
908.604	11573
908.72	11657
908.836	11680
908.952	11737
909.068	11672
909.184	11733
909.3	11695
909.415	11710
909.531	11726
909.647	11452
909.762	11448
909.878	11478
909.993	11421
910.108	11368
910.224	11395
910.339	11387
910.454	11296
910.57	11299
910.685	11246
910.8	11623
910.915	11486
911.03	11322
911.145	11109
911.259	11090
911.374	11193
911.489	11098
911.604	11083
911.718	10889
911.833	10850
911.947	10771
912.062	10805
912.176	10885
912.291	10904
912.405	10892
912.519	11223
912.633	11109
912.748	10942
912.862	10850
912.976	10809
913.09	10641
913.204	10668
913.318	10698
913.431	10927
913.545	10892
913.659	10946
913.772	10828
913.886	10710
914	10691
914.113	10763
914.226	10752
914.34	10744
914.453	10538
914.566	10736
914.68	10504
914.793	10535
914.906	10402
915.019	10386
915.132	10367
915.245	10402
915.358	10356
915.47	10363
915.583	10455
915.696	10386
915.809	10577
915.921	10580
916.034	10413
916.146	10363
916.259	10318
916.371	10417
916.483	10436
916.595	10329
916.708	10329
916.82	10352
916.932	10303
917.044	10337
917.156	10249
917.268	10284
917.38	10257
917.491	10207
917.603	10253
917.715	10363
917.826	10344
917.938	10204
918.049	10143
918.161	10284
918.272	10398
918.384	10424
918.495	10299
918.606	10135
918.717	10063
918.828	10131
918.939	10154
919.05	10032
919.161	10059
919.272	9941
919.383	9922
919.494	10120
919.604	10402
919.715	10177
919.826	10051
919.936	10055
920.047	10162
920.157	10097
920.267	10325
920.378	10147
920.488	10120
920.598	10341
920.708	10474
920.818	10322
920.928	10322
921.038	10516
921.148	10314
921.258	10242
921.368	10082
921.477	10074
921.587	9953
921.697	9865
921.806	9975
921.916	9968
922.025	9743
922.134	9747
922.244	9736
922.353	9755
922.462	9576
922.571	9507
922.68	9466
922.789	9332
922.898	9416
923.007	9363
923.116	9450
923.224	9439
923.333	9466
923.442	9306
923.55	9245
923.659	9332
923.767	9348
923.876	9256
923.984	9294
924.092	9211
924.201	9264
924.309	9275
924.417	9298
924.525	9256
924.633	9188
924.741	10169
924.849	8975
924.956	9173
925.064	9085
925.172	9055
925.279	9055
925.387	9062
925.494	9066
925.602	9112
925.709	9081
925.816	9005
925.924	9020
926.031	9154
926.138	9074
926.245	9074
926.352	8914
926.459	9112
926.566	9112
926.673	9020
926.779	8963
926.886	8868
926.993	8769
927.099	8785
927.206	8727
927.312	8758
927.419	8845
927.525	8811
927.631	8804
927.737	8712
927.843	8705
927.95	8549
928.056	8636
928.162	8708
928.267	8720
928.373	9245
928.479	8834
928.585	8579
928.69	8701
928.796	8785
928.901	8568
929.007	8408
929.112	8587
929.218	8545
929.323	8549
929.428	8503
929.533	8621
929.638	8438
929.743	8495
929.848	8541
929.953	8473
930.058	8355
930.163	8263
930.267	8233
930.372	8389
930.477	8313
930.581	8457
930.685	8339
930.79	8142
930.894	8206
930.998	8210
931.103	8404
931.207	7875
931.311	7932
931.415	7852
931.519	7734
931.623	7723
