Data from test_V78500241_2149.txt Node
Date: Fri Mar 25 14:48:40 CST 2022
User: usil
Spectrometer: V785-0024
Trigger mode: 0
Integration Time (sec): 4.000000E-1
Scans to average: 1
Nonlinearity correction enabled: false
Boxcar width: 0
Storing dark spectrum: false
XAxis mode: Wavelengths
Number of Pixels in Spectrum: 1024
>>>>>Begin Spectral Data<<<<<
801.071	22261
801.214	22120
801.356	21983
801.499	21835
801.641	21652
801.783	21511
801.926	21622
802.068	21576
802.211	21367
802.353	21332
802.496	21176
802.638	21051
802.78	21017
802.923	20925
803.065	20921
803.208	20914
803.35	21009
803.492	21104
803.635	21074
803.777	20941
803.919	21036
804.061	21359
804.204	20933
804.346	20899
804.488	20750
804.63	20826
804.773	20842
804.915	20876
805.057	20941
805.199	20686
805.341	20895
805.483	21104
805.626	20880
805.768	20800
805.91	20872
806.052	20868
806.194	20762
806.336	21001
806.478	20792
806.62	20815
806.762	20849
806.904	20971
807.046	21252
807.188	21146
807.33	21173
807.472	21332
807.614	21009
807.756	21066
807.898	21009
808.04	20857
808.182	20899
808.324	20918
808.465	20918
808.607	21123
808.749	21279
808.891	21256
809.033	21317
809.174	21355
809.316	21150
809.458	21188
809.6	21135
809.741	21207
809.883	21226
810.025	21336
810.166	21412
810.308	21340
810.45	21313
810.591	21256
810.733	21028
810.875	21009
811.016	20777
811.158	20914
811.299	21028
811.441	21123
811.582	21138
811.724	21062
811.865	20967
812.007	21005
812.148	21036
812.29	21039
812.431	21199
812.573	21237
812.714	21473
812.855	21492
812.997	21591
813.138	21736
813.279	21648
813.421	21583
813.562	21481
813.703	21325
813.845	21104
813.986	20853
814.127	20731
814.268	20545
814.41	20549
814.551	20602
814.692	20541
814.833	20495
814.974	20450
815.115	20556
815.256	20393
815.397	20396
815.539	20412
815.68	20286
815.821	20195
815.962	20271
816.103	20248
816.244	20100
816.385	20100
816.526	19989
816.666	19837
816.807	19689
816.948	19780
817.089	19875
817.23	19719
817.371	19738
817.512	19662
817.653	19563
817.793	19647
817.934	19662
818.075	19704
818.216	19742
818.356	19628
818.497	19468
818.638	19365
818.778	19453
818.919	19403
819.06	19426
819.2	19540
819.341	19563
819.481	19480
819.622	19719
819.762	19849
819.903	19753
820.043	19658
820.184	19620
820.324	19567
820.465	19704
820.605	19651
820.746	19620
820.886	19491
821.026	19601
821.167	19571
821.307	19712
821.447	19601
821.588	19460
821.728	19369
821.868	19202
822.008	19023
822.149	19107
822.289	19004
822.429	18684
822.569	18829
822.709	18688
822.849	18635
822.99	18665
823.13	18418
823.27	18471
823.41	18357
823.55	18327
823.69	18464
823.83	18323
823.97	18315
824.11	18045
824.25	18079
824.389	18030
824.529	18243
824.669	18102
824.809	18197
824.949	18228
825.089	18190
825.228	18095
825.368	17885
825.508	17939
825.648	17870
825.787	17954
825.927	18034
826.067	17859
826.206	17870
826.346	17882
826.485	17935
826.625	17847
826.765	17969
826.904	17832
827.044	17649
827.183	17676
827.323	17665
827.462	17589
827.601	17562
827.741	17516
827.88	17554
828.02	17372
828.159	17619
828.298	17486
828.437	17714
828.577	17573
828.716	17733
828.855	17619
828.994	17391
829.134	17395
829.273	17330
829.412	17334
829.551	17292
829.69	17231
829.829	17299
829.968	17501
830.107	17356
830.246	17341
830.385	17261
830.524	17246
830.663	17288
830.802	17109
830.941	16938
831.08	16854
831.219	17090
831.357	17132
831.496	17220
831.635	16987
831.774	16835
831.913	16816
832.051	16759
832.19	16683
832.329	16698
832.467	16607
832.606	16645
832.744	16763
832.883	16668
833.022	16584
833.16	16763
833.299	16759
833.437	16691
833.576	16710
833.714	16717
833.852	16721
833.991	16748
834.129	16752
834.267	16706
834.406	16748
834.544	16744
834.682	16626
834.821	16611
834.959	16774
835.097	16691
835.235	16873
835.373	16706
835.511	16668
835.65	16675
835.788	16558
835.926	16451
836.064	16413
836.202	16561
836.34	16577
836.478	16771
836.615	16618
836.753	16588
836.891	16626
837.029	16694
837.167	16546
837.305	16512
837.443	16455
837.58	16474
837.718	16550
837.856	16402
837.993	16459
838.131	16402
838.269	16344
838.406	16344
838.544	16303
838.681	16200
838.819	16154
838.956	16082
839.094	15975
839.231	15975
839.369	16200
839.506	16402
839.643	16265
839.781	16139
839.918	15854
840.055	15960
840.193	16074
840.33	16025
840.467	16032
840.604	16147
840.742	16246
840.879	15930
841.016	15987
841.153	15861
841.29	16097
841.427	16013
841.564	16036
841.701	16025
841.838	16010
841.975	15873
842.112	15876
842.249	15884
842.385	15713
842.522	15968
842.659	15823
842.796	15778
842.933	15831
843.069	15778
843.206	15694
843.343	15755
843.479	15774
843.616	15838
843.752	15618
843.889	15504
844.025	15656
844.162	15549
844.298	15705
844.435	15572
844.571	15526
844.708	15629
844.844	15648
844.98	15686
845.117	15713
845.253	15568
845.389	15488
845.525	15530
845.661	15606
845.798	15443
845.934	15458
846.07	15165
846.206	15405
846.342	15397
846.478	15408
846.614	15192
846.75	15184
846.886	15085
847.022	15188
847.158	15195
847.294	15085
847.429	15108
847.565	15222
847.701	15382
847.837	14975
847.972	14864
848.108	14994
848.244	14864
848.379	14895
848.515	14674
848.65	14689
848.786	14697
848.921	14838
849.057	14807
849.192	14724
849.328	14788
849.463	14750
849.598	14686
849.734	14621
849.869	14598
850.004	14579
850.14	14648
850.275	14598
850.41	14381
850.545	14412
850.68	14571
850.815	14606
850.95	14503
851.085	14648
851.22	14560
851.355	14613
851.49	14484
851.625	14613
851.76	14465
851.895	14343
852.03	14317
852.165	14442
852.299	14492
852.434	14655
852.569	14568
852.703	14522
852.838	14480
852.973	14648
853.107	14613
853.242	14488
853.376	14431
853.511	14313
853.645	14320
853.78	14511
853.914	14358
854.048	14324
854.183	14358
854.317	14427
854.451	14560
854.585	14396
854.72	14351
854.854	14404
854.988	14400
855.122	14301
855.256	14199
855.39	14377
855.524	14332
855.658	14457
855.792	14362
855.926	14377
856.06	14454
856.194	14473
856.327	14324
856.461	14393
856.595	14305
856.729	14434
856.862	14549
856.996	14469
857.13	14549
857.263	14484
857.397	14457
857.53	14446
857.664	14434
857.797	14492
857.931	14473
858.064	14347
858.197	14518
858.331	14404
858.464	14385
858.597	14252
858.731	14370
858.864	14339
858.997	14419
859.13	14396
859.263	14412
859.396	14492
859.529	14488
859.662	14282
859.795	14263
859.928	14351
860.061	14537
860.194	14492
860.327	14370
860.46	14343
860.592	14415
860.725	14503
860.858	14457
860.99	14408
861.123	14317
861.256	14259
861.388	14343
861.521	15119
861.653	14225
861.786	14202
861.918	14195
862.05	14301
862.183	14358
862.315	14434
862.447	14389
862.58	14252
862.712	14191
862.844	14096
862.976	14275
863.108	14218
863.24	14514
863.372	14054
863.504	14210
863.636	14142
863.768	14267
863.9	14153
864.032	14123
864.164	14145
864.296	14180
864.428	14237
864.559	14275
864.691	14259
864.823	14221
864.954	14240
865.086	14214
865.217	14084
865.349	13989
865.48	14096
865.612	14180
865.743	14282
865.875	14149
866.006	14020
866.137	14073
866.269	14218
866.4	14187
866.531	14062
866.662	14058
866.793	14103
866.924	14115
867.055	14180
867.186	14119
867.317	14050
867.448	14005
867.579	14103
867.71	13944
867.841	14031
867.972	14081
868.103	14138
868.233	14176
868.364	14142
868.495	14259
868.625	14442
868.756	14454
868.886	14256
869.017	14309
869.147	14511
869.278	14583
869.408	14374
869.539	14446
869.669	14495
869.799	14351
869.929	14530
870.06	14450
870.19	14701
870.32	14708
870.45	14682
870.58	14781
870.71	14857
870.84	14899
870.97	14804
871.1	14811
871.23	15020
871.36	15013
871.489	14895
871.619	14956
871.749	15051
871.879	15104
872.008	15119
872.138	15036
872.267	14895
872.397	14800
872.526	14765
872.656	14891
872.785	14861
872.915	15081
873.044	15112
873.173	15074
873.303	15154
873.432	15028
873.561	15104
873.69	15062
873.819	15131
873.948	15085
874.077	15070
874.206	14998
874.335	15020
874.464	15207
874.593	15313
874.722	15165
874.851	15500
874.979	15367
875.108	15386
875.237	15241
875.365	15325
875.494	15348
875.623	15351
875.751	15386
875.88	15431
876.008	15488
876.136	15576
876.265	15770
876.393	15949
876.521	15922
876.65	15911
876.778	15823
876.906	15850
877.034	15667
877.162	15720
877.29	15675
877.418	15785
877.546	15838
877.674	15770
877.802	15698
877.93	15774
878.058	15694
878.185	15625
878.313	15770
878.441	15728
878.568	15538
878.696	15747
878.824	15827
878.951	15888
879.079	15991
879.206	16105
879.333	15934
879.461	15770
879.588	15892
879.715	15918
879.842	16071
879.97	15793
880.097	15622
880.224	15682
880.351	15648
880.478	15644
880.605	15606
880.732	15637
880.859	15960
880.986	15667
881.112	15660
881.239	15492
881.366	15367
881.493	15370
881.619	15252
881.746	15340
881.872	15321
881.999	15317
882.125	15192
882.252	15230
882.378	15294
882.505	15374
882.631	15241
882.757	15165
882.883	15112
883.01	15188
883.136	15017
883.262	14979
883.388	15009
883.514	15032
883.64	15123
883.766	15013
883.892	14944
884.018	14990
884.143	15070
884.269	15291
884.395	14845
884.52	14746
884.646	14804
884.772	14765
884.897	14788
885.023	14777
885.148	14982
885.274	14925
885.399	14948
885.524	14712
885.65	14762
885.775	14861
885.9	14758
886.025	14929
886.15	14849
886.275	14811
886.4	14587
886.525	14777
886.65	14674
886.775	14689
886.9	14880
887.025	14941
887.149	14804
887.274	14606
887.399	14617
887.523	14587
887.648	14522
887.773	14503
887.897	14670
888.021	14689
888.146	14526
888.27	14773
888.395	14781
888.519	14636
888.643	14667
888.767	14705
888.891	14571
889.015	14419
889.139	14511
889.263	14431
889.387	14590
889.511	14670
889.635	14590
889.759	14389
889.883	14434
890.006	14606
890.13	14530
890.254	14465
890.377	14465
890.501	14324
890.624	14313
890.748	14343
890.871	14275
890.995	14187
891.118	14058
891.241	14126
891.364	14183
891.488	14309
891.611	14123
891.734	14202
891.857	14153
891.98	14100
892.103	14324
892.226	14172
892.349	14187
892.471	14016
892.594	14100
892.717	14199
892.839	14126
892.962	14134
893.085	14267
893.207	14183
893.33	14081
893.452	14111
893.575	14214
893.697	14149
893.819	14396
893.941	14370
894.064	14301
894.186	14126
894.308	14142
894.43	14328
894.552	14385
894.674	14358
894.796	14259
894.918	14256
895.04	14259
895.161	14282
895.283	14328
895.405	14183
895.526	14240
895.648	14278
895.769	14294
895.891	14396
896.012	14431
896.134	14431
896.255	14366
896.376	14324
896.498	14290
896.619	14408
896.74	14271
896.861	14434
896.982	14663
897.103	14769
897.224	14651
897.345	14659
897.466	14564
897.587	14579
897.708	14746
897.828	14670
897.949	14587
898.07	14488
898.19	14552
898.311	14743
898.431	14632
898.552	14697
898.672	14788
898.792	14819
898.913	14716
899.033	14701
899.153	14530
899.273	14533
899.393	14480
899.513	14571
899.633	14495
899.753	14583
899.873	14514
899.993	14552
900.113	14507
900.232	14560
900.352	14454
900.472	14446
900.591	14499
900.711	14454
900.83	14423
900.95	14473
901.069	14610
901.189	14457
901.308	14176
901.427	14043
901.546	14073
901.665	14088
901.784	14107
901.904	13921
902.023	13917
902.141	13719
902.26	13601
902.379	13826
902.498	13674
902.617	13636
902.735	13620
902.854	13590
902.973	13582
903.091	13419
903.21	13460
903.328	13464
903.446	13369
903.565	13198
903.683	13274
903.801	13126
903.919	13236
904.038	13152
904.156	13107
904.274	13133
904.392	13015
904.51	13008
904.627	12985
904.745	13042
904.863	13129
904.981	12829
905.098	12715
905.216	12791
905.334	12688
905.451	12726
905.569	12726
905.686	12776
905.803	12635
905.921	12547
906.038	12715
906.155	12544
906.272	12445
906.389	12490
906.506	12369
906.623	12315
906.74	12296
906.857	12178
906.974	12258
907.091	12327
907.208	12464
907.324	12350
907.441	12144
907.557	12159
907.674	12030
907.79	12102
907.907	12053
908.023	12083
908.139	12034
908.256	12049
908.372	12026
908.488	11973
908.604	11851
908.72	11798
908.836	11783
908.952	11775
909.068	11874
909.184	11980
909.3	11832
909.415	11897
909.531	11767
909.647	11581
909.762	11608
909.878	11547
909.993	11661
910.108	11532
910.224	11592
910.339	11539
910.454	11482
910.57	11395
910.685	11387
910.8	11649
910.915	11596
911.03	11486
911.145	11330
911.259	11292
911.374	11326
911.489	11227
911.604	11086
911.718	11003
911.833	11212
911.947	10984
912.062	10793
912.176	11094
912.291	11056
912.405	11136
912.519	11280
912.633	11284
912.748	11090
912.862	11071
912.976	10877
913.09	10812
913.204	10896
913.318	10934
913.431	11045
913.545	11029
913.659	11060
913.772	11037
913.886	10824
914	10812
914.113	10877
914.226	11029
914.34	10843
914.453	10729
914.566	10862
914.68	10729
914.793	10767
914.906	10618
915.019	10493
915.132	10428
915.245	10535
915.358	10538
915.47	10554
915.583	10596
915.696	10561
915.809	10634
915.921	10725
916.034	10550
916.146	10535
916.259	10500
916.371	10592
916.483	10622
916.595	10481
916.708	10428
916.82	10447
916.932	10478
917.044	10478
917.156	10474
917.268	10348
917.38	10379
917.491	10352
917.603	10417
917.715	10481
917.826	10417
917.938	10447
918.049	10272
918.161	10417
918.272	10535
918.384	10538
918.495	10455
918.606	10234
918.717	10135
918.828	10196
918.939	10310
919.05	10249
919.161	10204
919.272	10090
919.383	10105
919.494	10284
919.604	10436
919.715	10306
919.826	10181
919.936	10299
920.047	10432
920.157	10303
920.267	10542
920.378	10295
920.488	10295
920.598	10451
920.708	10588
920.818	10504
920.928	10421
921.038	10626
921.148	10611
921.258	10341
921.368	10188
921.477	10188
921.587	10112
921.697	10040
921.806	10131
921.916	10036
922.025	9827
922.134	9842
922.244	9785
922.353	9865
922.462	9743
922.571	9724
922.68	9519
922.789	9485
922.898	9561
923.007	9447
923.116	9580
923.224	9584
923.333	9469
923.442	9488
923.55	9382
923.659	9412
923.767	9359
923.876	9332
923.984	9481
924.092	9294
924.201	9420
924.309	9397
924.417	9378
924.525	9359
924.633	9412
924.741	10059
924.849	9161
924.956	9378
925.064	9161
925.172	9116
925.279	9165
925.387	9237
925.494	9203
925.602	9313
925.709	9241
925.816	9058
925.924	9150
926.031	9211
926.138	9184
926.245	9176
926.352	9085
926.459	9253
926.566	9249
926.673	9108
926.779	9013
926.886	9032
926.993	8883
927.099	8842
927.206	8880
927.312	8807
927.419	8910
927.525	8933
927.631	8902
927.737	8819
927.843	8739
927.95	8712
928.056	8739
928.162	8754
928.267	8838
928.373	9389
928.479	8918
928.585	8655
928.69	8720
928.796	8834
928.901	8632
929.007	8590
929.112	8701
929.218	8636
929.323	8655
929.428	8511
929.533	8697
929.638	8579
929.743	8610
929.848	8606
929.953	8571
930.058	8556
930.163	8358
930.267	8393
930.372	8499
930.477	8370
930.581	8648
930.685	8385
930.79	8279
930.894	8332
930.998	8240
931.103	8480
931.207	8031
931.311	8046
931.415	7967
931.519	7776
931.623	7837
