Data from test_V78500241_2251.txt Node
Date: Fri Mar 25 14:49:23 CST 2022
User: usil
Spectrometer: V785-0024
Trigger mode: 0
Integration Time (sec): 4.000000E-1
Scans to average: 1
Nonlinearity correction enabled: false
Boxcar width: 0
Storing dark spectrum: false
XAxis mode: Wavelengths
Number of Pixels in Spectrum: 1024
>>>>>Begin Spectral Data<<<<<
801.071	22124
801.214	21979
801.356	21766
801.499	21800
801.641	21485
801.783	21469
801.926	21568
802.068	21473
802.211	21386
802.353	21291
802.496	21237
802.638	21131
802.78	21032
802.923	20956
803.065	20792
803.208	20849
803.35	21051
803.492	20883
803.635	21001
803.777	20979
803.919	20956
804.061	21249
804.204	20826
804.346	20864
804.488	20781
804.63	20819
804.773	20804
804.915	20887
805.057	20868
805.199	20769
805.341	20788
805.483	20830
805.626	20811
805.768	20811
805.91	20792
806.052	20781
806.194	20651
806.336	20944
806.478	20739
806.62	20800
806.762	20971
806.904	21005
807.046	21199
807.188	21199
807.33	21199
807.472	21207
807.614	21013
807.756	20994
807.898	20941
808.04	20849
808.182	20861
808.324	20963
808.465	20929
808.607	21066
808.749	21138
808.891	21180
809.033	21332
809.174	21294
809.316	21169
809.458	21161
809.6	21154
809.741	21317
809.883	21306
810.025	21348
810.166	21321
810.308	21287
810.45	21207
810.591	21252
810.733	21055
810.875	21077
811.016	20853
811.158	20849
811.299	21058
811.441	21085
811.582	21017
811.724	20918
811.865	20948
812.007	20857
812.148	20925
812.29	20975
812.431	21131
812.573	21310
812.714	21321
812.855	21435
812.997	21599
813.138	21720
813.279	21587
813.421	21447
813.562	21344
813.703	21241
813.845	21020
813.986	20731
814.127	20606
814.268	20503
814.41	20552
814.551	20473
814.692	20579
814.833	20522
814.974	20583
815.115	20427
815.256	20343
815.397	20374
815.539	20336
815.68	20263
815.821	20286
815.962	20275
816.103	20290
816.244	20046
816.385	20031
816.526	19959
816.666	19757
816.807	19609
816.948	19723
817.089	19769
817.23	19632
817.371	19582
817.512	19696
817.653	19620
817.793	19449
817.934	19635
818.075	19670
818.216	19700
818.356	19540
818.497	19472
818.638	19362
818.778	19293
818.919	19476
819.06	19377
819.2	19369
819.341	19430
819.481	19495
819.622	19586
819.762	19818
819.903	19620
820.043	19700
820.184	19628
820.324	19616
820.465	19731
820.605	19586
820.746	19689
820.886	19426
821.026	19628
821.167	19422
821.307	19609
821.447	19521
821.588	19502
821.728	19358
821.868	19179
822.008	18905
822.149	18958
822.289	18924
822.429	18825
822.569	18665
822.709	18700
822.849	18418
822.99	18369
823.13	18361
823.27	18494
823.41	18338
823.55	18380
823.69	18323
823.83	18308
823.97	18266
824.11	18034
824.25	18045
824.389	18102
824.529	18049
824.669	18083
824.809	18068
824.949	18098
825.089	18129
825.228	18140
825.368	17965
825.508	17851
825.648	17939
825.787	17920
825.927	17931
826.067	17901
826.206	17828
826.346	17950
826.485	17965
826.625	17874
826.765	17851
826.904	17954
827.044	17608
827.183	17665
827.323	17459
827.462	17520
827.601	17562
827.741	17429
827.88	17668
828.02	17417
828.159	17547
828.298	17570
828.437	17547
828.577	17501
828.716	17611
828.855	17433
828.994	17258
829.134	17284
829.273	17269
829.412	17193
829.551	17170
829.69	17299
829.829	17303
829.968	17368
830.107	17364
830.246	17330
830.385	17326
830.524	17121
830.663	17136
830.802	17041
830.941	16949
831.08	16911
831.219	16987
831.357	17006
831.496	17086
831.635	16965
831.774	16801
831.913	16797
832.051	16702
832.19	16675
832.329	16778
832.467	16653
832.606	16478
832.744	16535
832.883	16561
833.022	16527
833.16	16626
833.299	16569
833.437	16592
833.576	16675
833.714	16660
833.852	16626
833.991	16679
834.129	16668
834.267	16713
834.406	16584
834.544	16611
834.682	16626
834.821	16603
834.959	16812
835.097	16622
835.235	16668
835.373	16649
835.511	16622
835.65	16519
835.788	16573
835.926	16443
836.064	16291
836.202	16371
836.34	16596
836.478	16565
836.615	16531
836.753	16516
836.891	16580
837.029	16531
837.167	16432
837.305	16398
837.443	16375
837.58	16333
837.718	16516
837.856	16390
837.993	16356
838.131	16424
838.269	16253
838.406	16306
838.544	16169
838.681	16173
838.819	16090
838.956	15865
839.094	15888
839.231	16074
839.369	16029
839.506	16363
839.643	16154
839.781	15937
839.918	16002
840.055	15937
840.193	15819
840.33	15915
840.467	15812
840.604	15915
840.742	16234
840.879	15781
841.016	15831
841.153	15945
841.29	16040
841.427	15903
841.564	15884
841.701	15907
841.838	15930
841.975	15846
842.112	15781
842.249	15743
842.385	15728
842.522	15895
842.659	15743
842.796	15648
842.933	15759
843.069	15701
843.206	15671
843.343	15827
843.479	15675
843.616	15675
843.752	15504
843.889	15466
844.025	15629
844.162	15458
844.298	15656
844.435	15481
844.571	15450
844.708	15606
844.844	15618
844.98	15603
845.117	15568
845.253	15542
845.389	15412
845.525	15603
845.661	15504
845.798	15294
845.934	15374
846.07	15306
846.206	15431
846.342	15393
846.478	15389
846.614	15146
846.75	15062
846.886	15074
847.022	15150
847.158	15131
847.294	15138
847.429	15116
847.565	15009
847.701	15313
847.837	14891
847.972	14849
848.108	14971
848.244	14914
848.379	14689
848.515	14750
848.65	14648
848.786	14712
848.921	14667
849.057	14872
849.192	14891
849.328	14819
849.463	14686
849.598	14697
849.734	14682
849.869	14575
850.004	14518
850.14	14511
850.275	14564
850.41	14389
850.545	14347
850.68	14480
850.815	14564
850.95	14438
851.085	14667
851.22	14556
851.355	14492
851.49	14495
851.625	14499
851.76	14434
851.895	14347
852.03	14385
852.165	14484
852.299	14419
852.434	14419
852.569	14423
852.703	14533
852.838	14511
852.973	14629
853.107	14682
853.242	14427
853.376	14412
853.511	14275
853.645	14256
853.78	14492
853.914	14267
854.048	14202
854.183	14324
854.317	14317
854.451	14560
854.585	14343
854.72	14339
854.854	14427
854.988	14214
855.122	14252
855.256	14233
855.39	14301
855.524	14358
855.658	14366
855.792	14389
855.926	14438
856.06	14446
856.194	14450
856.327	14366
856.461	14252
856.595	14240
856.729	14267
856.862	14412
856.996	14275
857.13	14446
857.263	14408
857.397	14480
857.53	14347
857.664	14511
857.797	14408
857.931	14480
858.064	14374
858.197	14400
858.331	14396
858.464	14290
858.597	14195
858.731	14355
858.864	14362
858.997	14339
859.13	14324
859.263	14370
859.396	14393
859.529	14229
859.662	14305
859.795	14343
859.928	14313
860.061	14438
860.194	14530
860.327	14404
860.46	14389
860.592	14381
860.725	14469
860.858	14473
860.99	14370
861.123	14286
861.256	14263
861.388	14267
861.521	15013
861.653	14256
861.786	14168
861.918	14202
862.05	14164
862.183	14180
862.315	14370
862.447	14419
862.58	14244
862.712	14119
862.844	14024
862.976	14115
863.108	14218
863.24	14492
863.372	14043
863.504	14016
863.636	14092
863.768	14263
863.9	14107
864.032	13970
864.164	14096
864.296	14176
864.428	14248
864.559	14138
864.691	14130
864.823	14088
864.954	14221
865.086	14149
865.217	14058
865.349	13997
865.48	14062
865.612	14111
865.743	14263
865.875	14183
866.006	13967
866.137	14126
866.269	14073
866.4	14103
866.531	14043
866.662	13978
866.793	14035
866.924	14024
867.055	14119
867.186	14130
867.317	13974
867.448	14031
867.579	14020
867.71	14058
867.841	13974
867.972	14111
868.103	14164
868.233	14119
868.364	14168
868.495	14142
868.625	14362
868.756	14370
868.886	14210
869.017	14263
869.147	14419
869.278	14473
869.408	14351
869.539	14336
869.669	14412
869.799	14492
869.929	14473
870.06	14469
870.19	14670
870.32	14674
870.45	14705
870.58	14708
870.71	14788
870.84	14868
870.97	14731
871.1	14773
871.23	14960
871.36	14929
871.489	14834
871.619	14861
871.749	14823
871.879	14933
872.008	15028
872.138	14929
872.267	14925
872.397	14807
872.526	14804
872.656	14758
872.785	14758
872.915	14857
873.044	15089
873.173	14971
873.303	15024
873.432	14963
873.561	15104
873.69	14956
873.819	14979
873.948	15169
874.077	14986
874.206	14994
874.335	15009
874.464	15047
874.593	15214
874.722	15184
874.851	15378
874.979	15241
875.108	15389
875.237	15363
875.365	15180
875.494	15355
875.623	15340
875.751	15332
875.88	15306
876.008	15382
876.136	15408
876.265	15720
876.393	15736
876.521	15800
876.65	15720
876.778	15713
876.906	15633
877.034	15519
877.162	15713
877.29	15663
877.418	15641
877.546	15690
877.674	15682
877.802	15709
877.93	15728
878.058	15606
878.185	15606
878.313	15747
878.441	15724
878.568	15564
878.696	15698
878.824	15709
878.951	15739
879.079	15975
879.206	16006
879.333	15895
879.461	15774
879.588	15903
879.715	15979
879.842	15884
879.97	15675
880.097	15595
880.224	15648
880.351	15591
880.478	15595
880.605	15496
880.732	15603
880.859	15797
880.986	15595
881.112	15595
881.239	15428
881.366	15302
881.493	15214
881.619	15302
881.746	15237
881.872	15108
881.999	15211
882.125	15089
882.252	15348
882.378	15275
882.505	15431
882.631	15252
882.757	15077
882.883	15032
883.01	15017
883.136	15017
883.262	14834
883.388	14918
883.514	15047
883.64	15047
883.766	14967
883.892	14823
884.018	14823
884.143	15081
884.269	15104
884.395	14670
884.52	14674
884.646	14716
884.772	14651
884.897	14610
885.023	14762
885.148	14830
885.274	14883
885.399	14708
885.524	14705
885.65	14678
885.775	14731
885.9	14834
886.025	14743
886.15	14762
886.275	14724
886.4	14541
886.525	14629
886.65	14583
886.775	14712
886.9	14895
887.025	15009
887.149	14705
887.274	14575
887.399	14552
887.523	14533
887.648	14393
887.773	14442
887.897	14659
888.021	14590
888.146	14530
888.27	14720
888.395	14735
888.519	14705
888.643	14556
888.767	14651
888.891	14514
889.015	14396
889.139	14377
889.263	14351
889.387	14522
889.511	14617
889.635	14541
889.759	14396
889.883	14317
890.006	14465
890.13	14488
890.254	14271
890.377	14423
890.501	14214
890.624	14195
890.748	14313
890.871	14069
890.995	14054
891.118	14100
891.241	14073
891.364	14100
891.488	14134
891.611	14126
891.734	14187
891.857	14161
891.98	14145
892.103	14267
892.226	14092
892.349	14058
892.471	14001
892.594	14065
892.717	14027
892.839	14016
892.962	14107
893.085	14195
893.207	14123
893.33	13989
893.452	14035
893.575	14161
893.697	14130
893.819	14298
893.941	14393
894.064	14233
894.186	14073
894.308	14138
894.43	14206
894.552	14438
894.674	14191
894.796	14065
894.918	14043
895.04	14130
895.161	14286
895.283	14229
895.405	14069
895.526	14180
895.648	14313
895.769	14267
895.891	14408
896.012	14358
896.134	14374
896.255	14320
896.376	14191
896.498	14286
896.619	14355
896.74	14305
896.861	14328
896.982	14598
897.103	14769
897.224	14659
897.345	14488
897.466	14568
897.587	14526
897.708	14705
897.828	14571
897.949	14476
898.07	14461
898.19	14499
898.311	14727
898.431	14541
898.552	14579
898.672	14689
898.792	14746
898.913	14712
899.033	14503
899.153	14549
899.273	14454
899.393	14374
899.513	14579
899.633	14450
899.753	14461
899.873	14484
899.993	14629
900.113	14499
900.232	14488
900.352	14419
900.472	14358
900.591	14294
900.711	14404
900.83	14347
900.95	14476
901.069	14457
901.189	14366
901.308	14084
901.427	14012
901.546	14035
901.665	14046
901.784	14065
901.904	13959
902.023	13887
902.141	13689
902.26	13636
902.379	13712
902.498	13628
902.617	13567
902.735	13632
902.854	13575
902.973	13514
903.091	13251
903.21	13247
903.328	13350
903.446	13190
903.565	13225
903.683	13171
903.801	13088
903.919	13171
904.038	13114
904.156	13015
904.274	12973
904.392	12939
904.51	12996
904.627	12973
904.745	13053
904.863	13019
904.981	12787
905.098	12654
905.216	12741
905.334	12730
905.451	12757
905.569	12707
905.686	12703
905.803	12604
905.921	12540
906.038	12536
906.155	12532
906.272	12410
906.389	12528
906.506	12342
906.623	12346
906.74	12228
906.857	12121
906.974	12136
907.091	12391
907.208	12353
907.324	12315
907.441	12251
907.557	12019
907.674	12007
907.79	11996
907.907	11999
908.023	12019
908.139	12007
908.256	12034
908.372	11908
908.488	11950
908.604	11821
908.72	11707
908.836	11817
908.952	11737
909.068	11866
909.184	11809
909.3	11840
909.415	11882
909.531	11756
909.647	11539
909.762	11577
909.878	11444
909.993	11528
910.108	11528
910.224	11486
910.339	11589
910.454	11402
910.57	11387
910.685	11307
910.8	11646
910.915	11551
911.03	11433
911.145	11246
911.259	11269
911.374	11227
911.489	11143
911.604	11086
911.718	10953
911.833	11090
911.947	10828
912.062	10858
912.176	11022
912.291	11003
912.405	11003
912.519	11174
912.633	11220
912.748	11052
912.862	11029
912.976	10915
913.09	10748
913.204	10835
913.318	10889
913.431	10930
913.545	11014
913.659	10991
913.772	10946
913.886	10675
914	10755
914.113	10824
914.226	10869
914.34	10763
914.453	10630
914.566	10866
914.68	10698
914.793	10630
914.906	10565
915.019	10489
915.132	10432
915.245	10466
915.358	10455
915.47	10493
915.583	10588
915.696	10599
915.809	10706
915.921	10592
916.034	10519
916.146	10409
916.259	10421
916.371	10565
916.483	10504
916.595	10428
916.708	10508
916.82	10428
916.932	10428
917.044	10470
917.156	10344
917.268	10322
917.38	10371
917.491	10344
917.603	10375
917.715	10451
917.826	10417
917.938	10318
918.049	10211
918.161	10356
918.272	10443
918.384	10402
918.495	10280
918.606	10246
918.717	10219
918.828	10204
918.939	10253
919.05	10101
919.161	10177
919.272	9998
919.383	10059
919.494	10280
919.604	10402
919.715	10265
919.826	10207
919.936	10223
920.047	10253
920.157	10337
920.267	10451
920.378	10310
920.488	10215
920.598	10436
920.708	10569
920.818	10478
920.928	10405
921.038	10588
921.148	10504
921.258	10337
921.368	10287
921.477	10055
921.587	10131
921.697	9968
921.806	10029
921.916	9964
922.025	9831
922.134	9781
922.244	9713
922.353	9732
922.462	9713
922.571	9717
922.68	9485
922.789	9504
922.898	9458
923.007	9393
923.116	9477
923.224	9435
923.333	9428
923.442	9412
923.55	9382
923.659	9336
923.767	9424
923.876	9355
923.984	9458
924.092	9218
924.201	9351
924.309	9363
924.417	9412
924.525	9275
924.633	9367
924.741	10322
924.849	9161
924.956	9298
925.064	9150
925.172	9032
925.279	9165
925.387	9154
925.494	9150
925.602	9253
925.709	9161
925.816	9055
925.924	9165
926.031	9230
926.138	9116
926.245	9184
926.352	9104
926.459	9237
926.566	9180
926.673	9112
926.779	8994
926.886	8998
926.993	8891
927.099	8823
927.206	8777
927.312	8804
927.419	8895
927.525	8880
927.631	8906
927.737	8743
927.843	8705
927.95	8712
928.056	8716
928.162	8697
928.267	8788
928.373	9424
928.479	8811
928.585	8606
928.69	8648
928.796	8804
928.901	8708
929.007	8476
929.112	8670
929.218	8594
929.323	8514
929.428	8511
929.533	8667
929.638	8469
929.743	8564
929.848	8629
929.953	8476
930.058	8613
930.163	8317
930.267	8324
930.372	8530
930.477	8279
930.581	8518
930.685	8465
930.79	8317
930.894	8332
930.998	8256
931.103	8408
931.207	8126
931.311	8008
931.415	7947
931.519	7769
931.623	7776
