Data from test_V78500241_885.txt Node
Date: Fri Mar 25 14:39:52 CST 2022
User: usil
Spectrometer: V785-0024
Trigger mode: 0
Integration Time (sec): 4.000000E-1
Scans to average: 1
Nonlinearity correction enabled: false
Boxcar width: 0
Storing dark spectrum: false
XAxis mode: Wavelengths
Number of Pixels in Spectrum: 1024
>>>>>Begin Spectral Data<<<<<
801.071	25430
801.214	25297
801.356	24981
801.499	24867
801.641	24939
801.783	24757
801.926	24837
802.068	24669
802.211	24559
802.353	24597
802.496	24251
802.638	24220
802.78	24117
802.923	24220
803.065	24015
803.208	24140
803.35	24114
803.492	24220
803.635	24304
803.777	24144
803.919	24155
804.061	24559
804.204	24224
804.346	24064
804.488	24034
804.63	24110
804.773	23961
804.915	24125
805.057	24186
805.199	24140
805.341	24232
805.483	24414
805.626	24281
805.768	24262
805.91	24372
806.052	24376
806.194	24277
806.336	24722
806.478	24437
806.62	24623
806.762	24665
806.904	24817
807.046	25282
807.188	25255
807.33	25316
807.472	25537
807.614	25681
807.756	26027
807.898	26434
808.04	26651
808.182	27287
808.324	28162
808.465	28972
808.607	30015
808.749	30867
808.891	31373
809.033	31434
809.174	30909
809.316	29950
809.458	28980
809.6	27914
809.741	27237
809.883	26743
810.025	26385
810.166	26130
810.308	25860
810.45	25616
810.591	25415
810.733	25194
810.875	24863
811.016	24745
811.158	24738
811.299	24745
811.441	24859
811.582	24791
811.724	24707
811.865	24688
812.007	24498
812.148	24490
812.29	24707
812.431	24738
812.573	24901
812.714	24894
812.855	24985
812.997	24985
813.138	25194
813.279	24989
813.421	24859
813.562	24795
813.703	24703
813.845	24574
813.986	24205
814.127	24140
814.268	23920
814.41	23874
814.551	23935
814.692	24057
814.833	23824
814.974	23889
815.115	23843
815.256	23627
815.397	23786
815.539	23764
815.68	23474
815.821	23395
815.962	23573
816.103	23562
816.244	23311
816.385	23284
816.526	23193
816.666	23102
816.807	22904
816.948	23003
817.089	22957
817.23	23003
817.371	22961
817.512	22942
817.653	22869
817.793	22938
817.934	22786
818.075	22854
818.216	22949
818.356	22866
818.497	22790
818.638	22683
818.778	22664
818.919	22531
819.06	22569
819.2	22744
819.341	22771
819.481	22782
819.622	22923
819.762	23159
819.903	23064
820.043	23006
820.184	22873
820.324	22850
820.465	22812
820.605	22736
820.746	22786
820.886	22691
821.026	22759
821.167	22866
821.307	22877
821.447	22759
821.588	22759
821.728	22500
821.868	22325
822.008	22200
822.149	22211
822.289	22124
822.429	21960
822.569	21762
822.709	21789
822.849	21739
822.99	21648
823.13	21610
823.27	21542
823.41	21458
823.55	21272
823.69	21507
823.83	21496
823.97	21397
824.11	21214
824.25	21146
824.389	21123
824.529	21184
824.669	21207
824.809	21184
824.949	21222
825.089	21154
825.228	21142
825.368	21013
825.508	21077
825.648	20998
825.787	21024
825.927	21123
826.067	20861
826.206	20941
826.346	20906
826.485	20990
826.625	20948
826.765	21036
826.904	20963
827.044	20807
827.183	20701
827.323	20708
827.462	20792
827.601	20648
827.741	20682
827.88	20564
828.02	20438
828.159	20476
828.298	20530
828.437	20522
828.577	20457
828.716	20693
828.855	20495
828.994	20282
829.134	20396
829.273	20461
829.412	20103
829.551	20221
829.69	20229
829.829	20252
829.968	20362
830.107	20351
830.246	20218
830.385	20301
830.524	20256
830.663	20107
830.802	19978
830.941	19909
831.08	19879
831.219	19997
831.357	20035
831.496	20103
831.635	19936
831.774	19852
831.913	19887
832.051	19643
832.19	19670
832.329	19795
832.467	19666
832.606	19632
832.744	19499
832.883	19662
833.022	19658
833.16	19693
833.299	19795
833.437	19791
833.576	19845
833.714	19883
833.852	19906
833.991	19989
834.129	20039
834.267	20008
834.406	19868
834.544	19906
834.682	20043
834.821	19837
834.959	19970
835.097	19662
835.235	19845
835.373	19693
835.511	19738
835.65	19575
835.788	19480
835.926	19373
836.064	19232
836.202	19293
836.34	19499
836.478	19502
836.615	19445
836.753	19495
836.891	19556
837.029	19537
837.167	19441
837.305	19335
837.443	19278
837.58	19179
837.718	19255
837.856	19251
837.993	19179
838.131	19213
838.269	19164
838.406	19160
838.544	19107
838.681	18935
838.819	18840
838.956	18692
839.094	18821
839.231	18779
839.369	18886
839.506	19088
839.643	18901
839.781	18745
839.918	18684
840.055	18677
840.193	18639
840.33	18726
840.467	18673
840.604	18776
840.742	18970
840.879	18559
841.016	18601
841.153	18540
841.29	18802
841.427	18688
841.564	18719
841.701	18661
841.838	18623
841.975	18563
842.112	18525
842.249	18532
842.385	18418
842.522	18597
842.659	18475
842.796	18384
842.933	18483
843.069	18426
843.206	18456
843.343	18452
843.479	18483
843.616	18346
843.752	18258
843.889	18304
844.025	18445
844.162	18201
844.298	18437
844.435	18395
844.571	18418
844.708	18574
844.844	18810
844.98	18795
845.117	18981
845.253	19133
845.389	19563
845.525	20484
845.661	21987
845.798	23946
845.934	25483
846.07	26126
846.206	25966
846.342	24928
846.478	22759
846.614	20933
846.75	19670
846.886	18966
847.022	18650
847.158	18327
847.294	18133
847.429	18079
847.565	17878
847.701	17977
847.837	17577
847.972	17566
848.108	17684
848.244	17585
848.379	17421
848.515	17452
848.65	17368
848.786	17414
848.921	17296
849.057	17589
849.192	17452
849.328	17448
849.463	17277
849.598	17334
849.734	17258
849.869	17345
850.004	17048
850.14	17170
850.275	17174
850.41	16911
850.545	17102
850.68	16850
850.815	17060
850.95	17033
851.085	17231
851.22	17174
851.355	17052
851.49	16980
851.625	16999
851.76	16965
851.895	16938
852.03	16900
852.165	17056
852.299	17109
852.434	17052
852.569	17128
852.703	17052
852.838	17124
852.973	17208
853.107	17200
853.242	17029
853.376	16949
853.511	16847
853.645	16824
853.78	17006
853.914	16987
854.048	16968
854.183	16923
854.317	16976
854.451	17204
854.585	17003
854.72	16957
854.854	17056
854.988	16904
855.122	16911
855.256	16801
855.39	16942
855.524	17025
855.658	17071
855.792	16915
855.926	16854
856.06	16984
856.194	16965
856.327	16835
856.461	16862
856.595	16824
856.729	16877
856.862	16987
856.996	16911
857.13	16885
857.263	16999
857.397	16946
857.53	16881
857.664	16828
857.797	16835
857.931	16957
858.064	16904
858.197	17006
858.331	16854
858.464	16771
858.597	16736
858.731	16771
858.864	16839
858.997	16774
859.13	16759
859.263	16923
859.396	16805
859.529	16763
859.662	16816
859.795	16713
859.928	16816
860.061	16953
860.194	16984
860.327	16934
860.46	16767
860.592	16942
860.725	16881
860.858	16824
860.99	16752
861.123	16618
861.256	16713
861.388	16889
861.521	17509
861.653	16771
861.786	16660
861.918	16573
862.05	16755
862.183	16725
862.315	16839
862.447	16850
862.58	16679
862.712	16500
862.844	16542
862.976	16584
863.108	16584
863.24	16957
863.372	16523
863.504	16561
863.636	16550
863.768	16584
863.9	16561
864.032	16478
864.164	16466
864.296	16459
864.428	16679
864.559	16592
864.691	16573
864.823	16531
864.954	16508
865.086	16558
865.217	16546
865.349	16341
865.48	16497
865.612	16451
865.743	16584
865.875	16432
866.006	16443
866.137	16451
866.269	16481
866.4	16466
866.531	16462
866.662	16352
866.793	16409
866.924	16405
867.055	16447
867.186	16398
867.317	16371
867.448	16405
867.579	16481
867.71	16333
867.841	16390
867.972	16538
868.103	16455
868.233	16504
868.364	16436
868.495	16615
868.625	16698
868.756	16831
868.886	16653
869.017	16664
869.147	16790
869.278	16938
869.408	16767
869.539	16725
869.669	16748
869.799	16675
869.929	16847
870.06	16816
870.19	17067
870.32	16976
870.45	17048
870.58	17018
870.71	17193
870.84	17254
870.97	17117
871.1	17117
871.23	17292
871.36	17303
871.489	17147
871.619	17212
871.749	17159
871.879	17330
872.008	17402
872.138	17284
872.267	17429
872.397	17246
872.526	17143
872.656	17136
872.785	17204
872.915	17429
873.044	17497
873.173	17387
873.303	17516
873.432	17429
873.561	17448
873.69	17467
873.819	17334
873.948	17558
874.077	17592
874.206	17455
874.335	17539
874.464	17570
874.593	17661
874.722	17722
874.851	17726
874.979	17832
875.108	17821
875.237	17786
875.365	17779
875.494	17790
875.623	17802
875.751	17866
875.88	17901
876.008	18015
876.136	18087
876.265	18319
876.393	18338
876.521	18384
876.65	18494
876.778	18315
876.906	18330
877.034	18277
877.162	18353
877.29	18388
877.418	18467
877.546	18506
877.674	18445
877.802	18566
877.93	18540
878.058	18525
878.185	18551
878.313	18734
878.441	18840
878.568	18939
878.696	19027
878.824	19350
878.951	19780
879.079	20157
879.206	20929
879.333	21401
879.461	21934
879.588	22310
879.715	22386
879.842	22173
879.97	21488
880.097	20598
880.224	20142
880.351	19830
880.478	19502
880.605	19346
880.732	19206
880.859	19472
880.986	19126
881.112	19122
881.239	18977
881.366	18878
881.493	18719
881.619	18681
881.746	18722
881.872	18692
881.999	18760
882.125	18779
882.252	18814
882.378	18821
882.505	18913
882.631	18661
882.757	18544
882.883	18608
883.01	18563
883.136	18509
883.262	18452
883.388	18330
883.514	18441
883.64	18681
883.766	18483
883.892	18403
884.018	18418
884.143	18566
884.269	18673
884.395	18327
884.52	18281
884.646	18330
884.772	18308
884.897	18083
885.023	18258
885.148	18296
885.274	18315
885.399	18213
885.524	18182
885.65	18125
885.775	18057
885.9	18026
886.025	18178
886.15	17992
886.275	17908
886.4	17672
886.525	17855
886.65	17783
886.775	17676
886.9	17859
887.025	17984
887.149	17630
887.274	17604
887.399	17509
887.523	17474
887.648	17505
887.773	17395
887.897	17600
888.021	17448
888.146	17353
888.27	17486
888.395	17539
888.519	17490
888.643	17368
888.767	17258
888.891	17117
889.015	17143
889.139	17174
889.263	17102
889.387	17197
889.511	17334
889.635	17098
889.759	17018
889.883	17033
890.006	16965
890.13	17185
890.254	16889
890.377	17060
890.501	16763
890.624	16862
890.748	16786
890.871	16679
890.995	16588
891.118	16569
891.241	16607
891.364	16588
891.488	16733
891.611	16577
891.734	16558
891.857	16596
891.98	16611
892.103	16634
892.226	16508
892.349	16478
892.471	16440
892.594	16455
892.717	16546
892.839	16455
892.962	16512
893.085	16535
893.207	16428
893.33	16329
893.452	16371
893.575	16512
893.697	16375
893.819	16607
893.941	16592
894.064	16584
894.186	16398
894.308	16436
894.43	16470
894.552	16592
894.674	16481
894.796	16325
894.918	16443
895.04	16344
895.161	16470
895.283	16546
895.405	16276
895.526	16390
895.648	16443
895.769	16489
895.891	16436
896.012	16523
896.134	16466
896.255	16386
896.376	16440
896.498	16519
896.619	16424
896.74	16489
896.861	16542
896.982	16801
897.103	16968
897.224	16767
897.345	16725
897.466	16588
897.587	16717
897.708	16889
897.828	16828
897.949	16584
898.07	16535
898.19	16573
898.311	16767
898.431	16816
898.552	16812
898.672	16961
898.792	16793
898.913	16771
899.033	16729
899.153	16596
899.273	16485
899.393	16580
899.513	16592
899.633	16603
899.753	16626
899.873	16573
899.993	16634
900.113	16531
900.232	16485
900.352	16550
900.472	16466
900.591	16428
900.711	16440
900.83	16443
900.95	16508
901.069	16607
901.189	16413
901.308	16211
901.427	15998
901.546	16055
901.665	16082
901.784	16173
901.904	15915
902.023	15800
902.141	15553
902.26	15625
902.379	15755
902.498	15591
902.617	15538
902.735	15599
902.854	15561
902.973	15485
903.091	15332
903.21	15275
903.328	15302
903.446	15222
903.565	15066
903.683	15123
903.801	14998
903.919	15001
904.038	14998
904.156	14853
904.274	14853
904.392	14762
904.51	14883
904.627	14819
904.745	14876
904.863	14895
904.981	14568
905.098	14469
905.216	14484
905.334	14385
905.451	14564
905.569	14362
905.686	14457
905.803	14461
905.921	14305
906.038	14488
906.155	14271
906.272	14069
906.389	14176
906.506	14005
906.623	13970
906.74	14016
906.857	13936
906.974	13936
907.091	14111
907.208	14191
907.324	14088
907.441	13875
907.557	13738
907.674	13712
907.79	13685
907.907	13723
908.023	13811
908.139	13830
908.256	13681
908.372	13658
908.488	13518
908.604	13563
908.72	13438
908.836	13548
908.952	13358
909.068	13480
909.184	13540
909.3	13426
909.415	13533
909.531	13403
909.647	13202
909.762	13255
909.878	13114
909.993	13175
910.108	13270
910.224	13263
910.339	13213
910.454	13118
910.57	13027
910.685	12962
910.8	13327
910.915	13171
911.03	13088
911.145	12833
911.259	12859
911.374	12909
911.489	12711
911.604	12757
911.718	12563
911.833	12639
911.947	12448
912.062	12330
912.176	12521
912.291	12578
912.405	12574
912.519	12779
912.633	12817
912.748	12654
912.862	12635
912.976	12486
913.09	12232
913.204	12456
913.318	12490
913.431	12483
913.545	12528
913.659	12585
913.772	12448
913.886	12357
914	12452
914.113	12407
914.226	12369
914.34	12414
914.453	12209
914.566	12429
914.68	12296
914.793	12205
914.906	12129
915.019	12076
915.132	11950
915.245	12022
915.358	12026
915.47	12026
915.583	12034
915.696	12091
915.809	12087
915.921	12224
916.034	11992
916.146	11965
916.259	12015
916.371	12045
916.483	11999
916.595	11885
916.708	11973
916.82	11904
916.932	11942
917.044	11927
917.156	11908
917.268	11775
917.38	11863
917.491	11688
917.603	11783
917.715	11821
917.826	11893
917.938	11824
918.049	11623
918.161	11832
918.272	11847
918.384	11923
918.495	11794
918.606	11600
918.717	11486
918.828	11558
918.939	11646
919.05	11505
919.161	11600
919.272	11448
919.383	11501
919.494	11718
919.604	11851
919.715	11592
919.826	11524
919.936	11551
920.047	11623
920.157	11600
920.267	11714
920.378	11589
920.488	11585
920.598	11798
920.708	11931
920.818	11752
920.928	11741
921.038	11961
921.148	11939
921.258	11558
921.368	11539
921.477	11478
921.587	11478
921.697	11326
921.806	11478
921.916	11280
922.025	11136
922.134	11033
922.244	11033
922.353	11086
922.462	10980
922.571	10949
922.68	10854
922.789	10786
922.898	10702
923.007	10740
923.116	10797
923.224	10755
923.333	10782
923.442	10550
923.55	10675
923.659	10656
923.767	10714
923.876	10668
923.984	10698
924.092	10558
924.201	10519
924.309	10565
924.417	10622
924.525	10550
924.633	10474
924.741	11246
924.849	10382
924.956	10554
925.064	10348
925.172	10261
925.279	10303
925.387	10398
925.494	10402
925.602	10478
925.709	10371
925.816	10310
925.924	10329
926.031	10405
926.138	10276
926.245	10398
926.352	10261
926.459	10421
926.566	10413
926.673	10200
926.779	10234
926.886	10131
926.993	10059
927.099	10017
927.206	9972
927.312	9930
927.419	10040
927.525	9964
927.631	10090
927.737	9907
927.843	9876
927.95	9812
928.056	9797
928.162	9876
928.267	9899
928.373	10493
928.479	9956
928.585	9747
928.69	9918
928.796	9880
928.901	9762
929.007	9663
929.112	9808
929.218	9751
929.323	9724
929.428	9686
929.533	9865
929.638	9610
929.743	9641
929.848	9713
929.953	9663
930.058	9549
930.163	9420
930.267	9466
930.372	9504
930.477	9405
930.581	9576
930.685	9473
930.79	9336
930.894	9382
930.998	9386
931.103	9443
931.207	9203
931.311	9036
931.415	9005
931.519	8944
931.623	8819
