Data from test_V78500241_737.txt Node
Date: Fri Mar 25 14:38:51 CST 2022
User: usil
Spectrometer: V785-0024
Trigger mode: 0
Integration Time (sec): 4.000000E-1
Scans to average: 1
Nonlinearity correction enabled: false
Boxcar width: 0
Storing dark spectrum: false
XAxis mode: Wavelengths
Number of Pixels in Spectrum: 1024
>>>>>Begin Spectral Data<<<<<
801.071	27382
801.214	27157
801.356	26990
801.499	26773
801.641	26708
801.783	26598
801.926	26746
802.068	26640
802.211	26488
802.353	26317
802.496	26191
802.638	26199
802.78	26145
802.923	26103
803.065	26122
803.208	26199
803.35	26084
803.492	26138
803.635	26126
803.777	26161
803.919	26164
804.061	26651
804.204	26446
804.346	26339
804.488	26290
804.63	26431
804.773	26358
804.915	26377
805.057	26629
805.199	26636
805.341	26606
805.483	26788
805.626	26925
805.768	26716
805.91	26933
806.052	27131
806.194	27211
806.336	27637
806.478	27363
806.62	27785
806.762	28105
806.904	28481
807.046	29170
807.188	29391
807.33	29726
807.472	30395
807.614	31053
807.756	32130
807.898	33150
808.04	34793
808.182	37038
808.324	39542
808.465	42749
808.607	46280
808.749	49190
808.891	50998
809.033	51313
809.174	49457
809.316	46493
809.458	43110
809.6	39382
809.741	36623
809.883	34295
810.025	32804
810.166	31590
810.308	30631
810.45	30007
810.591	29299
810.733	28927
810.875	28462
811.016	28120
811.158	27873
811.299	27880
811.441	27892
811.582	27644
811.724	27306
811.865	27138
812.007	27028
812.148	27093
812.29	26906
812.431	27188
812.573	27154
812.714	27195
812.855	27230
812.997	27195
813.138	27336
813.279	27161
813.421	27180
813.562	26937
813.703	26746
813.845	26507
813.986	26328
814.127	26050
814.268	25875
814.41	25856
814.551	25845
814.692	25906
814.833	25731
814.974	25601
815.115	25750
815.256	25514
815.397	25666
815.539	25491
815.68	25266
815.821	25324
815.962	25327
816.103	25285
816.244	25206
816.385	25023
816.526	25072
816.666	24772
816.807	24715
816.948	24757
817.089	24715
817.23	24677
817.371	24547
817.512	24650
817.653	24597
817.793	24582
817.934	24616
818.075	24566
818.216	24532
818.356	24574
818.497	24441
818.638	24213
818.778	24194
818.919	24163
819.06	24384
819.2	24300
819.341	24334
819.481	24311
819.622	24566
819.762	24696
819.903	24593
820.043	24498
820.184	24563
820.324	24330
820.465	24376
820.605	24304
820.746	24540
820.886	24266
821.026	24464
821.167	24171
821.307	24330
821.447	24083
821.588	24060
821.728	23939
821.868	23729
822.008	23737
822.149	23577
822.289	23600
822.429	23296
822.569	23265
822.709	23189
822.849	23162
822.99	23079
823.13	23018
823.27	22908
823.41	22908
823.55	22797
823.69	22763
823.83	22778
823.97	22683
824.11	22531
824.25	22634
824.389	22717
824.529	22641
824.669	22561
824.809	22653
824.949	22675
825.089	22626
825.228	22626
825.368	22337
825.508	22402
825.648	22519
825.787	22577
825.927	22474
826.067	22356
826.206	22325
826.346	22421
826.485	22478
826.625	22413
826.765	22390
826.904	22432
827.044	22261
827.183	22074
827.323	22032
827.462	21983
827.601	22044
827.741	22101
827.88	22086
828.02	21808
828.159	21953
828.298	21994
828.437	22032
828.577	21934
828.716	22044
828.855	21888
828.994	21724
829.134	21709
829.273	21766
829.412	21846
829.551	21622
829.69	21648
829.829	21690
829.968	21778
830.107	21701
830.246	21694
830.385	21679
830.524	21618
830.663	21523
830.802	21496
830.941	21302
831.08	21264
831.219	21526
831.357	21435
831.496	21557
831.635	21336
831.774	21180
831.913	21310
832.051	21100
832.19	21214
832.329	21222
832.467	21077
832.606	21161
832.744	21199
832.883	21279
833.022	21249
833.16	21450
833.299	21576
833.437	21694
833.576	21892
833.714	21861
833.852	22169
833.991	22200
834.129	22303
834.267	22398
834.406	22276
834.544	22219
834.682	22154
834.821	21979
834.959	22044
835.097	21660
835.235	21606
835.373	21580
835.511	21420
835.65	21138
835.788	21055
835.926	21028
836.064	20849
836.202	20788
836.34	20967
836.478	20982
836.615	20838
836.753	20872
836.891	21047
837.029	20941
837.167	20678
837.305	20807
837.443	20678
837.58	20636
837.718	20674
837.856	20743
837.993	20541
838.131	20609
838.269	20583
838.406	20495
838.544	20454
838.681	20362
838.819	20290
838.956	20119
839.094	20195
839.231	20142
839.369	20229
839.506	20480
839.643	20374
839.781	20001
839.918	20145
840.055	20039
840.193	20142
840.33	19967
840.467	20005
840.604	20035
840.742	20229
840.879	19879
841.016	19970
841.153	20039
841.29	20145
841.427	20126
841.564	20153
841.701	20046
841.838	20062
841.975	19909
842.112	19986
842.249	19963
842.385	19955
842.522	20103
842.659	19951
842.796	19959
842.933	19898
843.069	19864
843.206	20062
843.343	20164
843.479	20103
843.616	20077
843.752	19811
843.889	19944
844.025	20103
844.162	20031
844.298	20180
844.435	20317
844.571	20488
844.708	20910
844.844	21294
844.98	21701
845.117	22451
845.253	23311
845.389	25422
845.525	29181
845.661	35531
845.798	42631
845.934	47764
846.07	49833
846.206	48171
846.342	43206
846.478	36003
846.614	30015
846.75	25868
846.886	23600
847.022	22120
847.158	21214
847.294	20682
847.429	20389
847.565	19959
847.701	20126
847.837	19556
847.972	19434
848.108	19297
848.244	19187
848.379	19091
848.515	18943
848.65	18897
848.786	18859
848.921	18810
849.057	19015
849.192	18989
849.328	18939
849.463	18875
849.598	18700
849.734	18563
849.869	18654
850.004	18547
850.14	18597
850.275	18639
850.41	18380
850.545	18445
850.68	18517
850.815	18490
850.95	18563
851.085	18646
851.22	18627
851.355	18540
851.49	18460
851.625	18388
851.76	18464
851.895	18467
852.03	18342
852.165	18323
852.299	18513
852.434	18692
852.569	18536
852.703	18498
852.838	18566
852.973	18768
853.107	18753
853.242	18703
853.376	18460
853.511	18509
853.645	18513
853.78	18711
853.914	18738
854.048	18650
854.183	18726
854.317	18795
854.451	19000
854.585	18741
854.72	18741
854.854	18814
854.988	18566
855.122	18509
855.256	18407
855.39	18513
855.524	18593
855.658	18593
855.792	18509
855.926	18448
856.06	18433
856.194	18517
856.327	18551
856.461	18384
856.595	18266
856.729	18266
856.862	18410
856.996	18292
857.13	18365
857.263	18319
857.397	18399
857.53	18266
857.664	18395
857.797	18376
857.931	18304
858.064	18292
858.197	18399
858.331	18216
858.464	18159
858.597	18079
858.731	18334
858.864	18220
858.997	18213
859.13	18232
859.263	18171
859.396	18289
859.529	18136
859.662	18136
859.795	18190
859.928	18159
860.061	18281
860.194	18330
860.327	18251
860.46	18133
860.592	18376
860.725	18251
860.858	18239
860.99	18220
861.123	18129
861.256	18213
861.388	18262
861.521	18840
861.653	17996
861.786	17958
861.918	18102
862.05	18053
862.183	18163
862.315	18129
862.447	18148
862.58	17988
862.712	17912
862.844	17908
862.976	17939
863.108	17977
863.24	18327
863.372	17901
863.504	17851
863.636	17802
863.768	17927
863.9	17874
864.032	17824
864.164	17703
864.296	17790
864.428	17958
864.559	17927
864.691	17950
864.823	17824
864.954	17798
865.086	17802
865.217	17756
865.349	17699
865.48	17756
865.612	17726
865.743	18003
865.875	17710
866.006	17783
866.137	17836
866.269	17672
866.4	17760
866.531	17649
866.662	17733
866.793	17840
866.924	17687
867.055	17745
867.186	17756
867.317	17695
867.448	17615
867.579	17737
867.71	17710
867.841	17661
867.972	17748
868.103	17798
868.233	17687
868.364	17794
868.495	17882
868.625	18076
868.756	18171
868.886	17882
869.017	18007
869.147	18125
869.278	18095
869.408	17965
869.539	17988
869.669	18155
869.799	18026
869.929	18155
870.06	18098
870.19	18407
870.32	18334
870.45	18414
870.58	18456
870.71	18620
870.84	18494
870.97	18410
871.1	18445
871.23	18791
871.36	18696
871.489	18601
871.619	18795
871.749	18616
871.879	18768
872.008	18886
872.138	18825
872.267	18734
872.397	18612
872.526	18544
872.656	18665
872.785	18661
872.915	18795
873.044	18951
873.173	18825
873.303	19072
873.432	19027
873.561	19057
873.69	18932
873.819	19069
873.948	19232
874.077	19065
874.206	19057
874.335	19190
874.464	19274
874.593	19449
874.722	19335
874.851	19575
874.979	19514
875.108	19586
875.237	19544
875.365	19403
875.494	19605
875.623	19784
875.751	19742
875.88	19833
876.008	20088
876.136	20081
876.265	20320
876.393	20541
876.521	20609
876.65	20568
876.778	20583
876.906	20632
877.034	20712
877.162	20674
877.29	20743
877.418	20853
877.546	20906
877.674	21138
877.802	21211
877.93	21412
878.058	21469
878.185	21774
878.313	22025
878.441	22379
878.568	22694
878.696	23307
878.824	24159
878.951	25331
879.079	27074
879.206	29056
879.333	31426
879.461	33074
879.588	34310
879.715	34303
879.842	33378
879.97	31472
880.097	29220
880.224	27454
880.351	26301
880.478	25343
880.605	24741
880.732	24224
880.859	24205
880.986	23863
881.112	23764
881.239	23501
881.366	23353
881.493	23220
881.619	23254
881.746	23353
881.872	23356
881.999	23280
882.125	23379
882.252	23566
882.378	23539
882.505	23676
882.631	23402
882.757	23436
882.883	23417
883.01	23421
883.136	23288
883.262	23307
883.388	23155
883.514	23261
883.64	23318
883.766	23250
883.892	23041
884.018	23197
884.143	23254
884.269	23341
884.395	23151
884.52	23185
884.646	23086
884.772	23022
884.897	22999
885.023	23033
885.148	23178
885.274	23109
885.399	23044
885.524	22816
885.65	22683
885.775	22615
885.9	22546
886.025	22535
886.15	22363
886.275	21895
886.4	21804
886.525	21557
886.65	21534
886.775	21306
886.9	21466
887.025	21424
887.149	21051
887.274	20849
887.399	20689
887.523	20663
887.648	20552
887.773	20313
887.897	20583
888.021	20328
888.146	20145
888.27	20298
888.395	20210
888.519	20111
888.643	20126
888.767	20088
888.891	19837
889.015	19651
889.139	19715
889.263	19597
889.387	19639
889.511	19803
889.635	19712
889.759	19499
889.883	19472
890.006	19487
890.13	19396
890.254	19365
890.377	19217
890.501	19046
890.624	19061
890.748	19072
890.871	18993
890.995	18745
891.118	18798
891.241	18871
891.364	18673
891.488	18753
891.611	18563
891.734	18719
891.857	18631
891.98	18528
892.103	18604
892.226	18506
892.349	18418
892.471	18315
892.594	18407
892.717	18391
892.839	18418
892.962	18292
893.085	18407
893.207	18327
893.33	18194
893.452	18148
893.575	18270
893.697	18121
893.819	18216
893.941	18178
894.064	18171
894.186	18019
894.308	17885
894.43	18121
894.552	18213
894.674	18121
894.796	17863
894.918	17904
895.04	17874
895.161	18022
895.283	17927
895.405	17775
895.526	17836
895.648	17897
895.769	17859
895.891	17958
896.012	17870
896.134	17988
896.255	17840
896.376	17817
896.498	17783
896.619	17805
896.74	17729
896.861	17851
896.982	18060
897.103	18281
897.224	18140
897.345	17958
897.466	17847
897.587	17893
897.708	17996
897.828	17912
897.949	17809
898.07	17790
898.19	17821
898.311	18133
898.431	17847
898.552	18087
898.672	18045
898.792	18019
898.913	17965
899.033	17794
899.153	17691
899.273	17703
899.393	17707
899.513	17748
899.633	17714
899.753	17790
899.873	17775
899.993	17824
900.113	17634
900.232	17638
900.352	17649
900.472	17615
900.591	17558
900.711	17486
900.83	17486
900.95	17653
901.069	17501
901.189	17478
901.308	17212
901.427	17037
901.546	17170
901.665	17185
901.784	17086
901.904	17018
902.023	16881
902.141	16626
902.26	16611
902.379	16706
902.498	16592
902.617	16455
902.735	16618
902.854	16440
902.973	16398
903.091	16246
903.21	16112
903.328	16295
903.446	16120
903.565	16029
903.683	15987
903.801	15888
903.919	15994
904.038	15987
904.156	15656
904.274	15793
904.392	15793
904.51	15850
904.627	15720
904.745	15774
904.863	15778
904.981	15557
905.098	15310
905.216	15435
905.334	15393
905.451	15321
905.569	15351
905.686	15382
905.803	15412
905.921	15184
906.038	15241
906.155	15214
906.272	15058
906.389	15005
906.506	14948
906.623	14861
906.74	14906
906.857	14823
906.974	14754
907.091	14910
907.208	15100
907.324	14883
907.441	14918
907.557	14670
907.674	14667
907.79	14590
907.907	14575
908.023	14499
908.139	14556
908.256	14655
908.372	14537
908.488	14427
908.604	14434
908.72	14233
908.836	14267
908.952	14298
909.068	14317
909.184	14473
909.3	14347
909.415	14317
909.531	14252
909.647	14126
909.762	14092
909.878	14001
909.993	14069
910.108	14054
910.224	14115
910.339	14123
910.454	13974
910.57	13906
910.685	13845
910.8	14225
910.915	14073
911.03	13856
911.145	13769
911.259	13685
911.374	13757
911.489	13655
911.604	13597
911.718	13464
911.833	13506
911.947	13445
912.062	13339
912.176	13506
912.291	13502
912.405	13445
912.519	13609
912.633	13563
912.748	13441
912.862	13480
912.976	13221
913.09	13091
913.204	13301
913.318	13251
913.431	13396
913.545	13419
913.659	13365
913.772	13301
913.886	13213
914	13198
914.113	13263
914.226	13316
914.34	13152
914.453	13034
914.566	13221
914.68	13069
914.793	13095
914.906	12939
915.019	12779
915.132	12764
915.245	12867
915.358	12848
915.47	12859
915.583	12859
915.696	12924
915.809	13015
915.921	12928
916.034	12878
916.146	12840
916.259	12856
916.371	12951
916.483	12897
916.595	12840
916.708	12882
916.82	12878
916.932	12848
917.044	12753
917.156	12810
917.268	12601
917.38	12726
917.491	12642
917.603	12601
917.715	12684
917.826	12711
917.938	12654
918.049	12506
918.161	12502
918.272	12654
918.384	12738
918.495	12544
918.606	12426
918.717	12334
918.828	12429
918.939	12376
919.05	12319
919.161	12399
919.272	12155
919.383	12186
919.494	12372
919.604	12517
919.715	12429
919.826	12228
919.936	12296
920.047	12437
920.157	12304
920.267	12452
920.378	12338
920.488	12304
920.598	12486
920.708	12677
920.818	12502
920.928	12441
921.038	12692
921.148	12578
921.258	12357
921.368	12205
921.477	12110
921.587	12079
921.697	12045
921.806	12182
921.916	12015
922.025	11904
922.134	11790
922.244	11809
922.353	11859
922.462	11638
922.571	11619
922.68	11398
922.789	11402
922.898	11471
923.007	11315
923.116	11402
923.224	11444
923.333	11379
923.442	11349
923.55	11189
923.659	11315
923.767	11341
923.876	11307
923.984	11406
924.092	11254
924.201	11296
924.309	11261
924.417	11303
924.525	11178
924.633	11223
924.741	11965
924.849	10984
924.956	11159
925.064	11022
925.172	10911
925.279	10953
925.387	11029
925.494	10980
925.602	11105
925.709	11083
925.816	10946
925.924	10984
926.031	10995
926.138	11018
926.245	11025
926.352	10873
926.459	10968
926.566	11052
926.673	10923
926.779	10767
926.886	10755
926.993	10637
927.099	10630
927.206	10565
927.312	10573
927.419	10736
927.525	10584
927.631	10653
927.737	10577
927.843	10428
927.95	10455
928.056	10535
928.162	10493
928.267	10558
928.373	11090
928.479	10580
928.585	10363
928.69	10478
928.796	10538
928.901	10402
929.007	10246
929.112	10360
929.218	10417
929.323	10284
929.428	10219
929.533	10459
929.638	10257
929.743	10200
929.848	10284
929.953	10299
930.058	10207
930.163	10032
930.267	10067
930.372	10101
930.477	9918
930.581	10169
930.685	10101
930.79	9892
930.894	10025
930.998	9854
931.103	10097
931.207	9740
931.311	9580
931.415	9561
931.519	9397
931.623	9416
