Data from test_V78500241_2380.txt Node
Date: Fri Mar 25 14:50:17 CST 2022
User: usil
Spectrometer: V785-0024
Trigger mode: 0
Integration Time (sec): 4.000000E-1
Scans to average: 1
Nonlinearity correction enabled: false
Boxcar width: 0
Storing dark spectrum: false
XAxis mode: Wavelengths
Number of Pixels in Spectrum: 1024
>>>>>Begin Spectral Data<<<<<
801.071	22158
801.214	22082
801.356	21823
801.499	21637
801.641	21610
801.783	21473
801.926	21618
802.068	21397
802.211	21348
802.353	21241
802.496	21085
802.638	21020
802.78	20960
802.923	20952
803.065	20887
803.208	20853
803.35	20746
803.492	20941
803.635	20963
803.777	20902
803.919	21013
804.061	21150
804.204	20815
804.346	20842
804.488	20727
804.63	20708
804.773	20796
804.915	20670
805.057	20823
805.199	20712
805.341	20868
805.483	20986
805.626	20762
805.768	20804
805.91	20849
806.052	20773
806.194	20629
806.336	20921
806.478	20777
806.62	20644
806.762	20872
806.904	21024
807.046	21256
807.188	21131
807.33	21142
807.472	21275
807.614	21123
807.756	21066
807.898	20956
808.04	20807
808.182	20788
808.324	20899
808.465	20914
808.607	20998
808.749	21264
808.891	21294
809.033	21370
809.174	21222
809.316	21009
809.458	21116
809.6	21119
809.741	21119
809.883	21195
810.025	21393
810.166	21363
810.308	21218
810.45	21317
810.591	21123
810.733	20960
810.875	20952
811.016	20769
811.158	20838
811.299	21009
811.441	21108
811.582	21089
811.724	20952
811.865	20857
812.007	20937
812.148	20826
812.29	20963
812.431	21161
812.573	21294
812.714	21420
812.855	21424
812.997	21572
813.138	21656
813.279	21568
813.421	21382
813.562	21359
813.703	21146
813.845	21108
813.986	20769
814.127	20674
814.268	20541
814.41	20511
814.551	20427
814.692	20545
814.833	20358
814.974	20503
815.115	20457
815.256	20317
815.397	20313
815.539	20336
815.68	20282
815.821	20138
815.962	20210
816.103	20107
816.244	20065
816.385	19921
816.526	19841
816.666	19807
816.807	19556
816.948	19731
817.089	19757
817.23	19651
817.371	19529
817.512	19700
817.653	19632
817.793	19445
817.934	19601
818.075	19487
818.216	19620
818.356	19506
818.497	19388
818.638	19331
818.778	19232
818.919	19217
819.06	19354
819.2	19365
819.341	19430
819.481	19464
819.622	19590
819.762	19856
819.903	19696
820.043	19635
820.184	19495
820.324	19567
820.465	19643
820.605	19563
820.746	19556
820.886	19415
821.026	19419
821.167	19449
821.307	19624
821.447	19518
821.588	19381
821.728	19240
821.868	19198
822.008	18993
822.149	18993
822.289	19015
822.429	18703
822.569	18768
822.709	18734
822.849	18391
822.99	18490
823.13	18448
823.27	18467
823.41	18296
823.55	18197
823.69	18197
823.83	18243
823.97	18110
824.11	18091
824.25	17977
824.389	18003
824.529	18098
824.669	17954
824.809	18091
824.949	18114
825.089	18041
825.228	18049
825.368	17908
825.508	17885
825.648	17870
825.787	17764
825.927	17885
826.067	17745
826.206	17855
826.346	17840
826.485	17786
826.625	17817
826.765	17866
826.904	17786
827.044	17551
827.183	17627
827.323	17345
827.462	17630
827.601	17452
827.741	17482
827.88	17493
828.02	17512
828.159	17509
828.298	17596
828.437	17573
828.577	17512
828.716	17562
828.855	17391
828.994	17246
829.134	17284
829.273	17315
829.412	17193
829.551	17197
829.69	17223
829.829	17254
829.968	17353
830.107	17345
830.246	17311
830.385	17147
830.524	17010
830.663	17006
830.802	17022
830.941	16782
831.08	16858
831.219	16919
831.357	16923
831.496	17071
831.635	16862
831.774	16733
831.913	16752
832.051	16656
832.19	16656
832.329	16626
832.467	16660
832.606	16580
832.744	16584
832.883	16516
833.022	16436
833.16	16542
833.299	16588
833.437	16554
833.576	16641
833.714	16599
833.852	16558
833.991	16641
834.129	16672
834.267	16626
834.406	16626
834.544	16558
834.682	16542
834.821	16508
834.959	16759
835.097	16542
835.235	16710
835.373	16634
835.511	16645
835.65	16402
835.788	16451
835.926	16417
836.064	16318
836.202	16363
836.34	16440
836.478	16573
836.615	16535
836.753	16497
836.891	16497
837.029	16421
837.167	16512
837.305	16421
837.443	16512
837.58	16310
837.718	16421
837.856	16379
837.993	16303
838.131	16325
838.269	16352
838.406	16322
838.544	16257
838.681	16032
838.819	16071
838.956	15968
839.094	15918
839.231	15930
839.369	16036
839.506	16379
839.643	16105
839.781	15937
839.918	15880
840.055	15964
840.193	15918
840.33	15850
840.467	15884
840.604	15903
840.742	16097
840.879	15793
841.016	15816
841.153	15865
841.29	15975
841.427	15895
841.564	15922
841.701	16013
841.838	15831
841.975	15884
842.112	15770
842.249	15705
842.385	15789
842.522	15842
842.659	15713
842.796	15720
842.933	15671
843.069	15534
843.206	15633
843.343	15770
843.479	15606
843.616	15675
843.752	15454
843.889	15431
844.025	15557
844.162	15428
844.298	15542
844.435	15504
844.571	15393
844.708	15500
844.844	15576
844.98	15724
845.117	15682
845.253	15401
845.389	15374
845.525	15374
845.661	15420
845.798	15249
845.934	15386
846.07	15233
846.206	15370
846.342	15420
846.478	15214
846.614	15154
846.75	15043
846.886	15058
847.022	15135
847.158	15017
847.294	15062
847.429	15180
847.565	14998
847.701	15310
847.837	14788
847.972	14735
848.108	14899
848.244	14853
848.379	14651
848.515	14598
848.65	14533
848.786	14640
848.921	14708
849.057	14712
849.192	14746
849.328	14689
849.463	14636
849.598	14575
849.734	14606
849.869	14530
850.004	14461
850.14	14396
850.275	14476
850.41	14343
850.545	14355
850.68	14393
850.815	14427
850.95	14415
851.085	14507
851.22	14537
851.355	14396
851.49	14400
851.625	14431
851.76	14282
851.895	14366
852.03	14210
852.165	14332
852.299	14404
852.434	14556
852.569	14385
852.703	14377
852.838	14446
852.973	14476
853.107	14480
853.242	14408
853.376	14301
853.511	14119
853.645	14282
853.78	14267
853.914	14252
854.048	14267
854.183	14172
854.317	14225
854.451	14454
854.585	14290
854.72	14229
854.854	14415
854.988	14176
855.122	14263
855.256	14164
855.39	14278
855.524	14320
855.658	14275
855.792	14256
855.926	14305
856.06	14419
856.194	14324
856.327	14225
856.461	14225
856.595	14221
856.729	14221
856.862	14339
856.996	14237
857.13	14404
857.263	14492
857.397	14450
857.53	14259
857.664	14328
857.797	14400
857.931	14347
858.064	14355
858.197	14355
858.331	14202
858.464	14301
858.597	14050
858.731	14195
858.864	14317
858.997	14286
859.13	14267
859.263	14377
859.396	14294
859.529	14256
859.662	14225
859.795	14351
859.928	14317
860.061	14400
860.194	14347
860.327	14290
860.46	14240
860.592	14434
860.725	14385
860.858	14393
860.99	14313
861.123	14191
861.256	14244
861.388	14271
861.521	14834
861.653	14107
861.786	14031
861.918	14172
862.05	14187
862.183	14202
862.315	14244
862.447	14275
862.58	14199
862.712	14092
862.844	14062
862.976	14138
863.108	14050
863.24	14347
863.372	13913
863.504	14100
863.636	14126
863.768	14077
863.9	14073
864.032	14031
864.164	14039
864.296	14096
864.428	14103
864.559	14115
864.691	14058
864.823	14115
864.954	14050
865.086	14050
865.217	14115
865.349	13963
865.48	14024
865.612	14069
865.743	14134
865.875	14054
866.006	13955
866.137	14092
866.269	13978
866.4	14027
866.531	13986
866.662	13936
866.793	14027
866.924	14012
867.055	14012
867.186	14100
867.317	13978
867.448	13955
867.579	14069
867.71	13913
867.841	13959
867.972	13997
868.103	14138
868.233	14050
868.364	14031
868.495	14157
868.625	14229
868.756	14393
868.886	14229
869.017	14199
869.147	14366
869.278	14362
869.408	14343
869.539	14271
869.669	14320
869.799	14328
869.929	14400
870.06	14423
870.19	14571
870.32	14610
870.45	14663
870.58	14678
870.71	14845
870.84	14823
870.97	14575
871.1	14674
871.23	14883
871.36	14842
871.489	14758
871.619	14849
871.749	14849
871.879	14842
872.008	15062
872.138	14834
872.267	14887
872.397	14785
872.526	14758
872.656	14735
872.785	14785
872.915	14933
873.044	15001
873.173	14902
873.303	14948
873.432	15005
873.561	15043
873.69	14971
873.819	14956
873.948	15131
874.077	14960
874.206	14906
874.335	14982
874.464	15043
874.593	15203
874.722	15214
874.851	15291
874.979	15264
875.108	15291
875.237	15329
875.365	15199
875.494	15268
875.623	15336
875.751	15291
875.88	15264
876.008	15424
876.136	15485
876.265	15641
876.393	15720
876.521	15762
876.65	15720
876.778	15644
876.906	15652
877.034	15686
877.162	15622
877.29	15625
877.418	15675
877.546	15766
877.674	15622
877.802	15736
877.93	15595
878.058	15561
878.185	15561
878.313	15667
878.441	15717
878.568	15473
878.696	15492
878.824	15629
878.951	15709
879.079	15804
879.206	16006
879.333	15785
879.461	15656
879.588	15747
879.715	16055
879.842	15956
879.97	15785
880.097	15534
880.224	15492
880.351	15587
880.478	15595
880.605	15466
880.732	15542
880.859	15785
880.986	15481
881.112	15538
881.239	15462
881.366	15294
881.493	15275
881.619	15131
881.746	15138
881.872	15169
881.999	15180
882.125	15165
882.252	15279
882.378	15279
882.505	15420
882.631	15077
882.757	15024
882.883	14933
883.01	15024
883.136	15039
883.262	14845
883.388	14807
883.514	15058
883.64	15020
883.766	14899
883.892	14857
884.018	14769
884.143	14967
884.269	15097
884.395	14720
884.52	14644
884.646	14655
884.772	14579
884.897	14598
885.023	14701
885.148	14796
885.274	14819
885.399	14750
885.524	14727
885.65	14754
885.775	14670
885.9	14670
886.025	14705
886.15	14640
886.275	14571
886.4	14454
886.525	14625
886.65	14735
886.775	14697
886.9	14758
887.025	14902
887.149	14750
887.274	14701
887.399	14598
887.523	14492
887.648	14419
887.773	14427
887.897	14610
888.021	14552
888.146	14488
888.27	14629
888.395	14594
888.519	14476
888.643	14590
888.767	14575
888.891	14442
889.015	14408
889.139	14419
889.263	14328
889.387	14461
889.511	14602
889.635	14514
889.759	14351
889.883	14389
890.006	14370
890.13	14549
890.254	14225
890.377	14362
890.501	14240
890.624	14126
890.748	14221
890.871	14096
890.995	13974
891.118	13928
891.241	14138
891.364	14111
891.488	14153
891.611	14164
891.734	14035
891.857	14138
891.98	14183
892.103	14191
892.226	14138
892.349	14081
892.471	13997
892.594	14058
892.717	14115
892.839	14084
892.962	14081
893.085	14168
893.207	14043
893.33	13967
893.452	14050
893.575	14084
893.697	14077
893.819	14267
893.941	14320
894.064	14275
894.186	13989
894.308	14035
894.43	14191
894.552	14442
894.674	14164
894.796	14149
894.918	14142
895.04	14157
895.161	14103
895.283	14180
895.405	14103
895.526	14199
895.648	14149
895.769	14221
895.891	14233
896.012	14301
896.134	14294
896.255	14252
896.376	14282
896.498	14267
896.619	14271
896.74	14320
896.861	14298
896.982	14575
897.103	14663
897.224	14594
897.345	14507
897.466	14469
897.587	14533
897.708	14625
897.828	14537
897.949	14495
898.07	14396
898.19	14632
898.311	14701
898.431	14473
898.552	14564
898.672	14686
898.792	14758
898.913	14670
899.033	14461
899.153	14484
899.273	14400
899.393	14469
899.513	14465
899.633	14408
899.753	14575
899.873	14396
899.993	14473
900.113	14438
900.232	14499
900.352	14492
900.472	14351
900.591	14320
900.711	14336
900.83	14324
900.95	14461
901.069	14427
901.189	14290
901.308	14149
901.427	14039
901.546	14005
901.665	14058
901.784	13967
901.904	13875
902.023	13811
902.141	13761
902.26	13544
902.379	13712
902.498	13552
902.617	13495
902.735	13586
902.854	13624
902.973	13548
903.091	13392
903.21	13335
903.328	13327
903.446	13202
903.565	13175
903.683	13072
903.801	13065
903.919	13152
904.038	13126
904.156	12993
904.274	13034
904.392	12913
904.51	13027
904.627	12947
904.745	13027
904.863	12970
904.981	12734
905.098	12673
905.216	12623
905.334	12711
905.451	12623
905.569	12612
905.686	12734
905.803	12658
905.921	12544
906.038	12646
906.155	12536
906.272	12338
906.389	12521
906.506	12304
906.623	12209
906.74	12235
906.857	12182
906.974	12133
907.091	12262
907.208	12338
907.324	12266
907.441	12201
907.557	12041
907.674	11984
907.79	11965
907.907	11874
908.023	11996
908.139	11908
908.256	11980
908.372	11950
908.488	11882
908.604	11847
908.72	11794
908.836	11798
908.952	11764
909.068	11733
909.184	11882
909.3	11836
909.415	11748
909.531	11802
909.647	11558
909.762	11570
909.878	11528
909.993	11562
910.108	11486
910.224	11486
910.339	11573
910.454	11425
910.57	11330
910.685	11356
910.8	11558
910.915	11490
911.03	11395
911.145	11239
911.259	11170
911.374	11235
911.489	11181
911.604	11052
911.718	11067
911.833	10999
911.947	10896
912.062	10744
912.176	10965
912.291	10889
912.405	10942
912.519	11136
912.633	11220
912.748	11003
912.862	11064
912.976	10885
913.09	10672
913.204	10774
913.318	10797
913.431	11022
913.545	10911
913.659	10896
913.772	10843
913.886	10740
914	10683
914.113	10790
914.226	10892
914.34	10820
914.453	10641
914.566	10835
914.68	10672
914.793	10588
914.906	10497
915.019	10440
915.132	10428
915.245	10443
915.358	10478
915.47	10500
915.583	10531
915.696	10436
915.809	10653
915.921	10645
916.034	10474
916.146	10500
916.259	10360
916.371	10554
916.483	10478
916.595	10455
916.708	10436
916.82	10409
916.932	10341
917.044	10360
917.156	10352
917.268	10265
917.38	10280
917.491	10314
917.603	10314
917.715	10367
917.826	10455
917.938	10253
918.049	10135
918.161	10382
918.272	10497
918.384	10310
918.495	10333
918.606	10207
918.717	10082
918.828	10234
918.939	10200
919.05	10082
919.161	10116
919.272	9975
919.383	10036
919.494	10242
919.604	10394
919.715	10188
919.826	10074
919.936	10112
920.047	10261
920.157	10196
920.267	10462
920.378	10257
920.488	10181
920.598	10413
920.708	10565
920.818	10421
920.928	10390
921.038	10535
921.148	10481
921.258	10227
921.368	10185
921.477	10097
921.587	10044
921.697	9873
921.806	10074
921.916	9979
922.025	9743
922.134	9686
922.244	9690
922.353	9823
922.462	9633
922.571	9614
922.68	9469
922.789	9492
922.898	9428
923.007	9321
923.116	9538
923.224	9469
923.333	9408
923.442	9329
923.55	9260
923.659	9294
923.767	9397
923.876	9272
923.984	9462
924.092	9321
924.201	9310
924.309	9291
924.417	9340
924.525	9325
924.633	9294
924.741	10036
924.849	9097
924.956	9302
925.064	9135
925.172	8998
925.279	9077
925.387	9157
925.494	9161
925.602	9272
925.709	9222
925.816	9150
925.924	9173
926.031	9233
926.138	9150
926.245	9157
926.352	9039
926.459	9138
926.566	9207
926.673	9157
926.779	8933
926.886	8971
926.993	8937
927.099	8880
927.206	8830
927.312	8796
927.419	8971
927.525	8899
927.631	8902
927.737	8758
927.843	8777
927.95	8674
928.056	8724
928.162	8758
928.267	8872
928.373	9424
928.479	8842
928.585	8610
928.69	8731
928.796	8830
928.901	8697
929.007	8526
929.112	8659
929.218	8686
929.323	8594
929.428	8579
929.533	8735
929.638	8571
929.743	8514
929.848	8708
929.953	8533
930.058	8522
930.163	8389
930.267	8343
930.372	8541
930.477	8396
930.581	8518
930.685	8434
930.79	8244
930.894	8294
930.998	8347
931.103	8423
931.207	8145
931.311	8107
931.415	8016
931.519	7746
931.623	7772
