Data from test_V78500241_92.txt Node
Date: Fri Mar 25 14:34:21 CST 2022
User: usil
Spectrometer: V785-0024
Trigger mode: 0
Integration Time (sec): 4.000000E-1
Scans to average: 1
Nonlinearity correction enabled: false
Boxcar width: 0
Storing dark spectrum: false
XAxis mode: Wavelengths
Number of Pixels in Spectrum: 1024
>>>>>Begin Spectral Data<<<<<
801.071	28793
801.214	28835
801.356	28466
801.499	28512
801.641	28356
801.783	28291
801.926	28276
802.068	28173
802.211	28109
802.353	28166
802.496	27987
802.638	27876
802.78	27846
802.923	27846
803.065	27755
803.208	27880
803.35	27865
803.492	27907
803.635	28051
803.777	27956
803.919	28063
804.061	28185
804.204	28105
804.346	27838
804.488	27812
804.63	27850
804.773	27690
804.915	27854
805.057	27994
805.199	27865
805.341	27975
805.483	28063
805.626	28051
805.768	28074
805.91	28010
806.052	28086
806.194	27846
806.336	28204
806.478	28105
806.62	28074
806.762	28226
806.904	28329
807.046	28512
807.188	28497
807.33	28459
807.472	28504
807.614	28432
807.756	28436
807.898	28299
808.04	28284
808.182	28337
808.324	28474
808.465	28626
808.607	28725
808.749	28881
808.891	29124
809.033	29086
809.174	29060
809.316	28949
809.458	28888
809.6	28717
809.741	28885
809.883	28713
810.025	29006
810.166	28820
810.308	28850
810.45	28759
810.591	28668
810.733	28630
810.875	28497
811.016	28303
811.158	28394
811.299	28535
811.441	28531
811.582	28424
811.724	28398
811.865	28401
812.007	28493
812.148	28261
812.29	28497
812.431	28561
812.573	28812
812.714	28782
812.855	28930
812.997	28908
813.138	29147
813.279	29147
813.421	28953
813.562	28805
813.703	28664
813.845	28683
813.986	28230
814.127	28162
814.268	28112
814.41	28059
814.551	28070
814.692	27945
814.833	27831
814.974	27850
815.115	27869
815.256	27857
815.397	27903
815.539	27892
815.68	27587
815.821	27580
815.962	27774
816.103	27618
816.244	27530
816.385	27435
816.526	27363
816.666	27260
816.807	27142
816.948	27211
817.089	27214
817.23	27062
817.371	27104
817.512	27195
817.653	27074
817.793	27055
817.934	27009
818.075	27077
818.216	27005
818.356	26975
818.497	26933
818.638	26861
818.778	26845
818.919	26819
819.06	26842
819.2	26861
819.341	27028
819.481	26956
819.622	27135
819.762	27416
819.903	27287
820.043	27157
820.184	27074
820.324	27047
820.465	27154
820.605	27062
820.746	27119
820.886	26895
821.026	27058
821.167	26921
821.307	27169
821.447	26861
821.588	26967
821.728	26648
821.868	26450
822.008	26324
822.149	26282
822.289	26309
822.429	26092
822.569	25947
822.709	26001
822.849	25864
822.99	25917
823.13	25803
823.27	25784
823.41	25616
823.55	25670
823.69	25594
823.83	25700
823.97	25400
824.11	25411
824.25	25304
824.389	25350
824.529	25525
824.669	25327
824.809	25499
824.949	25396
825.089	25518
825.228	25358
825.368	25270
825.508	25308
825.648	25194
825.787	25263
825.927	25236
826.067	25324
826.206	25164
826.346	25148
826.485	25221
826.625	25301
826.765	25266
826.904	25217
827.044	24970
827.183	24947
827.323	24905
827.462	24821
827.601	24897
827.741	24962
827.88	24730
828.02	24768
828.159	24795
828.298	24890
828.437	24916
828.577	24688
828.716	24829
828.855	24837
828.994	24635
829.134	24547
829.273	24513
829.412	24498
829.551	24479
829.69	24422
829.829	24532
829.968	24574
830.107	24475
830.246	24555
830.385	24357
830.524	24334
830.663	24369
830.802	24247
830.941	24209
831.08	24091
831.219	24144
831.357	24186
831.496	24376
831.635	24087
831.774	23992
831.913	23889
832.051	23790
832.19	23855
832.329	23973
832.467	23653
832.606	23665
832.744	23737
832.883	23691
833.022	23695
833.16	23630
833.299	23790
833.437	23726
833.576	23847
833.714	23661
833.852	23851
833.991	23832
834.129	23840
834.267	23710
834.406	23630
834.544	23748
834.682	23707
834.821	23718
834.959	23805
835.097	23615
835.235	23646
835.373	23691
835.511	23733
835.65	23448
835.788	23551
835.926	23433
836.064	23353
836.202	23406
836.34	23459
836.478	23589
836.615	23539
836.753	23429
836.891	23501
837.029	23535
837.167	23436
837.305	23372
837.443	23452
837.58	23444
837.718	23444
837.856	23414
837.993	23227
838.131	23277
838.269	23311
838.406	23159
838.544	23037
838.681	23090
838.819	22850
838.956	22831
839.094	22717
839.231	22740
839.369	22919
839.506	23140
839.643	22847
839.781	22771
839.918	22793
840.055	22630
840.193	22546
840.33	22580
840.467	22683
840.604	22763
840.742	22801
840.879	22428
841.016	22626
841.153	22516
841.29	22782
841.427	22645
841.564	22626
841.701	22531
841.838	22489
841.975	22546
842.112	22424
842.249	22371
842.385	22367
842.522	22466
842.659	22443
842.796	22337
842.933	22428
843.069	22238
843.206	22268
843.343	22466
843.479	22402
843.616	22333
843.752	22166
843.889	22067
844.025	22150
844.162	22067
844.298	22120
844.435	22154
844.571	22025
844.708	22090
844.844	22158
844.98	22242
845.117	22154
845.253	22006
845.389	22032
845.525	22234
845.661	22280
845.798	22272
845.934	22535
846.07	22341
846.206	22481
846.342	22508
846.478	22086
846.614	21911
846.75	21629
846.886	21652
847.022	21568
847.158	21675
847.294	21694
847.429	21599
847.565	21477
847.701	21686
847.837	21237
847.972	21336
848.108	21287
848.244	21218
848.379	21074
848.515	21032
848.65	21036
848.786	21055
848.921	21188
849.057	21180
849.192	21051
849.328	21096
849.463	21123
849.598	20963
849.734	20967
849.869	20887
850.004	20815
850.14	20834
850.275	20743
850.41	20686
850.545	20788
850.68	20720
850.815	20697
850.95	20788
851.085	20902
851.22	20826
851.355	20788
851.49	20758
851.625	20762
851.76	20549
851.895	20602
852.03	20636
852.165	20781
852.299	20815
852.434	20804
852.569	20925
852.703	20727
852.838	20819
852.973	20853
853.107	20902
853.242	20533
853.376	20575
853.511	20438
853.645	20552
853.78	20640
853.914	20457
854.048	20594
854.183	20507
854.317	20606
854.451	20693
854.585	20564
854.72	20522
854.854	20613
854.988	20549
855.122	20560
855.256	20511
855.39	20450
855.524	20423
855.658	20594
855.792	20632
855.926	20541
856.06	20583
856.194	20689
856.327	20549
856.461	20579
856.595	20412
856.729	20526
856.862	20583
856.996	20450
857.13	20583
857.263	20537
857.397	20613
857.53	20400
857.664	20423
857.797	20549
857.931	20590
858.064	20571
858.197	20602
858.331	20408
858.464	20450
858.597	20320
858.731	20484
858.864	20362
858.997	20366
859.13	20507
859.263	20454
859.396	20484
859.529	20423
859.662	20480
859.795	20454
859.928	20393
860.061	20583
860.194	20602
860.327	20583
860.46	20419
860.592	20522
860.725	20457
860.858	20469
860.99	20412
861.123	20374
861.256	20320
861.388	20492
861.521	21085
861.653	20263
861.786	20309
861.918	20396
862.05	20492
862.183	20488
862.315	20374
862.447	20590
862.58	20389
862.712	20320
862.844	20164
862.976	20408
863.108	20229
863.24	20564
863.372	20096
863.504	20149
863.636	20256
863.768	20263
863.9	20122
864.032	19986
864.164	20077
864.296	20180
864.428	20157
864.559	20214
864.691	20240
864.823	20016
864.954	20073
865.086	20043
865.217	19909
865.349	20024
865.48	20069
865.612	20073
865.743	20142
865.875	20062
866.006	19951
866.137	20122
866.269	20096
866.4	20119
866.531	19974
866.662	19986
866.793	19997
866.924	20153
867.055	19940
867.186	19951
867.317	19890
867.448	19967
867.579	19894
867.71	19898
867.841	19837
867.972	19940
868.103	19993
868.233	20069
868.364	19928
868.495	20119
868.625	20096
868.756	20199
868.886	20130
869.017	20126
869.147	20320
869.278	20320
869.408	20237
869.539	20290
869.669	20290
869.799	20248
869.929	20233
870.06	20263
870.19	20488
870.32	20431
870.45	20499
870.58	20571
870.71	20670
870.84	20613
870.97	20602
871.1	20602
871.23	20792
871.36	20842
871.489	20781
871.619	20773
871.749	20800
871.879	20781
872.008	20826
872.138	20868
872.267	20864
872.397	20625
872.526	20568
872.656	20731
872.785	20678
872.915	20636
873.044	20906
873.173	20762
873.303	20834
873.432	20781
873.561	20967
873.69	20769
873.819	20830
873.948	20906
874.077	20933
874.206	20788
874.335	20823
874.464	20910
874.593	21032
874.722	21070
874.851	21055
874.979	21074
875.108	21146
875.237	21062
875.365	20941
875.494	21028
875.623	21116
875.751	21036
875.88	21104
876.008	21272
876.136	21302
876.265	21515
876.393	21553
876.521	21572
876.65	21572
876.778	21485
876.906	21408
877.034	21485
877.162	21454
877.29	21412
877.418	21435
877.546	21538
877.674	21435
877.802	21431
877.93	21374
878.058	21473
878.185	21439
878.313	21538
878.441	21553
878.568	21370
878.696	21416
878.824	21458
878.951	21526
879.079	21827
879.206	21983
879.333	21774
879.461	21778
879.588	21854
879.715	21907
879.842	21975
879.97	21747
880.097	21542
880.224	21450
880.351	21564
880.478	21298
880.605	21294
880.732	21435
880.859	21648
880.986	21306
881.112	21389
881.239	21344
881.366	21169
881.493	21173
881.619	21081
881.746	21055
881.872	20982
881.999	20902
882.125	20872
882.252	20982
882.378	20971
882.505	21116
882.631	20811
882.757	20727
882.883	20743
883.01	20663
883.136	20560
883.262	20541
883.388	20549
883.514	20667
883.64	20724
883.766	20716
883.892	20385
884.018	20629
884.143	20754
884.269	20731
884.395	20343
884.52	20252
884.646	20362
884.772	20366
884.897	20225
885.023	20381
885.148	20518
885.274	20427
885.399	20377
885.524	20336
885.65	20339
885.775	20355
885.9	20233
886.025	20385
886.15	20332
886.275	20233
886.4	20122
886.525	20301
886.65	20332
886.775	20096
886.9	20404
887.025	20412
887.149	20202
887.274	19986
887.399	20016
887.523	20065
887.648	19955
887.773	19951
887.897	20122
888.021	20073
888.146	19928
888.27	20176
888.395	20187
888.519	20062
888.643	20043
888.767	20024
888.891	19868
889.015	19849
889.139	19761
889.263	19875
889.387	19780
889.511	19982
889.635	20027
889.759	19708
889.883	19689
890.006	19811
890.13	19868
890.254	19742
890.377	19674
890.501	19460
890.624	19460
890.748	19613
890.871	19358
890.995	19293
891.118	19278
891.241	19285
891.364	19403
891.488	19438
891.611	19301
891.734	19392
891.857	19400
891.98	19270
892.103	19495
892.226	19285
892.349	19343
892.471	19187
892.594	19270
892.717	19301
892.839	19247
892.962	19247
893.085	19263
893.207	19312
893.33	19221
893.452	19133
893.575	19316
893.697	19373
893.819	19419
893.941	19464
894.064	19381
894.186	19266
894.308	19209
894.43	19373
894.552	19411
894.674	19415
894.796	19206
894.918	19190
895.04	19266
895.161	19377
895.283	19346
895.405	19274
895.526	19327
895.648	19266
895.769	19232
895.891	19407
896.012	19544
896.134	19369
896.255	19301
896.376	19419
896.498	19297
896.619	19301
896.74	19266
896.861	19411
896.982	19552
897.103	19776
897.224	19514
897.345	19575
897.466	19529
897.587	19468
897.708	19727
897.828	19563
897.949	19552
898.07	19346
898.19	19510
898.311	19552
898.431	19434
898.552	19537
898.672	19559
898.792	19563
898.913	19563
899.033	19430
899.153	19316
899.273	19270
899.393	19164
899.513	19308
899.633	19183
899.753	19297
899.873	19179
899.993	19263
900.113	19164
900.232	19198
900.352	19183
900.472	19065
900.591	19008
900.711	19046
900.83	19031
900.95	19190
901.069	19179
901.189	18871
901.308	18700
901.427	18757
901.546	18707
901.665	18604
901.784	18677
901.904	18467
902.023	18399
902.141	18319
902.26	18254
902.379	18273
902.498	18273
902.617	18068
902.735	18197
902.854	18182
902.973	18034
903.091	17866
903.21	17775
903.328	17832
903.446	17733
903.565	17615
903.683	17672
903.801	17509
903.919	17589
904.038	17573
904.156	17528
904.274	17433
904.392	17433
904.51	17318
904.627	17444
904.745	17337
904.863	17497
904.981	17200
905.098	17090
905.216	16987
905.334	17094
905.451	17094
905.569	17041
905.686	17079
905.803	17056
905.921	16942
906.038	16889
906.155	16881
906.272	16729
906.389	16649
906.506	16538
906.623	16687
906.74	16687
906.857	16466
906.974	16554
907.091	16626
907.208	16698
907.324	16599
907.441	16497
907.557	16257
907.674	16360
907.79	16154
907.907	16265
908.023	16333
908.139	16382
908.256	16135
908.372	16143
908.488	16109
908.604	15975
908.72	16051
908.836	15994
908.952	15983
909.068	15903
909.184	16029
909.3	15960
909.415	15991
909.531	15956
909.647	15732
909.762	15759
909.878	15694
909.993	15724
910.108	15759
910.224	15629
910.339	15625
910.454	15526
910.57	15450
910.685	15363
910.8	15679
910.915	15701
911.03	15492
911.145	15355
911.259	15298
911.374	15214
911.489	15211
911.604	15154
911.718	15013
911.833	15100
911.947	14956
912.062	14819
912.176	14982
912.291	14952
912.405	15017
912.519	15184
912.633	15192
912.748	15100
912.862	15062
912.976	14872
913.09	14765
913.204	14746
913.318	14830
913.431	14933
913.545	15009
913.659	14929
913.772	14830
913.886	14739
914	14670
914.113	14743
914.226	14804
914.34	14644
914.453	14590
914.566	14640
914.68	14492
914.793	14522
914.906	14412
915.019	14305
915.132	14290
915.245	14256
915.358	14244
915.47	14237
915.583	14351
915.696	14336
915.809	14374
915.921	14389
916.034	14267
916.146	14229
916.259	14115
916.371	14313
916.483	14233
916.595	14180
916.708	14142
916.82	14096
916.932	14035
917.044	14062
917.156	13993
917.268	13875
917.38	14054
917.491	14054
917.603	13940
917.715	13978
917.826	13970
917.938	13963
918.049	13742
918.161	13811
918.272	14020
918.384	14043
918.495	13841
918.606	13708
918.717	13761
918.828	13761
918.939	13753
919.05	13559
919.161	13616
919.272	13552
919.383	13556
919.494	13803
919.604	13841
919.715	13704
919.826	13472
919.936	13670
920.047	13658
920.157	13689
920.267	13852
920.378	13597
920.488	13636
920.598	13811
920.708	13883
920.818	13693
920.928	13803
921.038	13887
921.148	13944
921.258	13643
921.368	13460
921.477	13422
921.587	13358
921.697	13346
921.806	13377
921.916	13308
922.025	13145
922.134	13053
922.244	13061
922.353	13110
922.462	12954
922.571	12837
922.68	12776
922.789	12700
922.898	12734
923.007	12650
923.116	12646
923.224	12665
923.333	12631
923.442	12639
923.55	12547
923.659	12475
923.767	12540
923.876	12528
923.984	12555
924.092	12467
924.201	12384
924.309	12475
924.417	12475
924.525	12384
924.633	12346
924.741	13346
924.849	12197
924.956	12338
925.064	12171
925.172	12087
925.279	12148
925.387	12175
925.494	12232
925.602	12232
925.709	12254
925.816	12121
925.924	12076
926.031	12209
926.138	12182
926.245	12064
926.352	12041
926.459	12213
926.566	12251
926.673	12026
926.779	11950
926.886	11904
926.993	11832
927.099	11737
927.206	11642
927.312	11783
927.419	11771
927.525	11733
927.631	11764
927.737	11722
927.843	11581
927.95	11562
928.056	11623
928.162	11611
928.267	11615
928.373	12079
928.479	11623
928.585	11482
928.69	11528
928.796	11566
928.901	11547
929.007	11337
929.112	11452
929.218	11395
929.323	11318
929.428	11364
929.533	11467
929.638	11246
929.743	11239
929.848	11288
929.953	11231
930.058	11273
930.163	10976
930.267	11010
930.372	11121
930.477	10972
930.581	11242
930.685	11029
930.79	10869
930.894	10847
930.998	10957
931.103	11033
931.207	10660
931.311	10596
931.415	10588
931.519	10303
931.623	10329
