Data from test_V78500241_2295.txt Node
Date: Fri Mar 25 14:49:41 CST 2022
User: usil
Spectrometer: V785-0024
Trigger mode: 0
Integration Time (sec): 4.000000E-1
Scans to average: 1
Nonlinearity correction enabled: false
Boxcar width: 0
Storing dark spectrum: false
XAxis mode: Wavelengths
Number of Pixels in Spectrum: 1024
>>>>>Begin Spectral Data<<<<<
801.071	22246
801.214	22063
801.356	21865
801.499	21823
801.641	21538
801.783	21534
801.926	21603
802.068	21439
802.211	21450
802.353	21306
802.496	21241
802.638	20986
802.78	21123
802.923	20838
803.065	20861
803.208	20754
803.35	20883
803.492	21081
803.635	21009
803.777	20842
803.919	20857
804.061	21211
804.204	20929
804.346	20906
804.488	20739
804.63	20921
804.773	20640
804.915	20758
805.057	20834
805.199	20670
805.341	20914
805.483	20902
805.626	20811
805.768	20781
805.91	20659
806.052	20849
806.194	20819
806.336	20971
806.478	20739
806.62	20727
806.762	20902
806.904	21051
807.046	21116
807.188	21146
807.33	21093
807.472	21135
807.614	21005
807.756	20967
807.898	20849
808.04	20796
808.182	20864
808.324	21085
808.465	20819
808.607	21009
808.749	21161
808.891	21218
809.033	21176
809.174	21138
809.316	21154
809.458	21241
809.6	21131
809.741	21199
809.883	21264
810.025	21393
810.166	21374
810.308	21355
810.45	21264
810.591	21298
810.733	21005
810.875	20952
811.016	20914
811.158	20769
811.299	20895
811.441	21116
811.582	20979
811.724	20906
811.865	20963
812.007	20853
812.148	20967
812.29	20925
812.431	21104
812.573	21192
812.714	21313
812.855	21614
812.997	21549
813.138	21622
813.279	21496
813.421	21530
813.562	21408
813.703	21173
813.845	21161
813.986	20712
814.127	20590
814.268	20579
814.41	20621
814.551	20579
814.692	20514
814.833	20446
814.974	20434
815.115	20476
815.256	20377
815.397	20313
815.539	20374
815.68	20263
815.821	20168
815.962	20237
816.103	20229
816.244	20016
816.385	20005
816.526	19883
816.666	19712
816.807	19765
816.948	19776
817.089	19780
817.23	19868
817.371	19658
817.512	19605
817.653	19594
817.793	19559
817.934	19499
818.075	19620
818.216	19723
818.356	19582
818.497	19422
818.638	19308
818.778	19335
818.919	19327
819.06	19358
819.2	19510
819.341	19556
819.481	19525
819.622	19753
819.762	19776
819.903	19658
820.043	19567
820.184	19620
820.324	19677
820.465	19700
820.605	19586
820.746	19616
820.886	19434
821.026	19514
821.167	19594
821.307	19677
821.447	19616
821.588	19445
821.728	19225
821.868	19114
822.008	19023
822.149	19103
822.289	18977
822.429	18757
822.569	18593
822.709	18791
822.849	18506
822.99	18426
823.13	18426
823.27	18418
823.41	18277
823.55	18266
823.69	18361
823.83	18441
823.97	18285
824.11	18152
824.25	18019
824.389	18133
824.529	18087
824.669	17961
824.809	18167
824.949	18190
825.089	18155
825.228	18049
825.368	17855
825.508	17828
825.648	17832
825.787	17813
825.927	17908
826.067	17897
826.206	17748
826.346	17866
826.485	17828
826.625	18003
826.765	17958
826.904	17832
827.044	17577
827.183	17501
827.323	17535
827.462	17570
827.601	17383
827.741	17497
827.88	17532
828.02	17368
828.159	17482
828.298	17611
828.437	17608
828.577	17497
828.716	17646
828.855	17486
828.994	17288
829.134	17326
829.273	17353
829.412	17277
829.551	17151
829.69	17193
829.829	17277
829.968	17353
830.107	17296
830.246	17242
830.385	17079
830.524	17193
830.663	17117
830.802	16946
830.941	16930
831.08	16885
831.219	17083
831.357	17094
831.496	17124
831.635	16820
831.774	16725
831.913	16710
832.051	16618
832.19	16645
832.329	16691
832.467	16584
832.606	16508
832.744	16455
832.883	16596
833.022	16535
833.16	16618
833.299	16634
833.437	16546
833.576	16607
833.714	16611
833.852	16668
833.991	16702
834.129	16618
834.267	16668
834.406	16675
834.544	16683
834.682	16649
834.821	16618
834.959	16778
835.097	16550
835.235	16713
835.373	16630
835.511	16573
835.65	16485
835.788	16512
835.926	16390
836.064	16238
836.202	16280
836.34	16615
836.478	16626
836.615	16481
836.753	16451
836.891	16592
837.029	16504
837.167	16447
837.305	16508
837.443	16322
837.58	16367
837.718	16440
837.856	16379
837.993	16344
838.131	16417
838.269	16204
838.406	16223
838.544	16268
838.681	16097
838.819	16013
838.956	15937
839.094	15964
839.231	15899
839.369	16135
839.506	16181
839.643	16090
839.781	16048
839.918	15926
840.055	15915
840.193	16029
840.33	15778
840.467	15960
840.604	15903
840.742	16135
840.879	15686
841.016	15812
841.153	15808
841.29	15918
841.427	15903
841.564	16029
841.701	15968
841.838	15915
841.975	15778
842.112	15861
842.249	15755
842.385	15625
842.522	15899
842.659	15728
842.796	15694
842.933	15694
843.069	15606
843.206	15599
843.343	15785
843.479	15610
843.616	15728
843.752	15481
843.889	15466
844.025	15595
844.162	15431
844.298	15561
844.435	15492
844.571	15382
844.708	15549
844.844	15595
844.98	15622
845.117	15599
845.253	15412
845.389	15382
845.525	15306
845.661	15332
845.798	15192
845.934	15256
846.07	15142
846.206	15355
846.342	15317
846.478	15195
846.614	15108
846.75	15028
846.886	15013
847.022	15081
847.158	15066
847.294	14971
847.429	15077
847.565	14986
847.701	15313
847.837	14826
847.972	14777
848.108	14857
848.244	14861
848.379	14693
848.515	14518
848.65	14617
848.786	14621
848.921	14674
849.057	14697
849.192	14708
849.328	14640
849.463	14640
849.598	14613
849.734	14571
849.869	14526
850.004	14457
850.14	14381
850.275	14484
850.41	14290
850.545	14313
850.68	14343
850.815	14377
850.95	14408
851.085	14583
851.22	14575
851.355	14438
851.49	14374
851.625	14404
851.76	14358
851.895	14332
852.03	14252
852.165	14381
852.299	14434
852.434	14446
852.569	14358
852.703	14571
852.838	14503
852.973	14568
853.107	14560
853.242	14347
853.376	14336
853.511	14149
853.645	14256
853.78	14343
853.914	14301
854.048	14191
854.183	14248
854.317	14355
854.451	14347
854.585	14294
854.72	14237
854.854	14385
854.988	14142
855.122	14248
855.256	14191
855.39	14187
855.524	14305
855.658	14290
855.792	14313
855.926	14305
856.06	14271
856.194	14294
856.327	14301
856.461	14134
856.595	14256
856.729	14328
856.862	14465
856.996	14278
857.13	14377
857.263	14343
857.397	14370
857.53	14233
857.664	14290
857.797	14271
857.931	14404
858.064	14343
858.197	14488
858.331	14218
858.464	14259
858.597	14107
858.731	14263
858.864	14286
858.997	14267
859.13	14328
859.263	14313
859.396	14305
859.529	14259
859.662	14237
859.795	14237
859.928	14324
860.061	14412
860.194	14476
860.327	14317
860.46	14259
860.592	14377
860.725	14438
860.858	14317
860.99	14275
861.123	14145
861.256	14153
861.388	14275
861.521	14834
861.653	14191
861.786	14012
861.918	14119
862.05	14221
862.183	14233
862.315	14263
862.447	14320
862.58	14347
862.712	14046
862.844	14043
862.976	14153
863.108	14138
863.24	14450
863.372	14035
863.504	13959
863.636	14031
863.768	14145
863.9	14088
864.032	13989
864.164	14031
864.296	14103
864.428	14153
864.559	14111
864.691	14176
864.823	14103
864.954	14012
865.086	14073
865.217	14020
865.349	13963
865.48	13989
865.612	14088
865.743	14172
865.875	14001
866.006	14039
866.137	14035
866.269	14054
866.4	14115
866.531	14005
866.662	13944
866.793	13928
866.924	13944
867.055	14115
867.186	14073
867.317	13989
867.448	13906
867.579	13993
867.71	13894
867.841	13932
867.972	14084
868.103	14069
868.233	14024
868.364	14005
868.495	14115
868.625	14248
868.756	14457
868.886	14267
869.017	14282
869.147	14457
869.278	14396
869.408	14351
869.539	14309
869.669	14290
869.799	14328
869.929	14454
870.06	14366
870.19	14564
870.32	14640
870.45	14594
870.58	14659
870.71	14788
870.84	14720
870.97	14689
871.1	14705
871.23	14914
871.36	14830
871.489	14868
871.619	14804
871.749	14876
871.879	14872
872.008	15005
872.138	14925
872.267	14804
872.397	14792
872.526	14617
872.656	14754
872.785	14640
872.915	14891
873.044	14834
873.173	14899
873.303	14952
873.432	14967
873.561	15070
873.69	14918
873.819	14937
873.948	14998
874.077	15009
874.206	14971
874.335	15036
874.464	15188
874.593	15184
874.722	15218
874.851	15256
874.979	15310
875.108	15279
875.237	15211
875.365	15154
875.494	15131
875.623	15275
875.751	15180
875.88	15214
876.008	15473
876.136	15462
876.265	15599
876.393	15732
876.521	15724
876.65	15724
876.778	15637
876.906	15523
877.034	15564
877.162	15732
877.29	15599
877.418	15641
877.546	15739
877.674	15625
877.802	15663
877.93	15614
878.058	15652
878.185	15663
878.313	15663
878.441	15633
878.568	15481
878.696	15641
878.824	15709
878.951	15686
879.079	15812
879.206	15865
879.333	15827
879.461	15785
879.588	15682
879.715	15819
879.842	15918
879.97	15736
880.097	15519
880.224	15488
880.351	15580
880.478	15542
880.605	15496
880.732	15477
880.859	15652
880.986	15580
881.112	15496
881.239	15420
881.366	15313
881.493	15176
881.619	15142
881.746	15214
881.872	15226
881.999	15119
882.125	15214
882.252	15268
882.378	15207
882.505	15317
882.631	15192
882.757	14929
882.883	15017
883.01	15001
883.136	14872
883.262	14842
883.388	14849
883.514	14895
883.64	15039
883.766	14891
883.892	14880
884.018	14823
884.143	14906
884.269	15009
884.395	14724
884.52	14689
884.646	14693
884.772	14514
884.897	14613
885.023	14667
885.148	14693
885.274	14948
885.399	14792
885.524	14750
885.65	14701
885.775	14739
885.9	14579
886.025	14834
886.15	14815
886.275	14693
886.4	14583
886.525	14716
886.65	14613
886.775	14499
886.9	14842
887.025	14868
887.149	14762
887.274	14503
887.399	14533
887.523	14511
887.648	14450
887.773	14339
887.897	14541
888.021	14503
888.146	14488
888.27	14545
888.395	14651
888.519	14545
888.643	14594
888.767	14522
888.891	14552
889.015	14229
889.139	14385
889.263	14362
889.387	14412
889.511	14598
889.635	14507
889.759	14366
889.883	14328
890.006	14423
890.13	14446
890.254	14214
890.377	14237
890.501	14164
890.624	14191
890.748	14233
890.871	14065
890.995	14027
891.118	13959
891.241	14035
891.364	14107
891.488	14210
891.611	14050
891.734	14164
891.857	14130
891.98	14103
892.103	14168
892.226	14119
892.349	13997
892.471	13963
892.594	14035
892.717	14134
892.839	14145
892.962	14069
893.085	14100
893.207	14119
893.33	13909
893.452	14050
893.575	14119
893.697	14062
893.819	14206
893.941	14221
894.064	14176
894.186	14046
894.308	13967
894.43	14161
894.552	14320
894.674	14237
894.796	14043
894.918	14168
895.04	14100
895.161	14210
895.283	14142
895.405	14077
895.526	14191
895.648	14134
895.769	14172
895.891	14282
896.012	14252
896.134	14286
896.255	14294
896.376	14183
896.498	14221
896.619	14240
896.74	14218
896.861	14309
896.982	14568
897.103	14682
897.224	14564
897.345	14556
897.466	14427
897.587	14469
897.708	14682
897.828	14560
897.949	14438
898.07	14419
898.19	14476
898.311	14613
898.431	14575
898.552	14617
898.672	14667
898.792	14686
898.913	14746
899.033	14511
899.153	14454
899.273	14415
899.393	14381
899.513	14514
899.633	14434
899.753	14499
899.873	14366
899.993	14492
900.113	14473
900.232	14465
900.352	14473
900.472	14431
900.591	14298
900.711	14259
900.83	14298
900.95	14514
901.069	14480
901.189	14271
901.308	14058
901.427	13944
901.546	14054
901.665	14008
901.784	13951
901.904	13982
902.023	13723
902.141	13674
902.26	13628
902.379	13719
902.498	13594
902.617	13601
902.735	13624
902.854	13533
902.973	13472
903.091	13327
903.21	13350
903.328	13259
903.446	13217
903.565	13198
903.683	13099
903.801	13126
903.919	13145
904.038	13149
904.156	12916
904.274	12935
904.392	12958
904.51	12909
904.627	12920
904.745	13004
904.863	13042
904.981	12829
905.098	12684
905.216	12646
905.334	12715
905.451	12574
905.569	12540
905.686	12764
905.803	12711
905.921	12422
906.038	12589
906.155	12528
906.272	12384
906.389	12372
906.506	12258
906.623	12323
906.74	12251
906.857	12083
906.974	12148
907.091	12311
907.208	12372
907.324	12258
907.441	12201
907.557	12003
907.674	11893
907.79	11916
907.907	11927
908.023	11999
908.139	11992
908.256	12019
908.372	11931
908.488	11954
908.604	11733
908.72	11767
908.836	11665
908.952	11718
909.068	11756
909.184	11847
909.3	11714
909.415	11874
909.531	11760
909.647	11547
909.762	11547
909.878	11509
909.993	11535
910.108	11566
910.224	11478
910.339	11493
910.454	11311
910.57	11417
910.685	11315
910.8	11516
910.915	11505
911.03	11395
911.145	11189
911.259	11193
911.374	11197
911.489	11185
911.604	11132
911.718	10999
911.833	10984
911.947	10869
912.062	10809
912.176	10873
912.291	10984
912.405	10923
912.519	11166
912.633	11254
912.748	11052
912.862	11029
912.976	10892
913.09	10706
913.204	10854
913.318	10843
913.431	10965
913.545	10972
913.659	10896
913.772	10877
913.886	10729
914	10736
914.113	10824
914.226	10847
914.34	10778
914.453	10767
914.566	10786
914.68	10561
914.793	10653
914.906	10402
915.019	10413
915.132	10402
915.245	10432
915.358	10508
915.47	10493
915.583	10474
915.696	10516
915.809	10527
915.921	10622
916.034	10421
916.146	10382
916.259	10367
916.371	10436
916.483	10489
916.595	10379
916.708	10333
916.82	10443
916.932	10417
917.044	10394
917.156	10360
917.268	10272
917.38	10341
917.491	10299
917.603	10325
917.715	10367
917.826	10405
917.938	10284
918.049	10215
918.161	10333
918.272	10440
918.384	10451
918.495	10299
918.606	10162
918.717	10162
918.828	10280
918.939	10181
919.05	10071
919.161	10223
919.272	9994
919.383	10021
919.494	10280
919.604	10394
919.715	10207
919.826	10166
919.936	10192
920.047	10242
920.157	10234
920.267	10367
920.378	10246
920.488	10227
920.598	10405
920.708	10584
920.818	10363
920.928	10424
921.038	10611
921.148	10459
921.258	10280
921.368	10188
921.477	9964
921.587	10059
921.697	9911
921.806	10105
921.916	9975
922.025	9854
922.134	9789
922.244	9713
922.353	9781
922.462	9740
922.571	9641
922.68	9485
922.789	9515
922.898	9477
923.007	9469
923.116	9477
923.224	9408
923.333	9458
923.442	9374
923.55	9291
923.659	9348
923.767	9393
923.876	9268
923.984	9359
924.092	9298
924.201	9359
924.309	9348
924.417	9302
924.525	9264
924.633	9317
924.741	10143
924.849	9150
924.956	9245
925.064	9062
925.172	8998
925.279	9085
925.387	9207
925.494	9085
925.602	9241
925.709	9157
925.816	9070
925.924	9123
926.031	9192
926.138	9135
926.245	9214
926.352	9070
926.459	9253
926.566	9226
926.673	9089
926.779	9043
926.886	8937
926.993	8800
927.099	8796
927.206	8826
927.312	8746
927.419	8876
927.525	8853
927.631	8819
927.737	8724
927.843	8674
927.95	8705
928.056	8651
928.162	8758
928.267	8826
928.373	9382
928.479	8800
928.585	8610
928.69	8777
928.796	8705
928.901	8640
929.007	8541
929.112	8670
929.218	8621
929.323	8533
929.428	8545
929.533	8682
929.638	8545
929.743	8537
929.848	8629
929.953	8545
930.058	8415
930.163	8275
930.267	8328
930.372	8473
930.477	8298
930.581	8552
930.685	8423
930.79	8244
930.894	8279
930.998	8290
931.103	8362
931.207	8016
931.311	7989
931.415	7928
931.519	7807
931.623	7814
