Data from test_V78500241_1570.txt Node
Date: Fri Mar 25 14:44:38 CST 2022
User: usil
Spectrometer: V785-0024
Trigger mode: 0
Integration Time (sec): 4.000000E-1
Scans to average: 1
Nonlinearity correction enabled: false
Boxcar width: 0
Storing dark spectrum: false
XAxis mode: Wavelengths
Number of Pixels in Spectrum: 1024
>>>>>Begin Spectral Data<<<<<
801.071	22481
801.214	22299
801.356	22074
801.499	21960
801.641	21675
801.783	21835
801.926	21827
802.068	21724
802.211	21743
802.353	21545
802.496	21332
802.638	21199
802.78	21256
802.923	21203
803.065	21009
803.208	21062
803.35	21161
803.492	21218
803.635	21188
803.777	21081
803.919	21184
804.061	21424
804.204	21142
804.346	20914
804.488	20994
804.63	21062
804.773	20998
804.915	21138
805.057	21199
805.199	20982
805.341	21169
805.483	21241
805.626	21070
805.768	20872
805.91	21131
806.052	21131
806.194	20921
806.336	21123
806.478	21020
806.62	20948
806.762	21203
806.904	21176
807.046	21443
807.188	21287
807.33	21435
807.472	21397
807.614	21443
807.756	21332
807.898	21245
808.04	21123
808.182	21203
808.324	21230
808.465	21245
808.607	21462
808.749	21572
808.891	21709
809.033	21766
809.174	21785
809.316	21477
809.458	21587
809.6	21408
809.741	21466
809.883	21614
810.025	21724
810.166	21709
810.308	21583
810.45	21591
810.591	21564
810.733	21431
810.875	21237
811.016	21287
811.158	21058
811.299	21256
811.441	21454
811.582	21431
811.724	21154
811.865	21180
812.007	21180
812.148	21264
812.29	21332
812.431	21355
812.573	21633
812.714	21629
812.855	21789
812.997	21785
813.138	21926
813.279	21789
813.421	21804
813.562	21545
813.703	21538
813.845	21367
813.986	21051
814.127	20880
814.268	20921
814.41	20815
814.551	20701
814.692	20826
814.833	20777
814.974	20758
815.115	20788
815.256	20621
815.397	20606
815.539	20503
815.68	20495
815.821	20492
815.962	20518
816.103	20507
816.244	20389
816.385	20278
816.526	20271
816.666	20092
816.807	19989
816.948	20020
817.089	19982
817.23	20008
817.371	19909
817.512	19959
817.653	20024
817.793	19906
817.934	19864
818.075	19947
818.216	20035
818.356	19875
818.497	19757
818.638	19586
818.778	19559
818.919	19620
819.06	19518
819.2	19601
819.341	19719
819.481	19791
819.622	19909
819.762	20191
819.903	19947
820.043	19909
820.184	19932
820.324	19955
820.465	19814
820.605	19879
820.746	19883
820.886	19738
821.026	19776
821.167	19864
821.307	19925
821.447	19696
821.588	19788
821.728	19548
821.868	19407
822.008	19289
822.149	19293
822.289	19282
822.429	19084
822.569	18924
822.709	18966
822.849	18730
822.99	18791
823.13	18795
823.27	18684
823.41	18703
823.55	18486
823.69	18555
823.83	18593
823.97	18566
824.11	18361
824.25	18338
824.389	18399
824.529	18334
824.669	18498
824.809	18407
824.949	18513
825.089	18315
825.228	18380
825.368	18308
825.508	18243
825.648	18178
825.787	18136
825.927	18159
826.067	18057
826.206	18045
826.346	18216
826.485	18140
826.625	18140
826.765	18171
826.904	18190
827.044	17893
827.183	17847
827.323	17859
827.462	17802
827.601	17802
827.741	17790
827.88	17824
828.02	17668
828.159	17737
828.298	17699
828.437	17946
828.577	17737
828.716	17912
828.855	17687
828.994	17653
829.134	17649
829.273	17653
829.412	17497
829.551	17547
829.69	17581
829.829	17509
829.968	17672
830.107	17786
830.246	17596
830.385	17379
830.524	17433
830.663	17372
830.802	17326
830.941	17121
831.08	17235
831.219	17349
831.357	17181
831.496	17539
831.635	17136
831.774	17014
831.913	17022
832.051	17033
832.19	16968
832.329	17067
832.467	16892
832.606	16824
832.744	16790
832.883	16854
833.022	16824
833.16	16881
833.299	16995
833.437	16889
833.576	16915
833.714	16854
833.852	16889
833.991	17037
834.129	17037
834.267	16824
834.406	16961
834.544	17022
834.682	17006
834.821	16946
834.959	17121
835.097	16889
835.235	16999
835.373	16847
835.511	16885
835.65	16778
835.788	16801
835.926	16656
836.064	16622
836.202	16603
836.34	16892
836.478	16858
836.615	16736
836.753	16831
836.891	16900
837.029	16809
837.167	16706
837.305	16710
837.443	16660
837.58	16573
837.718	16637
837.856	16687
837.993	16653
838.131	16653
838.269	16630
838.406	16611
838.544	16615
838.681	16348
838.819	16322
838.956	16154
839.094	16226
839.231	16204
839.369	16386
839.506	16611
839.643	16409
839.781	16223
839.918	16158
840.055	16196
840.193	16158
840.33	16169
840.467	16192
840.604	16162
840.742	16523
840.879	16074
841.016	16063
841.153	16021
841.29	16329
841.427	16242
841.564	16310
841.701	16215
841.838	16173
841.975	16063
842.112	16128
842.249	16010
842.385	15960
842.522	16158
842.659	15926
842.796	15975
842.933	15991
843.069	15934
843.206	15911
843.343	16055
843.479	16013
843.616	15983
843.752	15739
843.889	15781
844.025	15911
844.162	15652
844.298	15911
844.435	15732
844.571	15720
844.708	15823
844.844	15945
844.98	15953
845.117	15873
845.253	15755
845.389	15648
845.525	15793
845.661	15713
845.798	15603
845.934	15694
846.07	15751
846.206	15724
846.342	15770
846.478	15534
846.614	15431
846.75	15279
846.886	15283
847.022	15321
847.158	15325
847.294	15393
847.429	15363
847.565	15294
847.701	15458
847.837	15001
847.972	14918
848.108	15142
848.244	15089
848.379	15005
848.515	14925
848.65	14910
848.786	14918
848.921	14853
849.057	14937
849.192	14998
849.328	14979
849.463	14960
849.598	14876
849.734	14838
849.869	14773
850.004	14701
850.14	14712
850.275	14739
850.41	14651
850.545	14727
850.68	14648
850.815	14701
850.95	14636
851.085	14853
851.22	14800
851.355	14746
851.49	14724
851.625	14640
851.76	14606
851.895	14575
852.03	14556
852.165	14617
852.299	14800
852.434	14701
852.569	14743
852.703	14720
852.838	14731
852.973	14804
853.107	14815
853.242	14598
853.376	14552
853.511	14423
853.645	14575
853.78	14705
853.914	14602
854.048	14465
854.183	14484
854.317	14632
854.451	14682
854.585	14530
854.72	14385
854.854	14575
854.988	14370
855.122	14408
855.256	14358
855.39	14541
855.524	14587
855.658	14495
855.792	14587
855.926	14583
856.06	14587
856.194	14617
856.327	14625
856.461	14385
856.595	14450
856.729	14499
856.862	14533
856.996	14587
857.13	14602
857.263	14678
857.397	14697
857.53	14549
857.664	14484
857.797	14674
857.931	14758
858.064	14667
858.197	14625
858.331	14488
858.464	14465
858.597	14438
858.731	14518
858.864	14522
858.997	14503
859.13	14568
859.263	14564
859.396	14579
859.529	14594
859.662	14564
859.795	14476
859.928	14560
860.061	14632
860.194	14731
860.327	14625
860.46	14663
860.592	14667
860.725	14640
860.858	14606
860.99	14476
861.123	14412
861.256	14473
861.388	14571
861.521	15180
861.653	14408
861.786	14381
861.918	14366
862.05	14393
862.183	14434
862.315	14423
862.447	14575
862.58	14419
862.712	14278
862.844	14202
862.976	14366
863.108	14415
863.24	14731
863.372	14244
863.504	14366
863.636	14229
863.768	14408
863.9	14332
864.032	14301
864.164	14267
864.296	14309
864.428	14396
864.559	14415
864.691	14377
864.823	14370
864.954	14393
865.086	14419
865.217	14248
865.349	14248
865.48	14275
865.612	14366
865.743	14400
865.875	14328
866.006	14263
866.137	14313
866.269	14256
866.4	14237
866.531	14172
866.662	14119
866.793	14244
866.924	14233
867.055	14229
867.186	14332
867.317	14252
867.448	14161
867.579	14259
867.71	14301
867.841	14275
867.972	14202
868.103	14221
868.233	14263
868.364	14252
868.495	14355
868.625	14533
868.756	14587
868.886	14518
869.017	14503
869.147	14648
869.278	14648
869.408	14473
869.539	14530
869.669	14644
869.799	14484
869.929	14610
870.06	14602
870.19	14944
870.32	14796
870.45	14823
870.58	14982
870.71	14944
870.84	15085
870.97	14849
871.1	14918
871.23	15077
871.36	15123
871.489	14933
871.619	15108
871.749	15112
871.879	15233
872.008	15211
872.138	15165
872.267	15104
872.397	14998
872.526	14986
872.656	14963
872.785	14982
872.915	15180
873.044	15241
873.173	15100
873.303	15241
873.432	15207
873.561	15302
873.69	15241
873.819	15184
873.948	15230
874.077	15268
874.206	15176
874.335	15131
874.464	15275
874.593	15435
874.722	15329
874.851	15458
874.979	15439
875.108	15564
875.237	15458
875.365	15443
875.494	15408
875.623	15553
875.751	15572
875.88	15572
876.008	15610
876.136	15709
876.265	15960
876.393	16010
876.521	16082
876.65	15945
876.778	15857
876.906	15823
877.034	15747
877.162	15915
877.29	15861
877.418	15941
877.546	15945
877.674	15895
877.802	15838
877.93	15892
878.058	15838
878.185	15770
878.313	15968
878.441	15873
878.568	15743
878.696	15892
878.824	15888
878.951	16013
879.079	16116
879.206	16287
879.333	16211
879.461	16006
879.588	16131
879.715	16223
879.842	16249
879.97	15953
880.097	15800
880.224	15705
880.351	15713
880.478	15705
880.605	15637
880.732	15808
880.859	15934
880.986	15789
881.112	15743
881.239	15701
881.366	15519
881.493	15458
881.619	15488
881.746	15325
881.872	15374
881.999	15401
882.125	15355
882.252	15447
882.378	15428
882.505	15545
882.631	15306
882.757	15344
882.883	15275
883.01	15268
883.136	15256
883.262	15058
883.388	15089
883.514	15275
883.64	15211
883.766	15218
883.892	14994
884.018	15116
884.143	15211
884.269	15363
884.395	14941
884.52	14998
884.646	14864
884.772	14849
884.897	14834
885.023	14845
885.148	15077
885.274	15161
885.399	15036
885.524	14853
885.65	14887
885.775	14971
885.9	14891
886.025	15036
886.15	15039
886.275	14872
886.4	14788
886.525	14944
886.65	14857
886.775	14785
886.9	15135
887.025	15100
887.149	14937
887.274	14727
887.399	14648
887.523	14651
887.648	14712
887.773	14708
887.897	14785
888.021	14773
888.146	14739
888.27	14861
888.395	14876
888.519	14838
888.643	14842
888.767	14861
888.891	14644
889.015	14629
889.139	14613
889.263	14617
889.387	14796
889.511	14853
889.635	14716
889.759	14511
889.883	14530
890.006	14640
890.13	14735
890.254	14571
890.377	14537
890.501	14396
890.624	14427
890.748	14495
890.871	14423
890.995	14218
891.118	14202
891.241	14294
891.364	14400
891.488	14423
891.611	14271
891.734	14355
891.857	14343
891.98	14290
892.103	14503
892.226	14347
892.349	14153
892.471	14126
892.594	14309
892.717	14355
892.839	14282
892.962	14305
893.085	14305
893.207	14278
893.33	14164
893.452	14229
893.575	14324
893.697	14199
893.819	14446
893.941	14556
894.064	14427
894.186	14298
894.308	14256
894.43	14381
894.552	14488
894.674	14393
894.796	14294
894.918	14370
895.04	14438
895.161	14339
895.283	14351
895.405	14286
895.526	14385
895.648	14374
895.769	14427
895.891	14537
896.012	14454
896.134	14454
896.255	14457
896.376	14393
896.498	14454
896.619	14442
896.74	14454
896.861	14571
896.982	14823
897.103	14929
897.224	14758
897.345	14716
897.466	14602
897.587	14804
897.708	14804
897.828	14800
897.949	14815
898.07	14583
898.19	14682
898.311	14921
898.431	14716
898.552	14838
898.672	14880
898.792	14906
898.913	14963
899.033	14720
899.153	14693
899.273	14556
899.393	14598
899.513	14667
899.633	14655
899.753	14750
899.873	14629
899.993	14735
900.113	14560
900.232	14674
900.352	14583
900.472	14621
900.591	14507
900.711	14610
900.83	14473
900.95	14670
901.069	14644
901.189	14393
901.308	14320
901.427	14275
901.546	14259
901.665	14252
901.784	14305
901.904	14077
902.023	13932
902.141	13928
902.26	13746
902.379	13849
902.498	13731
902.617	13655
902.735	13788
902.854	13791
902.973	13613
903.091	13491
903.21	13346
903.328	13422
903.446	13422
903.565	13327
903.683	13339
903.801	13278
903.919	13263
904.038	13274
904.156	13103
904.274	13187
904.392	13145
904.51	13076
904.627	13206
904.745	13110
904.863	13236
904.981	12989
905.098	12894
905.216	12844
905.334	12802
905.451	12875
905.569	12817
905.686	12935
905.803	12749
905.921	12623
906.038	12715
906.155	12620
906.272	12578
906.389	12620
906.506	12483
906.623	12407
906.74	12471
906.857	12232
906.974	12369
907.091	12494
907.208	12525
907.324	12418
907.441	12407
907.557	12228
907.674	12216
907.79	12060
907.907	12175
908.023	12171
908.139	12194
908.256	12159
908.372	12152
908.488	12148
908.604	11961
908.72	11817
908.836	11912
908.952	11893
909.068	11931
909.184	12041
909.3	11836
909.415	12026
909.531	11988
909.647	11653
909.762	11688
909.878	11688
909.993	11627
910.108	11688
910.224	11596
910.339	11676
910.454	11589
910.57	11570
910.685	11505
910.8	11764
910.915	11691
911.03	11585
911.145	11356
911.259	11345
911.374	11345
911.489	11330
911.604	11170
911.718	11166
911.833	11227
911.947	11064
912.062	10896
912.176	11090
912.291	11113
912.405	11098
912.519	11273
912.633	11227
912.748	11220
912.862	11170
912.976	11045
913.09	10934
913.204	10991
913.318	11025
913.431	11079
913.545	11189
913.659	11098
913.772	10934
913.886	10965
914	10816
914.113	10953
914.226	10934
914.34	10927
914.453	10748
914.566	10930
914.68	10862
914.793	10782
914.906	10683
915.019	10596
915.132	10565
915.245	10588
915.358	10634
915.47	10611
915.583	10675
915.696	10675
915.809	10847
915.921	10805
916.034	10554
916.146	10542
916.259	10535
916.371	10668
916.483	10660
916.595	10569
916.708	10622
916.82	10577
916.932	10573
917.044	10504
917.156	10519
917.268	10432
917.38	10462
917.491	10497
917.603	10504
917.715	10607
917.826	10637
917.938	10466
918.049	10295
918.161	10493
918.272	10626
918.384	10596
918.495	10489
918.606	10348
918.717	10310
918.828	10386
918.939	10440
919.05	10329
919.161	10284
919.272	10086
919.383	10257
919.494	10398
919.604	10558
919.715	10398
919.826	10352
919.936	10310
920.047	10455
920.157	10287
920.267	10596
920.378	10379
920.488	10299
920.598	10535
920.708	10714
920.818	10546
920.928	10527
921.038	10698
921.148	10691
921.258	10299
921.368	10268
921.477	10200
921.587	10196
921.697	10131
921.806	10154
921.916	10101
922.025	9953
922.134	9975
922.244	9850
922.353	9892
922.462	9865
922.571	9793
922.68	9561
922.789	9553
922.898	9606
923.007	9511
923.116	9610
923.224	9595
923.333	9584
923.442	9473
923.55	9526
923.659	9481
923.767	9492
923.876	9481
923.984	9564
924.092	9389
924.201	9507
924.309	9477
924.417	9450
924.525	9405
924.633	9439
924.741	10306
924.849	9256
924.956	9306
925.064	9233
925.172	9127
925.279	9287
925.387	9241
925.494	9184
925.602	9363
925.709	9291
925.816	9161
925.924	9222
926.031	9321
926.138	9291
926.245	9310
926.352	9135
926.459	9344
926.566	9302
926.673	9199
926.779	9089
926.886	9077
926.993	8967
927.099	8921
927.206	8872
927.312	8857
927.419	9036
927.525	9020
927.631	8948
927.737	8891
927.843	8880
927.95	8800
928.056	8777
928.162	8807
928.267	8895
928.373	9336
928.479	8941
928.585	8754
928.69	8853
928.796	8929
928.901	8788
929.007	8693
929.112	8785
929.218	8804
929.323	8712
929.428	8590
929.533	8807
929.638	8549
929.743	8606
929.848	8689
929.953	8636
930.058	8495
930.163	8404
930.267	8503
930.372	8568
930.477	8446
930.581	8594
930.685	8465
930.79	8434
930.894	8339
930.998	8381
931.103	8537
931.207	8142
931.311	8084
931.415	8043
931.519	7860
931.623	7856
