Data from test_V78500241_407.txt Node
Date: Fri Mar 25 14:36:33 CST 2022
User: usil
Spectrometer: V785-0024
Trigger mode: 0
Integration Time (sec): 4.000000E-1
Scans to average: 1
Nonlinearity correction enabled: false
Boxcar width: 0
Storing dark spectrum: false
XAxis mode: Wavelengths
Number of Pixels in Spectrum: 1024
>>>>>Begin Spectral Data<<<<<
801.071	26625
801.214	26583
801.356	26298
801.499	26259
801.641	26126
801.783	26096
801.926	26115
802.068	25974
802.211	25875
802.353	25780
802.496	25776
802.638	25700
802.78	25674
802.923	25704
803.065	25491
803.208	25563
803.35	25499
803.492	25761
803.635	25727
803.777	25674
803.919	25712
804.061	25963
804.204	25605
804.346	25521
804.488	25476
804.63	25559
804.773	25529
804.915	25518
805.057	25826
805.199	25575
805.341	25613
805.483	25833
805.626	25605
805.768	25605
805.91	25605
806.052	25662
806.194	25613
806.336	25731
806.478	25609
806.62	25613
806.762	25795
806.904	25849
807.046	26153
807.188	26111
807.33	25947
807.472	26069
807.614	25864
807.756	26043
807.898	25811
808.04	25677
808.182	25727
808.324	25894
808.465	25936
808.607	25772
808.749	26039
808.891	26168
809.033	26282
809.174	26252
809.316	26062
809.458	26096
809.6	25906
809.741	26119
809.883	26145
810.025	26408
810.166	26358
810.308	26336
810.45	26221
810.591	26145
810.733	26046
810.875	25871
811.016	25921
811.158	25963
811.299	25974
811.441	26180
811.582	26161
811.724	26001
811.865	25928
812.007	25997
812.148	26001
812.29	25894
812.431	26039
812.573	26244
812.714	26343
812.855	26377
812.997	26651
813.138	26587
813.279	26549
813.421	26473
813.562	26298
813.703	26267
813.845	26275
813.986	25917
814.127	25476
814.268	25605
814.41	25559
814.551	25457
814.692	25689
814.833	25479
814.974	25324
815.115	25403
815.256	25263
815.397	25304
815.539	25358
815.68	25312
815.821	25122
815.962	25247
816.103	25236
816.244	25065
816.385	25099
816.526	24878
816.666	24856
816.807	24601
816.948	24821
817.089	24833
817.23	24715
817.371	24597
817.512	24711
817.653	24551
817.793	24544
817.934	24722
818.075	24749
818.216	24589
818.356	24608
818.497	24483
818.638	24372
818.778	24304
818.919	24273
819.06	24323
819.2	24361
819.341	24479
819.481	24521
819.622	24631
819.762	24852
819.903	24730
820.043	24730
820.184	24696
820.324	24532
820.465	24665
820.605	24532
820.746	24623
820.886	24467
821.026	24532
821.167	24627
821.307	24684
821.447	24502
821.588	24441
821.728	24216
821.868	24155
822.008	23969
822.149	24072
822.289	23912
822.429	23851
822.569	23581
822.709	23573
822.849	23433
822.99	23334
823.13	23341
823.27	23391
823.41	23212
823.55	23124
823.69	23235
823.83	23223
823.97	23071
824.11	23033
824.25	22930
824.389	22942
824.529	23052
824.669	22831
824.809	23067
824.949	22915
825.089	22938
825.228	22991
825.368	22752
825.508	22805
825.648	22790
825.787	22927
825.927	22774
826.067	22744
826.206	22744
826.346	22664
826.485	22763
826.625	22824
826.765	22957
826.904	22725
827.044	22565
827.183	22443
827.323	22443
827.462	22523
827.601	22371
827.741	22519
827.88	22508
828.02	22303
828.159	22291
828.298	22375
828.437	22432
828.577	22303
828.716	22512
828.855	22371
828.994	22139
829.134	22181
829.273	22090
829.412	22223
829.551	21998
829.69	22101
829.829	22070
829.968	22109
830.107	22192
830.246	22036
830.385	22150
830.524	21987
830.663	22040
830.802	21873
830.941	21637
831.08	21774
831.219	21823
831.357	21637
831.496	21941
831.635	21637
831.774	21599
831.913	21732
832.051	21553
832.19	21496
832.329	21523
832.467	21431
832.606	21359
832.744	21325
832.883	21393
833.022	21283
833.16	21397
833.299	21504
833.437	21393
833.576	21329
833.714	21412
833.852	21420
833.991	21378
834.129	21443
834.267	21428
834.406	21450
834.544	21416
834.682	21408
834.821	21321
834.959	21443
835.097	21370
835.235	21355
835.373	21348
835.511	21370
835.65	21131
835.788	21184
835.926	21093
836.064	20979
836.202	21047
836.34	21222
836.478	21188
836.615	21157
836.753	21211
836.891	21188
837.029	21237
837.167	21173
837.305	21081
837.443	21062
837.58	21142
837.718	21173
837.856	21047
837.993	21062
838.131	20849
838.269	20910
838.406	20929
838.544	20986
838.681	20682
838.819	20731
838.956	20636
839.094	20560
839.231	20499
839.369	20640
839.506	20960
839.643	20724
839.781	20473
839.918	20305
840.055	20530
840.193	20427
840.33	20408
840.467	20533
840.604	20469
840.742	20773
840.879	20286
841.016	20400
841.153	20244
841.29	20606
841.427	20317
841.564	20446
841.701	20393
841.838	20358
841.975	20267
842.112	20286
842.249	20229
842.385	20176
842.522	20336
842.659	20199
842.796	20149
842.933	20191
843.069	20202
843.206	20115
843.343	20149
843.479	20065
843.616	20240
843.752	19894
843.889	19974
844.025	19970
844.162	19860
844.298	20035
844.435	19871
844.571	19780
844.708	19921
844.844	20172
844.98	20111
845.117	19959
845.253	20016
845.389	19830
845.525	19807
845.661	19860
845.798	19704
845.934	19803
846.07	19712
846.206	19715
846.342	19871
846.478	19731
846.614	19620
846.75	19438
846.886	19320
847.022	19567
847.158	19411
847.294	19449
847.429	19521
847.565	19415
847.701	19658
847.837	19004
847.972	19148
848.108	19217
848.244	19179
848.379	19099
848.515	18989
848.65	18954
848.786	19103
848.921	18989
849.057	19110
849.192	19053
849.328	18966
849.463	18894
849.598	18966
849.734	18897
849.869	18897
850.004	18764
850.14	18612
850.275	18837
850.41	18806
850.545	18760
850.68	18730
850.815	18810
850.95	18669
851.085	18852
851.22	18817
851.355	18703
851.49	18654
851.625	18681
851.76	18642
851.895	18669
852.03	18661
852.165	18620
852.299	18871
852.434	18810
852.569	18658
852.703	18631
852.838	18814
852.973	18856
853.107	18749
853.242	18635
853.376	18456
853.511	18452
853.645	18502
853.78	18623
853.914	18486
854.048	18498
854.183	18384
854.317	18574
854.451	18734
854.585	18578
854.72	18403
854.854	18658
854.988	18513
855.122	18525
855.256	18410
855.39	18346
855.524	18578
855.658	18574
855.792	18513
855.926	18593
856.06	18570
856.194	18604
856.327	18551
856.461	18513
856.595	18547
856.729	18407
856.862	18452
856.996	18547
857.13	18635
857.263	18692
857.397	18574
857.53	18578
857.664	18540
857.797	18544
857.931	18627
858.064	18555
858.197	18517
858.331	18589
858.464	18388
858.597	18384
858.731	18490
858.864	18384
858.997	18445
859.13	18456
859.263	18498
859.396	18460
859.529	18456
859.662	18445
859.795	18536
859.928	18418
860.061	18601
860.194	18448
860.327	18410
860.46	18475
860.592	18483
860.725	18513
860.858	18544
860.99	18372
861.123	18277
861.256	18410
861.388	18448
861.521	19209
861.653	18357
861.786	18243
861.918	18296
862.05	18395
862.183	18460
862.315	18544
862.447	18555
862.58	18429
862.712	18197
862.844	18251
862.976	18148
863.108	18277
863.24	18506
863.372	18194
863.504	18159
863.636	18201
863.768	18273
863.9	18270
864.032	18072
864.164	18095
864.296	18254
864.428	18247
864.559	18152
864.691	18277
864.823	18311
864.954	18258
865.086	18129
865.217	18205
865.349	18068
865.48	18057
865.612	18159
865.743	18216
865.875	18007
866.006	17984
866.137	18163
866.269	18045
866.4	18121
866.531	18114
866.662	18091
866.793	18041
866.924	17866
867.055	18026
867.186	18064
867.317	18015
867.448	17916
867.579	18045
867.71	17916
867.841	17980
867.972	18072
868.103	18022
868.233	18125
868.364	18030
868.495	18121
868.625	18262
868.756	18338
868.886	18319
869.017	18311
869.147	18418
869.278	18361
869.408	18311
869.539	18235
869.669	18251
869.799	18308
869.929	18467
870.06	18479
870.19	18601
870.32	18642
870.45	18585
870.58	18627
870.71	18772
870.84	18806
870.97	18604
871.1	18597
871.23	18825
871.36	18890
871.489	18791
871.619	18749
871.749	18700
871.879	18840
872.008	18989
872.138	18905
872.267	18909
872.397	18711
872.526	18745
872.656	18654
872.785	18658
872.915	18909
873.044	18890
873.173	18779
873.303	18954
873.432	18993
873.561	18970
873.69	18958
873.819	18962
873.948	18985
874.077	18901
874.206	18962
874.335	18867
874.464	19031
874.593	19206
874.722	19137
874.851	19225
874.979	19209
875.108	19240
875.237	19103
875.365	19118
875.494	19209
875.623	19213
875.751	19148
875.88	19274
876.008	19324
876.136	19487
876.265	19563
876.393	19738
876.521	19651
876.65	19635
876.778	19586
876.906	19533
877.034	19502
877.162	19658
877.29	19590
877.418	19643
877.546	19613
877.674	19677
877.802	19586
877.93	19460
878.058	19487
878.185	19518
878.313	19495
878.441	19624
878.568	19422
878.696	19548
878.824	19590
878.951	19719
879.079	19712
879.206	19947
879.333	19772
879.461	19613
879.588	19723
879.715	19742
879.842	19780
879.97	19696
880.097	19354
880.224	19499
880.351	19403
880.478	19400
880.605	19419
880.732	19343
880.859	19624
880.986	19327
881.112	19354
881.239	19129
881.366	19213
881.493	19091
881.619	19038
881.746	18935
881.872	18977
881.999	18981
882.125	18844
882.252	19015
882.378	18996
882.505	19190
882.631	19012
882.757	18856
882.883	18806
883.01	18894
883.136	18741
883.262	18642
883.388	18681
883.514	18772
883.64	18810
883.766	18760
883.892	18563
884.018	18669
884.143	18821
884.269	18920
884.395	18532
884.52	18410
884.646	18475
884.772	18353
884.897	18437
885.023	18479
885.148	18513
885.274	18635
885.399	18483
885.524	18498
885.65	18361
885.775	18498
885.9	18426
886.025	18475
886.15	18445
886.275	18353
886.4	18338
886.525	18388
886.65	18464
886.775	18391
886.9	18532
887.025	18593
887.149	18414
887.274	18353
887.399	18209
887.523	18182
887.648	18178
887.773	18148
887.897	18247
888.021	18273
888.146	18163
888.27	18277
888.395	18239
888.519	18235
888.643	18304
888.767	18201
888.891	18041
889.015	18015
889.139	18083
889.263	18060
889.387	18171
889.511	18174
889.635	18148
889.759	18041
889.883	17984
890.006	18003
890.13	18034
890.254	17874
890.377	18015
890.501	17752
890.624	17726
890.748	17790
890.871	17794
890.995	17653
891.118	17543
891.241	17638
891.364	17691
891.488	17760
891.611	17600
891.734	17722
891.857	17699
891.98	17695
892.103	17745
892.226	17657
892.349	17532
892.471	17440
892.594	17581
892.717	17649
892.839	17570
892.962	17520
893.085	17638
893.207	17634
893.33	17463
893.452	17463
893.575	17600
893.697	17524
893.819	17695
893.941	17798
894.064	17703
894.186	17474
894.308	17573
894.43	17535
894.552	17665
894.674	17729
894.796	17573
894.918	17528
895.04	17558
895.161	17684
895.283	17665
895.405	17455
895.526	17623
895.648	17638
895.769	17611
895.891	17676
896.012	17710
896.134	17771
896.255	17649
896.376	17512
896.498	17608
896.619	17687
896.74	17672
896.861	17722
896.982	18034
897.103	18182
897.224	18079
897.345	17847
897.466	17832
897.587	17859
897.708	18030
897.828	17950
897.949	17912
898.07	17726
898.19	17824
898.311	18003
898.431	17843
898.552	17984
898.672	18026
898.792	17988
898.913	17764
899.033	17885
899.153	17783
899.273	17604
899.393	17672
899.513	17703
899.633	17543
899.753	17748
899.873	17558
899.993	17756
900.113	17528
900.232	17718
900.352	17653
900.472	17490
900.591	17433
900.711	17554
900.83	17528
900.95	17661
901.069	17589
901.189	17406
901.308	17223
901.427	17140
901.546	17277
901.665	17261
901.784	17159
901.904	17052
902.023	16816
902.141	16782
902.26	16683
902.379	16725
902.498	16668
902.617	16561
902.735	16725
902.854	16596
902.973	16550
903.091	16432
903.21	16352
903.328	16417
903.446	16249
903.565	16097
903.683	16147
903.801	16059
903.919	16158
904.038	16101
904.156	16040
904.274	16078
904.392	16013
904.51	15873
904.627	15964
904.745	15975
904.863	15972
904.981	15652
905.098	15618
905.216	15663
905.334	15610
905.451	15610
905.569	15648
905.686	15755
905.803	15606
905.921	15382
906.038	15542
906.155	15424
906.272	15249
906.389	15325
906.506	15184
906.623	15233
906.74	15173
906.857	14921
906.974	15043
907.091	15275
907.208	15275
907.324	15112
907.441	15104
907.557	14963
907.674	14887
907.79	14819
907.907	14845
908.023	14902
908.139	14815
908.256	14727
908.372	14705
908.488	14758
908.604	14621
908.72	14514
908.836	14636
908.952	14518
909.068	14545
909.184	14606
909.3	14560
909.415	14632
909.531	14514
909.647	14290
909.762	14305
909.878	14210
909.993	14282
910.108	14336
910.224	14282
910.339	14225
910.454	14176
910.57	14187
910.685	13974
910.8	14278
910.915	14237
911.03	14062
911.145	13997
911.259	13883
911.374	13928
911.489	13879
911.604	13765
911.718	13689
911.833	13704
911.947	13643
912.062	13544
912.176	13666
912.291	13624
912.405	13658
912.519	13807
912.633	13887
912.748	13784
912.862	13616
912.976	13457
913.09	13525
913.204	13491
913.318	13529
913.431	13548
913.545	13548
913.659	13521
913.772	13400
913.886	13441
914	13331
914.113	13411
914.226	13411
914.34	13476
914.453	13293
914.566	13403
914.68	13202
914.793	13297
914.906	13072
915.019	13046
915.132	13004
915.245	13042
915.358	12993
915.47	13129
915.583	13038
915.696	13061
915.809	13183
915.921	13129
916.034	12981
916.146	12985
916.259	12989
916.371	13023
916.483	12897
916.595	12943
916.708	13015
916.82	12867
916.932	12943
917.044	12894
917.156	12817
917.268	12700
917.38	12825
917.491	12665
917.603	12779
917.715	12829
917.826	12871
917.938	12764
918.049	12654
918.161	12700
918.272	12859
918.384	12875
918.495	12730
918.606	12692
918.717	12490
918.828	12635
918.939	12601
919.05	12460
919.161	12578
919.272	12391
919.383	12380
919.494	12563
919.604	12715
919.715	12513
919.826	12490
919.936	12608
920.047	12639
920.157	12441
920.267	12749
920.378	12593
920.488	12563
920.598	12749
920.708	12890
920.818	12760
920.928	12684
921.038	12886
921.148	12738
921.258	12525
921.368	12483
921.477	12292
921.587	12273
921.697	12155
921.806	12338
921.916	12133
922.025	11958
922.134	11961
922.244	11939
922.353	12007
922.462	11916
922.571	11859
922.68	11638
922.789	11653
922.898	11627
923.007	11547
923.116	11653
923.224	11558
923.333	11539
923.442	11471
923.55	11467
923.659	11497
923.767	11634
923.876	11444
923.984	11474
924.092	11337
924.201	11425
924.309	11421
924.417	11467
924.525	11379
924.633	11334
924.741	12289
924.849	11242
924.956	11387
925.064	11178
925.172	11159
925.279	11170
925.387	11128
925.494	11162
925.602	11299
925.709	11231
925.816	11098
925.924	11121
926.031	11311
926.138	11136
926.245	11193
926.352	11064
926.459	11174
926.566	11193
926.673	11102
926.779	10934
926.886	10965
926.993	10896
927.099	10740
927.206	10767
927.312	10702
927.419	10850
927.525	10771
927.631	10763
927.737	10698
927.843	10607
927.95	10500
928.056	10649
928.162	10698
928.267	10721
928.373	11292
928.479	10748
928.585	10538
928.69	10599
928.796	10702
928.901	10561
929.007	10440
929.112	10565
929.218	10459
929.323	10481
929.428	10440
929.533	10573
929.638	10333
929.743	10398
929.848	10451
929.953	10306
930.058	10295
930.163	10040
930.267	10177
930.372	10310
930.477	10044
930.581	10291
930.685	10158
930.79	10021
930.894	9998
930.998	9937
931.103	10135
931.207	9804
931.311	9736
931.415	9720
931.519	9431
931.623	9428
