Data from test_V78500241_2921.txt Node
Date: Fri Mar 25 14:54:03 CST 2022
User: usil
Spectrometer: V785-0024
Trigger mode: 0
Integration Time (sec): 4.000000E-1
Scans to average: 1
Nonlinearity correction enabled: false
Boxcar width: 0
Storing dark spectrum: false
XAxis mode: Wavelengths
Number of Pixels in Spectrum: 1024
>>>>>Begin Spectral Data<<<<<
801.071	22166
801.214	21991
801.356	21743
801.499	21747
801.641	21542
801.783	21439
801.926	21428
802.068	21462
802.211	21233
802.353	21363
802.496	21001
802.638	20929
802.78	20994
802.923	20906
803.065	20826
803.208	20743
803.35	20754
803.492	20872
803.635	20971
803.777	20838
803.919	20857
804.061	21081
804.204	20891
804.346	20750
804.488	20659
804.63	20720
804.773	20598
804.915	20754
805.057	20712
805.199	20686
805.341	20746
805.483	20807
805.626	20762
805.768	20606
805.91	20792
806.052	20682
806.194	20594
806.336	20899
806.478	20617
806.62	20613
806.762	20758
806.904	20906
807.046	21096
807.188	20971
807.33	20944
807.472	21192
807.614	20982
807.756	20880
807.898	20872
808.04	20689
808.182	20648
808.324	20815
808.465	20857
808.607	21017
808.749	21150
808.891	21188
809.033	21298
809.174	21154
809.316	21066
809.458	21020
809.6	20994
809.741	21093
809.883	21047
810.025	21230
810.166	21108
810.308	21195
810.45	21218
810.591	21119
810.733	21001
810.875	20853
811.016	20720
811.158	20777
811.299	20929
811.441	20925
811.582	20891
811.724	20895
811.865	20853
812.007	20727
812.148	20918
812.29	20960
812.431	21013
812.573	21245
812.714	21230
812.855	21230
812.997	21370
813.138	21580
813.279	21401
813.421	21420
813.562	21283
813.703	21123
813.845	21001
813.986	20758
814.127	20530
814.268	20393
814.41	20480
814.551	20366
814.692	20434
814.833	20336
814.974	20301
815.115	20362
815.256	20290
815.397	20248
815.539	20248
815.68	20164
815.821	20122
815.962	20176
816.103	20172
816.244	19875
816.385	19856
816.526	19727
816.666	19662
816.807	19529
816.948	19601
817.089	19647
817.23	19693
817.371	19441
817.512	19578
817.653	19518
817.793	19438
817.934	19655
818.075	19578
818.216	19502
818.356	19495
818.497	19350
818.638	19285
818.778	19209
818.919	19152
819.06	19331
819.2	19282
819.341	19350
819.481	19403
819.622	19464
819.762	19658
819.903	19609
820.043	19392
820.184	19499
820.324	19514
820.465	19586
820.605	19525
820.746	19415
820.886	19308
821.026	19597
821.167	19514
821.307	19483
821.447	19521
821.588	19316
821.728	19145
821.868	19065
822.008	18909
822.149	18962
822.289	19046
822.429	18707
822.569	18612
822.709	18517
822.849	18380
822.99	18369
823.13	18281
823.27	18369
823.41	18186
823.55	18159
823.69	18254
823.83	18190
823.97	18072
824.11	17965
824.25	17931
824.389	17870
824.529	17946
824.669	17863
824.809	18144
824.949	18034
825.089	17988
825.228	17878
825.368	17726
825.508	17779
825.648	17726
825.787	17726
825.927	17756
826.067	17722
826.206	17714
826.346	17817
826.485	17726
826.625	17760
826.765	17897
826.904	17718
827.044	17410
827.183	17543
827.323	17398
827.462	17478
827.601	17429
827.741	17383
827.88	17581
828.02	17296
828.159	17486
828.298	17474
828.437	17497
828.577	17383
828.716	17486
828.855	17391
828.994	17296
829.134	17242
829.273	17296
829.412	17147
829.551	17079
829.69	17124
829.829	17166
829.968	17223
830.107	17246
830.246	17242
830.385	17223
830.524	17067
830.663	17003
830.802	16965
830.941	16721
831.08	16706
831.219	16847
831.357	16763
831.496	17052
831.635	16752
831.774	16691
831.913	16786
832.051	16512
832.19	16599
832.329	16717
832.467	16386
832.606	16413
832.744	16344
832.883	16447
833.022	16504
833.16	16459
833.299	16481
833.437	16508
833.576	16558
833.714	16485
833.852	16569
833.991	16504
834.129	16626
834.267	16535
834.406	16485
834.544	16455
834.682	16626
834.821	16459
834.959	16649
835.097	16527
835.235	16645
835.373	16470
835.511	16592
835.65	16356
835.788	16516
835.926	16394
836.064	16097
836.202	16230
836.34	16443
836.478	16390
836.615	16497
836.753	16554
836.891	16523
837.029	16466
837.167	16341
837.305	16268
837.443	16390
837.58	16280
837.718	16276
837.856	16287
837.993	16223
838.131	16299
838.269	16242
838.406	16291
838.544	16238
838.681	15937
838.819	15998
838.956	15835
839.094	15857
839.231	15857
839.369	16002
839.506	16169
839.643	16040
839.781	15819
839.918	15781
840.055	15880
840.193	15789
840.33	15793
840.467	15770
840.604	15915
840.742	16055
840.879	15564
841.016	15857
841.153	15648
841.29	15926
841.427	15838
841.564	15895
841.701	15831
841.838	15869
841.975	15736
842.112	15774
842.249	15614
842.385	15599
842.522	15880
842.659	15606
842.796	15663
842.933	15618
843.069	15587
843.206	15439
843.343	15568
843.479	15564
843.616	15618
843.752	15424
843.889	15367
844.025	15477
844.162	15386
844.298	15500
844.435	15401
844.571	15450
844.708	15477
844.844	15584
844.98	15542
845.117	15492
845.253	15283
845.389	15165
845.525	15321
845.661	15291
845.798	15154
845.934	15272
846.07	15207
846.206	15199
846.342	15313
846.478	15173
846.614	14952
846.75	14952
846.886	14971
847.022	15058
847.158	14975
847.294	14952
847.429	14994
847.565	14880
847.701	15268
847.837	14743
847.972	14644
848.108	14830
848.244	14716
848.379	14636
848.515	14583
848.65	14473
848.786	14533
848.921	14549
849.057	14636
849.192	14720
849.328	14655
849.463	14499
849.598	14442
849.734	14385
849.869	14370
850.004	14332
850.14	14347
850.275	14351
850.41	14263
850.545	14229
850.68	14366
850.815	14286
850.95	14271
851.085	14469
851.22	14442
851.355	14366
851.49	14313
851.625	14218
851.76	14301
851.895	14259
852.03	14172
852.165	14290
852.299	14396
852.434	14465
852.569	14434
852.703	14351
852.838	14423
852.973	14408
853.107	14503
853.242	14339
853.376	14084
853.511	14073
853.645	14176
853.78	14324
853.914	14202
854.048	14100
854.183	14103
854.317	14180
854.451	14434
854.585	14138
854.72	14210
854.854	14225
854.988	14183
855.122	14153
855.256	14039
855.39	14168
855.524	14256
855.658	14374
855.792	14267
855.926	14180
856.06	14252
856.194	14339
856.327	14199
856.461	14100
856.595	14153
856.729	14126
856.862	14206
856.996	14180
857.13	14233
857.263	14240
857.397	14385
857.53	14069
857.664	14233
857.797	14259
857.931	14328
858.064	14168
858.197	14332
858.331	14225
858.464	14202
858.597	14073
858.731	14233
858.864	14180
858.997	14172
859.13	14229
859.263	14183
859.396	14336
859.529	14229
859.662	14164
859.795	14168
859.928	14161
860.061	14324
860.194	14290
860.327	14221
860.46	14233
860.592	14271
860.725	14381
860.858	14400
860.99	14168
861.123	14107
861.256	14229
861.388	14138
861.521	14788
861.653	14096
861.786	13951
861.918	14081
862.05	14142
862.183	14149
862.315	14176
862.447	14218
862.58	14218
862.712	14001
862.844	13955
862.976	14016
863.108	14043
863.24	14290
863.372	13925
863.504	13833
863.636	13970
863.768	14031
863.9	13947
864.032	14020
864.164	13974
864.296	14005
864.428	14142
864.559	14065
864.691	14027
864.823	14039
864.954	13967
865.086	14008
865.217	13947
865.349	13795
865.48	13898
865.612	13947
865.743	13993
865.875	14016
866.006	13883
866.137	14031
866.269	13967
866.4	13986
866.531	14005
866.662	13982
866.793	13890
866.924	13947
867.055	13925
867.186	13906
867.317	13928
867.448	13852
867.579	13940
867.71	13917
867.841	13845
867.972	14008
868.103	13944
868.233	14035
868.364	13989
868.495	14043
868.625	14263
868.756	14339
868.886	14123
869.017	14199
869.147	14240
869.278	14282
869.408	14263
869.539	14225
869.669	14183
869.799	14183
869.929	14339
870.06	14370
870.19	14549
870.32	14533
870.45	14556
870.58	14636
870.71	14686
870.84	14689
870.97	14594
871.1	14526
871.23	14826
871.36	14716
871.489	14667
871.619	14765
871.749	14743
871.879	14891
872.008	14975
872.138	14956
872.267	14746
872.397	14705
872.526	14743
872.656	14560
872.785	14708
872.915	14891
873.044	14906
873.173	14861
873.303	14891
873.432	14914
873.561	14937
873.69	14773
873.819	14750
873.948	14921
874.077	14948
874.206	14788
874.335	14857
874.464	14944
874.593	15203
874.722	15104
874.851	15256
874.979	15119
875.108	15233
875.237	15062
875.365	15089
875.494	15157
875.623	15298
875.751	15192
875.88	15138
876.008	15272
876.136	15348
876.265	15606
876.393	15690
876.521	15606
876.65	15698
876.778	15599
876.906	15504
877.034	15496
877.162	15492
877.29	15584
877.418	15625
877.546	15568
877.674	15538
877.802	15644
877.93	15561
878.058	15633
878.185	15428
878.313	15629
878.441	15530
878.568	15488
878.696	15587
878.824	15603
878.951	15603
879.079	15812
879.206	15903
879.333	15743
879.461	15675
879.588	15709
879.715	15823
879.842	15930
879.97	15614
880.097	15374
880.224	15393
880.351	15405
880.478	15454
880.605	15428
880.732	15405
880.859	15675
880.986	15485
881.112	15454
881.239	15294
881.366	15184
881.493	15165
881.619	15066
881.746	15112
881.872	15119
881.999	15051
882.125	14948
882.252	15112
882.378	15161
882.505	15252
882.631	15020
882.757	14880
882.883	14994
883.01	14933
883.136	14838
883.262	14731
883.388	14769
883.514	14944
883.64	14910
883.766	14849
883.892	14663
884.018	14754
884.143	14948
884.269	14998
884.395	14598
884.52	14575
884.646	14579
884.772	14556
884.897	14545
885.023	14682
885.148	14720
885.274	14819
885.399	14686
885.524	14640
885.65	14602
885.775	14682
885.9	14640
886.025	14693
886.15	14667
886.275	14568
886.4	14488
886.525	14590
886.65	14579
886.775	14560
886.9	14682
887.025	14883
887.149	14629
887.274	14549
887.399	14400
887.523	14461
887.648	14389
887.773	14381
887.897	14564
888.021	14541
888.146	14385
888.27	14568
888.395	14606
888.519	14568
888.643	14537
888.767	14575
888.891	14423
889.015	14275
889.139	14381
889.263	14282
889.387	14358
889.511	14511
889.635	14450
889.759	14286
889.883	14240
890.006	14298
890.13	14419
890.254	14237
890.377	14168
890.501	14096
890.624	14065
890.748	14168
890.871	14134
890.995	13982
891.118	13860
891.241	14149
891.364	13963
891.488	14065
891.611	14062
891.734	13967
891.857	14043
891.98	14062
892.103	14096
892.226	14035
892.349	13890
892.471	13913
892.594	13997
892.717	14031
892.839	13917
892.962	14043
893.085	14149
893.207	14024
893.33	13902
893.452	13814
893.575	14043
893.697	14031
893.819	14157
893.941	14176
894.064	14187
894.186	14016
894.308	13947
894.43	14183
894.552	14233
894.674	14088
894.796	13940
894.918	14153
895.04	14035
895.161	14149
895.283	14111
895.405	14039
895.526	14195
895.648	14111
895.769	14111
895.891	14240
896.012	14275
896.134	14290
896.255	14248
896.376	14115
896.498	14183
896.619	14267
896.74	14214
896.861	14298
896.982	14621
897.103	14758
897.224	14541
897.345	14488
897.466	14412
897.587	14522
897.708	14571
897.828	14507
897.949	14438
898.07	14400
898.19	14415
898.311	14598
898.431	14507
898.552	14549
898.672	14670
898.792	14621
898.913	14579
899.033	14446
899.153	14469
899.273	14263
899.393	14469
899.513	14431
899.633	14400
899.753	14404
899.873	14370
899.993	14393
900.113	14427
900.232	14469
900.352	14381
900.472	14263
900.591	14263
900.711	14347
900.83	14221
900.95	14347
901.069	14408
901.189	14244
901.308	14058
901.427	14005
901.546	13959
901.665	13989
901.784	13997
901.904	13799
902.023	13666
902.141	13559
902.26	13483
902.379	13693
902.498	13552
902.617	13544
902.735	13639
902.854	13613
902.973	13434
903.091	13282
903.21	13320
903.328	13225
903.446	13171
903.565	13149
903.683	13122
903.801	12951
903.919	13050
904.038	13034
904.156	12928
904.274	13008
904.392	12875
904.51	12916
904.627	12802
904.745	12958
904.863	13031
904.981	12696
905.098	12612
905.216	12544
905.334	12608
905.451	12574
905.569	12593
905.686	12547
905.803	12639
905.921	12407
906.038	12589
906.155	12517
906.272	12323
906.389	12361
906.506	12232
906.623	12095
906.74	12133
906.857	12125
906.974	12076
907.091	12270
907.208	12289
907.324	12224
907.441	12133
907.557	11927
907.674	11931
907.79	11847
907.907	11996
908.023	12011
908.139	11889
908.256	11885
908.372	11828
908.488	11783
908.604	11680
908.72	11657
908.836	11703
908.952	11657
909.068	11752
909.184	11726
909.3	11680
909.415	11760
909.531	11611
909.647	11440
909.762	11452
909.878	11444
909.993	11429
910.108	11372
910.224	11410
910.339	11547
910.454	11501
910.57	11246
910.685	11246
910.8	11516
910.915	11490
911.03	11395
911.145	11193
911.259	11151
911.374	11178
911.489	11064
911.604	11025
911.718	10908
911.833	10900
911.947	10873
912.062	10714
912.176	10923
912.291	10949
912.405	10889
912.519	11113
912.633	11140
912.748	10915
912.862	10934
912.976	10786
913.09	10675
913.204	10721
913.318	10892
913.431	10896
913.545	10889
913.659	11014
913.772	10774
913.886	10691
914	10694
914.113	10812
914.226	10812
914.34	10812
914.453	10675
914.566	10729
914.68	10618
914.793	10698
914.906	10398
915.019	10409
915.132	10333
915.245	10390
915.358	10413
915.47	10341
915.583	10447
915.696	10569
915.809	10554
915.921	10637
916.034	10356
916.146	10386
916.259	10375
916.371	10447
916.483	10451
916.595	10310
916.708	10417
916.82	10428
916.932	10447
917.044	10402
917.156	10413
917.268	10272
917.38	10230
917.491	10272
917.603	10280
917.715	10322
917.826	10382
917.938	10215
918.049	10192
918.161	10215
918.272	10409
918.384	10398
918.495	10253
918.606	10173
918.717	10051
918.828	10204
918.939	10227
919.05	10086
919.161	10188
919.272	9934
919.383	10040
919.494	10261
919.604	10306
919.715	10207
919.826	10124
919.936	10086
920.047	10265
920.157	10188
920.267	10379
920.378	10120
920.488	10105
920.598	10382
920.708	10519
920.818	10314
920.928	10432
921.038	10504
921.148	10405
921.258	10246
921.368	10097
921.477	10071
921.587	9968
921.697	9964
921.806	10025
921.916	9857
922.025	9781
922.134	9781
922.244	9606
922.353	9728
922.462	9641
922.571	9454
922.68	9431
922.789	9408
922.898	9408
923.007	9389
923.116	9492
923.224	9428
923.333	9408
923.442	9260
923.55	9256
923.659	9348
923.767	9348
923.876	9222
923.984	9325
924.092	9146
924.201	9310
924.309	9340
924.417	9310
924.525	9195
924.633	9207
924.741	10238
924.849	9097
924.956	9112
925.064	9070
925.172	9043
925.279	9017
925.387	9116
925.494	9024
925.602	9169
925.709	9180
925.816	8948
925.924	9058
926.031	9214
926.138	8998
926.245	9161
926.352	9062
926.459	9195
926.566	9161
926.673	9017
926.779	8979
926.886	8963
926.993	8746
927.099	8826
927.206	8754
927.312	8777
927.419	8815
927.525	8773
927.631	8857
927.737	8720
927.843	8712
927.95	8499
928.056	8667
928.162	8708
928.267	8788
928.373	9321
928.479	8773
928.585	8579
928.69	8667
928.796	8769
928.901	8610
929.007	8415
929.112	8575
929.218	8602
929.323	8560
929.428	8495
929.533	8682
929.638	8450
929.743	8400
929.848	8549
929.953	8454
930.058	8438
930.163	8191
930.267	8290
930.372	8442
930.477	8282
930.581	8454
930.685	8400
930.79	8233
930.894	8336
930.998	8183
931.103	8328
931.207	8012
931.311	7928
931.415	7909
931.519	7715
931.623	7704
