Data from test_V78500241_3468.txt Node
Date: Fri Mar 25 14:57:51 CST 2022
User: usil
Spectrometer: V785-0024
Trigger mode: 0
Integration Time (sec): 4.000000E-1
Scans to average: 1
Nonlinearity correction enabled: false
Boxcar width: 0
Storing dark spectrum: false
XAxis mode: Wavelengths
Number of Pixels in Spectrum: 1024
>>>>>Begin Spectral Data<<<<<
801.071	21994
801.214	21816
801.356	21557
801.499	21355
801.641	21386
801.783	21165
801.926	21344
802.068	21260
802.211	21157
802.353	21089
802.496	20899
802.638	20754
802.78	20765
802.923	20682
803.065	20674
803.208	20564
803.35	20651
803.492	20632
803.635	20682
803.777	20636
803.919	20724
804.061	20857
804.204	20648
804.346	20480
804.488	20450
804.63	20518
804.773	20488
804.915	20511
805.057	20537
805.199	20381
805.341	20579
805.483	20632
805.626	20568
805.768	20556
805.91	20503
806.052	20743
806.194	20415
806.336	20644
806.478	20503
806.62	20434
806.762	20484
806.904	20724
807.046	20872
807.188	20804
807.33	20891
807.472	20864
807.614	20762
807.756	20815
807.898	20693
808.04	20537
808.182	20549
808.324	20632
808.465	20518
808.607	20800
808.749	20872
808.891	20933
809.033	21146
809.174	20872
809.316	20819
809.458	20921
809.6	20868
809.741	20899
809.883	20914
810.025	21051
810.166	21104
810.308	21047
810.45	20956
810.591	20838
810.733	20746
810.875	20708
811.016	20590
811.158	20446
811.299	20606
811.441	20758
811.582	20743
811.724	20579
811.865	20541
812.007	20568
812.148	20560
812.29	20708
812.431	20872
812.573	20914
812.714	20971
812.855	21138
812.997	21150
813.138	21283
813.279	21230
813.421	21096
813.562	21051
813.703	20895
813.845	20826
813.986	20404
814.127	20438
814.268	20332
814.41	20305
814.551	20187
814.692	20183
814.833	20161
814.974	20096
815.115	20240
815.256	19982
815.397	20084
815.539	20050
815.68	19894
815.821	19818
815.962	19947
816.103	19841
816.244	19776
816.385	19613
816.526	19609
816.666	19377
816.807	19320
816.948	19320
817.089	19430
817.23	19278
817.371	19308
817.512	19270
817.653	19156
817.793	19278
817.934	19266
818.075	19350
818.216	19266
818.356	19297
818.497	19156
818.638	18897
818.778	18935
818.919	18909
819.06	18958
819.2	19099
819.341	19221
819.481	19141
819.622	19251
819.762	19430
819.903	19480
820.043	19339
820.184	19293
820.324	19244
820.465	19259
820.605	19206
820.746	19285
820.886	19088
821.026	19206
821.167	19057
821.307	19285
821.447	19202
821.588	19206
821.728	18973
821.868	18772
822.008	18601
822.149	18738
822.289	18726
822.429	18445
822.569	18395
822.709	18467
822.849	18228
822.99	18140
823.13	18049
823.27	18095
823.41	17920
823.55	17996
823.69	18053
823.83	18095
823.97	17893
824.11	17699
824.25	17813
824.389	17714
824.529	17767
824.669	17767
824.809	17878
824.949	17771
825.089	17767
825.228	17714
825.368	17585
825.508	17608
825.648	17516
825.787	17619
825.927	17543
826.067	17573
826.206	17364
826.346	17528
826.485	17611
826.625	17452
826.765	17554
826.904	17604
827.044	17379
827.183	17227
827.323	17159
827.462	17322
827.601	17212
827.741	17189
827.88	17109
828.02	17151
828.159	17121
828.298	17258
828.437	17208
828.577	17174
828.716	17250
828.855	17132
828.994	17064
829.134	17064
829.273	17083
829.412	16976
829.551	16862
829.69	17010
829.829	17052
829.968	17014
830.107	17094
830.246	17052
830.385	16972
830.524	16862
830.663	16736
830.802	16645
830.941	16698
831.08	16561
831.219	16656
831.357	16588
831.496	16850
831.635	16596
831.774	16523
831.913	16459
832.051	16466
832.19	16462
832.329	16485
832.467	16360
832.606	16337
832.744	16287
832.883	16394
833.022	16356
833.16	16272
833.299	16371
833.437	16257
833.576	16314
833.714	16360
833.852	16386
833.991	16417
834.129	16421
834.267	16398
834.406	16337
834.544	16421
834.682	16398
834.821	16379
834.959	16603
835.097	16333
835.235	16443
835.373	16451
835.511	16322
835.65	16268
835.788	16325
835.926	16204
836.064	16055
836.202	16071
836.34	16329
836.478	16341
836.615	16246
836.753	16291
836.891	16432
837.029	16356
837.167	16310
837.305	16173
837.443	16314
837.58	16112
837.718	16238
837.856	16124
837.993	16131
838.131	16124
838.269	16109
838.406	16063
838.544	16188
838.681	15876
838.819	15819
838.956	15694
839.094	15770
839.231	15800
839.369	15857
839.506	16158
839.643	16013
839.781	15747
839.918	15606
840.055	15667
840.193	15793
840.33	15701
840.467	15770
840.604	15800
840.742	16048
840.879	15557
841.016	15584
841.153	15663
841.29	15835
841.427	15759
841.564	15682
841.701	15766
841.838	15618
841.975	15660
842.112	15606
842.249	15576
842.385	15462
842.522	15663
842.659	15488
842.796	15473
842.933	15424
843.069	15485
843.206	15466
843.343	15561
843.479	15462
843.616	15530
843.752	15321
843.889	15355
844.025	15420
844.162	15237
844.298	15428
844.435	15348
844.571	15138
844.708	15252
844.844	15473
844.98	15435
845.117	15386
845.253	15340
845.389	15157
845.525	15214
845.661	15211
845.798	15097
845.934	15119
846.07	15032
846.206	15123
846.342	15245
846.478	15112
846.614	14914
846.75	14880
846.886	14864
847.022	14902
847.158	14864
847.294	14792
847.429	14941
847.565	14876
847.701	15070
847.837	14655
847.972	14579
848.108	14686
848.244	14693
848.379	14495
848.515	14415
848.65	14423
848.786	14393
848.921	14446
849.057	14575
849.192	14564
849.328	14556
849.463	14492
849.598	14412
849.734	14347
849.869	14434
850.004	14214
850.14	14286
850.275	14164
850.41	14126
850.545	14256
850.68	14263
850.815	14328
850.95	14180
851.085	14282
851.22	14324
851.355	14305
851.49	14157
851.625	14221
851.76	14168
851.895	14096
852.03	14050
852.165	14176
852.299	14176
852.434	14202
852.569	14347
852.703	14240
852.838	14275
852.973	14313
853.107	14438
853.242	14240
853.376	14153
853.511	13947
853.645	13947
853.78	14180
853.914	14103
854.048	14065
854.183	13982
854.317	14088
854.451	14324
854.585	14100
854.72	14065
854.854	14077
854.988	13986
855.122	14115
855.256	14031
855.39	14130
855.524	14149
855.658	14130
855.792	14054
855.926	14119
856.06	14130
856.194	14130
856.327	14096
856.461	14062
856.595	14043
856.729	14164
856.862	14172
856.996	14130
857.13	14202
857.263	14233
857.397	14221
857.53	14062
857.664	14199
857.797	14183
857.931	14210
858.064	14225
858.197	14199
858.331	14058
858.464	14039
858.597	13986
858.731	14058
858.864	14092
858.997	14073
859.13	14119
859.263	14134
859.396	14278
859.529	14096
859.662	14077
859.795	14134
859.928	14145
860.061	14202
860.194	14248
860.327	14233
860.46	14107
860.592	14210
860.725	14252
860.858	14221
860.99	14005
861.123	14069
861.256	14103
861.388	14142
861.521	14830
861.653	14035
861.786	13921
861.918	13989
862.05	14073
862.183	14103
862.315	14069
862.447	14176
862.58	14024
862.712	13947
862.844	13852
862.976	13967
863.108	13799
863.24	14412
863.372	13799
863.504	13883
863.636	13940
863.768	13947
863.9	13902
864.032	13799
864.164	13894
864.296	13909
864.428	13959
864.559	13982
864.691	13940
864.823	13868
864.954	13967
865.086	13811
865.217	13875
865.349	13925
865.48	13887
865.612	13826
865.743	13974
865.875	13906
866.006	13909
866.137	13913
866.269	13898
866.4	13868
866.531	13921
866.662	13868
866.793	13814
866.924	13719
867.055	13860
867.186	13875
867.317	13807
867.448	13776
867.579	13765
867.71	13715
867.841	13757
867.972	13856
868.103	14012
868.233	13940
868.364	13841
868.495	13963
868.625	14092
868.756	14278
868.886	14123
869.017	14103
869.147	14191
869.278	14180
869.408	14058
869.539	14168
869.669	14195
869.799	14237
869.929	14237
870.06	14176
870.19	14419
870.32	14446
870.45	14404
870.58	14564
870.71	14659
870.84	14613
870.97	14530
871.1	14533
871.23	14750
871.36	14750
871.489	14686
871.619	14743
871.749	14750
871.879	14777
872.008	14853
872.138	14746
872.267	14693
872.397	14587
872.526	14579
872.656	14606
872.785	14613
872.915	14727
873.044	14868
873.173	14811
873.303	14796
873.432	14857
873.561	14899
873.69	14868
873.819	14861
873.948	14918
874.077	14842
874.206	14842
874.335	14868
874.464	14883
874.593	15093
874.722	14960
874.851	15199
874.979	15077
875.108	15066
875.237	15036
875.365	15127
875.494	15062
875.623	15173
875.751	15024
875.88	15184
876.008	15211
876.136	15359
876.265	15557
876.393	15614
876.521	15507
876.65	15671
876.778	15610
876.906	15542
877.034	15477
877.162	15485
877.29	15500
877.418	15511
877.546	15545
877.674	15553
877.802	15606
877.93	15469
878.058	15542
878.185	15420
878.313	15542
878.441	15530
878.568	15393
878.696	15568
878.824	15523
878.951	15580
879.079	15743
879.206	15774
879.333	15797
879.461	15622
879.588	15591
879.715	15759
879.842	15800
879.97	15545
880.097	15412
880.224	15378
880.351	15363
880.478	15325
880.605	15393
880.732	15374
880.859	15561
880.986	15428
881.112	15412
881.239	15264
881.366	15055
881.493	15055
881.619	14956
881.746	14975
881.872	15070
881.999	14967
882.125	14956
882.252	15116
882.378	15039
882.505	15169
882.631	15013
882.757	14842
882.883	15013
883.01	14819
883.136	14826
883.262	14617
883.388	14716
883.514	14899
883.64	14864
883.766	14845
883.892	14625
884.018	14720
884.143	14720
884.269	14925
884.395	14651
884.52	14556
884.646	14476
884.772	14526
884.897	14408
885.023	14507
885.148	14632
885.274	14678
885.399	14667
885.524	14530
885.65	14575
885.775	14598
885.9	14537
886.025	14598
886.15	14590
886.275	14518
886.4	14492
886.525	14423
886.65	14412
886.775	14583
886.9	14716
887.025	14800
887.149	14492
887.274	14381
887.399	14438
887.523	14377
887.648	14320
887.773	14271
887.897	14408
888.021	14366
888.146	14275
888.27	14389
888.395	14587
888.519	14461
888.643	14476
888.767	14438
888.891	14286
889.015	14221
889.139	14252
889.263	14248
889.387	14294
889.511	14450
889.635	14317
889.759	14305
889.883	14267
890.006	14385
890.13	14400
890.254	14199
890.377	14282
890.501	14020
890.624	14088
890.748	14088
890.871	13967
890.995	13871
891.118	13890
891.241	13906
891.364	13955
891.488	14157
891.611	13909
891.734	14001
891.857	14050
891.98	14001
892.103	14073
892.226	13974
892.349	13963
892.471	13864
892.594	13925
892.717	13951
892.839	13921
892.962	14031
893.085	13989
893.207	13978
893.33	13883
893.452	13894
893.575	14088
893.697	13947
893.819	14100
893.941	14183
894.064	14084
894.186	13830
894.308	13978
894.43	14168
894.552	14119
894.674	14024
894.796	13898
894.918	14046
895.04	14005
895.161	14054
895.283	14172
895.405	13982
895.526	14043
895.648	14119
895.769	14016
895.891	14115
896.012	14191
896.134	14153
896.255	14134
896.376	14134
896.498	14126
896.619	14240
896.74	14062
896.861	14149
896.982	14434
897.103	14549
897.224	14457
897.345	14362
897.466	14389
897.587	14431
897.708	14484
897.828	14434
897.949	14313
898.07	14294
898.19	14389
898.311	14492
898.431	14450
898.552	14423
898.672	14602
898.792	14598
898.913	14629
899.033	14366
899.153	14275
899.273	14221
899.393	14252
899.513	14415
899.633	14343
899.753	14275
899.873	14298
899.993	14320
900.113	14347
900.232	14343
900.352	14256
900.472	14263
900.591	14107
900.711	14191
900.83	14126
900.95	14362
901.069	14259
901.189	14123
901.308	13989
901.427	13818
901.546	13883
901.665	13913
901.784	13894
901.904	13689
902.023	13605
902.141	13521
902.26	13396
902.379	13510
902.498	13464
902.617	13415
902.735	13434
902.854	13422
902.973	13343
903.091	13225
903.21	13129
903.328	13164
903.446	13190
903.565	13031
903.683	13004
903.801	13012
903.919	12947
904.038	13015
904.156	12852
904.274	12852
904.392	12821
904.51	12844
904.627	12810
904.745	12867
904.863	12863
904.981	12570
905.098	12566
905.216	12517
905.334	12593
905.451	12547
905.569	12502
905.686	12426
905.803	12551
905.921	12289
906.038	12521
906.155	12403
906.272	12289
906.389	12266
906.506	12190
906.623	12197
906.74	12125
906.857	11961
906.974	12076
907.091	12224
907.208	12300
907.324	12152
907.441	12003
907.557	11893
907.674	11817
907.79	11809
907.907	11828
908.023	11866
908.139	11874
908.256	11798
908.372	11805
908.488	11783
908.604	11592
908.72	11535
908.836	11684
908.952	11657
909.068	11676
909.184	11710
909.3	11657
909.415	11665
909.531	11630
909.647	11497
909.762	11414
909.878	11395
909.993	11433
910.108	11372
910.224	11402
910.339	11486
910.454	11318
910.57	11178
910.685	11181
910.8	11539
910.915	11516
911.03	11273
911.145	11140
911.259	11045
911.374	11128
911.489	11086
911.604	11048
911.718	10923
911.833	10850
911.947	10805
912.062	10733
912.176	10904
912.291	10919
912.405	10778
912.519	11109
912.633	11086
912.748	10942
912.862	10866
912.976	10729
913.09	10637
913.204	10653
913.318	10721
913.431	10896
913.545	10824
913.659	10881
913.772	10752
913.886	10687
914	10573
914.113	10649
914.226	10721
914.34	10752
914.453	10550
914.566	10767
914.68	10527
914.793	10554
914.906	10432
915.019	10265
915.132	10363
915.245	10413
915.358	10432
915.47	10386
915.583	10356
915.696	10508
915.809	10531
915.921	10603
916.034	10417
916.146	10405
916.259	10299
916.371	10402
916.483	10409
916.595	10284
916.708	10386
916.82	10314
916.932	10379
917.044	10291
917.156	10242
917.268	10215
917.38	10230
917.491	10169
917.603	10272
917.715	10295
917.826	10348
917.938	10234
918.049	10131
918.161	10230
918.272	10398
918.384	10367
918.495	10287
918.606	10112
918.717	10029
918.828	10097
918.939	10105
919.05	10017
919.161	10154
919.272	9968
919.383	9960
919.494	10112
919.604	10379
919.715	10139
919.826	10036
919.936	10059
920.047	10135
920.157	10135
920.267	10337
920.378	10173
920.488	10063
920.598	10291
920.708	10459
920.818	10348
920.928	10337
921.038	10424
921.148	10489
921.258	10234
921.368	10078
921.477	9937
921.587	9975
921.697	9907
921.806	9911
921.916	9838
922.025	9736
922.134	9705
922.244	9644
922.353	9740
922.462	9595
922.571	9526
922.68	9393
922.789	9321
922.898	9378
923.007	9306
923.116	9389
923.224	9332
923.333	9348
923.442	9283
923.55	9237
923.659	9317
923.767	9363
923.876	9245
923.984	9348
924.092	9169
924.201	9249
924.309	9294
924.417	9291
924.525	9260
924.633	9169
924.741	10154
924.849	9005
924.956	9127
925.064	8990
925.172	8883
925.279	9001
925.387	9020
925.494	9032
925.602	9169
925.709	9081
925.816	8956
925.924	8998
926.031	9146
926.138	8994
926.245	9077
926.352	9001
926.459	9131
926.566	9165
926.673	9036
926.779	8895
926.886	8918
926.993	8689
927.099	8746
927.206	8629
927.312	8693
927.419	8746
927.525	8766
927.631	8777
927.737	8693
927.843	8636
927.95	8579
928.056	8552
928.162	8659
928.267	8674
928.373	9306
928.479	8769
928.585	8533
928.69	8602
928.796	8610
928.901	8499
929.007	8480
929.112	8533
929.218	8575
929.323	8522
929.428	8454
929.533	8579
929.638	8339
929.743	8423
929.848	8503
929.953	8492
930.058	8389
930.163	8187
930.267	8252
930.372	8343
930.477	8202
930.581	8495
930.685	8317
930.79	8199
930.894	8294
930.998	8164
931.103	8267
931.207	7989
931.311	7974
931.415	7864
931.519	7712
931.623	7666
