Data from test_V78500241_2225.txt Node
Date: Fri Mar 25 14:49:12 CST 2022
User: usil
Spectrometer: V785-0024
Trigger mode: 0
Integration Time (sec): 4.000000E-1
Scans to average: 1
Nonlinearity correction enabled: false
Boxcar width: 0
Storing dark spectrum: false
XAxis mode: Wavelengths
Number of Pixels in Spectrum: 1024
>>>>>Begin Spectral Data<<<<<
801.071	22226
801.214	22048
801.356	21819
801.499	21770
801.641	21603
801.783	21462
801.926	21583
802.068	21393
802.211	21332
802.353	21230
802.496	21104
802.638	21020
802.78	20948
802.923	20963
803.065	20902
803.208	20834
803.35	20838
803.492	20899
803.635	21131
803.777	20960
803.919	20952
804.061	21233
804.204	20937
804.346	20967
804.488	20762
804.63	20762
804.773	20762
804.915	20724
805.057	20891
805.199	20743
805.341	20788
805.483	20937
805.626	20769
805.768	20796
805.91	20727
806.052	20731
806.194	20769
806.336	20960
806.478	20765
806.62	20731
806.762	20941
806.904	20918
807.046	21062
807.188	21123
807.33	21142
807.472	21146
807.614	21119
807.756	21039
807.898	20849
808.04	20872
808.182	20910
808.324	20914
808.465	20937
808.607	21051
808.749	21226
808.891	21252
809.033	21325
809.174	21214
809.316	21135
809.458	21211
809.6	21188
809.741	21157
809.883	21226
810.025	21340
810.166	21450
810.308	21325
810.45	21340
810.591	21173
810.733	21055
810.875	21028
811.016	20960
811.158	20754
811.299	20887
811.441	21207
811.582	21112
811.724	20933
811.865	20807
812.007	21001
812.148	20921
812.29	20944
812.431	21089
812.573	21081
812.714	21321
812.855	21458
812.997	21534
813.138	21625
813.279	21618
813.421	21272
813.562	21462
813.703	21131
813.845	21108
813.986	20750
814.127	20583
814.268	20484
814.41	20602
814.551	20457
814.692	20488
814.833	20385
814.974	20488
815.115	20503
815.256	20358
815.397	20366
815.539	20370
815.68	20237
815.821	20138
815.962	20259
816.103	20168
816.244	20043
816.385	19940
816.526	19963
816.666	19731
816.807	19571
816.948	19738
817.089	19715
817.23	19632
817.371	19670
817.512	19605
817.653	19556
817.793	19559
817.934	19544
818.075	19632
818.216	19647
818.356	19518
818.497	19552
818.638	19282
818.778	19209
818.919	19282
819.06	19354
819.2	19460
819.341	19468
819.481	19396
819.622	19575
819.762	19662
819.903	19704
820.043	19571
820.184	19521
820.324	19597
820.465	19670
820.605	19582
820.746	19544
820.886	19495
821.026	19571
821.167	19525
821.307	19510
821.447	19533
821.588	19339
821.728	19392
821.868	19095
822.008	19027
822.149	19023
822.289	18985
822.429	18829
822.569	18806
822.709	18681
822.849	18456
822.99	18483
823.13	18483
823.27	18437
823.41	18285
823.55	18376
823.69	18159
823.83	18220
823.97	18163
824.11	17969
824.25	17946
824.389	18121
824.529	18030
824.669	18106
824.809	18148
824.949	18125
825.089	18045
825.228	18129
825.368	17912
825.508	17855
825.648	17923
825.787	17809
825.927	17756
826.067	17824
826.206	17843
826.346	17786
826.485	17878
826.625	17824
826.765	17927
826.904	17847
827.044	17665
827.183	17718
827.323	17410
827.462	17623
827.601	17585
827.741	17570
827.88	17554
828.02	17326
828.159	17592
828.298	17474
828.437	17558
828.577	17387
828.716	17573
828.855	17425
828.994	17242
829.134	17280
829.273	17265
829.412	17223
829.551	17254
829.69	17334
829.829	17235
829.968	17330
830.107	17368
830.246	17261
830.385	17235
830.524	17223
830.663	17071
830.802	17022
830.941	16843
831.08	16900
831.219	16949
831.357	16946
831.496	16984
831.635	16820
831.774	16831
831.913	16839
832.051	16694
832.19	16645
832.329	16721
832.467	16516
832.606	16660
832.744	16504
832.883	16584
833.022	16596
833.16	16698
833.299	16569
833.437	16599
833.576	16607
833.714	16596
833.852	16618
833.991	16573
834.129	16656
834.267	16622
834.406	16527
834.544	16733
834.682	16687
834.821	16554
834.959	16736
835.097	16645
835.235	16752
835.373	16668
835.511	16573
835.65	16546
835.788	16519
835.926	16459
836.064	16386
836.202	16360
836.34	16516
836.478	16603
836.615	16523
836.753	16538
836.891	16668
837.029	16504
837.167	16508
837.305	16363
837.443	16375
837.58	16306
837.718	16512
837.856	16394
837.993	16276
838.131	16386
838.269	16261
838.406	16306
838.544	16276
838.681	16105
838.819	16143
838.956	15876
839.094	15922
839.231	15991
839.369	16101
839.506	16253
839.643	16276
839.781	15937
839.918	15842
840.055	15918
840.193	16002
840.33	15888
840.467	15857
840.604	15934
840.742	16109
840.879	15827
841.016	15793
841.153	15861
841.29	16029
841.427	15850
841.564	16017
841.701	15956
841.838	15895
841.975	15861
842.112	15838
842.249	15728
842.385	15656
842.522	15888
842.659	15747
842.796	15545
842.933	15728
843.069	15576
843.206	15660
843.343	15774
843.479	15622
843.616	15713
843.752	15542
843.889	15511
844.025	15648
844.162	15492
844.298	15572
844.435	15473
844.571	15412
844.708	15580
844.844	15679
844.98	15701
845.117	15511
845.253	15458
845.389	15340
845.525	15416
845.661	15378
845.798	15233
845.934	15332
846.07	15169
846.206	15348
846.342	15511
846.478	15230
846.614	15123
846.75	14990
846.886	15001
847.022	15100
847.158	15070
847.294	15100
847.429	15131
847.565	14956
847.701	15252
847.837	15024
847.972	14769
848.108	14921
848.244	14830
848.379	14716
848.515	14564
848.65	14644
848.786	14651
848.921	14598
849.057	14739
849.192	14815
849.328	14720
849.463	14644
849.598	14651
849.734	14613
849.869	14476
850.004	14423
850.14	14469
850.275	14549
850.41	14415
850.545	14385
850.68	14336
850.815	14419
850.95	14347
851.085	14541
851.22	14545
851.355	14427
851.49	14412
851.625	14294
851.76	14385
851.895	14385
852.03	14351
852.165	14385
852.299	14446
852.434	14499
852.569	14454
852.703	14469
852.838	14476
852.973	14568
853.107	14636
853.242	14438
853.376	14271
853.511	14202
853.645	14328
853.78	14396
853.914	14385
854.048	14191
854.183	14275
854.317	14286
854.451	14598
854.585	14328
854.72	14267
854.854	14324
854.988	14191
855.122	14393
855.256	14153
855.39	14244
855.524	14324
855.658	14256
855.792	14362
855.926	14332
856.06	14400
856.194	14389
856.327	14301
856.461	14153
856.595	14256
856.729	14290
856.862	14419
856.996	14237
857.13	14351
857.263	14343
857.397	14381
857.53	14309
857.664	14358
857.797	14355
857.931	14404
858.064	14343
858.197	14427
858.331	14336
858.464	14298
858.597	14142
858.731	14248
858.864	14256
858.997	14298
859.13	14252
859.263	14324
859.396	14351
859.529	14237
859.662	14313
859.795	14408
859.928	14381
860.061	14415
860.194	14427
860.327	14328
860.46	14233
860.592	14389
860.725	14423
860.858	14404
860.99	14263
861.123	14320
861.256	14202
861.388	14298
861.521	14807
861.653	14267
861.786	14145
861.918	14187
862.05	14256
862.183	14282
862.315	14271
862.447	14393
862.58	14206
862.712	14096
862.844	14008
862.976	14225
863.108	14130
863.24	14427
863.372	14008
863.504	14043
863.636	14058
863.768	14123
863.9	14088
864.032	14001
864.164	14039
864.296	14100
864.428	14244
864.559	14115
864.691	14149
864.823	14100
864.954	14130
865.086	14130
865.217	14027
865.349	14016
865.48	14001
865.612	14115
865.743	14183
865.875	14176
866.006	14005
866.137	13982
866.269	13997
866.4	14157
866.531	13986
866.662	13997
866.793	13989
866.924	13986
867.055	14096
867.186	13986
867.317	14046
867.448	13997
867.579	13894
867.71	13947
867.841	13959
867.972	14161
868.103	13978
868.233	14024
868.364	14183
868.495	14168
868.625	14328
868.756	14385
868.886	14248
869.017	14286
869.147	14393
869.278	14522
869.408	14355
869.539	14324
869.669	14499
869.799	14313
869.929	14396
870.06	14419
870.19	14587
870.32	14511
870.45	14617
870.58	14693
870.71	14868
870.84	14792
870.97	14613
871.1	14659
871.23	14918
871.36	14880
871.489	14720
871.619	14887
871.749	14891
871.879	14906
872.008	15005
872.138	14868
872.267	14918
872.397	14762
872.526	14644
872.656	14754
872.785	14902
872.915	14902
873.044	15100
873.173	14921
873.303	15013
873.432	14937
873.561	15005
873.69	15085
873.819	14979
873.948	15020
874.077	14975
874.206	14910
874.335	15009
874.464	15070
874.593	15195
874.722	15207
874.851	15256
874.979	15264
875.108	15241
875.237	15211
875.365	15199
875.494	15188
875.623	15287
875.751	15344
875.88	15329
876.008	15462
876.136	15454
876.265	15759
876.393	15797
876.521	15736
876.65	15778
876.778	15614
876.906	15633
877.034	15549
877.162	15717
877.29	15545
877.418	15656
877.546	15660
877.674	15717
877.802	15667
877.93	15770
878.058	15652
878.185	15561
878.313	15603
878.441	15682
878.568	15458
878.696	15656
878.824	15709
878.951	15869
879.079	15842
879.206	15994
879.333	15797
879.461	15686
879.588	15732
879.715	15831
879.842	15968
879.97	15755
880.097	15511
880.224	15488
880.351	15564
880.478	15534
880.605	15488
880.732	15481
880.859	15728
880.986	15515
881.112	15629
881.239	15435
881.366	15279
881.493	15116
881.619	15211
881.746	15252
881.872	15104
881.999	15135
882.125	15161
882.252	15264
882.378	15165
882.505	15294
882.631	15039
882.757	14963
882.883	14967
883.01	15085
883.136	14899
883.262	14872
883.388	14724
883.514	15100
883.64	15108
883.766	14891
883.892	14857
884.018	14842
884.143	15028
884.269	15089
884.395	14735
884.52	14743
884.646	14883
884.772	14720
884.897	14655
885.023	14670
885.148	14815
885.274	14819
885.399	14925
885.524	14750
885.65	14705
885.775	14800
885.9	14800
886.025	14853
886.15	14785
886.275	14697
886.4	14598
886.525	14651
886.65	14636
886.775	14632
886.9	14823
887.025	14963
887.149	14724
887.274	14598
887.399	14507
887.523	14495
887.648	14488
887.773	14526
887.897	14632
888.021	14522
888.146	14488
888.27	14689
888.395	14594
888.519	14568
888.643	14655
888.767	14583
888.891	14480
889.015	14419
889.139	14473
889.263	14355
889.387	14488
889.511	14541
889.635	14674
889.759	14389
889.883	14431
890.006	14370
890.13	14374
890.254	14263
890.377	14412
890.501	14195
890.624	14187
890.748	14199
890.871	14187
890.995	14138
891.118	13974
891.241	14043
891.364	14107
891.488	14221
891.611	14065
891.734	14024
891.857	14164
891.98	14103
892.103	14183
892.226	14142
892.349	14031
892.471	13940
892.594	14103
892.717	14157
892.839	14035
892.962	14103
893.085	14126
893.207	14016
893.33	13955
893.452	14050
893.575	14138
893.697	14050
893.819	14275
893.941	14286
894.064	14244
894.186	13978
894.308	13986
894.43	14240
894.552	14301
894.674	14259
894.796	14195
894.918	14031
895.04	14126
895.161	14195
895.283	14210
895.405	14240
895.526	14161
895.648	14180
895.769	14218
895.891	14278
896.012	14309
896.134	14286
896.255	14256
896.376	14210
896.498	14240
896.619	14358
896.74	14259
896.861	14339
896.982	14583
897.103	14769
897.224	14530
897.345	14568
897.466	14552
897.587	14541
897.708	14610
897.828	14590
897.949	14537
898.07	14427
898.19	14564
898.311	14769
898.431	14598
898.552	14640
898.672	14712
898.792	14750
898.913	14648
899.033	14564
899.153	14602
899.273	14377
899.393	14351
899.513	14484
899.633	14541
899.753	14427
899.873	14419
899.993	14545
900.113	14511
900.232	14476
900.352	14488
900.472	14480
900.591	14324
900.711	14324
900.83	14324
900.95	14415
901.069	14488
901.189	14256
901.308	14024
901.427	13898
901.546	14027
901.665	13997
901.784	14100
901.904	13898
902.023	13795
902.141	13742
902.26	13723
902.379	13677
902.498	13552
902.617	13544
902.735	13658
902.854	13685
902.973	13502
903.091	13438
903.21	13320
903.328	13274
903.446	13194
903.565	13164
903.683	13270
903.801	13133
903.919	13156
904.038	13209
904.156	12932
904.274	13133
904.392	12935
904.51	12954
904.627	12993
904.745	12928
904.863	13088
904.981	12821
905.098	12669
905.216	12608
905.334	12711
905.451	12677
905.569	12669
905.686	12700
905.803	12677
905.921	12448
906.038	12517
906.155	12452
906.272	12407
906.389	12479
906.506	12216
906.623	12281
906.74	12235
906.857	12148
906.974	12125
907.091	12346
907.208	12357
907.324	12311
907.441	12136
907.557	12060
907.674	11950
907.79	11897
907.907	11920
908.023	12114
908.139	12076
908.256	11904
908.372	11866
908.488	11950
908.604	11760
908.72	11680
908.836	11775
908.952	11695
909.068	11790
909.184	11794
909.3	11748
909.415	11813
909.531	11821
909.647	11505
909.762	11566
909.878	11512
909.993	11520
910.108	11505
910.224	11516
910.339	11562
910.454	11395
910.57	11364
910.685	11337
910.8	11596
910.915	11558
911.03	11410
911.145	11265
911.259	11193
911.374	11269
911.489	11143
911.604	11143
911.718	10995
911.833	11060
911.947	10908
912.062	10828
912.176	10938
912.291	10965
912.405	11006
912.519	11170
912.633	11155
912.748	11098
912.862	10984
912.976	10889
913.09	10729
913.204	10835
913.318	10850
913.431	10934
913.545	10968
913.659	10965
913.772	10847
913.886	10771
914	10717
914.113	10793
914.226	10911
914.34	10873
914.453	10736
914.566	10816
914.68	10740
914.793	10679
914.906	10569
915.019	10474
915.132	10375
915.245	10474
915.358	10561
915.47	10558
915.583	10523
915.696	10516
915.809	10649
915.921	10630
916.034	10504
916.146	10455
916.259	10386
916.371	10504
916.483	10474
916.595	10394
916.708	10394
916.82	10382
916.932	10405
917.044	10421
917.156	10398
917.268	10344
917.38	10314
917.491	10299
917.603	10352
917.715	10398
917.826	10497
917.938	10333
918.049	10223
918.161	10344
918.272	10447
918.384	10481
918.495	10333
918.606	10204
918.717	10131
918.828	10188
918.939	10219
919.05	10196
919.161	10238
919.272	9987
919.383	10032
919.494	10215
919.604	10402
919.715	10249
919.826	10196
919.936	10249
920.047	10272
920.157	10291
920.267	10459
920.378	10185
920.488	10238
920.598	10413
920.708	10580
920.818	10409
920.928	10398
921.038	10561
921.148	10573
921.258	10276
921.368	10204
921.477	10112
921.587	10135
921.697	9987
921.806	10185
921.916	9968
922.025	9888
922.134	9789
922.244	9743
922.353	9797
922.462	9720
922.571	9644
922.68	9428
922.789	9454
922.898	9473
923.007	9485
923.116	9561
923.224	9542
923.333	9485
923.442	9412
923.55	9329
923.659	9397
923.767	9397
923.876	9348
923.984	9454
924.092	9279
924.201	9340
924.309	9291
924.417	9336
924.525	9298
924.633	9275
924.741	10242
924.849	9157
924.956	9176
925.064	9146
925.172	9032
925.279	9024
925.387	9146
925.494	9138
925.602	9249
925.709	9188
925.816	9039
925.924	9146
926.031	9192
926.138	9180
926.245	9169
926.352	9009
926.459	9169
926.566	9188
926.673	9157
926.779	8937
926.886	8971
926.993	8845
927.099	8891
927.206	8823
927.312	8819
927.419	8914
927.525	8876
927.631	8880
927.737	8731
927.843	8708
927.95	8621
928.056	8632
928.162	8682
928.267	8807
928.373	9336
928.479	8849
928.585	8594
928.69	8697
928.796	8739
928.901	8686
929.007	8511
929.112	8670
929.218	8655
929.323	8655
929.428	8651
929.533	8655
929.638	8590
929.743	8499
929.848	8552
929.953	8541
930.058	8495
930.163	8267
930.267	8339
930.372	8423
930.477	8366
930.581	8518
930.685	8454
930.79	8343
930.894	8275
930.998	8275
931.103	8396
931.207	8096
931.311	8096
931.415	7936
931.519	7799
931.623	7776
