Data from test_V78500241_701.txt Node
Date: Fri Mar 25 14:38:35 CST 2022
User: usil
Spectrometer: V785-0024
Trigger mode: 0
Integration Time (sec): 4.000000E-1
Scans to average: 1
Nonlinearity correction enabled: false
Boxcar width: 0
Storing dark spectrum: false
XAxis mode: Wavelengths
Number of Pixels in Spectrum: 1024
>>>>>Begin Spectral Data<<<<<
801.071	27755
801.214	27827
801.356	27424
801.499	27268
801.641	27199
801.783	27230
801.926	27192
802.068	27043
802.211	26944
802.353	26979
802.496	26830
802.638	26895
802.78	26590
802.923	26678
803.065	26590
803.208	26594
803.35	26701
803.492	26804
803.635	26800
803.777	26705
803.919	26876
804.061	27272
804.204	26845
804.346	26864
804.488	26986
804.63	27051
804.773	26921
804.915	27093
805.057	27287
805.199	27112
805.341	27359
805.483	27435
805.626	27405
805.768	27481
805.91	27462
806.052	27720
806.194	27899
806.336	28230
806.478	28223
806.62	28360
806.762	28626
806.904	28999
807.046	29707
807.188	29851
807.33	30403
807.472	30981
807.614	31571
807.756	32522
807.898	33530
808.04	35109
808.182	37175
808.324	39705
808.465	42703
808.607	45956
808.749	49034
808.891	50667
809.033	50628
809.174	49122
809.316	46257
809.458	42791
809.6	39348
809.741	36692
809.883	34550
810.025	33150
810.166	31997
810.308	31110
810.45	30464
810.591	29999
810.733	29349
810.875	28999
811.016	28668
811.158	28531
811.299	28474
811.441	28447
811.582	28333
811.724	28025
811.865	27899
812.007	27641
812.148	27618
812.29	27637
812.431	27797
812.573	27835
812.714	27705
812.855	27854
812.997	27857
813.138	27991
813.279	27743
813.421	27705
813.562	27629
813.703	27454
813.845	27184
813.986	26777
814.127	26693
814.268	26659
814.41	26568
814.551	26533
814.692	26549
814.833	26336
814.974	26214
815.115	26427
815.256	26138
815.397	26229
815.539	26153
815.68	26065
815.821	25955
815.962	26039
816.103	25928
816.244	25841
816.385	25658
816.526	25601
816.666	25422
816.807	25297
816.948	25324
817.089	25441
817.23	25354
817.371	25297
817.512	25247
817.653	25194
817.793	25285
817.934	25228
818.075	25213
818.216	25274
818.356	25209
818.497	25114
818.638	24981
818.778	24871
818.919	24859
819.06	24947
819.2	25118
819.341	25107
819.481	25156
819.622	25206
819.762	25491
819.903	25339
820.043	25240
820.184	25148
820.324	25023
820.465	25164
820.605	25168
820.746	25099
820.886	24806
821.026	24996
821.167	24966
821.307	24989
821.447	24886
821.588	24741
821.728	24791
821.868	24445
822.008	24422
822.149	24353
822.289	24270
822.429	24060
822.569	24026
822.709	23969
822.849	23809
822.99	23699
823.13	23627
823.27	23695
823.41	23551
823.55	23455
823.69	23615
823.83	23501
823.97	23535
824.11	23387
824.25	23220
824.389	23246
824.529	23395
824.669	23391
824.809	23429
824.949	23360
825.089	23364
825.228	23376
825.368	23174
825.508	23128
825.648	23170
825.787	23064
825.927	23109
826.067	23010
826.206	23075
826.346	23200
826.485	23086
826.625	23197
826.765	23208
826.904	23128
827.044	22873
827.183	22809
827.323	22744
827.462	22881
827.601	22744
827.741	22748
827.88	22869
828.02	22622
828.159	22618
828.298	22702
828.437	22774
828.577	22721
828.716	22908
828.855	22767
828.994	22432
829.134	22443
829.273	22466
829.412	22409
829.551	22386
829.69	22428
829.829	22375
829.968	22440
830.107	22611
830.246	22493
830.385	22310
830.524	22314
830.663	22276
830.802	22147
830.941	22147
831.08	22093
831.219	22124
831.357	22158
831.496	22253
831.635	22109
831.774	22006
831.913	21975
832.051	21930
832.19	21854
832.329	22048
832.467	22013
832.606	21831
832.744	21911
832.883	21903
833.022	22063
833.16	21991
833.299	22207
833.437	22306
833.576	22531
833.714	22664
833.852	22809
833.991	23121
834.129	23056
834.267	23056
834.406	22965
834.544	22923
834.682	22873
834.821	22691
834.959	22767
835.097	22166
835.235	22386
835.373	22173
835.511	22093
835.65	21953
835.788	21808
835.926	21743
836.064	21641
836.202	21564
836.34	21736
836.478	21690
836.615	21538
836.753	21625
836.891	21591
837.029	21686
837.167	21530
837.305	21412
837.443	21583
837.58	21389
837.718	21439
837.856	21325
837.993	21378
838.131	21447
838.269	21249
838.406	21233
838.544	21268
838.681	21077
838.819	21017
838.956	20823
839.094	20891
839.231	20887
839.369	21028
839.506	21226
839.643	20975
839.781	20800
839.918	20762
840.055	20773
840.193	20830
840.33	20640
840.467	20739
840.604	20845
840.742	21100
840.879	20514
841.016	20590
841.153	20651
841.29	20804
841.427	20750
841.564	20746
841.701	20914
841.838	20842
841.975	20522
842.112	20636
842.249	20583
842.385	20678
842.522	20807
842.659	20708
842.796	20571
842.933	20636
843.069	20564
843.206	20613
843.343	20785
843.479	20689
843.616	20708
843.752	20606
843.889	20545
844.025	20754
844.162	20750
844.298	20979
844.435	21028
844.571	21207
844.708	21481
844.844	21983
844.98	22211
845.117	23067
845.253	23931
845.389	25830
845.525	29410
845.661	35410
845.798	42258
845.934	47459
846.07	49209
846.206	47722
846.342	42836
846.478	35961
846.614	30228
846.75	26389
846.886	24026
847.022	22786
847.158	21781
847.294	21340
847.429	20902
847.565	20629
847.701	20765
847.837	20157
847.972	19970
848.108	19967
848.244	20020
848.379	19734
848.515	19712
848.65	19563
848.786	19563
848.921	19609
849.057	19696
849.192	19788
849.328	19582
849.463	19601
849.598	19430
849.734	19289
849.869	19297
850.004	19350
850.14	19099
850.275	19133
850.41	19194
850.545	19171
850.68	19187
850.815	19168
850.95	19259
851.085	19373
851.22	19297
851.355	19061
851.49	19129
851.625	19126
851.76	19133
851.895	19088
852.03	19050
852.165	19209
852.299	19240
852.434	19263
852.569	19297
852.703	19373
852.838	19381
852.973	19518
853.107	19445
853.242	19209
853.376	19270
853.511	19095
853.645	19263
853.78	19476
853.914	19400
854.048	19324
854.183	19392
854.317	19434
854.451	19624
854.585	19388
854.72	19388
854.854	19487
854.988	19331
855.122	19266
855.256	19194
855.39	19141
855.524	19285
855.658	19122
855.792	18977
855.926	19194
856.06	19114
856.194	19217
856.327	19019
856.461	18905
856.595	18958
856.729	18962
856.862	19091
856.996	18970
857.13	18993
857.263	19069
857.397	19122
857.53	18897
857.664	19027
857.797	19012
857.931	18939
858.064	18916
858.197	18962
858.331	18871
858.464	18901
858.597	18700
858.731	18939
858.864	18829
858.997	18916
859.13	18852
859.263	18848
859.396	18962
859.529	18757
859.662	18840
859.795	18791
859.928	18772
860.061	18905
860.194	18882
860.327	18787
860.46	18795
860.592	18947
860.725	18935
860.858	18932
860.99	18844
861.123	18658
861.256	18757
861.388	18787
861.521	19358
861.653	18711
861.786	18635
861.918	18631
862.05	18639
862.183	18817
862.315	18757
862.447	18810
862.58	18753
862.712	18456
862.844	18460
862.976	18593
863.108	18540
863.24	18768
863.372	18315
863.504	18445
863.636	18384
863.768	18555
863.9	18456
864.032	18357
864.164	18460
864.296	18574
864.428	18597
864.559	18551
864.691	18555
864.823	18460
864.954	18460
865.086	18395
865.217	18475
865.349	18262
865.48	18403
865.612	18281
865.743	18616
865.875	18357
866.006	18372
866.137	18494
866.269	18410
866.4	18410
866.531	18338
866.662	18277
866.793	18327
866.924	18330
867.055	18300
867.186	18403
867.317	18235
867.448	18216
867.579	18300
867.71	18239
867.841	18163
867.972	18315
868.103	18323
868.233	18300
868.364	18281
868.495	18433
868.625	18536
868.756	18696
868.886	18627
869.017	18681
869.147	18719
869.278	18707
869.408	18627
869.539	18703
869.669	18677
869.799	18604
869.929	18688
870.06	18817
870.19	18939
870.32	18821
870.45	19038
870.58	19019
870.71	19065
870.84	19164
870.97	19129
871.1	19023
871.23	19327
871.36	19221
871.489	19187
871.619	19350
871.749	19358
871.879	19381
872.008	19464
872.138	19384
872.267	19434
872.397	19228
872.526	19198
872.656	19255
872.785	19259
872.915	19544
873.044	19529
873.173	19472
873.303	19537
873.432	19548
873.561	19578
873.69	19609
873.819	19567
873.948	19635
874.077	19696
874.206	19582
874.335	19750
874.464	19784
874.593	19997
874.722	19974
874.851	20119
874.979	20058
875.108	20096
875.237	20138
875.365	20084
875.494	20183
875.623	20290
875.751	20248
875.88	20415
876.008	20423
876.136	20625
876.265	20769
876.393	20975
876.521	21024
876.65	21142
876.778	21154
876.906	21123
877.034	21150
877.162	21256
877.29	21298
877.418	21454
877.546	21408
877.674	21599
877.802	21679
877.93	21869
878.058	21975
878.185	22017
878.313	22421
878.441	22767
878.568	23147
878.696	23779
878.824	24589
878.951	25769
879.079	27233
879.206	29326
879.333	31464
879.461	33051
879.588	34318
879.715	34226
879.842	33363
879.97	31392
880.097	29307
880.224	27679
880.351	26488
880.478	25624
880.605	24977
880.732	24688
880.859	24620
880.986	24251
881.112	24060
881.239	23999
881.366	23722
881.493	23554
881.619	23630
881.746	23805
881.872	23680
881.999	23813
882.125	23752
882.252	23920
882.378	23920
882.505	24026
882.631	23771
882.757	23615
882.883	23760
883.01	23684
883.136	23710
883.262	23520
883.388	23433
883.514	23638
883.64	23638
883.766	23604
883.892	23497
884.018	23551
884.143	23623
884.269	23547
884.395	23539
884.52	23414
884.646	23486
884.772	23303
884.897	23429
885.023	23440
885.148	23440
885.274	23444
885.399	23318
885.524	23105
885.65	23117
885.775	23056
885.9	22820
886.025	22740
886.15	22565
886.275	22265
886.4	22074
886.525	22070
886.65	21884
886.775	21770
886.9	21781
887.025	21793
887.149	21424
887.274	21192
887.399	21150
887.523	20895
887.648	20819
887.773	20838
887.897	20872
888.021	20842
888.146	20583
888.27	20720
888.395	20621
888.519	20625
888.643	20431
888.767	20549
888.891	20286
889.015	20149
889.139	20199
889.263	20077
889.387	20195
889.511	20172
889.635	20225
889.759	19944
889.883	19932
890.006	19871
890.13	19913
890.254	19674
890.377	19742
890.501	19586
890.624	19438
890.748	19525
890.871	19396
890.995	19232
891.118	19206
891.241	19057
891.364	19244
891.488	19289
891.611	19103
891.734	19133
891.857	19110
891.98	19103
892.103	19069
892.226	18962
892.349	18829
892.471	18776
892.594	18852
892.717	18814
892.839	18730
892.962	18741
893.085	18795
893.207	18711
893.33	18578
893.452	18551
893.575	18707
893.697	18604
893.819	18658
893.941	18768
894.064	18741
894.186	18456
894.308	18414
894.43	18547
894.552	18593
894.674	18452
894.796	18338
894.918	18365
895.04	18372
895.161	18464
895.283	18429
895.405	18334
895.526	18323
895.648	18304
895.769	18327
895.891	18369
896.012	18395
896.134	18365
896.255	18243
896.376	18254
896.498	18372
896.619	18365
896.74	18273
896.861	18365
896.982	18566
897.103	18707
897.224	18483
897.345	18566
897.466	18361
897.587	18410
897.708	18506
897.828	18555
897.949	18330
898.07	18273
898.19	18304
898.311	18395
898.431	18319
898.552	18509
898.672	18506
898.792	18532
898.913	18372
899.033	18357
899.153	18251
899.273	18140
899.393	18243
899.513	18247
899.633	18281
899.753	18201
899.873	18083
899.993	18251
900.113	18155
900.232	18171
900.352	18190
900.472	18007
900.591	17920
900.711	17931
900.83	17958
900.95	18011
901.069	18060
901.189	17832
901.308	17623
901.427	17642
901.546	17528
901.665	17516
901.784	17543
901.904	17315
902.023	17334
902.141	17166
902.26	17151
902.379	17181
902.498	17018
902.617	16984
902.735	16965
902.854	17018
902.973	16900
903.091	16634
903.21	16550
903.328	16599
903.446	16519
903.565	16421
903.683	16538
903.801	16341
903.919	16409
904.038	16276
904.156	16257
904.274	16325
904.392	16242
904.51	16169
904.627	16173
904.745	16196
904.863	16261
904.981	15979
905.098	15838
905.216	15907
905.334	15789
905.451	15778
905.569	15831
905.686	15838
905.803	15774
905.921	15641
906.038	15732
906.155	15622
906.272	15599
906.389	15530
906.506	15500
906.623	15378
906.74	15367
906.857	15226
906.974	15272
907.091	15401
907.208	15485
907.324	15298
907.441	15355
907.557	15211
907.674	15108
907.79	15055
907.907	15089
908.023	15066
908.139	15058
908.256	14998
908.372	15020
908.488	14937
908.604	14746
908.72	14762
908.836	14781
908.952	14800
909.068	14777
909.184	14819
909.3	14739
909.415	14731
909.531	14682
909.647	14511
909.762	14511
909.878	14473
909.993	14571
910.108	14495
910.224	14492
910.339	14526
910.454	14419
910.57	14290
910.685	14214
910.8	14575
910.915	14442
911.03	14366
911.145	14149
911.259	14138
911.374	14172
911.489	14027
911.604	14020
911.718	13925
911.833	13944
911.947	13921
912.062	13666
912.176	13902
912.291	13833
912.405	13883
912.519	14039
912.633	14020
912.748	13894
912.862	13826
912.976	13681
913.09	13643
913.204	13696
913.318	13746
913.431	13898
913.545	13772
913.659	13803
913.772	13685
913.886	13662
914	13548
914.113	13624
914.226	13708
914.34	13639
914.453	13362
914.566	13658
914.68	13502
914.793	13487
914.906	13373
915.019	13282
915.132	13206
915.245	13225
915.358	13297
915.47	13339
915.583	13301
915.696	13343
915.809	13449
915.921	13411
916.034	13202
916.146	13198
916.259	13221
916.371	13187
916.483	13232
916.595	13137
916.708	13225
916.82	13175
916.932	13175
917.044	13187
917.156	13122
917.268	13019
917.38	13000
917.491	12924
917.603	13126
917.715	13042
917.826	13088
917.938	12897
918.049	12802
918.161	12947
918.272	13103
918.384	13088
918.495	12951
918.606	12810
918.717	12646
918.828	12821
918.939	12802
919.05	12665
919.161	12665
919.272	12494
919.383	12597
919.494	12715
919.604	12916
919.715	12783
919.826	12540
919.936	12768
920.047	12772
920.157	12703
920.267	12848
920.378	12692
920.488	12612
920.598	12856
920.708	12973
920.818	12882
920.928	12814
921.038	12996
921.148	12958
921.258	12719
921.368	12620
921.477	12471
921.587	12395
921.697	12346
921.806	12502
921.916	12369
922.025	12251
922.134	12079
922.244	12064
922.353	12136
922.462	12072
922.571	11893
922.68	11824
922.789	11794
922.898	11863
923.007	11699
923.116	11821
923.224	11855
923.333	11748
923.442	11737
923.55	11623
923.659	11752
923.767	11665
923.876	11592
923.984	11619
924.092	11551
924.201	11486
924.309	11596
924.417	11653
924.525	11501
924.633	11505
924.741	12342
924.849	11322
924.956	11528
925.064	11387
925.172	11280
925.279	11216
925.387	11322
925.494	11387
925.602	11433
925.709	11372
925.816	11277
925.924	11261
926.031	11360
926.138	11364
926.245	11337
926.352	11181
926.459	11284
926.566	11258
926.673	11197
926.779	11121
926.886	11083
926.993	10968
927.099	10908
927.206	10873
927.312	10862
927.419	11014
927.525	10862
927.631	10980
927.737	10824
927.843	10786
927.95	10793
928.056	10843
928.162	10797
928.267	10816
928.373	11303
928.479	10938
928.585	10622
928.69	10801
928.796	10748
928.901	10675
929.007	10485
929.112	10679
929.218	10637
929.323	10668
929.428	10538
929.533	10615
929.638	10455
929.743	10538
929.848	10622
929.953	10599
930.058	10386
930.163	10291
930.267	10306
930.372	10459
930.477	10215
930.581	10512
930.685	10280
930.79	10204
930.894	10253
930.998	10211
931.103	10322
931.207	9991
931.311	9892
931.415	9800
931.519	9648
931.623	9667
