Data from test_V78500241_3479.txt Node
Date: Fri Mar 25 14:57:56 CST 2022
User: usil
Spectrometer: V785-0024
Trigger mode: 0
Integration Time (sec): 4.000000E-1
Scans to average: 1
Nonlinearity correction enabled: false
Boxcar width: 0
Storing dark spectrum: false
XAxis mode: Wavelengths
Number of Pixels in Spectrum: 1024
>>>>>Begin Spectral Data<<<<<
801.071	22013
801.214	21701
801.356	21625
801.499	21545
801.641	21416
801.783	21268
801.926	21313
802.068	21249
802.211	21169
802.353	21161
802.496	20944
802.638	20845
802.78	20815
802.923	20670
803.065	20465
803.208	20697
803.35	20609
803.492	20758
803.635	20823
803.777	20564
803.919	20606
804.061	20960
804.204	20762
804.346	20503
804.488	20495
804.63	20613
804.773	20480
804.915	20522
805.057	20590
805.199	20454
805.341	20606
805.483	20716
805.626	20701
805.768	20442
805.91	20499
806.052	20587
806.194	20450
806.336	20518
806.478	20434
806.62	20522
806.762	20545
806.904	20769
807.046	20925
807.188	20819
807.33	20899
807.472	20994
807.614	20773
807.756	20727
807.898	20670
808.04	20606
808.182	20571
808.324	20617
808.465	20602
808.607	20758
808.749	20853
808.891	20921
809.033	20979
809.174	21017
809.316	20838
809.458	20746
809.6	20872
809.741	20963
809.883	21009
810.025	21020
810.166	21058
810.308	20891
810.45	20960
810.591	20883
810.733	20769
810.875	20708
811.016	20552
811.158	20571
811.299	20648
811.441	20819
811.582	20697
811.724	20701
811.865	20625
812.007	20606
812.148	20648
812.29	20686
812.431	20804
812.573	20918
812.714	21100
812.855	21077
812.997	21199
813.138	21348
813.279	21291
813.421	21192
813.562	21142
813.703	20956
813.845	20720
813.986	20507
814.127	20332
814.268	20202
814.41	20328
814.551	20119
814.692	20244
814.833	20134
814.974	20107
815.115	20172
815.256	20005
815.397	20046
815.539	19986
815.68	19913
815.821	19879
815.962	19982
816.103	19875
816.244	19681
816.385	19639
816.526	19605
816.666	19411
816.807	19335
816.948	19346
817.089	19422
817.23	19369
817.371	19422
817.512	19293
817.653	19297
817.793	19164
817.934	19304
818.075	19251
818.216	19384
818.356	19133
818.497	19160
818.638	18947
818.778	18993
818.919	18890
819.06	19122
819.2	19152
819.341	19198
819.481	19320
819.622	19247
819.762	19639
819.903	19403
820.043	19441
820.184	19297
820.324	19346
820.465	19419
820.605	19343
820.746	19278
820.886	19152
821.026	19297
821.167	19217
821.307	19274
821.447	19247
821.588	19156
821.728	19034
821.868	18993
822.008	18806
822.149	18783
822.289	18559
822.429	18418
822.569	18391
822.709	18426
822.849	18239
822.99	18205
823.13	18174
823.27	18197
823.41	18083
823.55	17984
823.69	18076
823.83	18102
823.97	18007
824.11	17771
824.25	17726
824.389	17684
824.529	17783
824.669	17851
824.809	17843
824.949	17843
825.089	17821
825.228	17767
825.368	17623
825.508	17562
825.648	17589
825.787	17611
825.927	17695
826.067	17592
826.206	17455
826.346	17535
826.485	17490
826.625	17455
826.765	17718
826.904	17665
827.044	17417
827.183	17235
827.323	17254
827.462	17239
827.601	17341
827.741	17197
827.88	17246
828.02	17132
828.159	17227
828.298	17368
828.437	17239
828.577	17147
828.716	17360
828.855	17162
828.994	16961
829.134	16953
829.273	17014
829.412	16961
829.551	16919
829.69	17025
829.829	16995
829.968	17136
830.107	17071
830.246	17079
830.385	16904
830.524	16949
830.663	16831
830.802	16698
830.941	16672
831.08	16687
831.219	16691
831.357	16706
831.496	16968
831.635	16710
831.774	16622
831.913	16546
832.051	16398
832.19	16409
832.329	16462
832.467	16287
832.606	16253
832.744	16265
832.883	16318
833.022	16352
833.16	16440
833.299	16310
833.437	16470
833.576	16409
833.714	16360
833.852	16519
833.991	16443
834.129	16440
834.267	16451
834.406	16413
834.544	16421
834.682	16398
834.821	16398
834.959	16607
835.097	16295
835.235	16424
835.373	16436
835.511	16409
835.65	16303
835.788	16272
835.926	16196
836.064	16109
836.202	16200
836.34	16356
836.478	16409
836.615	16253
836.753	16276
836.891	16371
837.029	16234
837.167	16185
837.305	16230
837.443	16211
837.58	16242
837.718	16234
837.856	16166
837.993	16101
838.131	16204
838.269	16071
838.406	16177
838.544	16036
838.681	15888
838.819	15827
838.956	15701
839.094	15728
839.231	15823
839.369	15895
839.506	16207
839.643	16101
839.781	15869
839.918	15705
840.055	15751
840.193	15770
840.33	15797
840.467	15770
840.604	15762
840.742	16021
840.879	15599
841.016	15701
841.153	15682
841.29	15876
841.427	15762
841.564	15690
841.701	15739
841.838	15759
841.975	15762
842.112	15717
842.249	15568
842.385	15504
842.522	15656
842.659	15564
842.796	15515
842.933	15587
843.069	15485
843.206	15515
843.343	15549
843.479	15614
843.616	15584
843.752	15310
843.889	15332
844.025	15458
844.162	15256
844.298	15447
844.435	15355
844.571	15294
844.708	15298
844.844	15466
844.98	15466
845.117	15428
845.253	15329
845.389	15279
845.525	15291
845.661	15237
845.798	15093
845.934	15142
846.07	15146
846.206	15161
846.342	15207
846.478	15028
846.614	14906
846.75	14918
846.886	14906
847.022	14952
847.158	14941
847.294	14956
847.429	14902
847.565	14895
847.701	15043
847.837	14716
847.972	14537
848.108	14739
848.244	14735
848.379	14571
848.515	14533
848.65	14499
848.786	14514
848.921	14533
849.057	14659
849.192	14530
849.328	14522
849.463	14438
849.598	14347
849.734	14476
849.869	14362
850.004	14347
850.14	14408
850.275	14278
850.41	14298
850.545	14176
850.68	14206
850.815	14275
850.95	14275
851.085	14355
851.22	14358
851.355	14256
851.49	14259
851.625	14199
851.76	14298
851.895	14172
852.03	14077
852.165	14168
852.299	14305
852.434	14309
852.569	14248
852.703	14317
852.838	14404
852.973	14492
853.107	14389
853.242	14214
853.376	14126
853.511	14088
853.645	14065
853.78	14278
853.914	14138
854.048	14027
854.183	14096
854.317	14084
854.451	14278
854.585	14195
854.72	14092
854.854	14138
854.988	13959
855.122	13982
855.256	14100
855.39	14115
855.524	14252
855.658	14115
855.792	14161
855.926	14180
856.06	14130
856.194	14180
856.327	14145
856.461	14138
856.595	14130
856.729	14031
856.862	14252
856.996	14237
857.13	14157
857.263	14259
857.397	14256
857.53	14183
857.664	14168
857.797	14225
857.931	14336
858.064	14149
858.197	14358
858.331	14123
858.464	14058
858.597	13967
858.731	14050
858.864	13982
858.997	14062
859.13	14240
859.263	14115
859.396	14244
859.529	14142
859.662	14142
859.795	13955
859.928	14145
860.061	14381
860.194	14225
860.327	14145
860.46	14202
860.592	14130
860.725	14210
860.858	14358
860.99	14130
861.123	14164
861.256	13967
861.388	14161
861.521	14834
861.653	14046
861.786	13963
861.918	14001
862.05	14012
862.183	14050
862.315	14111
862.447	14202
862.58	14065
862.712	13856
862.844	13856
862.976	13921
863.108	13978
863.24	14370
863.372	13883
863.504	13875
863.636	13898
863.768	13997
863.9	13879
864.032	13830
864.164	13833
864.296	13967
864.428	13974
864.559	14012
864.691	14024
864.823	13997
864.954	13887
865.086	14043
865.217	13921
865.349	13883
865.48	13898
865.612	13982
865.743	14012
865.875	13871
866.006	13909
866.137	14020
866.269	13898
866.4	13879
866.531	13780
866.662	13814
866.793	13875
866.924	13807
867.055	13833
867.186	13871
867.317	13856
867.448	13841
867.579	13860
867.71	13837
867.841	13822
867.972	13913
868.103	13917
868.233	13887
868.364	14005
868.495	13982
868.625	14183
868.756	14290
868.886	13986
869.017	14161
869.147	14237
869.278	14298
869.408	14126
869.539	14107
869.669	14263
869.799	14214
869.929	14282
870.06	14153
870.19	14556
870.32	14438
870.45	14541
870.58	14598
870.71	14689
870.84	14667
870.97	14492
871.1	14507
871.23	14746
871.36	14716
871.489	14613
871.619	14754
871.749	14750
871.879	14697
872.008	14906
872.138	14712
872.267	14754
872.397	14575
872.526	14606
872.656	14469
872.785	14636
872.915	14861
873.044	14845
873.173	14777
873.303	14842
873.432	14861
873.561	14891
873.69	14891
873.819	14773
873.948	14925
874.077	14857
874.206	14834
874.335	14773
874.464	14994
874.593	15062
874.722	15085
874.851	15150
874.979	15074
875.108	15127
875.237	15043
875.365	15055
875.494	15097
875.623	15211
875.751	15036
875.88	15226
876.008	15169
876.136	15374
876.265	15530
876.393	15728
876.521	15603
876.65	15663
876.778	15488
876.906	15549
877.034	15454
877.162	15481
877.29	15447
877.418	15557
877.546	15580
877.674	15496
877.802	15526
877.93	15610
878.058	15447
878.185	15378
878.313	15405
878.441	15519
878.568	15401
878.696	15530
878.824	15553
878.951	15580
879.079	15671
879.206	15846
879.333	15629
879.461	15629
879.588	15679
879.715	15701
879.842	15812
879.97	15622
880.097	15291
880.224	15374
880.351	15386
880.478	15443
880.605	15321
880.732	15344
880.859	15564
880.986	15363
881.112	15469
881.239	15317
881.366	15207
881.493	15051
881.619	14982
881.746	14982
881.872	14986
881.999	14971
882.125	14944
882.252	15028
882.378	15146
882.505	15192
882.631	15032
882.757	14868
882.883	14929
883.01	14811
883.136	14849
883.262	14701
883.388	14746
883.514	14864
883.64	14925
883.766	14743
883.892	14651
884.018	14777
884.143	14933
884.269	14906
884.395	14636
884.52	14533
884.646	14579
884.772	14476
884.897	14469
885.023	14560
885.148	14705
885.274	14750
885.399	14674
885.524	14602
885.65	14602
885.775	14530
885.9	14594
886.025	14765
886.15	14708
886.275	14537
886.4	14503
886.525	14560
886.65	14492
886.775	14552
886.9	14667
887.025	14743
887.149	14549
887.274	14442
887.399	14309
887.523	14343
887.648	14381
887.773	14320
887.897	14427
888.021	14427
888.146	14336
888.27	14454
888.395	14533
888.519	14400
888.643	14423
888.767	14564
888.891	14385
889.015	14263
889.139	14393
889.263	14324
889.387	14412
889.511	14434
889.635	14336
889.759	14328
889.883	14317
890.006	14320
890.13	14336
890.254	14153
890.377	14259
890.501	14046
890.624	14058
890.748	14180
890.871	13993
890.995	13951
891.118	13898
891.241	13944
891.364	14043
891.488	14096
891.611	13894
891.734	13989
891.857	13955
891.98	14054
892.103	13970
892.226	14020
892.349	13982
892.471	13852
892.594	13925
892.717	13978
892.839	13906
892.962	13989
893.085	13974
893.207	13944
893.33	13883
893.452	13887
893.575	14077
893.697	14027
893.819	14161
893.941	14195
894.064	14138
894.186	14001
894.308	13951
894.43	14123
894.552	14172
894.674	14115
894.796	13978
894.918	13989
895.04	14035
895.161	14084
895.283	14123
895.405	14005
895.526	14065
895.648	14199
895.769	14126
895.891	14202
896.012	14328
896.134	14195
896.255	14092
896.376	14088
896.498	14240
896.619	14187
896.74	14199
896.861	14172
896.982	14465
897.103	14670
897.224	14423
897.345	14374
897.466	14370
897.587	14434
897.708	14533
897.828	14503
897.949	14309
898.07	14313
898.19	14358
898.311	14564
898.431	14278
898.552	14488
898.672	14625
898.792	14568
898.913	14393
899.033	14419
899.153	14389
899.273	14317
899.393	14317
899.513	14309
899.633	14328
899.753	14339
899.873	14377
899.993	14484
900.113	14355
900.232	14290
900.352	14244
900.472	14225
900.591	14164
900.711	14176
900.83	14168
900.95	14320
901.069	14320
901.189	14157
901.308	14054
901.427	13864
901.546	13887
901.665	13928
901.784	13928
901.904	13742
902.023	13715
902.141	13586
902.26	13434
902.379	13590
902.498	13521
902.617	13411
902.735	13392
902.854	13434
902.973	13301
903.091	13126
903.21	13190
903.328	13129
903.446	12981
903.565	13088
903.683	13080
903.801	12897
903.919	12951
904.038	12962
904.156	12837
904.274	12886
904.392	12814
904.51	12840
904.627	12787
904.745	12856
904.863	12977
904.981	12700
905.098	12551
905.216	12627
905.334	12585
905.451	12578
905.569	12513
905.686	12601
905.803	12570
905.921	12365
906.038	12460
906.155	12384
906.272	12277
906.389	12292
906.506	12053
906.623	12220
906.74	12117
906.857	12057
906.974	12045
907.091	12197
907.208	12251
907.324	12235
907.441	12079
907.557	11874
907.674	11893
907.79	11855
907.907	11855
908.023	11885
908.139	11859
908.256	11828
908.372	11889
908.488	11756
908.604	11718
908.72	11615
908.836	11703
908.952	11615
909.068	11619
909.184	11775
909.3	11741
909.415	11748
909.531	11642
909.647	11417
909.762	11433
909.878	11410
909.993	11436
910.108	11417
910.224	11353
910.339	11398
910.454	11307
910.57	11303
910.685	11151
910.8	11566
910.915	11364
911.03	11296
911.145	11159
911.259	11124
911.374	11185
911.489	10976
911.604	11052
911.718	10896
911.833	10885
911.947	10714
912.062	10759
912.176	10854
912.291	10915
912.405	10877
912.519	11029
912.633	11090
912.748	10961
912.862	10869
912.976	10782
913.09	10706
913.204	10702
913.318	10778
913.431	10934
913.545	10755
913.659	10820
913.772	10790
913.886	10656
914	10588
914.113	10759
914.226	10748
914.34	10774
914.453	10554
914.566	10721
914.68	10577
914.793	10630
914.906	10417
915.019	10314
915.132	10295
915.245	10375
915.358	10386
915.47	10436
915.583	10440
915.696	10440
915.809	10542
915.921	10580
916.034	10360
916.146	10363
916.259	10375
916.371	10379
916.483	10390
916.595	10352
916.708	10284
916.82	10333
916.932	10360
917.044	10310
917.156	10329
917.268	10265
917.38	10230
917.491	10272
917.603	10207
917.715	10314
917.826	10310
917.938	10230
918.049	10147
918.161	10268
918.272	10436
918.384	10344
918.495	10246
918.606	10124
918.717	10078
918.828	10093
918.939	10169
919.05	10025
919.161	10131
919.272	9873
919.383	10048
919.494	10234
919.604	10337
919.715	10230
919.826	10055
919.936	10150
920.047	10257
920.157	10143
920.267	10379
920.378	10306
920.488	10166
920.598	10390
920.708	10519
920.818	10405
920.928	10367
921.038	10596
921.148	10527
921.258	10177
921.368	10166
921.477	10044
921.587	10063
921.697	9903
921.806	10021
921.916	9907
922.025	9808
922.134	9724
922.244	9656
922.353	9766
922.462	9644
922.571	9557
922.68	9485
922.789	9492
922.898	9431
923.007	9344
923.116	9477
923.224	9382
923.333	9424
923.442	9313
923.55	9233
923.659	9283
923.767	9408
923.876	9283
923.984	9370
924.092	9264
924.201	9264
924.309	9302
924.417	9226
924.525	9230
924.633	9222
924.741	10120
924.849	9123
924.956	9245
925.064	9077
925.172	8952
925.279	9066
925.387	9135
925.494	9112
925.602	9142
925.709	9218
925.816	9001
925.924	9058
926.031	9199
926.138	9077
926.245	9119
926.352	8967
926.459	9154
926.566	9230
926.673	9077
926.779	8956
926.886	8906
926.993	8864
927.099	8788
927.206	8773
927.312	8724
927.419	8868
927.525	8788
927.631	8842
927.737	8735
927.843	8670
927.95	8571
928.056	8720
928.162	8678
928.267	8769
928.373	9351
928.479	8838
928.585	8533
928.69	8629
928.796	8727
928.901	8602
929.007	8507
929.112	8625
929.218	8575
929.323	8473
929.428	8488
929.533	8629
929.638	8488
929.743	8514
929.848	8583
929.953	8484
930.058	8358
930.163	8301
930.267	8275
930.372	8461
930.477	8328
930.581	8465
930.685	8313
930.79	8267
930.894	8187
930.998	8191
931.103	8412
931.207	8065
931.311	8039
931.415	7894
931.519	7647
931.623	7734
