Data from test_V78500241_3264.txt Node
Date: Fri Mar 25 14:56:26 CST 2022
User: usil
Spectrometer: V785-0024
Trigger mode: 0
Integration Time (sec): 4.000000E-1
Scans to average: 1
Nonlinearity correction enabled: false
Boxcar width: 0
Storing dark spectrum: false
XAxis mode: Wavelengths
Number of Pixels in Spectrum: 1024
>>>>>Begin Spectral Data<<<<<
801.071	21979
801.214	21892
801.356	21705
801.499	21641
801.641	21389
801.783	21302
801.926	21351
802.068	21279
802.211	21256
802.353	21131
802.496	20880
802.638	20864
802.78	20792
802.923	20743
803.065	20621
803.208	20629
803.35	20663
803.492	20777
803.635	20876
803.777	20659
803.919	20853
804.061	21119
804.204	20819
804.346	20609
804.488	20587
804.63	20640
804.773	20579
804.915	20697
805.057	20777
805.199	20632
805.341	20667
805.483	20739
805.626	20640
805.768	20568
805.91	20514
806.052	20632
806.194	20492
806.336	20712
806.478	20640
806.62	20332
806.762	20640
806.904	20765
807.046	20899
807.188	20895
807.33	20861
807.472	20979
807.614	20876
807.756	20834
807.898	20594
808.04	20659
808.182	20583
808.324	20655
808.465	20674
808.607	20864
808.749	20887
808.891	21062
809.033	21100
809.174	21188
809.316	21028
809.458	20861
809.6	20933
809.741	21043
809.883	21051
810.025	21154
810.166	21146
810.308	21169
810.45	21058
810.591	20921
810.733	20815
810.875	20716
811.016	20617
811.158	20579
811.299	20754
811.441	20895
811.582	20838
811.724	20807
811.865	20644
812.007	20708
812.148	20606
812.29	20674
812.431	20963
812.573	20975
812.714	21138
812.855	21138
812.997	21363
813.138	21511
813.279	21367
813.421	21252
813.562	21093
813.703	20979
813.845	20826
813.986	20579
814.127	20469
814.268	20381
814.41	20229
814.551	20233
814.692	20339
814.833	20225
814.974	20161
815.115	20214
815.256	20069
815.397	19989
815.539	19913
815.68	20046
815.821	19849
815.962	19944
816.103	19852
816.244	19841
816.385	19757
816.526	19795
816.666	19613
816.807	19358
816.948	19460
817.089	19438
817.23	19415
817.371	19381
817.512	19392
817.653	19365
817.793	19354
817.934	19407
818.075	19274
818.216	19445
818.356	19369
818.497	19133
818.638	19095
818.778	18993
818.919	19202
819.06	19107
819.2	19225
819.341	19225
819.481	19236
819.622	19419
819.762	19537
819.903	19548
820.043	19396
820.184	19441
820.324	19365
820.465	19403
820.605	19350
820.746	19331
820.886	19114
821.026	19293
821.167	19297
821.307	19320
821.447	19400
821.588	19198
821.728	19156
821.868	18829
822.008	18741
822.149	18825
822.289	18715
822.429	18574
822.569	18513
822.709	18525
822.849	18197
822.99	18125
823.13	18133
823.27	18327
823.41	18095
823.55	18022
823.69	18057
823.83	18072
823.97	17954
824.11	17855
824.25	17786
824.389	17855
824.529	17897
824.669	17802
824.809	17912
824.949	17855
825.089	17965
825.228	17821
825.368	17657
825.508	17608
825.648	17619
825.787	17680
825.927	17642
826.067	17596
826.206	17551
826.346	17611
826.485	17733
826.625	17573
826.765	17729
826.904	17627
827.044	17303
827.183	17379
827.323	17337
827.462	17307
827.601	17440
827.741	17258
827.88	17440
828.02	17265
828.159	17220
828.298	17398
828.437	17421
828.577	17189
828.716	17452
828.855	17239
828.994	17121
829.134	17041
829.273	17037
829.412	16968
829.551	17037
829.69	17037
829.829	17056
829.968	17056
830.107	17117
830.246	16991
830.385	16942
830.524	16942
830.663	16881
830.802	16896
830.941	16706
831.08	16725
831.219	16733
831.357	16748
831.496	16892
831.635	16672
831.774	16710
831.913	16577
832.051	16417
832.19	16466
832.329	16478
832.467	16318
832.606	16348
832.744	16390
832.883	16306
833.022	16329
833.16	16352
833.299	16497
833.437	16287
833.576	16306
833.714	16455
833.852	16325
833.991	16478
834.129	16599
834.267	16531
834.406	16485
834.544	16508
834.682	16493
834.821	16440
834.959	16538
835.097	16386
835.235	16436
835.373	16424
835.511	16474
835.65	16337
835.788	16348
835.926	16135
836.064	16051
836.202	16177
836.34	16440
836.478	16443
836.615	16348
836.753	16436
836.891	16417
837.029	16447
837.167	16158
837.305	16348
837.443	16200
837.58	16284
837.718	16382
837.856	16291
837.993	16147
838.131	16109
838.269	16158
838.406	16139
838.544	16124
838.681	15918
838.819	15941
838.956	15724
839.094	15793
839.231	15759
839.369	16013
839.506	16139
839.643	16036
839.781	15812
839.918	15724
840.055	15717
840.193	15724
840.33	15804
840.467	15679
840.604	15789
840.742	16048
840.879	15633
841.016	15720
841.153	15709
841.29	15911
841.427	15713
841.564	15675
841.701	15755
841.838	15816
841.975	15743
842.112	15686
842.249	15625
842.385	15599
842.522	15808
842.659	15648
842.796	15545
842.933	15538
843.069	15553
843.206	15572
843.343	15618
843.479	15408
843.616	15526
843.752	15348
843.889	15412
844.025	15450
844.162	15416
844.298	15351
844.435	15336
844.571	15264
844.708	15424
844.844	15519
844.98	15507
845.117	15424
845.253	15298
845.389	15233
845.525	15245
845.661	15310
845.798	15123
845.934	15256
846.07	15104
846.206	15154
846.342	15294
846.478	15081
846.614	15039
846.75	14880
846.886	14963
847.022	14982
847.158	14910
847.294	14986
847.429	14921
847.565	15005
847.701	15169
847.837	14708
847.972	14606
848.108	14773
848.244	14739
848.379	14568
848.515	14499
848.65	14484
848.786	14526
848.921	14503
849.057	14594
849.192	14568
849.328	14495
849.463	14564
849.598	14461
849.734	14328
849.869	14339
850.004	14259
850.14	14389
850.275	14225
850.41	14267
850.545	14240
850.68	14248
850.815	14377
850.95	14389
851.085	14454
851.22	14355
851.355	14286
851.49	14263
851.625	14191
851.76	14271
851.895	14145
852.03	14180
852.165	14298
852.299	14298
852.434	14404
852.569	14328
852.703	14317
852.838	14305
852.973	14473
853.107	14317
853.242	14229
853.376	14298
853.511	14035
853.645	14164
853.78	14210
853.914	14218
854.048	14027
854.183	14142
854.317	14244
854.451	14294
854.585	14115
854.72	14107
854.854	14164
854.988	14046
855.122	14263
855.256	14103
855.39	14081
855.524	14214
855.658	14191
855.792	14081
855.926	14134
856.06	14221
856.194	14237
856.327	14206
856.461	14168
856.595	14069
856.729	14107
856.862	14229
856.996	14145
857.13	14195
857.263	14267
857.397	14202
857.53	14176
857.664	14240
857.797	14214
857.931	14237
858.064	14176
858.197	14286
858.331	14145
858.464	14161
858.597	14054
858.731	14123
858.864	14206
858.997	14191
859.13	14119
859.263	14233
859.396	14286
859.529	14153
859.662	14218
859.795	14183
859.928	14183
860.061	14271
860.194	14309
860.327	14210
860.46	14172
860.592	14267
860.725	14298
860.858	14214
860.99	14210
861.123	14107
861.256	14077
861.388	14172
861.521	14864
861.653	14039
861.786	13997
861.918	14100
862.05	14054
862.183	14043
862.315	14191
862.447	14145
862.58	14161
862.712	13917
862.844	13906
862.976	14031
863.108	13970
863.24	14313
863.372	13803
863.504	13947
863.636	13917
863.768	14008
863.9	13932
864.032	13845
864.164	13860
864.296	14012
864.428	14103
864.559	13997
864.691	13898
864.823	14001
864.954	14005
865.086	13909
865.217	13913
865.349	13849
865.48	13909
865.612	13940
865.743	14031
865.875	13909
866.006	13871
866.137	13997
866.269	13940
866.4	13940
866.531	13849
866.662	13890
866.793	13940
866.924	13890
867.055	13906
867.186	13833
867.317	13841
867.448	13769
867.579	13826
867.71	13750
867.841	13856
867.972	14012
868.103	13845
868.233	13925
868.364	13852
868.495	13974
868.625	14172
868.756	14183
868.886	14202
869.017	14145
869.147	14191
869.278	14278
869.408	14237
869.539	14195
869.669	14244
869.799	14248
869.929	14385
870.06	14309
870.19	14484
870.32	14366
870.45	14571
870.58	14579
870.71	14686
870.84	14762
870.97	14480
871.1	14556
871.23	14746
871.36	14727
871.489	14716
871.619	14678
871.749	14800
871.879	14834
872.008	14895
872.138	14815
872.267	14735
872.397	14682
872.526	14575
872.656	14613
872.785	14560
872.915	14902
873.044	14914
873.173	14762
873.303	14834
873.432	14914
873.561	14895
873.69	14845
873.819	14765
873.948	14944
874.077	14807
874.206	14826
874.335	14823
874.464	15001
874.593	15066
874.722	15070
874.851	15066
874.979	15245
875.108	15188
875.237	15100
875.365	15058
875.494	15039
875.623	15203
875.751	15154
875.88	15188
876.008	15207
876.136	15450
876.265	15576
876.393	15743
876.521	15603
876.65	15606
876.778	15717
876.906	15416
877.034	15500
877.162	15564
877.29	15450
877.418	15622
877.546	15648
877.674	15534
877.802	15553
877.93	15561
878.058	15507
878.185	15431
878.313	15526
878.441	15599
878.568	15393
878.696	15511
878.824	15713
878.951	15652
879.079	15747
879.206	15899
879.333	15675
879.461	15625
879.588	15663
879.715	15724
879.842	15778
879.97	15637
880.097	15458
880.224	15393
880.351	15412
880.478	15336
880.605	15405
880.732	15439
880.859	15614
880.986	15473
881.112	15408
881.239	15336
881.366	15272
881.493	15157
881.619	15013
881.746	15188
881.872	15009
881.999	15131
882.125	15043
882.252	15127
882.378	15047
882.505	15131
882.631	15093
882.757	14941
882.883	14967
883.01	14880
883.136	14746
883.262	14777
883.388	14762
883.514	14887
883.64	14895
883.766	14826
883.892	14804
884.018	14632
884.143	14876
884.269	15020
884.395	14708
884.52	14583
884.646	14583
884.772	14503
884.897	14533
885.023	14568
885.148	14716
885.274	14746
885.399	14792
885.524	14625
885.65	14583
885.775	14636
885.9	14613
886.025	14659
886.15	14686
886.275	14564
886.4	14484
886.525	14590
886.65	14533
886.775	14503
886.9	14716
887.025	14785
887.149	14545
887.274	14389
887.399	14362
887.523	14343
887.648	14412
887.773	14320
887.897	14499
888.021	14518
888.146	14408
888.27	14518
888.395	14568
888.519	14404
888.643	14484
888.767	14537
888.891	14374
889.015	14305
889.139	14267
889.263	14229
889.387	14457
889.511	14476
889.635	14469
889.759	14161
889.883	14431
890.006	14347
890.13	14396
890.254	14153
890.377	14233
890.501	14050
890.624	14081
890.748	14199
890.871	13986
890.995	13959
891.118	13986
891.241	14020
891.364	13997
891.488	14092
891.611	14016
891.734	14020
891.857	14058
891.98	14001
892.103	14035
892.226	14024
892.349	13967
892.471	13761
892.594	13932
892.717	14016
892.839	13951
892.962	14035
893.085	14130
893.207	14084
893.33	13814
893.452	13928
893.575	14046
893.697	13997
893.819	14149
893.941	14191
894.064	14081
894.186	13955
894.308	13955
894.43	14240
894.552	14142
894.674	14134
894.796	13970
894.918	14035
895.04	13997
895.161	14214
895.283	14157
895.405	13951
895.526	14008
895.648	14153
895.769	14161
895.891	14138
896.012	14275
896.134	14111
896.255	14142
896.376	14126
896.498	14206
896.619	14248
896.74	14073
896.861	14210
896.982	14488
897.103	14587
897.224	14526
897.345	14347
897.466	14336
897.587	14457
897.708	14571
897.828	14514
897.949	14374
898.07	14259
898.19	14370
898.311	14484
898.431	14454
898.552	14522
898.672	14579
898.792	14598
898.913	14648
899.033	14332
899.153	14374
899.273	14313
899.393	14259
899.513	14389
899.633	14313
899.753	14400
899.873	14320
899.993	14393
900.113	14332
900.232	14412
900.352	14317
900.472	14347
900.591	14187
900.711	14252
900.83	14206
900.95	14320
901.069	14313
901.189	14142
901.308	14035
901.427	13887
901.546	13887
901.665	13913
901.784	13894
901.904	13746
902.023	13761
902.141	13438
902.26	13525
902.379	13518
902.498	13392
902.617	13426
902.735	13605
902.854	13460
902.973	13411
903.091	13278
903.21	13126
903.328	13255
903.446	13171
903.565	13080
903.683	13076
903.801	12943
903.919	13046
904.038	13034
904.156	12939
904.274	12970
904.392	12943
904.51	12749
904.627	12764
904.745	12894
904.863	12932
904.981	12635
905.098	12574
905.216	12566
905.334	12582
905.451	12635
905.569	12490
905.686	12551
905.803	12544
905.921	12334
906.038	12506
906.155	12308
906.272	12311
906.389	12315
906.506	12167
906.623	12125
906.74	12125
906.857	11992
906.974	12083
907.091	12247
907.208	12216
907.324	12201
907.441	12163
907.557	11923
907.674	11901
907.79	11863
907.907	11855
908.023	11988
908.139	11870
908.256	11828
908.372	11786
908.488	11771
908.604	11745
908.72	11600
908.836	11604
908.952	11653
909.068	11615
909.184	11813
909.3	11608
909.415	11748
909.531	11672
909.647	11436
909.762	11501
909.878	11337
909.993	11520
910.108	11459
910.224	11402
910.339	11425
910.454	11356
910.57	11246
910.685	11201
910.8	11562
910.915	11467
911.03	11353
911.145	11254
911.259	11181
911.374	11193
911.489	11083
911.604	11029
911.718	10869
911.833	11003
911.947	10816
912.062	10691
912.176	10854
912.291	10942
912.405	10828
912.519	11083
912.633	11086
912.748	10934
912.862	10885
912.976	10793
913.09	10641
913.204	10820
913.318	10790
913.431	10927
913.545	10949
913.659	10923
913.772	10790
913.886	10664
914	10641
914.113	10828
914.226	10801
914.34	10634
914.453	10618
914.566	10752
914.68	10618
914.793	10618
914.906	10451
915.019	10409
915.132	10341
915.245	10436
915.358	10497
915.47	10466
915.583	10478
915.696	10512
915.809	10599
915.921	10569
916.034	10466
916.146	10409
916.259	10341
916.371	10512
916.483	10519
916.595	10375
916.708	10344
916.82	10341
916.932	10360
917.044	10325
917.156	10375
917.268	10261
917.38	10265
917.491	10227
917.603	10276
917.715	10413
917.826	10413
917.938	10306
918.049	10196
918.161	10295
918.272	10440
918.384	10432
918.495	10371
918.606	10078
918.717	10097
918.828	10162
918.939	10128
919.05	10032
919.161	10177
919.272	9979
919.383	10025
919.494	10185
919.604	10409
919.715	10166
919.826	10169
919.936	10135
920.047	10253
920.157	10147
920.267	10348
920.378	10143
920.488	10192
920.598	10360
920.708	10588
920.818	10436
920.928	10360
921.038	10516
921.148	10527
921.258	10207
921.368	10173
921.477	10025
921.587	10036
921.697	9956
921.806	10017
921.916	9937
922.025	9709
922.134	9740
922.244	9644
922.353	9751
922.462	9618
922.571	9568
922.68	9447
922.789	9523
922.898	9500
923.007	9439
923.116	9408
923.224	9359
923.333	9481
923.442	9332
923.55	9313
923.659	9374
923.767	9447
923.876	9310
923.984	9332
924.092	9249
924.201	9321
924.309	9306
924.417	9351
924.525	9184
924.633	9294
924.741	10207
924.849	8998
924.956	9275
925.064	9097
925.172	8971
925.279	9074
925.387	9131
925.494	9100
925.602	9184
925.709	9157
925.816	9036
925.924	9123
926.031	9154
926.138	9097
926.245	9142
926.352	9013
926.459	9119
926.566	9097
926.673	9070
926.779	8952
926.886	8929
926.993	8830
927.099	8842
927.206	8769
927.312	8762
927.419	8880
927.525	8838
927.631	8826
927.737	8762
927.843	8754
927.95	8613
928.056	8674
928.162	8697
928.267	8766
928.373	9291
928.479	8792
928.585	8617
928.69	8674
928.796	8735
928.901	8648
929.007	8454
929.112	8606
929.218	8613
929.323	8492
929.428	8571
929.533	8648
929.638	8423
929.743	8549
929.848	8552
929.953	8514
930.058	8454
930.163	8267
930.267	8282
930.372	8419
930.477	8263
930.581	8552
930.685	8347
930.79	8282
930.894	8317
930.998	8168
931.103	8362
931.207	8073
931.311	8020
931.415	7898
931.519	7769
931.623	7734
