Data from test_V78500241_638.txt Node
Date: Fri Mar 25 14:38:09 CST 2022
User: usil
Spectrometer: V785-0024
Trigger mode: 0
Integration Time (sec): 4.000000E-1
Scans to average: 1
Nonlinearity correction enabled: false
Boxcar width: 0
Storing dark spectrum: false
XAxis mode: Wavelengths
Number of Pixels in Spectrum: 1024
>>>>>Begin Spectral Data<<<<<
801.071	27945
801.214	27614
801.356	27351
801.499	27382
801.641	27264
801.783	27218
801.926	27298
802.068	27093
802.211	27001
802.353	26921
802.496	26807
802.638	26758
802.78	26686
802.923	26602
803.065	26613
803.208	26705
803.35	26785
803.492	26834
803.635	26849
803.777	26845
803.919	26921
804.061	27180
804.204	27005
804.346	26792
804.488	26883
804.63	26902
804.773	26982
804.915	26918
805.057	27176
805.199	27207
805.341	27272
805.483	27393
805.626	27306
805.768	27313
805.91	27439
806.052	27492
806.194	27637
806.336	27975
806.478	27983
806.62	28131
806.762	28375
806.904	28702
807.046	29220
807.188	29459
807.33	29805
807.472	30323
807.614	30608
807.756	31384
807.898	32412
808.04	33732
808.182	35311
808.324	37540
808.465	39914
808.607	42623
808.749	44838
808.891	46344
809.033	46390
809.174	45047
809.316	42787
809.458	39964
809.6	37133
809.741	35044
809.883	33154
810.025	32058
810.166	31118
810.308	30464
810.45	29927
810.591	29425
810.733	28972
810.875	28592
811.016	28497
811.158	28352
811.299	28207
811.441	28196
811.582	28185
811.724	27895
811.865	27667
812.007	27682
812.148	27530
812.29	27663
812.431	27660
812.573	27732
812.714	27789
812.855	27884
812.997	27831
813.138	28055
813.279	27876
813.421	27648
813.562	27523
813.703	27477
813.845	27287
813.986	27047
814.127	26762
814.268	26598
814.41	26609
814.551	26617
814.692	26450
814.833	26374
814.974	26339
815.115	26393
815.256	26237
815.397	26252
815.539	26286
815.68	26138
815.821	26107
815.962	26149
816.103	26092
816.244	25879
816.385	25803
816.526	25784
816.666	25616
816.807	25316
816.948	25502
817.089	25544
817.23	25362
817.371	25479
817.512	25514
817.653	25304
817.793	25168
817.934	25320
818.075	25236
818.216	25259
818.356	25304
818.497	25103
818.638	24985
818.778	24935
818.919	25015
819.06	25000
819.2	25069
819.341	25198
819.481	25202
819.622	25441
819.762	25518
819.903	25335
820.043	25327
820.184	25453
820.324	25187
820.465	25278
820.605	25202
820.746	25240
820.886	25080
821.026	25095
821.167	25065
821.307	25240
821.447	25012
821.588	24970
821.728	24810
821.868	24688
822.008	24445
822.149	24555
822.289	24418
822.429	24220
822.569	24140
822.709	24034
822.849	23798
822.99	23988
823.13	23889
823.27	23783
823.41	23847
823.55	23619
823.69	23657
823.83	23756
823.97	23543
824.11	23417
824.25	23337
824.389	23474
824.529	23524
824.669	23474
824.809	23589
824.949	23547
825.089	23406
825.228	23433
825.368	23212
825.508	23246
825.648	23326
825.787	23200
825.927	23181
826.067	23166
826.206	23140
826.346	23223
826.485	23307
826.625	23075
826.765	23326
826.904	23200
827.044	22930
827.183	22919
827.323	22835
827.462	23029
827.601	23014
827.741	22869
827.88	22767
828.02	22771
828.159	22839
828.298	22911
828.437	22755
828.577	22755
828.716	22911
828.855	22828
828.994	22550
829.134	22405
829.273	22641
829.412	22554
829.551	22584
829.69	22645
829.829	22538
829.968	22519
830.107	22630
830.246	22584
830.385	22546
830.524	22478
830.663	22295
830.802	22196
830.941	22192
831.08	22196
831.219	22246
831.357	22162
831.496	22348
831.635	22166
831.774	22074
831.913	22093
832.051	21964
832.19	21922
832.329	22067
832.467	21941
832.606	21835
832.744	21964
832.883	21998
833.022	22036
833.16	22147
833.299	22177
833.437	22462
833.576	22542
833.714	22683
833.852	22740
833.991	22824
834.129	22850
834.267	22987
834.406	22733
834.544	22797
834.682	22721
834.821	22573
834.959	22618
835.097	22291
835.235	22367
835.373	22234
835.511	22234
835.65	22002
835.788	21964
835.926	21755
836.064	21660
836.202	21614
836.34	21831
836.478	21717
836.615	21717
836.753	21713
836.891	21781
837.029	21762
837.167	21625
837.305	21572
837.443	21545
837.58	21496
837.718	21732
837.856	21428
837.993	21507
838.131	21481
838.269	21370
838.406	21351
838.544	21268
838.681	21096
838.819	21055
838.956	20952
839.094	20929
839.231	20933
839.369	20944
839.506	21218
839.643	21157
839.781	20921
839.918	20857
840.055	20872
840.193	20659
840.33	20826
840.467	20941
840.604	20849
840.742	21077
840.879	20705
841.016	20826
841.153	20651
841.29	20891
841.427	20906
841.564	20990
841.701	20868
841.838	20777
841.975	20701
842.112	20579
842.249	20689
842.385	20663
842.522	20777
842.659	20712
842.796	20609
842.933	20689
843.069	20678
843.206	20423
843.343	20845
843.479	20705
843.616	20853
843.752	20632
843.889	20530
844.025	20731
844.162	20720
844.298	20899
844.435	20960
844.571	21100
844.708	21363
844.844	21629
844.98	21983
845.117	22436
845.253	23178
845.389	24787
845.525	27595
845.661	32377
845.798	38031
845.934	42391
846.07	43841
846.206	42833
846.342	39051
846.478	33310
846.614	28573
846.75	25217
846.886	23417
847.022	22337
847.158	21515
847.294	21222
847.429	20777
847.565	20526
847.701	20705
847.837	20088
847.972	19997
848.108	20046
848.244	19868
848.379	19731
848.515	19624
848.65	19647
848.786	19483
848.921	19590
849.057	19689
849.192	19715
849.328	19609
849.463	19578
849.598	19480
849.734	19396
849.869	19320
850.004	19339
850.14	19339
850.275	19327
850.41	19221
850.545	19133
850.68	19232
850.815	19278
850.95	19122
851.085	19403
851.22	19221
851.355	19228
851.49	19202
851.625	19297
851.76	19183
851.895	19179
852.03	19148
852.165	19099
852.299	19285
852.434	19369
852.569	19232
852.703	19244
852.838	19270
852.973	19350
853.107	19415
853.242	19282
853.376	19198
853.511	19133
853.645	19263
853.78	19415
853.914	19304
854.048	19343
854.183	19304
854.317	19445
854.451	19552
854.585	19274
854.72	19324
854.854	19407
854.988	19251
855.122	19282
855.256	19110
855.39	19221
855.524	19251
855.658	19198
855.792	19088
855.926	19168
856.06	19072
856.194	19148
856.327	19069
856.461	19004
856.595	19088
856.729	19000
856.862	19152
856.996	19012
857.13	19057
857.263	19194
857.397	19034
857.53	18958
857.664	19080
857.797	19118
857.931	18981
858.064	18890
858.197	19042
858.331	18958
858.464	18913
858.597	18814
858.731	18844
858.864	18886
858.997	18867
859.13	18878
859.263	18875
859.396	19042
859.529	18772
859.662	18859
859.795	18875
859.928	18791
860.061	19046
860.194	19057
860.327	18821
860.46	18882
860.592	19050
860.725	18943
860.858	18924
860.99	18924
861.123	18878
861.256	18764
861.388	18810
861.521	19499
861.653	18700
861.786	18783
861.918	18837
862.05	18745
862.183	18787
862.315	18928
862.447	18932
862.58	18875
862.712	18627
862.844	18528
862.976	18635
863.108	18681
863.24	18977
863.372	18627
863.504	18616
863.636	18582
863.768	18563
863.9	18604
864.032	18494
864.164	18467
864.296	18635
864.428	18650
864.559	18578
864.691	18574
864.823	18620
864.954	18627
865.086	18589
865.217	18639
865.349	18399
865.48	18395
865.612	18612
865.743	18578
865.875	18509
866.006	18513
866.137	18593
866.269	18395
866.4	18555
866.531	18498
866.662	18452
866.793	18536
866.924	18426
867.055	18502
867.186	18403
867.317	18399
867.448	18422
867.579	18433
867.71	18441
867.841	18388
867.972	18399
868.103	18452
868.233	18486
868.364	18433
868.495	18502
868.625	18867
868.756	18776
868.886	18544
869.017	18677
869.147	18920
869.278	18814
869.408	18707
869.539	18833
869.669	18806
869.799	18719
869.929	18840
870.06	18779
870.19	19042
870.32	19015
870.45	19107
870.58	19175
870.71	19198
870.84	19221
870.97	19107
871.1	19091
871.23	19316
871.36	19365
871.489	19339
871.619	19346
871.749	19343
871.879	19362
872.008	19529
872.138	19495
872.267	19316
872.397	19438
872.526	19327
872.656	19164
872.785	19324
872.915	19586
873.044	19525
873.173	19597
873.303	19639
873.432	19616
873.561	19674
873.69	19689
873.819	19639
873.948	19681
874.077	19776
874.206	19571
874.335	19662
874.464	19852
874.593	20031
874.722	20024
874.851	20027
874.979	20138
875.108	20111
875.237	20103
875.365	20062
875.494	20214
875.623	20237
875.751	20328
875.88	20393
876.008	20347
876.136	20636
876.265	20731
876.393	20941
876.521	21036
876.65	21039
876.778	20960
876.906	21077
877.034	21036
877.162	21203
877.29	21146
877.418	21241
877.546	21367
877.674	21507
877.802	21526
877.93	21705
878.058	21720
878.185	21816
878.313	22109
878.441	22459
878.568	22653
878.696	23098
878.824	23836
878.951	24848
879.079	26016
879.206	27793
879.333	29474
879.461	30802
879.588	31727
879.715	31830
879.842	31042
879.97	29657
880.097	27679
880.224	26259
880.351	25266
880.478	24597
880.605	24060
880.732	23901
880.859	23847
880.986	23509
881.112	23608
881.239	23239
881.366	23086
881.493	22987
881.619	23102
881.746	22949
881.872	23109
881.999	23037
882.125	23102
882.252	23151
882.378	23155
882.505	23322
882.631	23124
882.757	23048
882.883	23189
883.01	22968
883.136	22927
883.262	22942
883.388	22877
883.514	22961
883.64	23014
883.766	22786
883.892	22660
884.018	22786
884.143	22873
884.269	22915
884.395	22774
884.52	22698
884.646	22653
884.772	22561
884.897	22577
885.023	22763
885.148	22812
885.274	22706
885.399	22668
885.524	22424
885.65	22481
885.775	22318
885.9	22147
886.025	22147
886.15	21968
886.275	21781
886.4	21679
886.525	21530
886.65	21477
886.775	21336
886.9	21389
887.025	21534
887.149	21089
887.274	20918
887.399	20720
887.523	20739
887.648	20609
887.773	20511
887.897	20632
888.021	20541
888.146	20358
888.27	20511
888.395	20533
888.519	20358
888.643	20263
888.767	20343
888.891	20054
889.015	20043
889.139	19974
889.263	19818
889.387	20001
889.511	20016
889.635	19875
889.759	19849
889.883	19776
890.006	19750
890.13	19841
890.254	19734
890.377	19567
890.501	19476
890.624	19320
890.748	19563
890.871	19160
890.995	19114
891.118	19107
891.241	19133
891.364	19126
891.488	19076
891.611	19072
891.734	19114
891.857	18947
891.98	19042
892.103	19019
892.226	18932
892.349	19004
892.471	18749
892.594	18795
892.717	18768
892.839	18745
892.962	18821
893.085	18844
893.207	18692
893.33	18620
893.452	18650
893.575	18753
893.697	18620
893.819	18734
893.941	18722
894.064	18715
894.186	18388
894.308	18589
894.43	18563
894.552	18779
894.674	18452
894.796	18467
894.918	18441
895.04	18498
895.161	18475
895.283	18464
895.405	18418
895.526	18395
895.648	18357
895.769	18407
895.891	18395
896.012	18475
896.134	18475
896.255	18300
896.376	18365
896.498	18338
896.619	18391
896.74	18414
896.861	18410
896.982	18696
897.103	18810
897.224	18513
897.345	18620
897.466	18506
897.587	18597
897.708	18791
897.828	18585
897.949	18460
898.07	18384
898.19	18479
898.311	18498
898.431	18441
898.552	18471
898.672	18563
898.792	18585
898.913	18517
899.033	18391
899.153	18342
899.273	18239
899.393	18319
899.513	18251
899.633	18418
899.753	18308
899.873	18304
899.993	18357
900.113	18281
900.232	18330
900.352	18186
900.472	18133
900.591	18091
900.711	18041
900.83	18064
900.95	18213
901.069	18194
901.189	17954
901.308	17733
901.427	17627
901.546	17551
901.665	17665
901.784	17589
901.904	17623
902.023	17410
902.141	17178
902.26	17056
902.379	17155
902.498	17086
902.617	17140
902.735	17178
902.854	17147
902.973	17029
903.091	16752
903.21	16816
903.328	16797
903.446	16645
903.565	16645
903.683	16565
903.801	16504
903.919	16569
904.038	16466
904.156	16352
904.274	16424
904.392	16341
904.51	16337
904.627	16322
904.745	16348
904.863	16287
904.981	16158
905.098	15991
905.216	15964
905.334	16002
905.451	15922
905.569	16013
905.686	16029
905.803	15876
905.921	15717
906.038	15793
906.155	15774
906.272	15572
906.389	15603
906.506	15481
906.623	15500
906.74	15443
906.857	15313
906.974	15374
907.091	15515
907.208	15648
907.324	15500
907.441	15306
907.557	15260
907.674	15222
907.79	15203
907.907	15154
908.023	15154
908.139	15127
908.256	15176
908.372	15123
908.488	14982
908.604	14868
908.72	14979
908.836	14929
908.952	14891
909.068	14785
909.184	14967
909.3	14849
909.415	14838
909.531	14796
909.647	14503
909.762	14610
909.878	14594
909.993	14583
910.108	14587
910.224	14530
910.339	14568
910.454	14575
910.57	14400
910.685	14358
910.8	14651
910.915	14602
911.03	14499
911.145	14271
911.259	14275
911.374	14123
911.489	14252
911.604	14183
911.718	14020
911.833	14043
911.947	13890
912.062	13708
912.176	13993
912.291	13887
912.405	13921
912.519	14058
912.633	14142
912.748	13970
912.862	13970
912.976	13811
913.09	13712
913.204	13761
913.318	13860
913.431	13799
913.545	13841
913.659	13906
913.772	13765
913.886	13639
914	13628
914.113	13769
914.226	13811
914.34	13727
914.453	13556
914.566	13693
914.68	13597
914.793	13556
914.906	13476
915.019	13331
915.132	13285
915.245	13308
915.358	13335
915.47	13377
915.583	13426
915.696	13381
915.809	13514
915.921	13548
916.034	13301
916.146	13316
916.259	13274
916.371	13289
916.483	13396
916.595	13263
916.708	13255
916.82	13304
916.932	13240
917.044	13221
917.156	13247
917.268	13175
917.38	13206
917.491	13133
917.603	13023
917.715	13126
917.826	13065
917.938	12966
918.049	12905
918.161	12932
918.272	13164
918.384	13088
918.495	13053
918.606	12920
918.717	12966
918.828	12856
918.939	12859
919.05	12719
919.161	12798
919.272	12582
919.383	12700
919.494	12825
919.604	13065
919.715	12783
919.826	12719
919.936	12726
920.047	12894
920.157	12783
920.267	12996
920.378	12817
920.488	12757
920.598	13000
920.708	13027
920.818	12935
920.928	12871
921.038	12985
921.148	13038
921.258	12749
921.368	12639
921.477	12494
921.587	12437
921.697	12350
921.806	12467
921.916	12483
922.025	12232
922.134	12201
922.244	12087
922.353	12235
922.462	12091
922.571	12030
922.68	11923
922.789	11874
922.898	11828
923.007	11843
923.116	11897
923.224	11752
923.333	11798
923.442	11680
923.55	11680
923.659	11649
923.767	11718
923.876	11764
923.984	11775
924.092	11665
924.201	11672
924.309	11676
924.417	11611
924.525	11566
924.633	11649
924.741	12369
924.849	11433
924.956	11448
925.064	11379
925.172	11372
925.279	11334
925.387	11299
925.494	11349
925.602	11562
925.709	11341
925.816	11258
925.924	11379
926.031	11482
926.138	11379
926.245	11410
926.352	11242
926.459	11360
926.566	11493
926.673	11223
926.779	11197
926.886	11174
926.993	10999
927.099	10957
927.206	10938
927.312	10949
927.419	11029
927.525	11003
927.631	11037
927.737	10877
927.843	10854
927.95	10710
928.056	10835
928.162	10904
928.267	10961
928.373	11391
928.479	10911
928.585	10725
928.69	10812
928.796	10873
928.901	10694
929.007	10599
929.112	10729
929.218	10771
929.323	10615
929.428	10679
929.533	10790
929.638	10554
929.743	10561
929.848	10611
929.953	10626
930.058	10440
930.163	10348
930.267	10379
930.372	10455
930.477	10310
930.581	10481
930.685	10394
930.79	10344
930.894	10318
930.998	10295
931.103	10287
931.207	10097
931.311	9968
931.415	9922
931.519	9717
931.623	9701
