Data from test_V78500241_2906.txt Node
Date: Fri Mar 25 14:53:56 CST 2022
User: usil
Spectrometer: V785-0024
Trigger mode: 0
Integration Time (sec): 4.000000E-1
Scans to average: 1
Nonlinearity correction enabled: false
Boxcar width: 0
Storing dark spectrum: false
XAxis mode: Wavelengths
Number of Pixels in Spectrum: 1024
>>>>>Begin Spectral Data<<<<<
801.071	22025
801.214	21960
801.356	21732
801.499	21625
801.641	21507
801.783	21424
801.926	21481
802.068	21435
802.211	21275
802.353	21256
802.496	21032
802.638	20941
802.78	20948
802.923	20826
803.065	20678
803.208	20689
803.35	20872
803.492	20853
803.635	20994
803.777	20754
803.919	20819
804.061	21062
804.204	20807
804.346	20670
804.488	20689
804.63	20815
804.773	20727
804.915	20689
805.057	20830
805.199	20762
805.341	20743
805.483	20826
805.626	20644
805.768	20708
805.91	20731
806.052	20807
806.194	20594
806.336	20804
806.478	20629
806.62	20648
806.762	20701
806.904	20971
807.046	20994
807.188	21043
807.33	20986
807.472	21062
807.614	20883
807.756	20929
807.898	20887
808.04	20708
808.182	20807
808.324	20804
808.465	20796
808.607	20914
808.749	21043
808.891	21287
809.033	21207
809.174	21020
809.316	21093
809.458	21062
809.6	21009
809.741	21165
809.883	21116
810.025	21241
810.166	21203
810.308	21363
810.45	21108
810.591	21096
810.733	20883
810.875	20708
811.016	20667
811.158	20724
811.299	20963
811.441	21013
811.582	20971
811.724	20857
811.865	20682
812.007	20739
812.148	20838
812.29	20861
812.431	20910
812.573	21150
812.714	21306
812.855	21310
812.997	21428
813.138	21473
813.279	21473
813.421	21298
813.562	21226
813.703	21074
813.845	20941
813.986	20602
814.127	20385
814.268	20537
814.41	20442
814.551	20370
814.692	20469
814.833	20423
814.974	20324
815.115	20320
815.256	20191
815.397	20221
815.539	20214
815.68	20020
815.821	20069
815.962	20126
816.103	20088
816.244	19967
816.385	19761
816.526	19852
816.666	19575
816.807	19449
816.948	19571
817.089	19616
817.23	19556
817.371	19556
817.512	19457
817.653	19514
817.793	19525
817.934	19525
818.075	19594
818.216	19590
818.356	19480
818.497	19274
818.638	19244
818.778	19107
818.919	19175
819.06	19240
819.2	19384
819.341	19206
819.481	19403
819.622	19441
819.762	19811
819.903	19590
820.043	19559
820.184	19495
820.324	19540
820.465	19556
820.605	19362
820.746	19426
820.886	19304
821.026	19468
821.167	19460
821.307	19518
821.447	19472
821.588	19339
821.728	19160
821.868	19080
822.008	18913
822.149	18935
822.289	18947
822.429	18703
822.569	18593
822.709	18426
822.849	18388
822.99	18350
823.13	18403
823.27	18224
823.41	18304
823.55	18045
823.69	18224
823.83	18155
823.97	18057
824.11	18011
824.25	17939
824.389	17927
824.529	18034
824.669	17939
824.809	18034
824.949	17958
825.089	17988
825.228	17916
825.368	17684
825.508	17760
825.648	17764
825.787	17809
825.927	17733
826.067	17737
826.206	17558
826.346	17726
826.485	17668
826.625	17649
826.765	17817
826.904	17798
827.044	17532
827.183	17497
827.323	17349
827.462	17478
827.601	17383
827.741	17345
827.88	17383
828.02	17250
828.159	17410
828.298	17414
828.437	17486
828.577	17376
828.716	17501
828.855	17326
828.994	17204
829.134	17147
829.273	17235
829.412	17117
829.551	17048
829.69	17197
829.829	17216
829.968	17200
830.107	17288
830.246	17208
830.385	16968
830.524	17048
830.663	16946
830.802	16858
830.941	16744
831.08	16748
831.219	16843
831.357	16816
831.496	17029
831.635	16637
831.774	16679
831.913	16744
832.051	16565
832.19	16500
832.329	16618
832.467	16478
832.606	16402
832.744	16341
832.883	16481
833.022	16398
833.16	16405
833.299	16371
833.437	16447
833.576	16535
833.714	16584
833.852	16481
833.991	16565
834.129	16622
834.267	16428
834.406	16512
834.544	16592
834.682	16451
834.821	16443
834.959	16592
835.097	16500
835.235	16622
835.373	16538
835.511	16596
835.65	16409
835.788	16432
835.926	16196
836.064	16223
836.202	16204
836.34	16462
836.478	16519
836.615	16443
836.753	16436
836.891	16417
837.029	16455
837.167	16443
837.305	16344
837.443	16291
837.58	16284
837.718	16382
837.856	16371
837.993	16211
838.131	16238
838.269	16177
838.406	16257
838.544	16223
838.681	15998
838.819	15915
838.956	15812
839.094	15789
839.231	15854
839.369	16013
839.506	16276
839.643	16116
839.781	15861
839.918	15857
840.055	15823
840.193	15827
840.33	15812
840.467	15823
840.604	15899
840.742	16036
840.879	15751
841.016	15766
841.153	15709
841.29	15884
841.427	15819
841.564	15903
841.701	15873
841.838	15861
841.975	15728
842.112	15686
842.249	15622
842.385	15610
842.522	15823
842.659	15622
842.796	15545
842.933	15698
843.069	15572
843.206	15576
843.343	15595
843.479	15641
843.616	15580
843.752	15477
843.889	15291
844.025	15591
844.162	15344
844.298	15466
844.435	15389
844.571	15348
844.708	15397
844.844	15561
844.98	15561
845.117	15526
845.253	15283
845.389	15222
845.525	15420
845.661	15348
845.798	15226
845.934	15363
846.07	15104
846.206	15207
846.342	15344
846.478	15131
846.614	15036
846.75	14895
846.886	14906
847.022	15112
847.158	14937
847.294	14956
847.429	15009
847.565	14963
847.701	15150
847.837	14670
847.972	14800
848.108	14796
848.244	14792
848.379	14568
848.515	14541
848.65	14389
848.786	14499
848.921	14606
849.057	14705
849.192	14712
849.328	14602
849.463	14606
849.598	14571
849.734	14434
849.869	14347
850.004	14358
850.14	14438
850.275	14396
850.41	14263
850.545	14355
850.68	14244
850.815	14400
850.95	14370
851.085	14575
851.22	14492
851.355	14393
851.49	14309
851.625	14286
851.76	14305
851.895	14199
852.03	14225
852.165	14263
852.299	14298
852.434	14442
852.569	14377
852.703	14419
852.838	14339
852.973	14457
853.107	14446
853.242	14309
853.376	14256
853.511	14123
853.645	14218
853.78	14317
853.914	14195
854.048	14153
854.183	14149
854.317	14176
854.451	14355
854.585	14183
854.72	14138
854.854	14259
854.988	14062
855.122	14157
855.256	14081
855.39	14077
855.524	14199
855.658	14195
855.792	14180
855.926	14221
856.06	14267
856.194	14313
856.327	14214
856.461	14145
856.595	14206
856.729	14157
856.862	14332
856.996	14317
857.13	14328
857.263	14237
857.397	14362
857.53	14180
857.664	14282
857.797	14336
857.931	14366
858.064	14221
858.197	14256
858.331	14123
858.464	14096
858.597	14149
858.731	14176
858.864	14130
858.997	14119
859.13	14233
859.263	14145
859.396	14157
859.529	14172
859.662	14134
859.795	14111
859.928	14210
860.061	14366
860.194	14408
860.327	14263
860.46	14164
860.592	14343
860.725	14343
860.858	14278
860.99	14119
861.123	14214
861.256	14088
861.388	14221
861.521	14819
861.653	14005
861.786	14024
861.918	14001
862.05	14065
862.183	14168
862.315	14164
862.447	14199
862.58	14149
862.712	14035
862.844	13944
862.976	13989
863.108	14035
863.24	14248
863.372	13883
863.504	13925
863.636	13989
863.768	13978
863.9	14001
864.032	13970
864.164	13875
864.296	14050
864.428	14016
864.559	14096
864.691	14058
864.823	14062
864.954	13974
865.086	14027
865.217	13837
865.349	13887
865.48	13883
865.612	14008
865.743	14161
865.875	14005
866.006	13944
866.137	13951
866.269	13963
866.4	13978
866.531	13917
866.662	13871
866.793	13868
866.924	13928
867.055	13928
867.186	13921
867.317	13940
867.448	13932
867.579	13967
867.71	13833
867.841	13826
867.972	13936
868.103	13940
868.233	13894
868.364	13947
868.495	13978
868.625	14271
868.756	14286
868.886	14168
869.017	14153
869.147	14256
869.278	14336
869.408	14366
869.539	14183
869.669	14290
869.799	14301
869.929	14355
870.06	14309
870.19	14454
870.32	14518
870.45	14533
870.58	14625
870.71	14838
870.84	14708
870.97	14621
871.1	14560
871.23	14769
871.36	14731
871.489	14712
871.619	14849
871.749	14823
871.879	14788
872.008	14933
872.138	14823
872.267	14826
872.397	14583
872.526	14571
872.656	14651
872.785	14689
872.915	14826
873.044	15009
873.173	14853
873.303	14952
873.432	14937
873.561	14933
873.69	14857
873.819	14952
873.948	14906
874.077	14842
874.206	14883
874.335	14887
874.464	14960
874.593	15180
874.722	15154
874.851	15294
874.979	15252
875.108	15173
875.237	15161
875.365	15222
875.494	15264
875.623	15325
875.751	15180
875.88	15180
876.008	15401
876.136	15386
876.265	15690
876.393	15812
876.521	15709
876.65	15652
876.778	15641
876.906	15660
877.034	15671
877.162	15629
877.29	15519
877.418	15523
877.546	15564
877.674	15656
877.802	15606
877.93	15648
878.058	15576
878.185	15564
878.313	15652
878.441	15561
878.568	15511
878.696	15469
878.824	15618
878.951	15686
879.079	15835
879.206	15994
879.333	15759
879.461	15694
879.588	15610
879.715	15774
879.842	15972
879.97	15663
880.097	15584
880.224	15443
880.351	15515
880.478	15443
880.605	15401
880.732	15504
880.859	15770
880.986	15549
881.112	15386
881.239	15382
881.366	15287
881.493	15203
881.619	15119
881.746	15077
881.872	15127
881.999	15108
882.125	15138
882.252	15093
882.378	15176
882.505	15256
882.631	15070
882.757	15001
882.883	15009
883.01	14902
883.136	14952
883.262	14937
883.388	14815
883.514	14899
883.64	15024
883.766	14982
883.892	14762
884.018	14815
884.143	14933
884.269	14982
884.395	14705
884.52	14674
884.646	14522
884.772	14541
884.897	14552
885.023	14602
885.148	14807
885.274	14815
885.399	14750
885.524	14682
885.65	14659
885.775	14724
885.9	14583
886.025	14823
886.15	14651
886.275	14644
886.4	14522
886.525	14590
886.65	14579
886.775	14571
886.9	14769
887.025	14925
887.149	14571
887.274	14499
887.399	14412
887.523	14514
887.648	14339
887.773	14434
887.897	14465
888.021	14552
888.146	14404
888.27	14400
888.395	14735
888.519	14552
888.643	14488
888.767	14587
888.891	14393
889.015	14366
889.139	14377
889.263	14309
889.387	14495
889.511	14552
889.635	14549
889.759	14301
889.883	14393
890.006	14423
890.13	14450
890.254	14259
890.377	14362
890.501	14092
890.624	14039
890.748	14229
890.871	14134
890.995	13993
891.118	14065
891.241	14134
891.364	14084
891.488	14168
891.611	14046
891.734	14084
891.857	14062
891.98	14088
892.103	14153
892.226	13955
892.349	14016
892.471	13887
892.594	14043
892.717	14100
892.839	13955
892.962	13986
893.085	14187
893.207	14123
893.33	13928
893.452	13970
893.575	14123
893.697	14138
893.819	14210
893.941	14317
894.064	14195
894.186	14077
894.308	14046
894.43	14206
894.552	14298
894.674	14176
894.796	14100
894.918	14119
895.04	14149
895.161	14180
895.283	14218
895.405	14046
895.526	14153
895.648	14183
895.769	14172
895.891	14195
896.012	14275
896.134	14210
896.255	14157
896.376	14210
896.498	14202
896.619	14191
896.74	14263
896.861	14396
896.982	14568
897.103	14708
897.224	14568
897.345	14499
897.466	14332
897.587	14480
897.708	14568
897.828	14583
897.949	14473
898.07	14343
898.19	14351
898.311	14617
898.431	14488
898.552	14571
898.672	14701
898.792	14689
898.913	14610
899.033	14484
899.153	14412
899.273	14339
899.393	14381
899.513	14454
899.633	14454
899.753	14552
899.873	14434
899.993	14434
900.113	14473
900.232	14488
900.352	14514
900.472	14484
900.591	14233
900.711	14381
900.83	14240
900.95	14275
901.069	14412
901.189	14237
901.308	14111
901.427	13879
901.546	13909
901.665	14024
901.784	13879
901.904	14073
902.023	13826
902.141	13571
902.26	13567
902.379	13632
902.498	13533
902.617	13529
902.735	13578
902.854	13548
902.973	13464
903.091	13282
903.21	13297
903.328	13369
903.446	13190
903.565	13084
903.683	13190
903.801	13053
903.919	13122
904.038	13110
904.156	12905
904.274	12939
904.392	12951
904.51	12985
904.627	12970
904.745	12966
904.863	13053
904.981	12802
905.098	12677
905.216	12616
905.334	12665
905.451	12688
905.569	12555
905.686	12726
905.803	12681
905.921	12460
906.038	12498
906.155	12475
906.272	12369
906.389	12460
906.506	12197
906.623	12235
906.74	12277
906.857	12095
906.974	12213
907.091	12315
907.208	12372
907.324	12308
907.441	12072
907.557	12034
907.674	12034
907.79	11863
907.907	11912
908.023	11961
908.139	12019
908.256	11912
908.372	11870
908.488	11870
908.604	11726
908.72	11691
908.836	11805
908.952	11729
909.068	11691
909.184	11851
909.3	11684
909.415	11783
909.531	11798
909.647	11493
909.762	11444
909.878	11471
909.993	11486
910.108	11436
910.224	11421
910.339	11520
910.454	11433
910.57	11299
910.685	11318
910.8	11585
910.915	11558
911.03	11440
911.145	11204
911.259	11181
911.374	11235
911.489	11181
911.604	11113
911.718	10938
911.833	10915
911.947	10873
912.062	10816
912.176	10961
912.291	10930
912.405	10949
912.519	11109
912.633	11181
912.748	10995
912.862	10892
912.976	10881
913.09	10714
913.204	10881
913.318	10809
913.431	10953
913.545	10812
913.659	10965
913.772	10862
913.886	10710
914	10736
914.113	10858
914.226	10816
914.34	10809
914.453	10664
914.566	10767
914.68	10641
914.793	10733
914.906	10481
915.019	10523
915.132	10402
915.245	10546
915.358	10489
915.47	10440
915.583	10485
915.696	10588
915.809	10561
915.921	10626
916.034	10497
916.146	10386
916.259	10409
916.371	10546
916.483	10493
916.595	10352
916.708	10375
916.82	10341
916.932	10352
917.044	10428
917.156	10375
917.268	10192
917.38	10280
917.491	10246
917.603	10398
917.715	10466
917.826	10436
917.938	10242
918.049	10200
918.161	10341
918.272	10341
918.384	10455
918.495	10272
918.606	10173
918.717	10101
918.828	10185
918.939	10128
919.05	10074
919.161	10158
919.272	9979
919.383	10048
919.494	10192
919.604	10386
919.715	10181
919.826	10036
919.936	10124
920.047	10265
920.157	10188
920.267	10443
920.378	10249
920.488	10143
920.598	10348
920.708	10504
920.818	10394
920.928	10382
921.038	10603
921.148	10470
921.258	10272
921.368	10120
921.477	10032
921.587	9994
921.697	10048
921.806	10025
921.916	9964
922.025	9762
922.134	9781
922.244	9679
922.353	9778
922.462	9637
922.571	9564
922.68	9408
922.789	9431
922.898	9454
923.007	9401
923.116	9500
923.224	9466
923.333	9420
923.442	9374
923.55	9214
923.659	9306
923.767	9389
923.876	9264
923.984	9386
924.092	9253
924.201	9363
924.309	9363
924.417	9321
924.525	9272
924.633	9256
924.741	10169
924.849	9024
924.956	9279
925.064	9116
925.172	9036
925.279	9070
925.387	9180
925.494	9104
925.602	9218
925.709	9112
925.816	8975
925.924	9112
926.031	9230
926.138	9184
926.245	9180
926.352	9058
926.459	9161
926.566	9165
926.673	9112
926.779	8982
926.886	8887
926.993	8842
927.099	8792
927.206	8766
927.312	8720
927.419	8785
927.525	8819
927.631	8883
927.737	8785
927.843	8693
927.95	8644
928.056	8621
928.162	8712
928.267	8823
928.373	9405
928.479	8800
928.585	8632
928.69	8739
928.796	8773
928.901	8594
929.007	8461
929.112	8625
929.218	8583
929.323	8556
929.428	8549
929.533	8667
929.638	8465
929.743	8526
929.848	8590
929.953	8499
930.058	8374
930.163	8328
930.267	8317
930.372	8412
930.477	8229
930.581	8492
930.685	8351
930.79	8187
930.894	8206
930.998	8271
931.103	8408
931.207	8020
931.311	8027
931.415	7898
931.519	7761
931.623	7723
