Data from test_V78500241_3658.txt Node
Date: Fri Mar 25 14:59:11 CST 2022
User: usil
Spectrometer: V785-0024
Trigger mode: 0
Integration Time (sec): 4.000000E-1
Scans to average: 1
Nonlinearity correction enabled: false
Boxcar width: 0
Storing dark spectrum: false
XAxis mode: Wavelengths
Number of Pixels in Spectrum: 1024
>>>>>Begin Spectral Data<<<<<
801.071	21926
801.214	21728
801.356	21454
801.499	21515
801.641	21344
801.783	21306
801.926	21264
802.068	21310
802.211	21138
802.353	20994
802.496	20838
802.638	20693
802.78	20708
802.923	20781
803.065	20556
803.208	20579
803.35	20632
803.492	20663
803.635	20682
803.777	20594
803.919	20655
804.061	20971
804.204	20686
804.346	20514
804.488	20419
804.63	20499
804.773	20488
804.915	20492
805.057	20537
805.199	20396
805.341	20507
805.483	20640
805.626	20541
805.768	20442
805.91	20545
806.052	20499
806.194	20434
806.336	20556
806.478	20465
806.62	20412
806.762	20606
806.904	20636
807.046	20887
807.188	20857
807.33	20727
807.472	20811
807.614	20697
807.756	20876
807.898	20518
808.04	20587
808.182	20545
808.324	20514
808.465	20606
808.607	20724
808.749	20868
808.891	20990
809.033	21154
809.174	20941
809.316	20804
809.458	20845
809.6	20754
809.741	20925
809.883	20845
810.025	21100
810.166	20979
810.308	20941
810.45	20864
810.591	20750
810.733	20724
810.875	20518
811.016	20590
811.158	20400
811.299	20537
811.441	20727
811.582	20648
811.724	20629
811.865	20689
812.007	20552
812.148	20651
812.29	20552
812.431	20663
812.573	21001
812.714	21055
812.855	21032
812.997	21173
813.138	21310
813.279	21131
813.421	21214
813.562	20986
813.703	20861
813.845	20716
813.986	20499
814.127	20343
814.268	20271
814.41	20081
814.551	20199
814.692	20161
814.833	20065
814.974	20031
815.115	20180
815.256	19978
815.397	19955
815.539	19978
815.68	19849
815.821	19841
815.962	19860
816.103	19852
816.244	19708
816.385	19616
816.526	19597
816.666	19460
816.807	19263
816.948	19320
817.089	19460
817.23	19403
817.371	19190
817.512	19266
817.653	19312
817.793	19228
817.934	19247
818.075	19301
818.216	19301
818.356	19213
818.497	19107
818.638	19080
818.778	18985
818.919	19133
819.06	19038
819.2	19179
819.341	19198
819.481	19133
819.622	19304
819.762	19449
819.903	19415
820.043	19327
820.184	19164
820.324	19171
820.465	19244
820.605	19270
820.746	19301
820.886	19012
821.026	19312
821.167	19346
821.307	19270
821.447	19190
821.588	19122
821.728	18894
821.868	18939
822.008	18616
822.149	18722
822.289	18681
822.429	18399
822.569	18258
822.709	18334
822.849	18148
822.99	18216
823.13	18106
823.27	18083
823.41	17874
823.55	18026
823.69	17912
823.83	17961
823.97	17954
824.11	17889
824.25	17764
824.389	17687
824.529	17923
824.669	17703
824.809	17775
824.949	17805
825.089	17775
825.228	17634
825.368	17547
825.508	17467
825.648	17520
825.787	17562
825.927	17573
826.067	17486
826.206	17532
826.346	17573
826.485	17558
826.625	17505
826.765	17646
826.904	17592
827.044	17318
827.183	17258
827.323	17151
827.462	17345
827.601	17178
827.741	17147
827.88	17326
828.02	17067
828.159	17151
828.298	17239
828.437	17231
828.577	17227
828.716	17330
828.855	17189
828.994	17037
829.134	17052
829.273	17025
829.412	17060
829.551	17064
829.69	16908
829.829	17041
829.968	17117
830.107	17041
830.246	17010
830.385	16965
830.524	16828
830.663	16869
830.802	16767
830.941	16729
831.08	16656
831.219	16710
831.357	16698
831.496	16866
831.635	16729
831.774	16565
831.913	16634
832.051	16481
832.19	16459
832.329	16459
832.467	16337
832.606	16261
832.744	16325
832.883	16223
833.022	16295
833.16	16291
833.299	16413
833.437	16367
833.576	16333
833.714	16341
833.852	16409
833.991	16257
834.129	16436
834.267	16341
834.406	16432
834.544	16478
834.682	16375
834.821	16379
834.959	16565
835.097	16371
835.235	16481
835.373	16398
835.511	16451
835.65	16185
835.788	16272
835.926	16135
836.064	16112
836.202	16078
836.34	16322
836.478	16371
836.615	16276
836.753	16405
836.891	16322
837.029	16303
837.167	16303
837.305	16185
837.443	16177
837.58	16124
837.718	16181
837.856	16150
837.993	16158
838.131	16230
838.269	16074
838.406	16090
838.544	16036
838.681	15831
838.819	15857
838.956	15728
839.094	15793
839.231	15827
839.369	15880
839.506	16219
839.643	16013
839.781	15686
839.918	15739
840.055	15884
840.193	15835
840.33	15724
840.467	15804
840.604	15770
840.742	15926
840.879	15580
841.016	15675
841.153	15682
841.29	15892
841.427	15686
841.564	15724
841.701	15713
841.838	15717
841.975	15679
842.112	15656
842.249	15553
842.385	15530
842.522	15686
842.659	15469
842.796	15416
842.933	15584
843.069	15515
843.206	15545
843.343	15526
843.479	15534
843.616	15530
843.752	15321
843.889	15294
844.025	15466
844.162	15340
844.298	15431
844.435	15405
844.571	15336
844.708	15249
844.844	15523
844.98	15458
845.117	15496
845.253	15230
845.389	15165
845.525	15355
845.661	15180
845.798	15032
845.934	15207
846.07	15165
846.206	15112
846.342	15195
846.478	15131
846.614	14963
846.75	14777
846.886	14910
847.022	15005
847.158	15024
847.294	14842
847.429	14975
847.565	14842
847.701	15032
847.837	14754
847.972	14632
848.108	14731
848.244	14731
848.379	14568
848.515	14518
848.65	14465
848.786	14583
848.921	14526
849.057	14621
849.192	14537
849.328	14541
849.463	14526
849.598	14400
849.734	14339
849.869	14438
850.004	14294
850.14	14278
850.275	14282
850.41	14298
850.545	14256
850.68	14195
850.815	14153
850.95	14252
851.085	14336
851.22	14366
851.355	14343
851.49	14259
851.625	14298
851.76	14248
851.895	14161
852.03	14107
852.165	14172
852.299	14282
852.434	14370
852.569	14259
852.703	14248
852.838	14339
852.973	14404
853.107	14389
853.242	14229
853.376	14123
853.511	13906
853.645	14229
853.78	14294
853.914	14149
854.048	14073
854.183	14096
854.317	14183
854.451	14244
854.585	14081
854.72	14088
854.854	14218
854.988	14088
855.122	14115
855.256	14103
855.39	14126
855.524	14305
855.658	14168
855.792	14134
855.926	14073
856.06	14225
856.194	14221
856.327	14134
856.461	14115
856.595	14103
856.729	14058
856.862	14077
856.996	14176
857.13	14210
857.263	14256
857.397	14271
857.53	14100
857.664	14290
857.797	14134
857.931	14195
858.064	14210
858.197	14263
858.331	14157
858.464	14126
858.597	14065
858.731	14142
858.864	14149
858.997	14058
859.13	14183
859.263	14252
859.396	14252
859.529	14119
859.662	14069
859.795	14126
859.928	14191
860.061	14225
860.194	14336
860.327	14157
860.46	14065
860.592	14191
860.725	14298
860.858	14290
860.99	14119
861.123	13993
861.256	14096
861.388	14100
861.521	14765
861.653	13951
861.786	13978
861.918	14039
862.05	14069
862.183	14096
862.315	14103
862.447	14119
862.58	14039
862.712	13951
862.844	13925
862.976	13936
863.108	13986
863.24	14187
863.372	13757
863.504	13963
863.636	13944
863.768	14027
863.9	13955
864.032	13822
864.164	13864
864.296	13944
864.428	14065
864.559	14050
864.691	14077
864.823	14020
864.954	13917
865.086	13932
865.217	13963
865.349	13845
865.48	13890
865.612	13909
865.743	14024
865.875	13887
866.006	13951
866.137	13917
866.269	13894
866.4	13841
866.531	13837
866.662	13818
866.793	13841
866.924	13826
867.055	13967
867.186	13959
867.317	13799
867.448	13742
867.579	13833
867.71	13811
867.841	13883
867.972	13887
868.103	13951
868.233	13906
868.364	13978
868.495	13871
868.625	14172
868.756	14221
868.886	14069
869.017	14134
869.147	14233
869.278	14259
869.408	14195
869.539	14065
869.669	14267
869.799	14168
869.929	14339
870.06	14275
870.19	14518
870.32	14434
870.45	14457
870.58	14571
870.71	14610
870.84	14632
870.97	14526
871.1	14488
871.23	14632
871.36	14746
871.489	14632
871.619	14773
871.749	14739
871.879	14762
872.008	14887
872.138	14830
872.267	14773
872.397	14598
872.526	14564
872.656	14583
872.785	14606
872.915	14834
873.044	14800
873.173	14758
873.303	14876
873.432	14899
873.561	14853
873.69	14834
873.819	14845
873.948	14975
874.077	14777
874.206	14765
874.335	14883
874.464	14960
874.593	15055
874.722	15047
874.851	15169
874.979	15249
875.108	15199
875.237	15074
875.365	15077
875.494	15169
875.623	15180
875.751	15123
875.88	15291
876.008	15302
876.136	15374
876.265	15572
876.393	15755
876.521	15633
876.65	15625
876.778	15591
876.906	15439
877.034	15477
877.162	15515
877.29	15469
877.418	15561
877.546	15622
877.674	15545
877.802	15576
877.93	15450
878.058	15534
878.185	15351
878.313	15397
878.441	15542
878.568	15332
878.696	15481
878.824	15564
878.951	15553
879.079	15789
879.206	15941
879.333	15656
879.461	15648
879.588	15648
879.715	15679
879.842	15831
879.97	15595
880.097	15340
880.224	15344
880.351	15363
880.478	15443
880.605	15351
880.732	15298
880.859	15568
880.986	15397
881.112	15454
881.239	15203
881.366	15085
881.493	15058
881.619	14971
881.746	15062
881.872	15066
881.999	15043
882.125	14986
882.252	15119
882.378	15047
882.505	15100
882.631	15081
882.757	14895
882.883	14864
883.01	14834
883.136	14765
883.262	14727
883.388	14777
883.514	14952
883.64	14948
883.766	14746
883.892	14693
884.018	14746
884.143	14899
884.269	14838
884.395	14644
884.52	14522
884.646	14598
884.772	14446
884.897	14438
885.023	14568
885.148	14724
885.274	14743
885.399	14655
885.524	14541
885.65	14590
885.775	14560
885.9	14575
886.025	14659
886.15	14518
886.275	14514
886.4	14461
886.525	14514
886.65	14533
886.775	14552
886.9	14701
887.025	14682
887.149	14571
887.274	14396
887.399	14389
887.523	14351
887.648	14317
887.773	14267
887.897	14499
888.021	14514
888.146	14454
888.27	14537
888.395	14579
888.519	14423
888.643	14419
888.767	14423
888.891	14271
889.015	14339
889.139	14237
889.263	14206
889.387	14393
889.511	14434
889.635	14393
889.759	14180
889.883	14237
890.006	14385
890.13	14381
890.254	14187
890.377	14282
890.501	14130
890.624	14031
890.748	14218
890.871	13959
890.995	13947
891.118	13757
891.241	13887
891.364	13974
891.488	13974
891.611	13978
891.734	13955
891.857	14035
891.98	13967
892.103	14119
892.226	14035
892.349	13925
892.471	13864
892.594	13917
892.717	14008
892.839	13982
892.962	13967
893.085	14008
893.207	14039
893.33	13837
893.452	13909
893.575	13989
893.697	13993
893.819	14218
893.941	14180
894.064	14046
894.186	13955
894.308	14001
894.43	14054
894.552	14199
894.674	14142
894.796	14069
894.918	14050
895.04	14008
895.161	14046
895.283	14054
895.405	14012
895.526	14100
895.648	14084
895.769	14103
895.891	14134
896.012	14145
896.134	14202
896.255	14119
896.376	14084
896.498	14164
896.619	14168
896.74	14153
896.861	14229
896.982	14461
897.103	14568
897.224	14514
897.345	14404
897.466	14396
897.587	14336
897.708	14484
897.828	14465
897.949	14442
898.07	14168
898.19	14465
898.311	14518
898.431	14396
898.552	14507
898.672	14560
898.792	14598
898.913	14549
899.033	14488
899.153	14271
899.273	14202
899.393	14298
899.513	14263
899.633	14282
899.753	14320
899.873	14290
899.993	14412
900.113	14404
900.232	14393
900.352	14317
900.472	14126
900.591	14187
900.711	14214
900.83	14138
900.95	14225
901.069	14305
901.189	14145
901.308	13944
901.427	13902
901.546	13887
901.665	13887
901.784	13864
901.904	13753
902.023	13681
902.141	13571
902.26	13392
902.379	13544
902.498	13480
902.617	13400
902.735	13426
902.854	13388
902.973	13438
903.091	13202
903.21	13164
903.328	13198
903.446	13126
903.565	13057
903.683	13061
903.801	12962
903.919	13027
904.038	13019
904.156	12901
904.274	12878
904.392	12795
904.51	12753
904.627	12905
904.745	12837
904.863	12916
904.981	12646
905.098	12589
905.216	12551
905.334	12456
905.451	12513
905.569	12448
905.686	12506
905.803	12555
905.921	12372
906.038	12452
906.155	12334
906.272	12239
906.389	12232
906.506	12072
906.623	12163
906.74	12216
906.857	12022
906.974	12038
907.091	12190
907.208	12289
907.324	12163
907.441	12015
907.557	11908
907.674	11897
907.79	11790
907.907	11764
908.023	11885
908.139	11786
908.256	11805
908.372	11729
908.488	11817
908.604	11657
908.72	11577
908.836	11657
908.952	11604
909.068	11615
909.184	11634
909.3	11592
909.415	11775
909.531	11573
909.647	11463
909.762	11391
909.878	11372
909.993	11398
910.108	11398
910.224	11410
910.339	11345
910.454	11315
910.57	11246
910.685	11261
910.8	11512
910.915	11493
911.03	11318
911.145	11079
911.259	11147
911.374	11105
911.489	11029
911.604	10972
911.718	10809
911.833	10892
911.947	10774
912.062	10683
912.176	10873
912.291	10885
912.405	10873
912.519	11018
912.633	11075
912.748	10995
912.862	10892
912.976	10759
913.09	10679
913.204	10831
913.318	10748
913.431	10869
913.545	10820
913.659	10862
913.772	10778
913.886	10675
914	10649
914.113	10698
914.226	10767
914.34	10679
914.453	10554
914.566	10687
914.68	10626
914.793	10565
914.906	10398
915.019	10352
915.132	10291
915.245	10367
915.358	10344
915.47	10394
915.583	10386
915.696	10402
915.809	10588
915.921	10508
916.034	10341
916.146	10352
916.259	10348
916.371	10443
916.483	10443
916.595	10287
916.708	10299
916.82	10299
916.932	10303
917.044	10227
917.156	10276
917.268	10246
917.38	10238
917.491	10215
917.603	10257
917.715	10249
917.826	10295
917.938	10105
918.049	10131
918.161	10299
918.272	10333
918.384	10390
918.495	10310
918.606	10105
918.717	10040
918.828	10109
918.939	10135
919.05	9922
919.161	10086
919.272	9922
919.383	10059
919.494	10200
919.604	10306
919.715	10105
919.826	10032
919.936	10109
920.047	10227
920.157	10124
920.267	10284
920.378	10109
920.488	10116
920.598	10287
920.708	10550
920.818	10337
920.928	10306
921.038	10485
921.148	10470
921.258	10063
921.368	10059
921.477	9972
921.587	10029
921.697	9850
921.806	10006
921.916	9968
922.025	9694
922.134	9698
922.244	9656
922.353	9781
922.462	9637
922.571	9492
922.68	9348
922.789	9389
922.898	9443
923.007	9321
923.116	9477
923.224	9340
923.333	9370
923.442	9256
923.55	9264
923.659	9222
923.767	9351
923.876	9279
923.984	9329
924.092	9142
924.201	9233
924.309	9233
924.417	9298
924.525	9192
924.633	9253
924.741	9987
924.849	9039
924.956	9173
925.064	9039
925.172	8990
925.279	9036
925.387	9066
925.494	9062
925.602	9188
925.709	9081
925.816	8982
925.924	9020
926.031	9036
926.138	9051
926.245	9135
926.352	8948
926.459	9226
926.566	9097
926.673	8944
926.779	8887
926.886	8861
926.993	8788
927.099	8712
927.206	8735
927.312	8720
927.419	8735
927.525	8762
927.631	8762
927.737	8693
927.843	8712
927.95	8522
928.056	8587
928.162	8644
928.267	8682
928.373	9230
928.479	8739
928.585	8594
928.69	8648
928.796	8712
928.901	8575
929.007	8461
929.112	8648
929.218	8499
929.323	8434
929.428	8469
929.533	8526
929.638	8377
929.743	8492
929.848	8545
929.953	8385
930.058	8366
930.163	8237
930.267	8267
930.372	8423
930.477	8240
930.581	8537
930.685	8366
930.79	8199
930.894	8172
930.998	8172
931.103	8389
931.207	7970
931.311	7875
931.415	7852
931.519	7719
931.623	7643
