Data from test_V78500241_1718.txt Node
Date: Fri Mar 25 14:45:40 CST 2022
User: usil
Spectrometer: V785-0024
Trigger mode: 0
Integration Time (sec): 4.000000E-1
Scans to average: 1
Nonlinearity correction enabled: false
Boxcar width: 0
Storing dark spectrum: false
XAxis mode: Wavelengths
Number of Pixels in Spectrum: 1024
>>>>>Begin Spectral Data<<<<<
801.071	22360
801.214	22268
801.356	21869
801.499	21751
801.641	21610
801.783	21610
801.926	21667
802.068	21530
802.211	21523
802.353	21386
802.496	21249
802.638	21116
802.78	21165
802.923	21013
803.065	20918
803.208	20906
803.35	20876
803.492	21089
803.635	20998
803.777	20910
803.919	21017
804.061	21279
804.204	21055
804.346	20937
804.488	20830
804.63	20853
804.773	20906
804.915	20902
805.057	20887
805.199	20956
805.341	20990
805.483	21100
805.626	20876
805.768	20872
805.91	20826
806.052	21028
806.194	20823
806.336	21169
806.478	20891
806.62	20785
806.762	20990
806.904	21093
807.046	21351
807.188	21214
807.33	21321
807.472	21275
807.614	21199
807.756	21150
807.898	20986
808.04	21020
808.182	21036
808.324	21001
808.465	21077
808.607	21173
808.749	21184
808.891	21370
809.033	21424
809.174	21294
809.316	21260
809.458	21291
809.6	21294
809.741	21218
809.883	21481
810.025	21370
810.166	21416
810.308	21534
810.45	21393
810.591	21188
810.733	21169
810.875	21062
811.016	20948
811.158	21028
811.299	21108
811.441	21184
811.582	21207
811.724	21070
811.865	21104
812.007	21028
812.148	21066
812.29	21096
812.431	21252
812.573	21408
812.714	21447
812.855	21515
812.997	21561
813.138	21804
813.279	21739
813.421	21576
813.562	21431
813.703	21268
813.845	21195
813.986	21028
814.127	20727
814.268	20785
814.41	20590
814.551	20598
814.692	20727
814.833	20617
814.974	20503
815.115	20514
815.256	20419
815.397	20385
815.539	20408
815.68	20450
815.821	20202
815.962	20309
816.103	20320
816.244	20252
816.385	20039
816.526	20073
816.666	19967
816.807	19799
816.948	19738
817.089	19860
817.23	19738
817.371	19723
817.512	19841
817.653	19639
817.793	19685
817.934	19723
818.075	19715
818.216	19738
818.356	19731
818.497	19655
818.638	19274
818.778	19491
818.919	19441
819.06	19502
819.2	19556
819.341	19540
819.481	19620
819.622	19837
819.762	19955
819.903	19799
820.043	19932
820.184	19639
820.324	19742
820.465	19780
820.605	19753
820.746	19708
820.886	19628
821.026	19757
821.167	19533
821.307	19647
821.447	19567
821.588	19514
821.728	19483
821.868	19232
822.008	19194
822.149	19103
822.289	19091
822.429	18901
822.569	18726
822.709	18825
822.849	18559
822.99	18627
823.13	18669
823.27	18563
823.41	18445
823.55	18365
823.69	18414
823.83	18384
823.97	18407
824.11	18148
824.25	18098
824.389	18216
824.529	18289
824.669	18129
824.809	18247
824.949	18171
825.089	18243
825.228	18155
825.368	18026
825.508	18049
825.648	17958
825.787	17996
825.927	18022
826.067	17863
826.206	17973
826.346	17885
826.485	17980
826.625	17942
826.765	18083
826.904	18064
827.044	17748
827.183	17611
827.323	17619
827.462	17760
827.601	17733
827.741	17551
827.88	17577
828.02	17619
828.159	17630
828.298	17767
828.437	17805
828.577	17528
828.716	17779
828.855	17665
828.994	17440
829.134	17326
829.273	17410
829.412	17292
829.551	17242
829.69	17372
829.829	17486
829.968	17501
830.107	17474
830.246	17482
830.385	17296
830.524	17356
830.663	17216
830.802	17079
830.941	17010
831.08	16873
831.219	17067
831.357	17143
831.496	17200
831.635	17025
831.774	16923
831.913	16919
832.051	16915
832.19	16847
832.329	16713
832.467	16748
832.606	16653
832.744	16721
832.883	16786
833.022	16675
833.16	16702
833.299	16771
833.437	16763
833.576	16797
833.714	16763
833.852	16778
833.991	16759
834.129	16885
834.267	16919
834.406	16839
834.544	16793
834.682	16854
834.821	16706
834.959	16923
835.097	16702
835.235	16858
835.373	16862
835.511	16771
835.65	16664
835.788	16717
835.926	16497
836.064	16398
836.202	16527
836.34	16656
836.478	16740
836.615	16611
836.753	16733
836.891	16694
837.029	16660
837.167	16618
837.305	16603
837.443	16588
837.58	16519
837.718	16565
837.856	16569
837.993	16500
838.131	16443
838.269	16405
838.406	16398
838.544	16470
838.681	16200
838.819	16230
838.956	15987
839.094	16036
839.231	16192
839.369	16204
839.506	16428
839.643	16325
839.781	16112
839.918	16048
840.055	16055
840.193	16124
840.33	16044
840.467	16086
840.604	16143
840.742	16402
840.879	15960
841.016	15968
841.153	15972
841.29	16143
841.427	16029
841.564	16192
841.701	16025
841.838	16044
841.975	15983
842.112	15953
842.249	15888
842.385	15873
842.522	15987
842.659	15926
842.796	15819
842.933	15918
843.069	15812
843.206	15819
843.343	15873
843.479	15911
843.616	15873
843.752	15637
843.889	15637
844.025	15823
844.162	15625
844.298	15827
844.435	15720
844.571	15443
844.708	15793
844.844	15861
844.98	15774
845.117	15622
845.253	15557
845.389	15538
845.525	15606
845.661	15526
845.798	15477
845.934	15511
846.07	15439
846.206	15557
846.342	15515
846.478	15439
846.614	15154
846.75	15176
846.886	15169
847.022	15302
847.158	15192
847.294	15245
847.429	15264
847.565	15173
847.701	15386
847.837	15058
847.972	14910
848.108	14975
848.244	14929
848.379	14804
848.515	14811
848.65	14807
848.786	14743
848.921	14815
849.057	14925
849.192	14971
849.328	14853
849.463	14834
849.598	14834
849.734	14754
849.869	14674
850.004	14598
850.14	14640
850.275	14655
850.41	14533
850.545	14651
850.68	14480
850.815	14598
850.95	14537
851.085	14693
851.22	14644
851.355	14530
851.49	14552
851.625	14507
851.76	14465
851.895	14541
852.03	14457
852.165	14651
852.299	14530
852.434	14640
852.569	14655
852.703	14537
852.838	14613
852.973	14648
853.107	14773
853.242	14533
853.376	14507
853.511	14339
853.645	14423
853.78	14575
853.914	14381
854.048	14408
854.183	14438
854.317	14568
854.451	14587
854.585	14400
854.72	14404
854.854	14366
854.988	14347
855.122	14522
855.256	14271
855.39	14419
855.524	14541
855.658	14473
855.792	14434
855.926	14511
856.06	14469
856.194	14514
856.327	14374
856.461	14370
856.595	14415
856.729	14434
856.862	14499
856.996	14461
857.13	14590
857.263	14579
857.397	14568
857.53	14492
857.664	14545
857.797	14594
857.931	14571
858.064	14560
858.197	14556
858.331	14446
858.464	14480
858.597	14343
858.731	14351
858.864	14358
858.997	14385
859.13	14389
859.263	14537
859.396	14488
859.529	14461
859.662	14332
859.795	14389
859.928	14415
860.061	14492
860.194	14670
860.327	14476
860.46	14408
860.592	14533
860.725	14648
860.858	14518
860.99	14423
861.123	14362
861.256	14362
861.388	14381
861.521	15081
861.653	14370
861.786	14252
861.918	14286
862.05	14317
862.183	14400
862.315	14393
862.447	14579
862.58	14476
862.712	14271
862.844	14210
862.976	14278
863.108	14233
863.24	14678
863.372	14092
863.504	14256
863.636	14111
863.768	14290
863.9	14115
864.032	14202
864.164	14225
864.296	14248
864.428	14328
864.559	14286
864.691	14347
864.823	14282
864.954	14267
865.086	14263
865.217	14210
865.349	14149
865.48	14225
865.612	14153
865.743	14313
865.875	14138
866.006	14126
866.137	14134
866.269	14172
866.4	14206
866.531	14256
866.662	14130
866.793	14145
866.924	14138
867.055	14142
867.186	14187
867.317	14157
867.448	14012
867.579	14107
867.71	14107
867.841	14054
867.972	14286
868.103	14195
868.233	14145
868.364	14145
868.495	14286
868.625	14400
868.756	14488
868.886	14366
869.017	14423
869.147	14533
869.278	14446
869.408	14499
869.539	14408
869.669	14484
869.799	14533
869.929	14556
870.06	14507
870.19	14705
870.32	14777
870.45	14857
870.58	14864
870.71	14910
870.84	14929
870.97	14819
871.1	14845
871.23	15077
871.36	14998
871.489	14918
871.619	14986
871.749	14899
871.879	15070
872.008	15112
872.138	15039
872.267	15047
872.397	14910
872.526	14876
872.656	14929
872.785	14990
872.915	15051
873.044	15100
873.173	15123
873.303	15123
873.432	15093
873.561	15157
873.69	15112
873.819	14998
873.948	15214
874.077	15051
874.206	15116
874.335	15116
874.464	15249
874.593	15370
874.722	15348
874.851	15401
874.979	15382
875.108	15401
875.237	15401
875.365	15386
875.494	15431
875.623	15435
875.751	15412
875.88	15564
876.008	15549
876.136	15519
876.265	15808
876.393	16036
876.521	15937
876.65	15831
876.778	15835
876.906	15804
877.034	15766
877.162	15854
877.29	15717
877.418	15873
877.546	15774
877.674	15823
877.802	15819
877.93	15720
878.058	15755
878.185	15717
878.313	15876
878.441	15732
878.568	15709
878.696	15660
878.824	15880
878.951	15865
879.079	15941
879.206	16162
879.333	15994
879.461	15880
879.588	15899
879.715	16059
879.842	16116
879.97	15876
880.097	15698
880.224	15599
880.351	15671
880.478	15759
880.605	15667
880.732	15694
880.859	15945
880.986	15625
881.112	15694
881.239	15511
881.366	15462
881.493	15363
881.619	15211
881.746	15252
881.872	15420
881.999	15325
882.125	15287
882.252	15374
882.378	15382
882.505	15477
882.631	15237
882.757	15108
882.883	15127
883.01	15157
883.136	15085
883.262	14967
883.388	14952
883.514	15184
883.64	15233
883.766	15028
883.892	14914
884.018	14998
884.143	15062
884.269	15268
884.395	14880
884.52	14861
884.646	14845
884.772	14815
884.897	14826
885.023	14693
885.148	14960
885.274	15032
885.399	14914
885.524	14826
885.65	14952
885.775	14876
885.9	14857
886.025	14929
886.15	14914
886.275	14743
886.4	14777
886.525	14804
886.65	14773
886.775	14762
886.9	14994
887.025	15131
887.149	14899
887.274	14727
887.399	14701
887.523	14663
887.648	14682
887.773	14499
887.897	14746
888.021	14689
888.146	14640
888.27	14743
888.395	14819
888.519	14781
888.643	14762
888.767	14746
888.891	14682
889.015	14492
889.139	14541
889.263	14495
889.387	14434
889.511	14819
889.635	14621
889.759	14488
889.883	14575
890.006	14594
890.13	14560
890.254	14537
890.377	14549
890.501	14358
890.624	14415
890.748	14347
890.871	14214
890.995	14119
891.118	14123
891.241	14221
891.364	14278
891.488	14320
891.611	14244
891.734	14183
891.857	14183
891.98	14237
892.103	14305
892.226	14332
892.349	14123
892.471	14153
892.594	14161
892.717	14294
892.839	14301
892.962	14126
893.085	14229
893.207	14237
893.33	14157
893.452	14149
893.575	14294
893.697	14103
893.819	14404
893.941	14446
894.064	14336
894.186	14294
894.308	14164
894.43	14366
894.552	14400
894.674	14336
894.796	14149
894.918	14309
895.04	14206
895.161	14313
895.283	14309
895.405	14332
895.526	14374
895.648	14358
895.769	14347
895.891	14442
896.012	14389
896.134	14454
896.255	14492
896.376	14370
896.498	14412
896.619	14434
896.74	14404
896.861	14522
896.982	14701
897.103	14902
897.224	14773
897.345	14686
897.466	14568
897.587	14682
897.708	14754
897.828	14636
897.949	14720
898.07	14579
898.19	14720
898.311	14727
898.431	14678
898.552	14781
898.672	14701
898.792	14933
898.913	14811
899.033	14727
899.153	14583
899.273	14423
899.393	14530
899.513	14610
899.633	14655
899.753	14514
899.873	14610
899.993	14625
900.113	14682
900.232	14526
900.352	14549
900.472	14469
900.591	14450
900.711	14480
900.83	14347
900.95	14583
901.069	14511
901.189	14431
901.308	14195
901.427	14077
901.546	14069
901.665	14123
901.784	14256
901.904	14001
902.023	13967
902.141	13658
902.26	13670
902.379	13841
902.498	13651
902.617	13639
902.735	13693
902.854	13674
902.973	13658
903.091	13529
903.21	13411
903.328	13396
903.446	13343
903.565	13304
903.683	13179
903.801	13228
903.919	13145
904.038	13225
904.156	12996
904.274	13160
904.392	13095
904.51	13046
904.627	13103
904.745	13084
904.863	13168
904.981	12859
905.098	12783
905.216	12821
905.334	12772
905.451	12787
905.569	12734
905.686	12882
905.803	12791
905.921	12563
906.038	12741
906.155	12540
906.272	12544
906.389	12441
906.506	12330
906.623	12422
906.74	12270
906.857	12243
906.974	12296
907.091	12414
907.208	12555
907.324	12330
907.441	12277
907.557	12148
907.674	12136
907.79	11942
907.907	12007
908.023	12148
908.139	12057
908.256	12136
908.372	12015
908.488	12045
908.604	11863
908.72	11866
908.836	11908
908.952	11843
909.068	11912
909.184	12026
909.3	11840
909.415	11901
909.531	11885
909.647	11604
909.762	11665
909.878	11611
909.993	11615
910.108	11707
910.224	11604
910.339	11691
910.454	11524
910.57	11493
910.685	11353
910.8	11680
910.915	11661
911.03	11535
911.145	11296
911.259	11353
911.374	11292
911.489	11307
911.604	11143
911.718	11083
911.833	11045
911.947	10961
912.062	10843
912.176	11018
912.291	11121
912.405	11117
912.519	11204
912.633	11261
912.748	11117
912.862	11083
912.976	11010
913.09	10759
913.204	10919
913.318	10991
913.431	11098
913.545	11022
913.659	11105
913.772	10938
913.886	10843
914	10862
914.113	10938
914.226	10965
914.34	10892
914.453	10767
914.566	10908
914.68	10748
914.793	10782
914.906	10527
915.019	10561
915.132	10516
915.245	10558
915.358	10634
915.47	10580
915.583	10569
915.696	10599
915.809	10752
915.921	10744
916.034	10485
916.146	10489
916.259	10558
916.371	10565
916.483	10637
916.595	10531
916.708	10493
916.82	10546
916.932	10516
917.044	10405
917.156	10428
917.268	10398
917.38	10447
917.491	10421
917.603	10538
917.715	10459
917.826	10527
917.938	10459
918.049	10322
918.161	10390
918.272	10554
918.384	10470
918.495	10413
918.606	10287
918.717	10257
918.828	10272
918.939	10318
919.05	10253
919.161	10261
919.272	10021
919.383	10150
919.494	10344
919.604	10497
919.715	10284
919.826	10276
919.936	10276
920.047	10363
920.157	10272
920.267	10470
920.378	10421
920.488	10314
920.598	10443
920.708	10584
920.818	10421
920.928	10542
921.038	10637
921.148	10641
921.258	10344
921.368	10306
921.477	10185
921.587	10074
921.697	10010
921.806	10219
921.916	10002
922.025	9880
922.134	9880
922.244	9835
922.353	9892
922.462	9781
922.571	9732
922.68	9542
922.789	9614
922.898	9488
923.007	9530
923.116	9614
923.224	9481
923.333	9545
923.442	9454
923.55	9416
923.659	9462
923.767	9500
923.876	9454
923.984	9428
924.092	9416
924.201	9374
924.309	9420
924.417	9386
924.525	9329
924.633	9408
924.741	10306
924.849	9203
924.956	9336
925.064	9146
925.172	9097
925.279	9112
925.387	9291
925.494	9203
925.602	9367
925.709	9245
925.816	9089
925.924	9211
926.031	9283
926.138	9222
926.245	9222
926.352	9089
926.459	9256
926.566	9310
926.673	9184
926.779	9024
926.886	9135
926.993	8941
927.099	8830
927.206	8819
927.312	8906
927.419	8979
927.525	8960
927.631	8960
927.737	8864
927.843	8899
927.95	8689
928.056	8777
928.162	8815
928.267	8925
928.373	9492
928.479	8868
928.585	8670
928.69	8823
928.796	8823
928.901	8720
929.007	8556
929.112	8716
929.218	8701
929.323	8659
929.428	8648
929.533	8750
929.638	8545
929.743	8575
929.848	8678
929.953	8651
930.058	8587
930.163	8358
930.267	8389
930.372	8568
930.477	8362
930.581	8617
930.685	8450
930.79	8332
930.894	8290
930.998	8320
931.103	8488
931.207	8168
931.311	8103
931.415	8012
931.519	7871
931.623	7890
