Data from test_V78500241_622.txt Node
Date: Fri Mar 25 14:38:02 CST 2022
User: usil
Spectrometer: V785-0024
Trigger mode: 0
Integration Time (sec): 4.000000E-1
Scans to average: 1
Nonlinearity correction enabled: false
Boxcar width: 0
Storing dark spectrum: false
XAxis mode: Wavelengths
Number of Pixels in Spectrum: 1024
>>>>>Begin Spectral Data<<<<<
801.071	27884
801.214	27812
801.356	27519
801.499	27481
801.641	27435
801.783	27252
801.926	27450
802.068	27321
802.211	27089
802.353	27184
802.496	26804
802.638	26861
802.78	26887
802.923	26746
803.065	26648
803.208	26788
803.35	26845
803.492	26864
803.635	26902
803.777	26940
803.919	27112
804.061	27241
804.204	26940
804.346	27013
804.488	26861
804.63	27020
804.773	26842
804.915	27043
805.057	27207
805.199	27279
805.341	27268
805.483	27363
805.626	27424
805.768	27218
805.91	27561
806.052	27523
806.194	27530
806.336	27835
806.478	27892
806.62	28021
806.762	28325
806.904	28653
807.046	29178
807.188	29554
807.33	29707
807.472	30110
807.614	30509
807.756	31156
807.898	31966
808.04	33203
808.182	34748
808.324	36680
808.465	38830
808.607	41493
808.749	43506
808.891	44849
809.033	44826
809.174	43609
809.316	41463
809.458	38910
809.6	36281
809.741	34394
809.883	32682
810.025	31635
810.166	30981
810.308	30235
810.45	29703
810.591	29429
810.733	28984
810.875	28626
811.016	28356
811.158	28265
811.299	28204
811.441	28101
811.582	28112
811.724	27941
811.865	27812
812.007	27671
812.148	27709
812.29	27701
812.431	27652
812.573	27850
812.714	27816
812.855	28063
812.997	27876
813.138	28086
813.279	27899
813.421	27759
813.562	27625
813.703	27454
813.845	27374
813.986	26937
814.127	26849
814.268	26743
814.41	26720
814.551	26792
814.692	26682
814.833	26644
814.974	26457
815.115	26648
815.256	26366
815.397	26396
815.539	26332
815.68	26077
815.821	26161
815.962	26206
816.103	26157
816.244	25890
816.385	25925
816.526	25833
816.666	25723
816.807	25651
816.948	25693
817.089	25635
817.23	25559
817.371	25518
817.512	25301
817.653	25453
817.793	25419
817.934	25464
818.075	25460
818.216	25453
818.356	25422
818.497	25362
818.638	25057
818.778	25160
818.919	25168
819.06	25190
819.2	25285
819.341	25358
819.481	25384
819.622	25567
819.762	25639
819.903	25537
820.043	25407
820.184	25426
820.324	25430
820.465	25339
820.605	25362
820.746	25278
820.886	25141
821.026	25213
821.167	25152
821.307	25221
821.447	25228
821.588	25046
821.728	24951
821.868	24604
822.008	24582
822.149	24604
822.289	24616
822.429	24323
822.569	24224
822.709	24300
822.849	23988
822.99	24022
823.13	23984
823.27	24030
823.41	23836
823.55	23767
823.69	23828
823.83	23851
823.97	23752
824.11	23535
824.25	23425
824.389	23642
824.529	23440
824.669	23566
824.809	23642
824.949	23710
825.089	23520
825.228	23657
825.368	23471
825.508	23398
825.648	23379
825.787	23433
825.927	23395
826.067	23334
826.206	23414
826.346	23277
826.485	23376
826.625	23337
826.765	23455
826.904	23364
827.044	23105
827.183	23041
827.323	23044
827.462	23029
827.601	23006
827.741	23025
827.88	23048
828.02	22949
828.159	22930
828.298	22984
828.437	23102
828.577	22877
828.716	23041
828.855	22949
828.994	22740
829.134	22637
829.273	22763
829.412	22717
829.551	22561
829.69	22710
829.829	22683
829.968	22694
830.107	22721
830.246	22672
830.385	22660
830.524	22478
830.663	22519
830.802	22367
830.941	22314
831.08	22211
831.219	22428
831.357	22413
831.496	22390
831.635	22322
831.774	22055
831.913	22329
832.051	22044
832.19	22101
832.329	22219
832.467	21972
832.606	22063
832.744	22059
832.883	22040
833.022	22124
833.16	22226
833.299	22329
833.437	22478
833.576	22409
833.714	22668
833.852	22790
833.991	22862
834.129	22927
834.267	22927
834.406	22881
834.544	22809
834.682	22721
834.821	22561
834.959	22626
835.097	22360
835.235	22466
835.373	22284
835.511	22234
835.65	22029
835.788	21918
835.926	21911
836.064	21724
836.202	21774
836.34	21861
836.478	21873
836.615	21857
836.753	21831
836.891	21899
837.029	21823
837.167	21743
837.305	21701
837.443	21603
837.58	21660
837.718	21781
837.856	21583
837.993	21488
838.131	21504
838.269	21561
838.406	21405
838.544	21386
838.681	21195
838.819	21157
838.956	21081
839.094	20998
839.231	21074
839.369	21127
839.506	21310
839.643	21310
839.781	20971
839.918	20864
840.055	20994
840.193	20994
840.33	20902
840.467	20918
840.604	20944
840.742	21112
840.879	20788
841.016	20804
841.153	20963
841.29	21028
841.427	20941
841.564	20933
841.701	20857
841.838	20925
841.975	20845
842.112	20864
842.249	20788
842.385	20727
842.522	20788
842.659	20773
842.796	20731
842.933	20819
843.069	20796
843.206	20750
843.343	20906
843.479	20842
843.616	20887
843.752	20644
843.889	20648
844.025	20967
844.162	20674
844.298	20944
844.435	20994
844.571	21142
844.708	21264
844.844	21812
844.98	22070
845.117	22417
845.253	23136
845.389	24380
845.525	26918
845.661	31350
845.798	36228
845.934	40409
846.07	41783
846.206	41071
846.342	37464
846.478	32446
846.614	27914
846.75	24992
846.886	23246
847.022	22181
847.158	21523
847.294	21135
847.429	20773
847.565	20454
847.701	20659
847.837	20122
847.972	20046
848.108	20111
848.244	20031
848.379	19776
848.515	19795
848.65	19635
848.786	19750
848.921	19658
849.057	19643
849.192	19803
849.328	19590
849.463	19601
849.598	19502
849.734	19476
849.869	19521
850.004	19339
850.14	19369
850.275	19388
850.41	19247
850.545	19240
850.68	19278
850.815	19274
850.95	19327
851.085	19316
851.22	19407
851.355	19118
851.49	19373
851.625	19343
851.76	19285
851.895	19171
852.03	19126
852.165	19373
852.299	19255
852.434	19434
852.569	19373
852.703	19270
852.838	19457
852.973	19460
853.107	19537
853.242	19373
853.376	19213
853.511	19209
853.645	19327
853.78	19480
853.914	19354
854.048	19369
854.183	19316
854.317	19521
854.451	19571
854.585	19422
854.72	19377
854.854	19358
854.988	19320
855.122	19255
855.256	19263
855.39	19324
855.524	19343
855.658	19194
855.792	19335
855.926	19164
856.06	19206
856.194	19228
856.327	19118
856.461	19057
856.595	19065
856.729	18894
856.862	19168
856.996	19179
857.13	19114
857.263	19236
857.397	19190
857.53	19042
857.664	19095
857.797	19152
857.931	19164
858.064	19148
858.197	19088
858.331	18935
858.464	19004
858.597	18878
858.731	18973
858.864	18973
858.997	18916
859.13	19050
859.263	18996
859.396	19061
859.529	18970
859.662	19072
859.795	18894
859.928	18897
860.061	19122
860.194	19247
860.327	19019
860.46	18897
860.592	19038
860.725	19129
860.858	19114
860.99	18981
861.123	18894
861.256	18825
861.388	18966
861.521	19586
861.653	18962
861.786	18806
861.918	18829
862.05	18890
862.183	18993
862.315	19072
862.447	19000
862.58	18920
862.712	18764
862.844	18620
862.976	18711
863.108	18677
863.24	19110
863.372	18506
863.504	18627
863.636	18669
863.768	18604
863.9	18654
864.032	18589
864.164	18582
864.296	18703
864.428	18665
864.559	18692
864.691	18829
864.823	18665
864.954	18570
865.086	18658
865.217	18635
865.349	18467
865.48	18471
865.612	18646
865.743	18642
865.875	18589
866.006	18471
866.137	18604
866.269	18479
866.4	18589
866.531	18418
866.662	18502
866.793	18528
866.924	18498
867.055	18479
867.186	18528
867.317	18464
867.448	18460
867.579	18448
867.71	18467
867.841	18422
867.972	18498
868.103	18608
868.233	18498
868.364	18540
868.495	18650
868.625	18734
868.756	18966
868.886	18623
869.017	18684
869.147	18787
869.278	18821
869.408	18840
869.539	18814
869.669	18848
869.799	18791
869.929	18817
870.06	18852
870.19	19190
870.32	19034
870.45	19206
870.58	19255
870.71	19247
870.84	19304
870.97	19236
871.1	19236
871.23	19392
871.36	19441
871.489	19206
871.619	19464
871.749	19449
871.879	19483
872.008	19594
872.138	19426
872.267	19411
872.397	19438
872.526	19278
872.656	19301
872.785	19335
872.915	19620
873.044	19723
873.173	19548
873.303	19620
873.432	19685
873.561	19677
873.69	19704
873.819	19734
873.948	19753
874.077	19715
874.206	19784
874.335	19738
874.464	20001
874.593	20043
874.722	20119
874.851	20065
874.979	20092
875.108	20347
875.237	20176
875.365	20027
875.494	20237
875.623	20317
875.751	20278
875.88	20427
876.008	20427
876.136	20651
876.265	20716
876.393	21036
876.521	21013
876.65	20918
876.778	20975
876.906	20963
877.034	21036
877.162	21135
877.29	21104
877.418	21214
877.546	21214
877.674	21336
877.802	21443
877.93	21511
878.058	21679
878.185	21656
878.313	22040
878.441	22329
878.568	22379
878.696	22911
878.824	23627
878.951	24372
879.079	25601
879.206	27119
879.333	28687
879.461	29980
879.588	30654
879.715	30650
879.842	30448
879.97	28812
880.097	27116
880.224	25913
880.351	24924
880.478	24311
880.605	23756
880.732	23539
880.859	23608
880.986	23277
881.112	23189
881.239	23075
881.366	22980
881.493	22755
881.619	22778
881.746	22824
881.872	22839
881.999	22618
882.125	22778
882.252	22957
882.378	22778
882.505	23124
882.631	22896
882.757	22721
882.883	22755
883.01	22698
883.136	22679
883.262	22618
883.388	22546
883.514	22759
883.64	22736
883.766	22721
883.892	22508
884.018	22462
884.143	22527
884.269	22725
884.395	22531
884.52	22367
884.646	22557
884.772	22363
884.897	22356
885.023	22421
885.148	22409
885.274	22573
885.399	22428
885.524	22185
885.65	22139
885.775	22017
885.9	21831
886.025	21823
886.15	21705
886.275	21492
886.4	21374
886.525	21370
886.65	21344
886.775	21138
886.9	21161
887.025	21214
887.149	21017
887.274	20750
887.399	20659
887.523	20674
887.648	20465
887.773	20370
887.897	20438
888.021	20469
888.146	20336
888.27	20339
888.395	20301
888.519	20286
888.643	20225
888.767	20157
888.891	19925
889.015	19940
889.139	19921
889.263	19814
889.387	19856
889.511	19955
889.635	19906
889.759	19746
889.883	19670
890.006	19731
890.13	19811
890.254	19571
890.377	19525
890.501	19365
890.624	19285
890.748	19362
890.871	19217
890.995	19156
891.118	18996
891.241	19076
891.364	19031
891.488	19160
891.611	19171
891.734	18951
891.857	19065
891.98	18939
892.103	19012
892.226	18935
892.349	18951
892.471	18627
892.594	18741
892.717	18802
892.839	18741
892.962	18726
893.085	18814
893.207	18661
893.33	18593
893.452	18658
893.575	18681
893.697	18570
893.819	18608
893.941	18711
894.064	18722
894.186	18521
894.308	18509
894.43	18536
894.552	18776
894.674	18471
894.796	18376
894.918	18475
895.04	18483
895.161	18536
895.283	18582
895.405	18346
895.526	18380
895.648	18350
895.769	18452
895.891	18483
896.012	18517
896.134	18391
896.255	18498
896.376	18273
896.498	18338
896.619	18437
896.74	18395
896.861	18448
896.982	18749
897.103	18787
897.224	18616
897.345	18608
897.466	18429
897.587	18437
897.708	18734
897.828	18627
897.949	18521
898.07	18422
898.19	18513
898.311	18585
898.431	18494
898.552	18540
898.672	18665
898.792	18681
898.913	18563
899.033	18346
899.153	18388
899.273	18182
899.393	18311
899.513	18292
899.633	18327
899.753	18353
899.873	18224
899.993	18342
900.113	18190
900.232	18296
900.352	18148
900.472	18285
900.591	18129
900.711	18060
900.83	18060
900.95	18220
901.069	18216
901.189	18030
901.308	17878
901.427	17714
901.546	17646
901.665	17543
901.784	17661
901.904	17497
902.023	17261
902.141	17273
902.26	17185
902.379	17265
902.498	17273
902.617	17132
902.735	17143
902.854	17121
902.973	17041
903.091	16896
903.21	16774
903.328	16820
903.446	16660
903.565	16637
903.683	16588
903.801	16550
903.919	16481
904.038	16535
904.156	16481
904.274	16409
904.392	16238
904.51	16382
904.627	16333
904.745	16382
904.863	16310
904.981	16185
905.098	15991
905.216	15937
905.334	15994
905.451	16051
905.569	16006
905.686	15964
905.803	16025
905.921	15709
906.038	15998
906.155	15736
906.272	15766
906.389	15648
906.506	15587
906.623	15485
906.74	15511
906.857	15367
906.974	15412
907.091	15553
907.208	15542
907.324	15584
907.441	15492
907.557	15169
907.674	15264
907.79	15195
907.907	15161
908.023	15268
908.139	15180
908.256	15089
908.372	15116
908.488	15017
908.604	14960
908.72	14906
908.836	14849
908.952	14941
909.068	14918
909.184	14933
909.3	14872
909.415	15017
909.531	14864
909.647	14651
909.762	14629
909.878	14617
909.993	14621
910.108	14583
910.224	14594
910.339	14632
910.454	14518
910.57	14408
910.685	14374
910.8	14712
910.915	14621
911.03	14465
911.145	14328
911.259	14290
911.374	14237
911.489	14138
911.604	14157
911.718	14031
911.833	13997
911.947	14005
912.062	13875
912.176	13959
912.291	13993
912.405	13970
912.519	14195
912.633	14214
912.748	14115
912.862	14046
912.976	13837
913.09	13734
913.204	13841
913.318	13845
913.431	13997
913.545	13913
913.659	14039
913.772	13799
913.886	13719
914	13658
914.113	13738
914.226	13849
914.34	13738
914.453	13685
914.566	13750
914.68	13647
914.793	13601
914.906	13483
915.019	13263
915.132	13365
915.245	13457
915.358	13358
915.47	13430
915.583	13343
915.696	13419
915.809	13594
915.921	13559
916.034	13392
916.146	13339
916.259	13266
916.371	13354
916.483	13373
916.595	13304
916.708	13164
916.82	13285
916.932	13316
917.044	13251
917.156	13358
917.268	13126
917.38	13168
917.491	13069
917.603	13175
917.715	13198
917.826	13225
917.938	13031
918.049	12916
918.161	13080
918.272	13225
918.384	13232
918.495	12977
918.606	12932
918.717	12825
918.828	12890
918.939	12901
919.05	12726
919.161	12760
919.272	12585
919.383	12783
919.494	12852
919.604	13038
919.715	12806
919.826	12719
919.936	12840
920.047	12924
920.157	12825
920.267	13057
920.378	12833
920.488	12783
920.598	13065
920.708	13053
920.818	13008
920.928	12993
921.038	13072
921.148	13129
921.258	12741
921.368	12665
921.477	12604
921.587	12597
921.697	12422
921.806	12585
921.916	12521
922.025	12296
922.134	12228
922.244	12247
922.353	12281
922.462	12102
922.571	12026
922.68	11912
922.789	11973
922.898	11904
923.007	11893
923.116	11843
923.224	11901
923.333	11821
923.442	11745
923.55	11676
923.659	11802
923.767	11866
923.876	11627
923.984	11790
924.092	11672
924.201	11718
924.309	11676
924.417	11676
924.525	11600
924.633	11608
924.741	12319
924.849	11417
924.956	11619
925.064	11509
925.172	11410
925.279	11406
925.387	11414
925.494	11376
925.602	11509
925.709	11505
925.816	11318
925.924	11402
926.031	11459
926.138	11353
926.245	11486
926.352	11326
926.459	11509
926.566	11467
926.673	11269
926.779	11220
926.886	11109
926.993	11117
927.099	11132
927.206	11003
927.312	11022
927.419	11025
927.525	11033
927.631	11067
927.737	10904
927.843	10927
927.95	10820
928.056	10930
928.162	10953
928.267	10938
928.373	11459
928.479	10911
928.585	10767
928.69	10850
928.796	10850
928.901	10835
929.007	10569
929.112	10774
929.218	10721
929.323	10668
929.428	10618
929.533	10717
929.638	10565
929.743	10561
929.848	10687
929.953	10561
930.058	10500
930.163	10306
930.267	10398
930.372	10485
930.477	10276
930.581	10599
930.685	10504
930.79	10261
930.894	10287
930.998	10238
931.103	10268
931.207	10071
931.311	10025
931.415	9880
931.519	9667
931.623	9701
