Data from test_V78500241_1873.txt Node
Date: Fri Mar 25 14:46:45 CST 2022
User: usil
Spectrometer: V785-0024
Trigger mode: 0
Integration Time (sec): 4.000000E-1
Scans to average: 1
Nonlinearity correction enabled: false
Boxcar width: 0
Storing dark spectrum: false
XAxis mode: Wavelengths
Number of Pixels in Spectrum: 1024
>>>>>Begin Spectral Data<<<<<
801.071	22223
801.214	22013
801.356	21728
801.499	21766
801.641	21545
801.783	21580
801.926	21431
802.068	21500
802.211	21401
802.353	21355
802.496	21081
802.638	21074
802.78	20853
802.923	20895
803.065	20842
803.208	20883
803.35	20773
803.492	20743
803.635	20975
803.777	20811
803.919	20921
804.061	21207
804.204	20857
804.346	20830
804.488	20777
804.63	20864
804.773	20651
804.915	20823
805.057	20929
805.199	20819
805.341	20800
805.483	20902
805.626	20804
805.768	20720
805.91	20796
806.052	20750
806.194	20800
806.336	20899
806.478	20804
806.62	20754
806.762	20838
806.904	20990
807.046	21154
807.188	21116
807.33	21104
807.472	21188
807.614	21005
807.756	20971
807.898	21032
808.04	20765
808.182	20864
808.324	20849
808.465	20960
808.607	21127
808.749	21138
808.891	21268
809.033	21237
809.174	21233
809.316	21180
809.458	21245
809.6	21085
809.741	21138
809.883	21195
810.025	21275
810.166	21313
810.308	21306
810.45	21226
810.591	21180
810.733	20994
810.875	21024
811.016	20906
811.158	20743
811.299	20948
811.441	21188
811.582	21066
811.724	20880
811.865	20971
812.007	20994
812.148	20868
812.29	20902
812.431	21077
812.573	21252
812.714	21275
812.855	21450
812.997	21454
813.138	21610
813.279	21568
813.421	21408
813.562	21306
813.703	21211
813.845	21135
813.986	20796
814.127	20533
814.268	20476
814.41	20415
814.551	20396
814.692	20564
814.833	20434
814.974	20366
815.115	20366
815.256	20385
815.397	20362
815.539	20393
815.68	20149
815.821	20103
815.962	20157
816.103	20305
816.244	20111
816.385	19902
816.526	19856
816.666	19742
816.807	19662
816.948	19666
817.089	19704
817.23	19677
817.371	19689
817.512	19563
817.653	19556
817.793	19605
817.934	19616
818.075	19575
818.216	19540
818.356	19502
818.497	19346
818.638	19365
818.778	19244
818.919	19285
819.06	19297
819.2	19468
819.341	19480
819.481	19480
819.622	19571
819.762	19799
819.903	19822
820.043	19616
820.184	19632
820.324	19632
820.465	19670
820.605	19571
820.746	19544
820.886	19434
821.026	19445
821.167	19552
821.307	19537
821.447	19575
821.588	19377
821.728	19255
821.868	19221
822.008	18989
822.149	18989
822.289	18962
822.429	18772
822.569	18745
822.709	18650
822.849	18441
822.99	18422
823.13	18418
823.27	18456
823.41	18239
823.55	18190
823.69	18270
823.83	18216
823.97	18155
824.11	18102
824.25	18022
824.389	18015
824.529	18152
824.669	18072
824.809	18152
824.949	18117
825.089	18076
825.228	18015
825.368	17897
825.508	17874
825.648	17824
825.787	17847
825.927	17893
826.067	17748
826.206	17756
826.346	17798
826.485	17859
826.625	17790
826.765	17969
826.904	17821
827.044	17554
827.183	17608
827.323	17608
827.462	17657
827.601	17581
827.741	17539
827.88	17566
828.02	17474
828.159	17455
828.298	17573
828.437	17490
828.577	17471
828.716	17623
828.855	17471
828.994	17364
829.134	17356
829.273	17414
829.412	17315
829.551	17250
829.69	17261
829.829	17360
829.968	17448
830.107	17299
830.246	17433
830.385	17143
830.524	17200
830.663	17048
830.802	17075
830.941	16927
831.08	16995
831.219	17083
831.357	17003
831.496	17193
831.635	16908
831.774	16805
831.913	16904
832.051	16691
832.19	16721
832.329	16618
832.467	16580
832.606	16481
832.744	16660
832.883	16508
833.022	16577
833.16	16615
833.299	16706
833.437	16675
833.576	16653
833.714	16584
833.852	16713
833.991	16713
834.129	16748
834.267	16755
834.406	16558
834.544	16622
834.682	16713
834.821	16668
834.959	16797
835.097	16546
835.235	16736
835.373	16558
835.511	16660
835.65	16653
835.788	16493
835.926	16451
836.064	16375
836.202	16379
836.34	16542
836.478	16653
836.615	16630
836.753	16542
836.891	16649
837.029	16554
837.167	16462
837.305	16561
837.443	16394
837.58	16424
837.718	16462
837.856	16561
837.993	16318
838.131	16470
838.269	16348
838.406	16371
838.544	16223
838.681	16093
838.819	16017
838.956	15865
839.094	15945
839.231	16040
839.369	16131
839.506	16451
839.643	16261
839.781	16029
839.918	15827
840.055	16006
840.193	16055
840.33	16055
840.467	16055
840.604	16025
840.742	16295
840.879	15846
841.016	16013
841.153	15945
841.29	16131
841.427	16048
841.564	16071
841.701	16078
841.838	15831
841.975	15842
842.112	15865
842.249	15823
842.385	15781
842.522	15937
842.659	15888
842.796	15778
842.933	15800
843.069	15679
843.206	15663
843.343	15861
843.479	15823
843.616	15850
843.752	15644
843.889	15606
844.025	15713
844.162	15591
844.298	15679
844.435	15644
844.571	15618
844.708	15644
844.844	15785
844.98	15797
845.117	15713
845.253	15656
845.389	15439
845.525	15504
845.661	15488
845.798	15378
845.934	15386
846.07	15389
846.206	15530
846.342	15542
846.478	15386
846.614	15287
846.75	15055
846.886	15097
847.022	15214
847.158	15157
847.294	15150
847.429	15146
847.565	15077
847.701	15393
847.837	14807
847.972	14815
848.108	14857
848.244	14933
848.379	14743
848.515	14857
848.65	14701
848.786	14735
848.921	14842
849.057	14838
849.192	14830
849.328	14762
849.463	14781
849.598	14716
849.734	14693
849.869	14689
850.004	14408
850.14	14583
850.275	14556
850.41	14541
850.545	14549
850.68	14514
850.815	14492
850.95	14461
851.085	14693
851.22	14621
851.355	14499
851.49	14507
851.625	14404
851.76	14526
851.895	14385
852.03	14374
852.165	14454
852.299	14556
852.434	14613
852.569	14514
852.703	14575
852.838	14606
852.973	14632
853.107	14613
853.242	14480
853.376	14347
853.511	14271
853.645	14301
853.78	14457
853.914	14442
854.048	14320
854.183	14286
854.317	14431
854.451	14503
854.585	14389
854.72	14298
854.854	14366
854.988	14271
855.122	14339
855.256	14278
855.39	14434
855.524	14374
855.658	14442
855.792	14438
855.926	14362
856.06	14469
856.194	14484
856.327	14286
856.461	14362
856.595	14317
856.729	14396
856.862	14480
856.996	14343
857.13	14393
857.263	14473
857.397	14537
857.53	14404
857.664	14400
857.797	14385
857.931	14408
858.064	14465
858.197	14495
858.331	14454
858.464	14370
858.597	14240
858.731	14469
858.864	14358
858.997	14374
859.13	14332
859.263	14343
859.396	14469
859.529	14332
859.662	14404
859.795	14412
859.928	14385
860.061	14488
860.194	14560
860.327	14469
860.46	14423
860.592	14492
860.725	14488
860.858	14480
860.99	14313
861.123	14210
861.256	14256
861.388	14339
861.521	14960
861.653	14240
861.786	14267
861.918	14301
862.05	14343
862.183	14298
862.315	14355
862.447	14423
862.58	14336
862.712	14119
862.844	14062
862.976	14233
863.108	14202
863.24	14518
863.372	14096
863.504	14191
863.636	14180
863.768	14126
863.9	14164
864.032	14050
864.164	14145
864.296	14134
864.428	14256
864.559	14244
864.691	14240
864.823	14164
864.954	14164
865.086	14145
865.217	14024
865.349	14100
865.48	14199
865.612	14210
865.743	14317
865.875	14115
866.006	14096
866.137	14168
866.269	14107
866.4	14077
866.531	14081
866.662	14126
866.793	14069
866.924	14043
867.055	14202
867.186	14100
867.317	14168
867.448	14043
867.579	14016
867.71	14065
867.841	14123
867.972	14088
868.103	14134
868.233	14126
868.364	14096
868.495	14263
868.625	14248
868.756	14476
868.886	14332
869.017	14362
869.147	14564
869.278	14507
869.408	14442
869.539	14442
869.669	14495
869.799	14473
869.929	14575
870.06	14564
870.19	14678
870.32	14712
870.45	14693
870.58	14727
870.71	14956
870.84	14868
870.97	14815
871.1	14762
871.23	14979
871.36	14906
871.489	14785
871.619	14994
871.749	14986
871.879	14979
872.008	15119
872.138	14979
872.267	14937
872.397	14823
872.526	14781
872.656	14796
872.785	14876
872.915	14941
873.044	15043
873.173	15001
873.303	15051
873.432	15017
873.561	15062
873.69	14998
873.819	15157
873.948	15089
874.077	15055
874.206	14941
874.335	15070
874.464	15233
874.593	15344
874.722	15226
874.851	15412
874.979	15313
875.108	15416
875.237	15272
875.365	15233
875.494	15359
875.623	15439
875.751	15264
875.88	15268
876.008	15462
876.136	15591
876.265	15675
876.393	15838
876.521	15857
876.65	15857
876.778	15781
876.906	15743
877.034	15652
877.162	15850
877.29	15667
877.418	15652
877.546	15762
877.674	15739
877.802	15728
877.93	15854
878.058	15720
878.185	15614
878.313	15781
878.441	15705
878.568	15568
878.696	15709
878.824	15724
878.951	15831
879.079	15968
879.206	15983
879.333	15854
879.461	15873
879.588	15888
879.715	15994
879.842	15960
879.97	15770
880.097	15591
880.224	15675
880.351	15606
880.478	15618
880.605	15576
880.732	15584
880.859	15819
880.986	15591
881.112	15641
881.239	15466
881.366	15428
881.493	15245
881.619	15298
881.746	15245
881.872	15256
881.999	15249
882.125	15222
882.252	15389
882.378	15302
882.505	15325
882.631	15214
882.757	15112
882.883	15226
883.01	15062
883.136	15058
883.262	14944
883.388	14883
883.514	15017
883.64	15119
883.766	14986
883.892	14986
884.018	14975
884.143	15047
884.269	15138
884.395	14830
884.52	14796
884.646	14762
884.772	14598
884.897	14674
885.023	14815
885.148	14899
885.274	14998
885.399	14910
885.524	14815
885.65	14731
885.775	14804
885.9	14823
886.025	14891
886.15	14925
886.275	14750
886.4	14670
886.525	14765
886.65	14670
886.775	14648
886.9	14956
887.025	14975
887.149	14811
887.274	14617
887.399	14575
887.523	14575
887.648	14545
887.773	14571
887.897	14594
888.021	14701
888.146	14629
888.27	14659
888.395	14754
888.519	14708
888.643	14571
888.767	14636
888.891	14568
889.015	14454
889.139	14518
889.263	14522
889.387	14545
889.511	14629
889.635	14674
889.759	14419
889.883	14355
890.006	14518
890.13	14629
890.254	14381
890.377	14473
890.501	14240
890.624	14244
890.748	14393
890.871	14202
890.995	14172
891.118	14050
891.241	14225
891.364	14248
891.488	14309
891.611	14134
891.734	14119
891.857	14275
891.98	14134
892.103	14202
892.226	14240
892.349	14309
892.471	14016
892.594	14123
892.717	14126
892.839	14077
892.962	14149
893.085	14183
893.207	14180
893.33	14020
893.452	14081
893.575	14199
893.697	14123
893.819	14457
893.941	14393
894.064	14385
894.186	14084
894.308	14062
894.43	14195
894.552	14385
894.674	14347
894.796	14183
894.918	14145
895.04	14263
895.161	14267
895.283	14191
895.405	14130
895.526	14271
895.648	14355
895.769	14385
895.891	14286
896.012	14484
896.134	14343
896.255	14347
896.376	14396
896.498	14324
896.619	14412
896.74	14374
896.861	14419
896.982	14644
897.103	14754
897.224	14632
897.345	14541
897.466	14556
897.587	14560
897.708	14708
897.828	14636
897.949	14727
898.07	14457
898.19	14670
898.311	14697
898.431	14651
898.552	14712
898.672	14762
898.792	14727
898.913	14724
899.033	14610
899.153	14492
899.273	14450
899.393	14488
899.513	14575
899.633	14541
899.753	14541
899.873	14469
899.993	14648
900.113	14454
900.232	14659
900.352	14461
900.472	14511
900.591	14332
900.711	14377
900.83	14446
900.95	14480
901.069	14526
901.189	14298
901.308	14142
901.427	14149
901.546	14084
901.665	14035
901.784	14142
901.904	14016
902.023	13830
902.141	13685
902.26	13575
902.379	13788
902.498	13689
902.617	13575
902.735	13693
902.854	13582
902.973	13586
903.091	13369
903.21	13384
903.328	13331
903.446	13266
903.565	13251
903.683	13236
903.801	13217
903.919	13061
904.038	13179
904.156	13046
904.274	13122
904.392	12989
904.51	13015
904.627	13004
904.745	13031
904.863	13137
904.981	12825
905.098	12726
905.216	12700
905.334	12726
905.451	12696
905.569	12806
905.686	12741
905.803	12684
905.921	12509
906.038	12578
906.155	12555
906.272	12483
906.389	12452
906.506	12300
906.623	12296
906.74	12285
906.857	12186
906.974	12148
907.091	12346
907.208	12403
907.324	12350
907.441	12144
907.557	11999
907.674	12022
907.79	11942
907.907	11965
908.023	12152
908.139	12098
908.256	12003
908.372	11980
908.488	11931
908.604	11832
908.72	11741
908.836	11798
908.952	11752
909.068	11737
909.184	11851
909.3	11851
909.415	11840
909.531	11954
909.647	11566
909.762	11619
909.878	11642
909.993	11600
910.108	11589
910.224	11543
910.339	11516
910.454	11486
910.57	11440
910.685	11315
910.8	11684
910.915	11619
911.03	11471
911.145	11315
911.259	11250
911.374	11227
911.489	11284
911.604	11170
911.718	11083
911.833	11045
911.947	10858
912.062	10873
912.176	11033
912.291	11041
912.405	11041
912.519	11258
912.633	11235
912.748	11033
912.862	11033
912.976	10904
913.09	10801
913.204	10915
913.318	10911
913.431	10999
913.545	10995
913.659	11067
913.772	10862
913.886	10828
914	10755
914.113	10934
914.226	10869
914.34	10911
914.453	10736
914.566	10866
914.68	10752
914.793	10782
914.906	10565
915.019	10493
915.132	10421
915.245	10432
915.358	10599
915.47	10580
915.583	10519
915.696	10649
915.809	10687
915.921	10653
916.034	10481
916.146	10493
916.259	10382
916.371	10584
916.483	10573
916.595	10421
916.708	10596
916.82	10504
916.932	10443
917.044	10440
917.156	10504
917.268	10394
917.38	10386
917.491	10341
917.603	10394
917.715	10451
917.826	10508
917.938	10394
918.049	10246
918.161	10348
918.272	10497
918.384	10424
918.495	10405
918.606	10257
918.717	10128
918.828	10246
918.939	10265
919.05	10143
919.161	10219
919.272	10063
919.383	10097
919.494	10333
919.604	10413
919.715	10246
919.826	10261
919.936	10211
920.047	10246
920.157	10303
920.267	10470
920.378	10348
920.488	10223
920.598	10478
920.708	10592
920.818	10466
920.928	10489
921.038	10683
921.148	10500
921.258	10390
921.368	10287
921.477	10093
921.587	10101
921.697	9960
921.806	10207
921.916	10002
922.025	9838
922.134	9770
922.244	9819
922.353	9899
922.462	9736
922.571	9599
922.68	9500
922.789	9534
922.898	9500
923.007	9431
923.116	9576
923.224	9549
923.333	9485
923.442	9401
923.55	9287
923.659	9500
923.767	9431
923.876	9329
923.984	9469
924.092	9367
924.201	9344
924.309	9382
924.417	9408
924.525	9382
924.633	9386
924.741	10287
924.849	9108
924.956	9332
925.064	9180
925.172	9104
925.279	9116
925.387	9214
925.494	9188
925.602	9298
925.709	9203
925.816	9097
925.924	9192
926.031	9317
926.138	9176
926.245	9291
926.352	9074
926.459	9207
926.566	9340
926.673	9127
926.779	9036
926.886	8979
926.993	8910
927.099	8876
927.206	8830
927.312	8861
927.419	8895
927.525	8910
927.631	8941
927.737	8788
927.843	8712
927.95	8678
928.056	8746
928.162	8766
928.267	8849
928.373	9336
928.479	8887
928.585	8571
928.69	8720
928.796	8777
928.901	8724
929.007	8492
929.112	8678
929.218	8579
929.323	8651
929.428	8610
929.533	8697
929.638	8511
929.743	8552
929.848	8640
929.953	8610
930.058	8492
930.163	8282
930.267	8358
930.372	8495
930.477	8324
930.581	8522
930.685	8469
930.79	8279
930.894	8309
930.998	8290
931.103	8461
931.207	8153
931.311	8043
931.415	8012
931.519	7792
931.623	7761
