Data from test_V78500241_448.txt Node
Date: Fri Mar 25 14:36:50 CST 2022
User: usil
Spectrometer: V785-0024
Trigger mode: 0
Integration Time (sec): 4.000000E-1
Scans to average: 1
Nonlinearity correction enabled: false
Boxcar width: 0
Storing dark spectrum: false
XAxis mode: Wavelengths
Number of Pixels in Spectrum: 1024
>>>>>Begin Spectral Data<<<<<
801.071	26473
801.214	26434
801.356	26229
801.499	26142
801.641	26031
801.783	25986
801.926	26103
802.068	25860
802.211	25811
802.353	25742
802.496	25559
802.638	25529
802.78	25537
802.923	25472
803.065	25453
803.208	25597
803.35	25586
803.492	25537
803.635	25594
803.777	25506
803.919	25597
804.061	25868
804.204	25487
804.346	25643
804.488	25339
804.63	25445
804.773	25392
804.915	25430
805.057	25723
805.199	25426
805.341	25483
805.483	25647
805.626	25559
805.768	25483
805.91	25586
806.052	25445
806.194	25384
806.336	25811
806.478	25457
806.62	25499
806.762	25712
806.904	25670
807.046	26005
807.188	25791
807.33	25890
807.472	26008
807.614	25708
807.756	25879
807.898	25715
808.04	25567
808.182	25772
808.324	25616
808.465	25666
808.607	25666
808.749	25818
808.891	26050
809.033	26134
809.174	26039
809.316	25940
809.458	26084
809.6	25951
809.741	26001
809.883	25970
810.025	26237
810.166	26138
810.308	26244
810.45	26168
810.591	26103
810.733	25993
810.875	25936
811.016	25655
811.158	25795
811.299	25807
811.441	25833
811.582	25925
811.724	25791
811.865	25841
812.007	25780
812.148	25818
812.29	25902
812.431	25894
812.573	26043
812.714	26180
812.855	26332
812.997	26442
813.138	26655
813.279	26267
813.421	26214
813.562	26343
813.703	26077
813.845	25989
813.986	25742
814.127	25518
814.268	25430
814.41	25510
814.551	25362
814.692	25403
814.833	25316
814.974	25293
815.115	25419
815.256	25160
815.397	25228
815.539	25251
815.68	25190
815.821	25137
815.962	25213
816.103	25053
816.244	24901
816.385	24817
816.526	24913
816.666	24585
816.807	24479
816.948	24650
817.089	24669
817.23	24502
817.371	24475
817.512	24494
817.653	24479
817.793	24433
817.934	24395
818.075	24570
818.216	24547
818.356	24460
818.497	24395
818.638	24182
818.778	24239
818.919	24091
819.06	24285
819.2	24201
819.341	24566
819.481	24330
819.622	24589
819.762	24734
819.903	24517
820.043	24574
820.184	24513
820.324	24585
820.465	24563
820.605	24578
820.746	24494
820.886	24399
821.026	24483
821.167	24395
821.307	24608
821.447	24372
821.588	24346
821.728	24273
821.868	24053
822.008	23726
822.149	23821
822.289	23821
822.429	23608
822.569	23539
822.709	23558
822.849	23341
822.99	23379
823.13	23197
823.27	23303
823.41	23132
823.55	23056
823.69	23117
823.83	23105
823.97	23067
824.11	22850
824.25	22767
824.389	22889
824.529	22904
824.669	22869
824.809	22991
824.949	22934
825.089	22873
825.228	22889
825.368	22744
825.508	22740
825.648	22831
825.787	22767
825.927	22653
826.067	22546
826.206	22679
826.346	22645
826.485	22653
826.625	22653
826.765	22694
826.904	22725
827.044	22459
827.183	22535
827.323	22200
827.462	22375
827.601	22162
827.741	22207
827.88	22280
828.02	22200
828.159	22272
828.298	22390
828.437	22325
828.577	22333
828.716	22341
828.855	22303
828.994	21994
829.134	21941
829.273	22097
829.412	21922
829.551	21949
829.69	21964
829.829	22074
829.968	22177
830.107	22074
830.246	22055
830.385	22067
830.524	21953
830.663	21831
830.802	21838
830.941	21618
831.08	21633
831.219	21656
831.357	21751
831.496	21949
831.635	21538
831.774	21424
831.913	21481
832.051	21397
832.19	21264
832.329	21325
832.467	21374
832.606	21207
832.744	21344
832.883	21192
833.022	21275
833.16	21233
833.299	21245
833.437	21355
833.576	21321
833.714	21214
833.852	21241
833.991	21351
834.129	21393
834.267	21249
834.406	21298
834.544	21275
834.682	21291
834.821	21344
834.959	21351
835.097	21237
835.235	21279
835.373	21260
835.511	21260
835.65	21100
835.788	21017
835.926	20929
836.064	20963
836.202	20998
836.34	21173
836.478	21279
836.615	21047
836.753	21104
836.891	21157
837.029	21100
837.167	21085
837.305	21112
837.443	20918
837.58	20982
837.718	21108
837.856	20895
837.993	20887
838.131	21013
838.269	20720
838.406	20861
838.544	20826
838.681	20533
838.819	20549
838.956	20503
839.094	20446
839.231	20560
839.369	20606
839.506	20819
839.643	20701
839.781	20465
839.918	20385
840.055	20415
840.193	20358
840.33	20339
840.467	20381
840.604	20355
840.742	20625
840.879	20164
841.016	20244
841.153	20240
841.29	20396
841.427	20267
841.564	20370
841.701	20328
841.838	20301
841.975	20134
842.112	20202
842.249	20107
842.385	19978
842.522	20271
842.659	20138
842.796	20046
842.933	20077
843.069	20031
843.206	19970
843.343	20111
843.479	20134
843.616	19986
843.752	19833
843.889	19925
844.025	19970
844.162	19784
844.298	19959
844.435	19811
844.571	19715
844.708	19818
844.844	19963
844.98	19955
845.117	19784
845.253	19708
845.389	19643
845.525	19639
845.661	19689
845.798	19575
845.934	19605
846.07	19590
846.206	19586
846.342	19780
846.478	19662
846.614	19392
846.75	19384
846.886	19327
847.022	19377
847.158	19137
847.294	19373
847.429	19304
847.565	19320
847.701	19533
847.837	18981
847.972	18951
848.108	19137
848.244	19126
848.379	18920
848.515	18901
848.65	18840
848.786	18772
848.921	18928
849.057	18947
849.192	18913
849.328	18798
849.463	18840
849.598	18859
849.734	18859
849.869	18719
850.004	18589
850.14	18559
850.275	18585
850.41	18460
850.545	18627
850.68	18612
850.815	18479
850.95	18532
851.085	18604
851.22	18722
851.355	18585
851.49	18471
851.625	18555
851.76	18517
851.895	18437
852.03	18464
852.165	18467
852.299	18517
852.434	18681
852.569	18502
852.703	18513
852.838	18555
852.973	18623
853.107	18669
853.242	18467
853.376	18429
853.511	18254
853.645	18289
853.78	18566
853.914	18426
854.048	18384
854.183	18357
854.317	18452
854.451	18608
854.585	18407
854.72	18277
854.854	18388
854.988	18315
855.122	18361
855.256	18323
855.39	18426
855.524	18407
855.658	18563
855.792	18410
855.926	18483
856.06	18361
856.194	18525
856.327	18395
856.461	18296
856.595	18296
856.729	18369
856.862	18559
856.996	18270
857.13	18403
857.263	18429
857.397	18445
857.53	18304
857.664	18448
857.797	18448
857.931	18494
858.064	18395
858.197	18441
858.331	18251
858.464	18300
858.597	18281
858.731	18380
858.864	18388
858.997	18235
859.13	18380
859.263	18407
859.396	18384
859.529	18311
859.662	18330
859.795	18213
859.928	18365
860.061	18536
860.194	18475
860.327	18433
860.46	18346
860.592	18456
860.725	18399
860.858	18407
860.99	18353
861.123	18220
861.256	18235
861.388	18330
861.521	19122
861.653	18296
861.786	18114
861.918	18315
862.05	18353
862.183	18350
862.315	18407
862.447	18544
862.58	18426
862.712	18159
862.844	18064
862.976	18136
863.108	18110
863.24	18426
863.372	17980
863.504	18106
863.636	18079
863.768	18194
863.9	18045
864.032	18022
864.164	18057
864.296	18091
864.428	18174
864.559	18110
864.691	18041
864.823	18068
864.954	17988
865.086	18026
865.217	17973
865.349	17882
865.48	17901
865.612	17935
865.743	18076
865.875	17965
866.006	17889
866.137	17908
866.269	18003
866.4	17996
866.531	17935
866.662	17859
866.793	18003
866.924	17965
867.055	17901
867.186	17935
867.317	17897
867.448	17714
867.579	17863
867.71	17843
867.841	17885
867.972	17882
868.103	17840
868.233	18041
868.364	17927
868.495	17988
868.625	18117
868.756	18228
868.886	18057
869.017	18060
869.147	18243
869.278	18308
869.408	18125
869.539	18228
869.669	18190
869.799	18117
869.929	18197
870.06	18350
870.19	18467
870.32	18452
870.45	18426
870.58	18471
870.71	18639
870.84	18616
870.97	18650
871.1	18601
871.23	18757
871.36	18715
871.489	18639
871.619	18722
871.749	18726
871.879	18776
872.008	18833
872.138	18707
872.267	18760
872.397	18604
872.526	18536
872.656	18471
872.785	18559
872.915	18722
873.044	18779
873.173	18768
873.303	18817
873.432	18909
873.561	18852
873.69	18779
873.819	18776
873.948	18810
874.077	18817
874.206	18776
874.335	18833
874.464	18951
874.593	19095
874.722	19019
874.851	19103
874.979	19000
875.108	19221
875.237	19053
875.365	18989
875.494	19076
875.623	19042
875.751	19038
875.88	19031
876.008	19179
876.136	19213
876.265	19422
876.393	19632
876.521	19628
876.65	19533
876.778	19400
876.906	19396
877.034	19419
877.162	19480
877.29	19346
877.418	19434
877.546	19419
877.674	19480
877.802	19571
877.93	19358
878.058	19472
878.185	19259
878.313	19464
878.441	19449
878.568	19320
878.696	19422
878.824	19460
878.951	19468
879.079	19685
879.206	19738
879.333	19696
879.461	19529
879.588	19544
879.715	19780
879.842	19799
879.97	19491
880.097	19247
880.224	19308
880.351	19388
880.478	19331
880.605	19278
880.732	19350
880.859	19594
880.986	19346
881.112	19419
881.239	19206
881.366	19042
881.493	18943
881.619	18894
881.746	18977
881.872	18981
881.999	18844
882.125	18821
882.252	18920
882.378	18909
882.505	19046
882.631	18928
882.757	18639
882.883	18856
883.01	18555
883.136	18574
883.262	18608
883.388	18555
883.514	18620
883.64	18806
883.766	18677
883.892	18471
884.018	18486
884.143	18734
884.269	18707
884.395	18403
884.52	18388
884.646	18407
884.772	18338
884.897	18273
885.023	18239
885.148	18528
885.274	18486
885.399	18502
885.524	18285
885.65	18270
885.775	18311
885.9	18399
886.025	18479
886.15	18490
886.275	18357
886.4	18232
886.525	18262
886.65	18243
886.775	18155
886.9	18346
887.025	18631
887.149	18342
887.274	18209
887.399	18144
887.523	18098
887.648	18011
887.773	17984
887.897	18114
888.021	18209
888.146	18045
888.27	18095
888.395	18205
888.519	18121
888.643	18053
888.767	18068
888.891	18038
889.015	17882
889.139	17897
889.263	17855
889.387	17988
889.511	18007
889.635	17992
889.759	17942
889.883	17950
890.006	17920
890.13	17927
890.254	17783
890.377	17878
890.501	17672
890.624	17589
890.748	17585
890.871	17634
890.995	17604
891.118	17433
891.241	17691
891.364	17566
891.488	17672
891.611	17592
891.734	17516
891.857	17642
891.98	17570
892.103	17528
892.226	17551
892.349	17520
892.471	17440
892.594	17619
892.717	17566
892.839	17440
892.962	17429
893.085	17581
893.207	17387
893.33	17425
893.452	17463
893.575	17619
893.697	17486
893.819	17714
893.941	17737
894.064	17634
894.186	17307
894.308	17398
894.43	17524
894.552	17619
894.674	17653
894.796	17440
894.918	17467
895.04	17532
895.161	17478
895.283	17661
895.405	17535
895.526	17577
895.648	17455
895.769	17554
895.891	17581
896.012	17532
896.134	17608
896.255	17535
896.376	17532
896.498	17703
896.619	17604
896.74	17615
896.861	17687
896.982	18007
897.103	18079
897.224	17901
897.345	17817
897.466	17851
897.587	17836
897.708	17942
897.828	17779
897.949	17813
898.07	17710
898.19	17790
898.311	17935
898.431	17748
898.552	17843
898.672	17821
898.792	17935
898.913	17897
899.033	17699
899.153	17710
899.273	17505
899.393	17497
899.513	17642
899.633	17505
899.753	17524
899.873	17444
899.993	17558
900.113	17501
900.232	17467
900.352	17478
900.472	17387
900.591	17345
900.711	17455
900.83	17353
900.95	17543
901.069	17585
901.189	17368
901.308	17117
901.427	16999
901.546	17018
901.665	16942
901.784	17071
901.904	16881
902.023	16850
902.141	16679
902.26	16531
902.379	16599
902.498	16538
902.617	16565
902.735	16550
902.854	16550
902.973	16535
903.091	16299
903.21	16230
903.328	16348
903.446	16185
903.565	16116
903.683	16204
903.801	15930
903.919	16082
904.038	16006
904.156	15873
904.274	15983
904.392	15960
904.51	15778
904.627	15857
904.745	15823
904.863	15987
904.981	15648
905.098	15458
905.216	15595
905.334	15507
905.451	15549
905.569	15576
905.686	15526
905.803	15488
905.921	15359
906.038	15424
906.155	15336
906.272	15192
906.389	15207
906.506	15074
906.623	15127
906.74	15104
906.857	14990
906.974	15047
907.091	15097
907.208	15367
907.324	15108
907.441	14948
907.557	14960
907.674	14792
907.79	14796
907.907	14773
908.023	14876
908.139	14861
908.256	14655
908.372	14674
908.488	14743
908.604	14583
908.72	14454
908.836	14476
908.952	14442
909.068	14450
909.184	14526
909.3	14526
909.415	14465
909.531	14533
909.647	14267
909.762	14202
909.878	14240
909.993	14229
910.108	14240
910.224	14096
910.339	14221
910.454	14088
910.57	13967
910.685	13974
910.8	14324
910.915	14138
911.03	14069
911.145	13894
911.259	13906
911.374	13898
911.489	13727
911.604	13769
911.718	13609
911.833	13742
911.947	13491
912.062	13407
912.176	13601
912.291	13529
912.405	13487
912.519	13791
912.633	13727
912.748	13712
912.862	13662
912.976	13518
913.09	13285
913.204	13460
913.318	13358
913.431	13540
913.545	13544
913.659	13514
913.772	13403
913.886	13251
914	13149
914.113	13308
914.226	13411
914.34	13343
914.453	13198
914.566	13304
914.68	13251
914.793	13145
914.906	13015
915.019	12916
915.132	12916
915.245	12901
915.358	13023
915.47	13019
915.583	12954
915.696	12981
915.809	13118
915.921	13080
916.034	12924
916.146	12970
916.259	12856
916.371	12837
916.483	12878
916.595	12722
916.708	12814
916.82	12825
916.932	12795
917.044	12848
917.156	12753
917.268	12745
917.38	12673
917.491	12665
917.603	12589
917.715	12715
917.826	12814
917.938	12593
918.049	12532
918.161	12700
918.272	12711
918.384	12749
918.495	12738
918.606	12555
918.717	12502
918.828	12521
918.939	12555
919.05	12403
919.161	12388
919.272	12197
919.383	12403
919.494	12433
919.604	12639
919.715	12372
919.826	12391
919.936	12369
920.047	12525
920.157	12399
920.267	12601
920.378	12532
920.488	12395
920.598	12639
920.708	12726
920.818	12532
920.928	12631
921.038	12783
921.148	12692
921.258	12456
921.368	12407
921.477	12251
921.587	12273
921.697	12079
921.806	12277
921.916	12110
922.025	11992
922.134	11920
922.244	11843
922.353	11965
922.462	11748
922.571	11756
922.68	11539
922.789	11516
922.898	11535
923.007	11417
923.116	11570
923.224	11471
923.333	11512
923.442	11448
923.55	11436
923.659	11398
923.767	11520
923.876	11353
923.984	11436
924.092	11246
924.201	11383
924.309	11277
924.417	11330
924.525	11299
924.633	11360
924.741	12270
924.849	11102
924.956	11284
925.064	11159
925.172	11121
925.279	11037
925.387	11174
925.494	11102
925.602	11136
925.709	11083
925.816	11064
925.924	11132
926.031	11162
926.138	11067
926.245	11128
926.352	11048
926.459	11071
926.566	11140
926.673	10984
926.779	10930
926.886	10873
926.993	10793
927.099	10778
927.206	10721
927.312	10694
927.419	10774
927.525	10710
927.631	10763
927.737	10683
927.843	10618
927.95	10478
928.056	10641
928.162	10527
928.267	10649
928.373	11254
928.479	10637
928.585	10474
928.69	10615
928.796	10618
928.901	10508
929.007	10390
929.112	10459
929.218	10398
929.323	10371
929.428	10402
929.533	10447
929.638	10344
929.743	10375
929.848	10379
929.953	10284
930.058	10306
930.163	10112
930.267	10063
930.372	10261
930.477	10116
930.581	10291
930.685	10143
930.79	10025
930.894	10093
930.998	9975
931.103	10101
931.207	9740
931.311	9724
931.415	9671
931.519	9382
931.623	9420
