Data from test_V78500241_2157.txt Node
Date: Fri Mar 25 14:48:43 CST 2022
User: usil
Spectrometer: V785-0024
Trigger mode: 0
Integration Time (sec): 4.000000E-1
Scans to average: 1
Nonlinearity correction enabled: false
Boxcar width: 0
Storing dark spectrum: false
XAxis mode: Wavelengths
Number of Pixels in Spectrum: 1024
>>>>>Begin Spectral Data<<<<<
801.071	22139
801.214	22120
801.356	21842
801.499	21762
801.641	21606
801.783	21553
801.926	21682
802.068	21477
802.211	21492
802.353	21237
802.496	21150
802.638	21043
802.78	21112
802.923	21001
803.065	20861
803.208	20891
803.35	20921
803.492	20929
803.635	21055
803.777	20933
803.919	21055
804.061	21249
804.204	20998
804.346	20845
804.488	20838
804.63	20941
804.773	20807
804.915	20842
805.057	20941
805.199	20902
805.341	20979
805.483	20933
805.626	21096
805.768	20762
805.91	20868
806.052	20724
806.194	20720
806.336	21020
806.478	20701
806.62	20830
806.762	20944
806.904	21207
807.046	21214
807.188	21131
807.33	21226
807.472	21279
807.614	21051
807.756	21043
807.898	20982
808.04	20891
808.182	20811
808.324	20952
808.465	20891
808.607	21001
808.749	21336
808.891	21256
809.033	21386
809.174	21348
809.316	21237
809.458	21192
809.6	21252
809.741	21325
809.883	21226
810.025	21435
810.166	21401
810.308	21405
810.45	21302
810.591	21279
810.733	21066
810.875	21093
811.016	21036
811.158	20929
811.299	20975
811.441	21211
811.582	21100
811.724	20971
811.865	20941
812.007	20990
812.148	20925
812.29	21047
812.431	21138
812.573	21230
812.714	21386
812.855	21367
812.997	21523
813.138	21766
813.279	21603
813.421	21405
813.562	21450
813.703	21310
813.845	21131
813.986	20785
814.127	20701
814.268	20640
814.41	20511
814.551	20511
814.692	20617
814.833	20473
814.974	20564
815.115	20473
815.256	20301
815.397	20374
815.539	20317
815.68	20275
815.821	20202
815.962	20244
816.103	20298
816.244	20107
816.385	20130
816.526	19978
816.666	19856
816.807	19807
816.948	19753
817.089	19727
817.23	19837
817.371	19624
817.512	19712
817.653	19624
817.793	19605
817.934	19753
818.075	19639
818.216	19674
818.356	19544
818.497	19434
818.638	19293
818.778	19331
818.919	19335
819.06	19209
819.2	19384
819.341	19480
819.481	19499
819.622	19719
819.762	19906
819.903	19791
820.043	19677
820.184	19674
820.324	19715
820.465	19651
820.605	19674
820.746	19613
820.886	19396
821.026	19616
821.167	19567
821.307	19700
821.447	19540
821.588	19441
821.728	19358
821.868	19221
822.008	19046
822.149	19175
822.289	18958
822.429	18795
822.569	18719
822.709	18791
822.849	18540
822.99	18506
823.13	18536
823.27	18452
823.41	18330
823.55	18144
823.69	18426
823.83	18429
823.97	18296
824.11	18163
824.25	18041
824.389	18110
824.529	18243
824.669	18041
824.809	18197
824.949	18178
825.089	18163
825.228	18201
825.368	17908
825.508	17931
825.648	17840
825.787	17992
825.927	17931
826.067	17805
826.206	17920
826.346	18022
826.485	17965
826.625	17764
826.765	18022
826.904	17954
827.044	17760
827.183	17646
827.323	17562
827.462	17676
827.601	17520
827.741	17554
827.88	17509
828.02	17436
828.159	17440
828.298	17520
828.437	17520
828.577	17490
828.716	17729
828.855	17562
828.994	17330
829.134	17395
829.273	17273
829.412	17299
829.551	17197
829.69	17296
829.829	17383
829.968	17486
830.107	17261
830.246	17303
830.385	17204
830.524	17254
830.663	17181
830.802	17155
830.941	16968
831.08	16953
831.219	17003
831.357	17022
831.496	17204
831.635	16858
831.774	16854
831.913	16828
832.051	16744
832.19	16672
832.329	16790
832.467	16653
832.606	16580
832.744	16592
832.883	16656
833.022	16615
833.16	16687
833.299	16713
833.437	16596
833.576	16694
833.714	16653
833.852	16698
833.991	16683
834.129	16767
834.267	16778
834.406	16736
834.544	16805
834.682	16744
834.821	16793
834.959	16828
835.097	16691
835.235	16744
835.373	16687
835.511	16702
835.65	16664
835.788	16512
835.926	16459
836.064	16470
836.202	16455
836.34	16580
836.478	16573
836.615	16584
836.753	16550
836.891	16607
837.029	16660
837.167	16580
837.305	16542
837.443	16481
837.58	16394
837.718	16459
837.856	16542
837.993	16341
838.131	16474
838.269	16394
838.406	16367
838.544	16299
838.681	16169
838.819	16135
838.956	15953
839.094	15994
839.231	15987
839.369	16025
839.506	16352
839.643	16185
839.781	16029
839.918	15949
840.055	15964
840.193	15968
840.33	15941
840.467	16063
840.604	16109
840.742	16112
840.879	15819
841.016	15918
841.153	15884
841.29	16124
841.427	16063
841.564	15956
841.701	16029
841.838	15915
841.975	15937
842.112	15964
842.249	15800
842.385	15705
842.522	16002
842.659	15785
842.796	15739
842.933	15739
843.069	15808
843.206	15739
843.343	15819
843.479	15724
843.616	15816
843.752	15576
843.889	15606
844.025	15625
844.162	15660
844.298	15724
844.435	15561
844.571	15553
844.708	15644
844.844	15660
844.98	15675
845.117	15705
845.253	15507
845.389	15488
845.525	15477
845.661	15526
845.798	15405
845.934	15393
846.07	15355
846.206	15340
846.342	15443
846.478	15378
846.614	15214
846.75	15116
846.886	15108
847.022	15256
847.158	15119
847.294	15142
847.429	15184
847.565	15135
847.701	15370
847.837	14880
847.972	14941
848.108	15024
848.244	14956
848.379	14701
848.515	14689
848.65	14617
848.786	14648
848.921	14807
849.057	14762
849.192	14861
849.328	14746
849.463	14788
849.598	14735
849.734	14644
849.869	14575
850.004	14537
850.14	14484
850.275	14514
850.41	14328
850.545	14450
850.68	14530
850.815	14419
850.95	14423
851.085	14571
851.22	14625
851.355	14473
851.49	14442
851.625	14488
851.76	14518
851.895	14358
852.03	14389
852.165	14476
852.299	14507
852.434	14610
852.569	14514
852.703	14514
852.838	14648
852.973	14651
853.107	14598
853.242	14503
853.376	14454
853.511	14301
853.645	14355
853.78	14545
853.914	14385
854.048	14347
854.183	14415
854.317	14305
854.451	14499
854.585	14423
854.72	14336
854.854	14419
854.988	14298
855.122	14400
855.256	14153
855.39	14286
855.524	14556
855.658	14419
855.792	14381
855.926	14412
856.06	14336
856.194	14560
856.327	14400
856.461	14358
856.595	14339
856.729	14381
856.862	14503
856.996	14400
857.13	14495
857.263	14511
857.397	14473
857.53	14438
857.664	14423
857.797	14457
857.931	14454
858.064	14450
858.197	14564
858.331	14339
858.464	14332
858.597	14332
858.731	14434
858.864	14343
858.997	14396
859.13	14412
859.263	14457
859.396	14442
859.529	14332
859.662	14412
859.795	14347
859.928	14347
860.061	14495
860.194	14556
860.327	14396
860.46	14343
860.592	14499
860.725	14492
860.858	14492
860.99	14503
861.123	14301
861.256	14278
861.388	14408
861.521	15077
861.653	14237
861.786	14161
861.918	14305
862.05	14267
862.183	14259
862.315	14431
862.447	14446
862.58	14275
862.712	14145
862.844	14092
862.976	14233
863.108	14206
863.24	14492
863.372	14065
863.504	14134
863.636	14172
863.768	14145
863.9	14039
864.032	14153
864.164	14142
864.296	14199
864.428	14218
864.559	14202
864.691	14263
864.823	14218
864.954	14233
865.086	14252
865.217	14168
865.349	14058
865.48	14168
865.612	14153
865.743	14191
865.875	14119
866.006	14161
866.137	14183
866.269	14191
866.4	14115
866.531	14050
866.662	14050
866.793	14119
866.924	14088
867.055	14176
867.186	14084
867.317	14077
867.448	14073
867.579	14088
867.71	14031
867.841	14062
867.972	14240
868.103	14134
868.233	14176
868.364	14130
868.495	14191
868.625	14351
868.756	14415
868.886	14294
869.017	14332
869.147	14511
869.278	14590
869.408	14454
869.539	14446
869.669	14499
869.799	14469
869.929	14404
870.06	14492
870.19	14750
870.32	14777
870.45	14670
870.58	14735
870.71	14952
870.84	14948
870.97	14899
871.1	14914
871.23	14902
871.36	15001
871.489	14883
871.619	14921
871.749	15017
871.879	15017
872.008	15157
872.138	15013
872.267	14982
872.397	14880
872.526	14826
872.656	14720
872.785	14895
872.915	15013
873.044	15165
873.173	15024
873.303	15089
873.432	15062
873.561	15161
873.69	14971
873.819	14967
873.948	15127
874.077	15028
874.206	15024
874.335	15108
874.464	15222
874.593	15462
874.722	15313
874.851	15401
874.979	15325
875.108	15408
875.237	15294
875.365	15192
875.494	15367
875.623	15302
875.751	15329
875.88	15435
876.008	15469
876.136	15549
876.265	15804
876.393	15884
876.521	15880
876.65	15835
876.778	15880
876.906	15812
877.034	15720
877.162	15846
877.29	15698
877.418	15686
877.546	15861
877.674	15743
877.802	15755
877.93	15789
878.058	15709
878.185	15682
878.313	15724
878.441	15739
878.568	15595
878.696	15644
878.824	15819
878.951	15922
879.079	15991
879.206	16192
879.333	15797
879.461	15804
879.588	15778
879.715	15964
879.842	15987
879.97	15949
880.097	15606
880.224	15633
880.351	15606
880.478	15644
880.605	15618
880.732	15610
880.859	15915
880.986	15587
881.112	15660
881.239	15564
881.366	15431
881.493	15245
881.619	15226
881.746	15355
881.872	15291
881.999	15226
882.125	15249
882.252	15355
882.378	15302
882.505	15462
882.631	15161
882.757	15108
882.883	15146
883.01	15119
883.136	15108
883.262	14982
883.388	14914
883.514	15131
883.64	15222
883.766	15013
883.892	14887
884.018	14853
884.143	15157
884.269	15093
884.395	14845
884.52	14746
884.646	14769
884.772	14739
884.897	14701
885.023	14720
885.148	14834
885.274	14948
885.399	14979
885.524	14765
885.65	14754
885.775	14796
885.9	14815
886.025	14906
886.15	14902
886.275	14727
886.4	14678
886.525	14705
886.65	14682
886.775	14708
886.9	14925
887.025	14979
887.149	14849
887.274	14670
887.399	14663
887.523	14552
887.648	14541
887.773	14514
887.897	14636
888.021	14746
888.146	14556
888.27	14651
888.395	14800
888.519	14739
888.643	14724
888.767	14739
888.891	14571
889.015	14469
889.139	14533
889.263	14473
889.387	14495
889.511	14659
889.635	14587
889.759	14412
889.883	14476
890.006	14549
890.13	14552
890.254	14275
890.377	14423
890.501	14282
890.624	14362
890.748	14324
890.871	14267
890.995	14153
891.118	14096
891.241	14149
891.364	14191
891.488	14332
891.611	14145
891.734	14168
891.857	14210
891.98	14202
892.103	14275
892.226	14282
892.349	14138
892.471	14039
892.594	14187
892.717	14301
892.839	14138
892.962	14168
893.085	14244
893.207	14221
893.33	14054
893.452	14084
893.575	14271
893.697	14172
893.819	14408
893.941	14393
894.064	14271
894.186	14157
894.308	14164
894.43	14259
894.552	14469
894.674	14317
894.796	14130
894.918	14252
895.04	14218
895.161	14396
895.283	14381
895.405	14301
895.526	14339
895.648	14347
895.769	14385
895.891	14290
896.012	14381
896.134	14431
896.255	14355
896.376	14374
896.498	14324
896.619	14434
896.74	14427
896.861	14423
896.982	14735
897.103	14826
897.224	14602
897.345	14579
897.466	14503
897.587	14598
897.708	14731
897.828	14632
897.949	14556
898.07	14556
898.19	14549
898.311	14724
898.431	14701
898.552	14659
898.672	14864
898.792	14762
898.913	14762
899.033	14727
899.153	14613
899.273	14408
899.393	14473
899.513	14541
899.633	14423
899.753	14708
899.873	14530
899.993	14522
900.113	14537
900.232	14476
900.352	14450
900.472	14507
900.591	14339
900.711	14400
900.83	14377
900.95	14526
901.069	14617
901.189	14355
901.308	14134
901.427	14054
901.546	14081
901.665	14119
901.784	14123
901.904	13894
902.023	13837
902.141	13685
902.26	13597
902.379	13651
902.498	13662
902.617	13586
902.735	13712
902.854	13666
902.973	13594
903.091	13518
903.21	13278
903.328	13411
903.446	13327
903.565	13209
903.683	13263
903.801	13114
903.919	13316
904.038	13209
904.156	13015
904.274	13164
904.392	13027
904.51	13012
904.627	13126
904.745	13095
904.863	13053
904.981	12840
905.098	12715
905.216	12730
905.334	12753
905.451	12768
905.569	12684
905.686	12787
905.803	12692
905.921	12540
906.038	12623
906.155	12696
906.272	12353
906.389	12494
906.506	12334
906.623	12315
906.74	12311
906.857	12209
906.974	12270
907.091	12467
907.208	12585
907.324	12357
907.441	12220
907.557	12022
907.674	12095
907.79	12049
907.907	11973
908.023	12049
908.139	12060
908.256	12011
908.372	11965
908.488	11980
908.604	11878
908.72	11748
908.836	11779
908.952	11783
909.068	11794
909.184	11946
909.3	11809
909.415	11828
909.531	11874
909.647	11573
909.762	11535
909.878	11512
909.993	11608
910.108	11573
910.224	11539
910.339	11520
910.454	11566
910.57	11463
910.685	11337
910.8	11665
910.915	11596
911.03	11395
911.145	11311
911.259	11201
911.374	11387
911.489	11216
911.604	11166
911.718	11045
911.833	11128
911.947	10957
912.062	10873
912.176	11052
912.291	11045
912.405	10995
912.519	11261
912.633	11227
912.748	11113
912.862	11109
912.976	10923
913.09	10854
913.204	10873
913.318	10843
913.431	11029
913.545	11033
913.659	11121
913.772	10915
913.886	10828
914	10771
914.113	10896
914.226	10885
914.34	10915
914.453	10744
914.566	10900
914.68	10714
914.793	10740
914.906	10622
915.019	10523
915.132	10417
915.245	10550
915.358	10645
915.47	10569
915.583	10588
915.696	10634
915.809	10698
915.921	10748
916.034	10523
916.146	10508
916.259	10523
916.371	10596
916.483	10550
916.595	10504
916.708	10386
916.82	10455
916.932	10474
917.044	10451
917.156	10512
917.268	10344
917.38	10382
917.491	10371
917.603	10333
917.715	10424
917.826	10516
917.938	10402
918.049	10238
918.161	10337
918.272	10447
918.384	10474
918.495	10405
918.606	10200
918.717	10150
918.828	10272
918.939	10310
919.05	10150
919.161	10261
919.272	10078
919.383	10105
919.494	10314
919.604	10485
919.715	10310
919.826	10207
919.936	10234
920.047	10329
920.157	10287
920.267	10455
920.378	10360
920.488	10185
920.598	10481
920.708	10637
920.818	10493
920.928	10519
921.038	10565
921.148	10508
921.258	10303
921.368	10166
921.477	10128
921.587	10135
921.697	9941
921.806	10135
921.916	10116
922.025	9876
922.134	9819
922.244	9800
922.353	9903
922.462	9713
922.571	9591
922.68	9545
922.789	9504
922.898	9530
923.007	9477
923.116	9526
923.224	9500
923.333	9469
923.442	9363
923.55	9450
923.659	9515
923.767	9416
923.876	9393
923.984	9469
924.092	9340
924.201	9450
924.309	9386
924.417	9412
924.525	9359
924.633	9332
924.741	10150
924.849	9188
924.956	9287
925.064	9138
925.172	9127
925.279	9123
925.387	9165
925.494	9207
925.602	9306
925.709	9233
925.816	9127
925.924	9150
926.031	9207
926.138	9203
926.245	9233
926.352	9119
926.459	9230
926.566	9275
926.673	9146
926.779	9017
926.886	8963
926.993	8956
927.099	8838
927.206	8766
927.312	8849
927.419	8979
927.525	8914
927.631	8899
927.737	8853
927.843	8811
927.95	8670
928.056	8773
928.162	8762
928.267	8796
928.373	9268
928.479	8872
928.585	8659
928.69	8678
928.796	8838
928.901	8693
929.007	8518
929.112	8689
929.218	8731
929.323	8648
929.428	8522
929.533	8705
929.638	8575
929.743	8571
929.848	8610
929.953	8537
930.058	8507
930.163	8351
930.267	8328
930.372	8457
930.477	8339
930.581	8606
930.685	8419
930.79	8324
930.894	8294
930.998	8294
931.103	8423
931.207	8100
931.311	8046
931.415	7951
931.519	7746
931.623	7826
