Data from test_V78500241_1433.txt Node
Date: Fri Mar 25 14:43:41 CST 2022
User: usil
Spectrometer: V785-0024
Trigger mode: 0
Integration Time (sec): 4.000000E-1
Scans to average: 1
Nonlinearity correction enabled: false
Boxcar width: 0
Storing dark spectrum: false
XAxis mode: Wavelengths
Number of Pixels in Spectrum: 1024
>>>>>Begin Spectral Data<<<<<
801.071	22428
801.214	22314
801.356	22074
801.499	21991
801.641	21812
801.783	21686
801.926	21827
802.068	21660
802.211	21770
802.353	21583
802.496	21279
802.638	21222
802.78	21298
802.923	21108
803.065	21180
803.208	21188
803.35	21260
803.492	21351
803.635	21294
803.777	21173
803.919	21112
804.061	21523
804.204	21256
804.346	20994
804.488	21013
804.63	21047
804.773	21013
804.915	21100
805.057	21249
805.199	21093
805.341	20994
805.483	21214
805.626	21146
805.768	21017
805.91	21100
806.052	21085
806.194	20979
806.336	21233
806.478	20956
806.62	20971
806.762	21256
806.904	21275
807.046	21526
807.188	21500
807.33	21458
807.472	21386
807.614	21340
807.756	21420
807.898	21256
808.04	21252
808.182	21207
808.324	21325
808.465	21435
808.607	21686
808.749	21637
808.891	21736
809.033	21911
809.174	21728
809.316	21595
809.458	21580
809.6	21488
809.741	21637
809.883	21564
810.025	21728
810.166	21694
810.308	21682
810.45	21644
810.591	21549
810.733	21405
810.875	21412
811.016	21192
811.158	21169
811.299	21351
811.441	21344
811.582	21336
811.724	21237
811.865	21157
812.007	21207
812.148	21218
812.29	21382
812.431	21340
812.573	21717
812.714	21545
812.855	21831
812.997	21751
813.138	22017
813.279	21869
813.421	21747
813.562	21622
813.703	21492
813.845	21458
813.986	21195
814.127	21020
814.268	20800
814.41	20800
814.551	20746
814.692	20910
814.833	20743
814.974	20750
815.115	20754
815.256	20667
815.397	20693
815.539	20686
815.68	20549
815.821	20408
815.962	20507
816.103	20571
816.244	20389
816.385	20366
816.526	20221
816.666	20214
816.807	19982
816.948	20096
817.089	20168
817.23	19940
817.371	20008
817.512	19936
817.653	19959
817.793	20039
817.934	19978
818.075	19868
818.216	19978
818.356	19921
818.497	19765
818.638	19685
818.778	19616
818.919	19746
819.06	19715
819.2	19803
819.341	19822
819.481	19818
819.622	20031
819.762	20107
819.903	20065
820.043	19925
820.184	19925
820.324	19818
820.465	19902
820.605	19982
820.746	19803
820.886	19795
821.026	19807
821.167	19784
821.307	19921
821.447	19849
821.588	19696
821.728	19624
821.868	19525
822.008	19422
822.149	19369
822.289	19320
822.429	19034
822.569	19088
822.709	18981
822.849	18894
822.99	18730
823.13	18798
823.27	18753
823.41	18627
823.55	18582
823.69	18555
823.83	18688
823.97	18593
824.11	18456
824.25	18319
824.389	18426
824.529	18509
824.669	18395
824.809	18589
824.949	18388
825.089	18422
825.228	18467
825.368	18216
825.508	18163
825.648	18182
825.787	18315
825.927	18285
826.067	18110
826.206	18114
826.346	18102
826.485	18201
826.625	18102
826.765	18254
826.904	18254
827.044	18015
827.183	17893
827.323	17843
827.462	17889
827.601	17897
827.741	17817
827.88	17855
828.02	17737
828.159	17798
828.298	17843
828.437	17885
828.577	17882
828.716	18045
828.855	17840
828.994	17729
829.134	17661
829.273	17649
829.412	17516
829.551	17524
829.69	17520
829.829	17638
829.968	17760
830.107	17680
830.246	17596
830.385	17532
830.524	17581
830.663	17459
830.802	17242
830.941	17292
831.08	17235
831.219	17246
831.357	17299
831.496	17471
831.635	17178
831.774	17212
831.913	17140
832.051	16953
832.19	16984
832.329	17022
832.467	16938
832.606	16911
832.744	17041
832.883	16786
833.022	16911
833.16	16892
833.299	16873
833.437	16968
833.576	16869
833.714	16938
833.852	16972
833.991	17060
834.129	17037
834.267	16980
834.406	16896
834.544	16984
834.682	16991
834.821	16949
834.959	17204
835.097	16858
835.235	17025
835.373	17102
835.511	17006
835.65	16862
835.788	16820
835.926	16710
836.064	16607
836.202	16748
836.34	16862
836.478	16889
836.615	16805
836.753	16812
836.891	16976
837.029	16885
837.167	16862
837.305	16752
837.443	16683
837.58	16679
837.718	16809
837.856	16717
837.993	16611
838.131	16721
838.269	16493
838.406	16641
838.544	16615
838.681	16443
838.819	16375
838.956	16196
839.094	16276
839.231	16200
839.369	16371
839.506	16687
839.643	16481
839.781	16325
839.918	16177
840.055	16310
840.193	16215
840.33	16200
840.467	16272
840.604	16363
840.742	16592
840.879	16223
841.016	16265
841.153	16234
841.29	16417
841.427	16341
841.564	16257
841.701	16268
841.838	16211
841.975	16124
842.112	16059
842.249	16078
842.385	16097
842.522	16185
842.659	16074
842.796	15979
842.933	16029
843.069	16048
843.206	15983
843.343	16143
843.479	16044
843.616	16017
843.752	15819
843.889	15869
844.025	15972
844.162	15797
844.298	15838
844.435	15876
844.571	15831
844.708	15819
844.844	15945
844.98	15983
845.117	15956
845.253	15854
845.389	15732
845.525	15800
845.661	15838
845.798	15854
845.934	15983
846.07	15956
846.206	15918
846.342	16025
846.478	15857
846.614	15599
846.75	15272
846.886	15447
847.022	15458
847.158	15420
847.294	15454
847.429	15485
847.565	15321
847.701	15660
847.837	15138
847.972	15127
848.108	15203
848.244	15150
848.379	15036
848.515	14986
848.65	14994
848.786	15036
848.921	15013
849.057	15100
849.192	15116
849.328	15028
849.463	14944
849.598	15043
849.734	14986
849.869	14823
850.004	14842
850.14	14769
850.275	14781
850.41	14705
850.545	14659
850.68	14693
850.815	14708
850.95	14712
851.085	14963
851.22	14788
851.355	14743
851.49	14746
851.625	14777
851.76	14708
851.895	14697
852.03	14575
852.165	14777
852.299	14788
852.434	14815
852.569	14765
852.703	14800
852.838	14792
852.973	14948
853.107	14883
853.242	14697
853.376	14674
853.511	14446
853.645	14587
853.78	14689
853.914	14594
854.048	14621
854.183	14625
854.317	14686
854.451	14716
854.585	14594
854.72	14568
854.854	14632
854.988	14511
855.122	14610
855.256	14473
855.39	14606
855.524	14667
855.658	14708
855.792	14632
855.926	14651
856.06	14545
856.194	14720
856.327	14549
856.461	14541
856.595	14659
856.729	14621
856.862	14735
856.996	14670
857.13	14640
857.263	14708
857.397	14689
857.53	14697
857.664	14811
857.797	14705
857.931	14708
858.064	14754
858.197	14674
858.331	14598
858.464	14590
858.597	14537
858.731	14640
858.864	14651
858.997	14476
859.13	14583
859.263	14663
859.396	14575
859.529	14568
859.662	14545
859.795	14564
859.928	14716
860.061	14830
860.194	14754
860.327	14697
860.46	14613
860.592	14735
860.725	14762
860.858	14819
860.99	14617
861.123	14617
861.256	14629
861.388	14632
861.521	15370
861.653	14587
861.786	14499
861.918	14499
862.05	14568
862.183	14575
862.315	14602
862.447	14632
862.58	14625
862.712	14347
862.844	14320
862.976	14469
863.108	14362
863.24	14765
863.372	14259
863.504	14438
863.636	14442
863.768	14442
863.9	14431
864.032	14263
864.164	14366
864.296	14454
864.428	14457
864.559	14434
864.691	14412
864.823	14442
864.954	14412
865.086	14412
865.217	14366
865.349	14412
865.48	14408
865.612	14305
865.743	14568
865.875	14355
866.006	14313
866.137	14347
866.269	14324
866.4	14385
866.531	14301
866.662	14290
866.793	14324
866.924	14301
867.055	14408
867.186	14404
867.317	14294
867.448	14256
867.579	14263
867.71	14221
867.841	14259
867.972	14423
868.103	14374
868.233	14374
868.364	14358
868.495	14389
868.625	14610
868.756	14811
868.886	14533
869.017	14602
869.147	14785
869.278	14750
869.408	14594
869.539	14739
869.669	14659
869.799	14701
869.929	14667
870.06	14785
870.19	14876
870.32	14883
870.45	15009
870.58	14979
870.71	15161
870.84	15199
870.97	15001
871.1	14990
871.23	15157
871.36	15173
871.489	15085
871.619	15154
871.749	15287
871.879	15329
872.008	15321
872.138	15192
872.267	15195
872.397	15058
872.526	15077
872.656	14994
872.785	15013
872.915	15325
873.044	15348
873.173	15207
873.303	15283
873.432	15313
873.561	15321
873.69	15264
873.819	15245
873.948	15313
874.077	15237
874.206	15287
874.335	15287
874.464	15393
874.593	15557
874.722	15393
874.851	15580
874.979	15633
875.108	15542
875.237	15473
875.365	15492
875.494	15606
875.623	15603
875.751	15549
875.88	15591
876.008	15736
876.136	15812
876.265	15998
876.393	16135
876.521	16067
876.65	16055
876.778	16093
876.906	15918
877.034	15937
877.162	15930
877.29	15937
877.418	15934
877.546	16059
877.674	15953
877.802	16010
877.93	15945
878.058	15926
878.185	15842
878.313	16082
878.441	16074
878.568	15827
878.696	15941
878.824	16032
878.951	16051
879.079	16272
879.206	16436
879.333	16303
879.461	16211
879.588	16398
879.715	16394
879.842	16325
879.97	16177
880.097	15983
880.224	15899
880.351	15956
880.478	15941
880.605	15873
880.732	15899
880.859	16032
880.986	15899
881.112	15949
881.239	15797
881.366	15587
881.493	15568
881.619	15412
881.746	15610
881.872	15580
881.999	15473
882.125	15386
882.252	15671
882.378	15507
882.505	15580
882.631	15534
882.757	15462
882.883	15485
883.01	15370
883.136	15245
883.262	15237
883.388	15150
883.514	15424
883.64	15462
883.766	15329
883.892	15150
884.018	15154
884.143	15245
884.269	15488
884.395	15032
884.52	14986
884.646	15097
884.772	14823
884.897	14952
885.023	15017
885.148	15085
885.274	15203
885.399	15100
885.524	14963
885.65	15100
885.775	15017
885.9	15005
886.025	15062
886.15	15233
886.275	15017
886.4	14960
886.525	14906
886.65	15043
886.775	14998
886.9	15135
887.025	15237
887.149	15100
887.274	14754
887.399	14872
887.523	14807
887.648	14758
887.773	14838
887.897	14857
888.021	14758
888.146	14769
888.27	14902
888.395	14914
888.519	14925
888.643	14876
888.767	14941
888.891	14754
889.015	14659
889.139	14819
889.263	14590
889.387	14929
889.511	14929
889.635	14880
889.759	14682
889.883	14712
890.006	14823
890.13	14708
890.254	14621
890.377	14629
890.501	14492
890.624	14431
890.748	14659
890.871	14446
890.995	14419
891.118	14358
891.241	14427
891.364	14328
891.488	14518
891.611	14347
891.734	14324
891.857	14450
891.98	14389
892.103	14499
892.226	14438
892.349	14320
892.471	14267
892.594	14419
892.717	14298
892.839	14237
892.962	14347
893.085	14381
893.207	14374
893.33	14282
893.452	14332
893.575	14400
893.697	14377
893.819	14499
893.941	14598
894.064	14587
894.186	14423
894.308	14290
894.43	14454
894.552	14556
894.674	14568
894.796	14339
894.918	14355
895.04	14328
895.161	14541
895.283	14488
895.405	14438
895.526	14469
895.648	14514
895.769	14583
895.891	14522
896.012	14587
896.134	14579
896.255	14514
896.376	14370
896.498	14575
896.619	14552
896.74	14526
896.861	14587
896.982	14899
897.103	15062
897.224	14868
897.345	14834
897.466	14724
897.587	14743
897.708	14952
897.828	14864
897.949	14834
898.07	14720
898.19	14727
898.311	14925
898.431	14792
898.552	14849
898.672	14883
898.792	15032
898.913	14857
899.033	14796
899.153	14765
899.273	14636
899.393	14739
899.513	14788
899.633	14701
899.753	14781
899.873	14689
899.993	14743
900.113	14739
900.232	14819
900.352	14735
900.472	14678
900.591	14602
900.711	14545
900.83	14590
900.95	14651
901.069	14712
901.189	14473
901.308	14313
901.427	14206
901.546	14446
901.665	14263
901.784	14374
901.904	14172
902.023	14031
902.141	13875
902.26	13906
902.379	13925
902.498	13818
902.617	13769
902.735	13833
902.854	13887
902.973	13765
903.091	13476
903.21	13548
903.328	13689
903.446	13514
903.565	13449
903.683	13434
903.801	13304
903.919	13460
904.038	13377
904.156	13190
904.274	13236
904.392	13168
904.51	13206
904.627	13221
904.745	13278
904.863	13259
904.981	12970
905.098	12878
905.216	12840
905.334	12935
905.451	12947
905.569	12878
905.686	12943
905.803	12897
905.921	12719
906.038	12939
906.155	12734
906.272	12574
906.389	12620
906.506	12513
906.623	12486
906.74	12509
906.857	12308
906.974	12407
907.091	12658
907.208	12719
907.324	12460
907.441	12410
907.557	12346
907.674	12175
907.79	12125
907.907	12228
908.023	12292
908.139	12281
908.256	12163
908.372	12152
908.488	12178
908.604	11988
908.72	11977
908.836	11973
908.952	11927
909.068	11980
909.184	12106
909.3	11946
909.415	12072
909.531	12015
909.647	11821
909.762	11851
909.878	11722
909.993	11783
910.108	11798
910.224	11775
910.339	11760
910.454	11623
910.57	11676
910.685	11512
910.8	11859
910.915	11813
911.03	11764
911.145	11387
911.259	11414
911.374	11455
911.489	11311
911.604	11330
911.718	11170
911.833	11258
911.947	11003
912.062	10984
912.176	11162
912.291	11220
912.405	11208
912.519	11448
912.633	11410
912.748	11303
912.862	11246
912.976	11010
913.09	10972
913.204	11014
913.318	11052
913.431	11128
913.545	11117
913.659	11216
913.772	11105
913.886	11029
914	10862
914.113	11052
914.226	11109
914.34	10980
914.453	10892
914.566	11033
914.68	10938
914.793	10835
914.906	10675
915.019	10736
915.132	10637
915.245	10679
915.358	10759
915.47	10634
915.583	10740
915.696	10752
915.809	10797
915.921	10809
916.034	10683
916.146	10679
916.259	10660
916.371	10793
916.483	10679
916.595	10626
916.708	10603
916.82	10626
916.932	10580
917.044	10675
917.156	10561
917.268	10493
917.38	10565
917.491	10500
917.603	10573
917.715	10584
917.826	10538
917.938	10535
918.049	10470
918.161	10500
918.272	10694
918.384	10668
918.495	10615
918.606	10356
918.717	10371
918.828	10462
918.939	10405
919.05	10405
919.161	10367
919.272	10192
919.383	10261
919.494	10508
919.604	10588
919.715	10489
919.826	10360
919.936	10367
920.047	10527
920.157	10489
920.267	10607
920.378	10436
920.488	10466
920.598	10580
920.708	10774
920.818	10504
920.928	10531
921.038	10793
921.148	10656
921.258	10474
921.368	10356
921.477	10246
921.587	10363
921.697	10139
921.806	10295
921.916	10162
922.025	9994
922.134	9998
922.244	9842
922.353	9968
922.462	9812
922.571	9785
922.68	9690
922.789	9606
922.898	9660
923.007	9580
923.116	9675
923.224	9694
923.333	9603
923.442	9557
923.55	9485
923.659	9557
923.767	9656
923.876	9515
923.984	9622
924.092	9481
924.201	9580
924.309	9526
924.417	9492
924.525	9507
924.633	9420
924.741	10428
924.849	9302
924.956	9481
925.064	9283
925.172	9161
925.279	9272
925.387	9329
925.494	9294
925.602	9492
925.709	9355
925.816	9218
925.924	9283
926.031	9431
926.138	9378
926.245	9355
926.352	9241
926.459	9344
926.566	9450
926.673	9207
926.779	9131
926.886	9058
926.993	9058
927.099	9017
927.206	8967
927.312	8918
927.419	9093
927.525	9001
927.631	9077
927.737	8925
927.843	8826
927.95	8811
928.056	8868
928.162	8880
928.267	8982
928.373	9629
928.479	8979
928.585	8746
928.69	8849
928.796	8914
928.901	8883
929.007	8663
929.112	8807
929.218	8781
929.323	8682
929.428	8682
929.533	8861
929.638	8670
929.743	8682
929.848	8811
929.953	8686
930.058	8602
930.163	8442
930.267	8419
930.372	8629
930.477	8457
930.581	8705
930.685	8549
930.79	8442
930.894	8408
930.998	8389
931.103	8560
931.207	8271
931.311	8202
931.415	8103
931.519	7967
931.623	7875
