Data from test_V78500241_2388.txt Node
Date: Fri Mar 25 14:50:20 CST 2022
User: usil
Spectrometer: V785-0024
Trigger mode: 0
Integration Time (sec): 4.000000E-1
Scans to average: 1
Nonlinearity correction enabled: false
Boxcar width: 0
Storing dark spectrum: false
XAxis mode: Wavelengths
Number of Pixels in Spectrum: 1024
>>>>>Begin Spectral Data<<<<<
801.071	22185
801.214	22112
801.356	21713
801.499	21641
801.641	21545
801.783	21420
801.926	21663
802.068	21526
802.211	21367
802.353	21218
802.496	21074
802.638	20933
802.78	20925
802.923	20830
803.065	20727
803.208	20807
803.35	20807
803.492	20815
803.635	20933
803.777	20883
803.919	20887
804.061	21138
804.204	20899
804.346	20785
804.488	20765
804.63	20830
804.773	20602
804.915	20800
805.057	20800
805.199	20746
805.341	20769
805.483	20788
805.626	20735
805.768	20560
805.91	20872
806.052	20743
806.194	20678
806.336	20868
806.478	20762
806.62	20724
806.762	20746
806.904	20891
807.046	21096
807.188	21062
807.33	21222
807.472	21077
807.614	20948
807.756	21154
807.898	20849
808.04	20792
808.182	20804
808.324	20899
808.465	20880
808.607	21020
808.749	21081
808.891	21226
809.033	21317
809.174	21096
809.316	21039
809.458	21199
809.6	21081
809.741	21146
809.883	21222
810.025	21389
810.166	21195
810.308	21184
810.45	21233
810.591	21211
810.733	21077
810.875	20960
811.016	20800
811.158	20769
811.299	20937
811.441	21020
811.582	21036
811.724	20914
811.865	20792
812.007	20895
812.148	21036
812.29	21024
812.431	21112
812.573	21161
812.714	21310
812.855	21386
812.997	21454
813.138	21739
813.279	21606
813.421	21408
813.562	21226
813.703	21104
813.845	21077
813.986	20834
814.127	20560
814.268	20457
814.41	20514
814.551	20526
814.692	20514
814.833	20358
814.974	20404
815.115	20499
815.256	20351
815.397	20244
815.539	20278
815.68	20191
815.821	20229
815.962	20221
816.103	20073
816.244	20077
816.385	19902
816.526	19772
816.666	19677
816.807	19674
816.948	19689
817.089	19712
817.23	19616
817.371	19480
817.512	19601
817.653	19552
817.793	19590
817.934	19643
818.075	19601
818.216	19559
818.356	19567
818.497	19373
818.638	19255
818.778	19190
818.919	19301
819.06	19278
819.2	19365
819.341	19529
819.481	19514
819.622	19578
819.762	19818
819.903	19670
820.043	19647
820.184	19655
820.324	19521
820.465	19613
820.605	19537
820.746	19502
820.886	19339
821.026	19571
821.167	19460
821.307	19651
821.447	19491
821.588	19422
821.728	19335
821.868	19129
822.008	19148
822.149	18962
822.289	18821
822.429	18715
822.569	18593
822.709	18661
822.849	18544
822.99	18426
823.13	18365
823.27	18388
823.41	18190
823.55	18289
823.69	18296
823.83	18254
823.97	18228
824.11	18011
824.25	17935
824.389	18019
824.529	18030
824.669	18045
824.809	18140
824.949	18140
825.089	18053
825.228	17961
825.368	17851
825.508	17798
825.648	17847
825.787	17805
825.927	17786
826.067	17741
826.206	17794
826.346	17798
826.485	17752
826.625	17809
826.765	17874
826.904	17821
827.044	17528
827.183	17573
827.323	17459
827.462	17520
827.601	17562
827.741	17516
827.88	17558
828.02	17376
828.159	17414
828.298	17592
828.437	17482
828.577	17425
828.716	17653
828.855	17391
828.994	17269
829.134	17296
829.273	17246
829.412	17200
829.551	17086
829.69	17193
829.829	17185
829.968	17402
830.107	17356
830.246	17345
830.385	17162
830.524	17022
830.663	17094
830.802	16896
830.941	16862
831.08	16953
831.219	16957
831.357	16889
831.496	17071
831.635	16908
831.774	16744
831.913	16713
832.051	16740
832.19	16698
832.329	16649
832.467	16596
832.606	16474
832.744	16569
832.883	16508
833.022	16508
833.16	16580
833.299	16535
833.437	16596
833.576	16550
833.714	16618
833.852	16542
833.991	16580
834.129	16656
834.267	16634
834.406	16550
834.544	16535
834.682	16615
834.821	16592
834.959	16782
835.097	16592
835.235	16649
835.373	16599
835.511	16592
835.65	16596
835.788	16443
835.926	16352
836.064	16291
836.202	16322
836.34	16440
836.478	16481
836.615	16417
836.753	16573
836.891	16588
837.029	16531
837.167	16466
837.305	16451
837.443	16398
837.58	16333
837.718	16371
837.856	16348
837.993	16310
838.131	16409
838.269	16272
838.406	16291
838.544	16200
838.681	16013
838.819	16059
838.956	15884
839.094	15873
839.231	16002
839.369	16021
839.506	16356
839.643	16071
839.781	15876
839.918	15895
840.055	15915
840.193	15911
840.33	15899
840.467	15911
840.604	15968
840.742	16215
840.879	15694
841.016	15857
841.153	15880
841.29	16067
841.427	15972
841.564	15979
841.701	15869
841.838	15876
841.975	15823
842.112	15781
842.249	15629
842.385	15648
842.522	15797
842.659	15713
842.796	15648
842.933	15686
843.069	15587
843.206	15641
843.343	15751
843.479	15812
843.616	15660
843.752	15447
843.889	15538
844.025	15637
844.162	15488
844.298	15564
844.435	15370
844.571	15420
844.708	15530
844.844	15614
844.98	15618
845.117	15599
845.253	15462
845.389	15340
845.525	15386
845.661	15306
845.798	15241
845.934	15313
846.07	15241
846.206	15241
846.342	15329
846.478	15169
846.614	15127
846.75	14986
846.886	15009
847.022	15123
847.158	15013
847.294	15100
847.429	15154
847.565	14986
847.701	15332
847.837	14773
847.972	14781
848.108	14830
848.244	14868
848.379	14678
848.515	14629
848.65	14530
848.786	14564
848.921	14663
849.057	14823
849.192	14788
849.328	14663
849.463	14746
849.598	14625
849.734	14556
849.869	14526
850.004	14457
850.14	14465
850.275	14389
850.41	14317
850.545	14343
850.68	14347
850.815	14442
850.95	14423
851.085	14587
851.22	14476
851.355	14393
851.49	14404
851.625	14332
851.76	14393
851.895	14301
852.03	14317
852.165	14313
852.299	14415
852.434	14568
852.569	14404
852.703	14377
852.838	14457
852.973	14579
853.107	14495
853.242	14366
853.376	14267
853.511	14149
853.645	14172
853.78	14366
853.914	14431
854.048	14313
854.183	14275
854.317	14252
854.451	14385
854.585	14149
854.72	14138
854.854	14393
854.988	14233
855.122	14309
855.256	14126
855.39	14252
855.524	14358
855.658	14309
855.792	14237
855.926	14339
856.06	14301
856.194	14351
856.327	14259
856.461	14126
856.595	14233
856.729	14256
856.862	14233
856.996	14374
857.13	14389
857.263	14385
857.397	14396
857.53	14309
857.664	14301
857.797	14336
857.931	14317
858.064	14336
858.197	14336
858.331	14229
858.464	14142
858.597	14187
858.731	14240
858.864	14309
858.997	14313
859.13	14294
859.263	14267
859.396	14358
859.529	14240
859.662	14138
859.795	14225
859.928	14298
860.061	14450
860.194	14442
860.327	14313
860.46	14313
860.592	14355
860.725	14396
860.858	14298
860.99	14214
861.123	14134
861.256	14176
861.388	14252
861.521	14838
861.653	14130
861.786	14084
861.918	14100
862.05	14271
862.183	14183
862.315	14183
862.447	14298
862.58	14282
862.712	14050
862.844	13963
862.976	14172
863.108	14062
863.24	14370
863.372	14035
863.504	14046
863.636	14008
863.768	14107
863.9	14092
864.032	13921
864.164	13970
864.296	14073
864.428	14142
864.559	14180
864.691	14050
864.823	13989
864.954	14092
865.086	14145
865.217	14050
865.349	13967
865.48	14020
865.612	14103
865.743	14107
865.875	13993
866.006	13925
866.137	14081
866.269	14062
866.4	14107
866.531	13936
866.662	14046
866.793	14043
866.924	14027
867.055	14088
867.186	13940
867.317	14024
867.448	13963
867.579	14046
867.71	13986
867.841	13947
867.972	14054
868.103	13989
868.233	14050
868.364	14073
868.495	14088
868.625	14115
868.756	14347
868.886	14161
869.017	14248
869.147	14389
869.278	14396
869.408	14290
869.539	14275
869.669	14313
869.799	14282
869.929	14446
870.06	14366
870.19	14560
870.32	14476
870.45	14636
870.58	14708
870.71	14830
870.84	14815
870.97	14629
871.1	14670
871.23	14849
871.36	14838
871.489	14857
871.619	14868
871.749	14823
871.879	14861
872.008	15043
872.138	14845
872.267	14781
872.397	14720
872.526	14746
872.656	14697
872.785	14648
872.915	14906
873.044	14937
873.173	15009
873.303	14971
873.432	15020
873.561	15005
873.69	14880
873.819	14967
873.948	15005
874.077	14868
874.206	14880
874.335	14918
874.464	15085
874.593	15173
874.722	15287
874.851	15268
874.979	15241
875.108	15188
875.237	15173
875.365	15047
875.494	15161
875.623	15367
875.751	15272
875.88	15313
876.008	15382
876.136	15454
876.265	15610
876.393	15739
876.521	15755
876.65	15732
876.778	15698
876.906	15663
877.034	15690
877.162	15675
877.29	15504
877.418	15644
877.546	15747
877.674	15625
877.802	15564
877.93	15629
878.058	15504
878.185	15496
878.313	15679
878.441	15587
878.568	15431
878.696	15523
878.824	15671
878.951	15774
879.079	15781
879.206	15937
879.333	15770
879.461	15698
879.588	15766
879.715	15926
879.842	16013
879.97	15675
880.097	15466
880.224	15488
880.351	15526
880.478	15496
880.605	15477
880.732	15511
880.859	15675
880.986	15492
881.112	15591
881.239	15424
881.366	15294
881.493	15222
881.619	15161
881.746	15161
881.872	15146
881.999	15089
882.125	15119
882.252	15218
882.378	15157
882.505	15291
882.631	15077
882.757	14979
882.883	14982
883.01	14994
883.136	14914
883.262	14819
883.388	14811
883.514	15081
883.64	15116
883.766	15001
883.892	14796
884.018	14819
884.143	14944
884.269	15009
884.395	14754
884.52	14644
884.646	14610
884.772	14549
884.897	14632
885.023	14705
885.148	14743
885.274	14872
885.399	14750
885.524	14830
885.65	14629
885.775	14651
885.9	14739
886.025	14842
886.15	14750
886.275	14568
886.4	14587
886.525	14670
886.65	14579
886.775	14549
886.9	14743
887.025	14811
887.149	14670
887.274	14484
887.399	14503
887.523	14518
887.648	14393
887.773	14427
887.897	14587
888.021	14518
888.146	14480
888.27	14571
888.395	14625
888.519	14549
888.643	14583
888.767	14587
888.891	14408
889.015	14431
889.139	14328
889.263	14290
889.387	14480
889.511	14514
889.635	14549
889.759	14301
889.883	14358
890.006	14419
890.13	14503
890.254	14320
890.377	14400
890.501	14164
890.624	14130
890.748	14233
890.871	14100
890.995	14001
891.118	14065
891.241	14073
891.364	14119
891.488	14301
891.611	14123
891.734	14092
891.857	14157
891.98	14142
892.103	14183
892.226	14149
892.349	14058
892.471	13898
892.594	14069
892.717	14088
892.839	13970
892.962	14115
893.085	14123
893.207	14001
893.33	13959
893.452	13993
893.575	14111
893.697	14012
893.819	14225
893.941	14309
894.064	14320
894.186	14008
894.308	14016
894.43	14153
894.552	14275
894.674	14221
894.796	14084
894.918	14054
895.04	14180
895.161	14195
895.283	14218
895.405	14092
895.526	14157
895.648	14149
895.769	14157
895.891	14229
896.012	14267
896.134	14244
896.255	14237
896.376	14221
896.498	14225
896.619	14351
896.74	14256
896.861	14301
896.982	14590
897.103	14765
897.224	14495
897.345	14488
897.466	14423
897.587	14461
897.708	14503
897.828	14590
897.949	14495
898.07	14431
898.19	14488
898.311	14560
898.431	14514
898.552	14579
898.672	14651
898.792	14781
898.913	14625
899.033	14412
899.153	14408
899.273	14400
899.393	14446
899.513	14541
899.633	14511
899.753	14465
899.873	14400
899.993	14560
900.113	14381
900.232	14503
900.352	14450
900.472	14419
900.591	14328
900.711	14385
900.83	14286
900.95	14358
901.069	14469
901.189	14248
901.308	14065
901.427	14020
901.546	14043
901.665	14027
901.784	13974
901.904	13902
902.023	13814
902.141	13586
902.26	13540
902.379	13643
902.498	13609
902.617	13506
902.735	13537
902.854	13616
902.973	13502
903.091	13320
903.21	13320
903.328	13301
903.446	13232
903.565	13129
903.683	13103
903.801	12943
903.919	13168
904.038	13183
904.156	13046
904.274	13000
904.392	13012
904.51	12928
904.627	12856
904.745	12993
904.863	12981
904.981	12821
905.098	12570
905.216	12658
905.334	12650
905.451	12597
905.569	12658
905.686	12585
905.803	12642
905.921	12452
906.038	12589
906.155	12445
906.272	12384
906.389	12376
906.506	12247
906.623	12209
906.74	12277
906.857	12114
906.974	12273
907.091	12319
907.208	12429
907.324	12273
907.441	12114
907.557	11980
907.674	12007
907.79	11927
907.907	11901
908.023	12057
908.139	11916
908.256	11950
908.372	11851
908.488	11939
908.604	11779
908.72	11737
908.836	11775
908.952	11668
909.068	11733
909.184	11843
909.3	11741
909.415	11824
909.531	11684
909.647	11524
909.762	11512
909.878	11619
909.993	11623
910.108	11421
910.224	11429
910.339	11459
910.454	11429
910.57	11429
910.685	11307
910.8	11596
910.915	11524
911.03	11372
911.145	11239
911.259	11159
911.374	11216
911.489	11117
911.604	11090
911.718	10972
911.833	10949
911.947	10885
912.062	10759
912.176	10923
912.291	10934
912.405	10961
912.519	11204
912.633	11109
912.748	10984
912.862	11022
912.976	10847
913.09	10691
913.204	10812
913.318	10828
913.431	11014
913.545	10934
913.659	10915
913.772	10904
913.886	10729
914	10721
914.113	10847
914.226	10869
914.34	10778
914.453	10698
914.566	10835
914.68	10725
914.793	10694
914.906	10516
915.019	10447
915.132	10436
915.245	10497
915.358	10474
915.47	10478
915.583	10573
915.696	10512
915.809	10626
915.921	10668
916.034	10474
916.146	10531
916.259	10440
916.371	10580
916.483	10470
916.595	10436
916.708	10375
916.82	10417
916.932	10508
917.044	10375
917.156	10413
917.268	10367
917.38	10390
917.491	10295
917.603	10257
917.715	10481
917.826	10409
917.938	10280
918.049	10253
918.161	10344
918.272	10390
918.384	10554
918.495	10356
918.606	10200
918.717	10196
918.828	10188
918.939	10204
919.05	10154
919.161	10230
919.272	9930
919.383	10128
919.494	10272
919.604	10447
919.715	10310
919.826	10143
919.936	10192
920.047	10299
920.157	10268
920.267	10481
920.378	10287
920.488	10177
920.598	10413
920.708	10607
920.818	10459
920.928	10451
921.038	10577
921.148	10626
921.258	10284
921.368	10196
921.477	10143
921.587	9979
921.697	10025
921.806	10200
921.916	10002
922.025	9823
922.134	9793
922.244	9724
922.353	9816
922.462	9698
922.571	9599
922.68	9496
922.789	9439
922.898	9545
923.007	9431
923.116	9545
923.224	9519
923.333	9458
923.442	9321
923.55	9397
923.659	9431
923.767	9435
923.876	9370
923.984	9401
924.092	9351
924.201	9367
924.309	9382
924.417	9389
924.525	9253
924.633	9367
924.741	10188
924.849	9093
924.956	9211
925.064	9131
925.172	9017
925.279	9058
925.387	9176
925.494	9180
925.602	9275
925.709	9268
925.816	9138
925.924	9165
926.031	9207
926.138	9146
926.245	9222
926.352	9062
926.459	9150
926.566	9241
926.673	9123
926.779	8941
926.886	9032
926.993	8876
927.099	8883
927.206	8830
927.312	8838
927.419	8872
927.525	8902
927.631	8948
927.737	8777
927.843	8739
927.95	8674
928.056	8758
928.162	8754
928.267	8842
928.373	9481
928.479	8845
928.585	8648
928.69	8758
928.796	8788
928.901	8648
929.007	8511
929.112	8693
929.218	8651
929.323	8526
929.428	8571
929.533	8686
929.638	8530
929.743	8549
929.848	8640
929.953	8530
930.058	8530
930.163	8313
930.267	8309
930.372	8454
930.477	8290
930.581	8655
930.685	8427
930.79	8271
930.894	8263
930.998	8298
931.103	8389
931.207	8119
931.311	7986
931.415	8054
931.519	7776
931.623	7792
