Data from test_V78500241_2345.txt Node
Date: Fri Mar 25 14:50:02 CST 2022
User: usil
Spectrometer: V785-0024
Trigger mode: 0
Integration Time (sec): 4.000000E-1
Scans to average: 1
Nonlinearity correction enabled: false
Boxcar width: 0
Storing dark spectrum: false
XAxis mode: Wavelengths
Number of Pixels in Spectrum: 1024
>>>>>Begin Spectral Data<<<<<
801.071	22166
801.214	22215
801.356	21861
801.499	21679
801.641	21606
801.783	21568
801.926	21523
802.068	21458
802.211	21332
802.353	21386
802.496	21146
802.638	21085
802.78	21013
802.923	20929
803.065	20830
803.208	20823
803.35	20906
803.492	20960
803.635	20948
803.777	20864
803.919	20906
804.061	21195
804.204	20975
804.346	20990
804.488	20735
804.63	20830
804.773	20743
804.915	20762
805.057	20804
805.199	20804
805.341	20830
805.483	21051
805.626	20880
805.768	20651
805.91	20796
806.052	20807
806.194	20804
806.336	20979
806.478	20830
806.62	20697
806.762	20887
806.904	20910
807.046	21199
807.188	21176
807.33	21131
807.472	21203
807.614	21066
807.756	21047
807.898	20998
808.04	20834
808.182	20895
808.324	20921
808.465	20899
808.607	20967
808.749	21192
808.891	21294
809.033	21386
809.174	21211
809.316	21135
809.458	21188
809.6	21184
809.741	21279
809.883	21321
810.025	21245
810.166	21321
810.308	21363
810.45	21268
810.591	21116
810.733	21104
810.875	21009
811.016	20876
811.158	20849
811.299	20971
811.441	21108
811.582	21055
811.724	20887
811.865	20990
812.007	20910
812.148	21108
812.29	21009
812.431	21047
812.573	21222
812.714	21264
812.855	21389
812.997	21447
813.138	21614
813.279	21488
813.421	21412
813.562	21313
813.703	21165
813.845	21123
813.986	20777
814.127	20727
814.268	20560
814.41	20545
814.551	20495
814.692	20583
814.833	20457
814.974	20457
815.115	20400
815.256	20328
815.397	20286
815.539	20278
815.68	20381
815.821	20050
815.962	20126
816.103	20317
816.244	20027
816.385	19974
816.526	19830
816.666	19731
816.807	19693
816.948	19681
817.089	19685
817.23	19689
817.371	19529
817.512	19635
817.653	19635
817.793	19495
817.934	19502
818.075	19677
818.216	19647
818.356	19628
818.497	19388
818.638	19331
818.778	19152
818.919	19289
819.06	19327
819.2	19491
819.341	19502
819.481	19510
819.622	19609
819.762	19791
819.903	19807
820.043	19753
820.184	19590
820.324	19616
820.465	19658
820.605	19708
820.746	19556
820.886	19407
821.026	19525
821.167	19624
821.307	19609
821.447	19514
821.588	19525
821.728	19221
821.868	19160
822.008	19065
822.149	18947
822.289	18939
822.429	18757
822.569	18707
822.709	18707
822.849	18551
822.99	18502
823.13	18547
823.27	18414
823.41	18289
823.55	18243
823.69	18353
823.83	18426
823.97	18235
824.11	18117
824.25	18129
824.389	18053
824.529	18136
824.669	18057
824.809	18121
824.949	18117
825.089	18129
825.228	18022
825.368	17939
825.508	17870
825.648	17817
825.787	17958
825.927	17855
826.067	17813
826.206	17847
826.346	17832
826.485	17832
826.625	17901
826.765	17923
826.904	17904
827.044	17642
827.183	17684
827.323	17467
827.462	17745
827.601	17532
827.741	17474
827.88	17649
828.02	17486
828.159	17474
828.298	17600
828.437	17661
828.577	17562
828.716	17627
828.855	17497
828.994	17334
829.134	17261
829.273	17421
829.412	17246
829.551	17265
829.69	17231
829.829	17341
829.968	17349
830.107	17334
830.246	17250
830.385	17330
830.524	17166
830.663	17094
830.802	17037
830.941	16896
831.08	16805
831.219	16984
831.357	16946
831.496	17102
831.635	16831
831.774	16847
831.913	16778
832.051	16687
832.19	16729
832.329	16767
832.467	16645
832.606	16516
832.744	16554
832.883	16618
833.022	16542
833.16	16519
833.299	16592
833.437	16626
833.576	16558
833.714	16664
833.852	16637
833.991	16588
834.129	16801
834.267	16611
834.406	16687
834.544	16645
834.682	16573
834.821	16679
834.959	16774
835.097	16455
835.235	16664
835.373	16672
835.511	16588
835.65	16584
835.788	16478
835.926	16325
836.064	16280
836.202	16443
836.34	16577
836.478	16558
836.615	16535
836.753	16561
836.891	16577
837.029	16611
837.167	16584
837.305	16405
837.443	16432
837.58	16447
837.718	16527
837.856	16417
837.993	16363
838.131	16440
838.269	16356
838.406	16371
838.544	16337
838.681	16067
838.819	15998
838.956	15937
839.094	16010
839.231	15979
839.369	16101
839.506	16375
839.643	16246
839.781	15964
839.918	15903
840.055	15983
840.193	15922
840.33	15960
840.467	16048
840.604	15918
840.742	16200
840.879	15762
841.016	15785
841.153	15850
841.29	16032
841.427	15960
841.564	15903
841.701	15964
841.838	15911
841.975	15804
842.112	15892
842.249	15713
842.385	15709
842.522	15857
842.659	15755
842.796	15713
842.933	15705
843.069	15713
843.206	15618
843.343	15770
843.479	15690
843.616	15671
843.752	15481
843.889	15526
844.025	15686
844.162	15424
844.298	15580
844.435	15473
844.571	15443
844.708	15637
844.844	15698
844.98	15739
845.117	15545
845.253	15370
845.389	15443
845.525	15576
845.661	15393
845.798	15291
845.934	15408
846.07	15260
846.206	15439
846.342	15477
846.478	15211
846.614	15157
846.75	14948
846.886	14979
847.022	15199
847.158	15070
847.294	15127
847.429	15070
847.565	14963
847.701	15329
847.837	14853
847.972	14754
848.108	14937
848.244	14804
848.379	14689
848.515	14686
848.65	14670
848.786	14568
848.921	14678
849.057	14788
849.192	14845
849.328	14701
849.463	14777
849.598	14670
849.734	14549
849.869	14552
850.004	14457
850.14	14457
850.275	14351
850.41	14370
850.545	14336
850.68	14480
850.815	14389
850.95	14503
851.085	14518
851.22	14564
851.355	14465
851.49	14389
851.625	14469
851.76	14374
851.895	14263
852.03	14336
852.165	14374
852.299	14465
852.434	14514
852.569	14533
852.703	14450
852.838	14545
852.973	14625
853.107	14610
853.242	14423
853.376	14305
853.511	14183
853.645	14294
853.78	14408
853.914	14305
854.048	14267
854.183	14278
854.317	14252
854.451	14450
854.585	14305
854.72	14317
854.854	14423
854.988	14180
855.122	14275
855.256	14183
855.39	14317
855.524	14328
855.658	14298
855.792	14290
855.926	14286
856.06	14404
856.194	14377
856.327	14305
856.461	14339
856.595	14263
856.729	14286
856.862	14423
856.996	14423
857.13	14396
857.263	14457
857.397	14385
857.53	14259
857.664	14385
857.797	14336
857.931	14457
858.064	14263
858.197	14438
858.331	14347
858.464	14240
858.597	14237
858.731	14305
858.864	14218
858.997	14355
859.13	14358
859.263	14343
859.396	14438
859.529	14275
859.662	14328
859.795	14332
859.928	14263
860.061	14469
860.194	14476
860.327	14347
860.46	14286
860.592	14362
860.725	14396
860.858	14320
860.99	14355
861.123	14206
861.256	14256
861.388	14336
861.521	14880
861.653	14130
861.786	14069
861.918	14107
862.05	14237
862.183	14294
862.315	14381
862.447	14377
862.58	14320
862.712	14050
862.844	13974
862.976	14145
863.108	14119
863.24	14381
863.372	13993
863.504	14065
863.636	14100
863.768	14145
863.9	14043
864.032	13940
864.164	14065
864.296	14054
864.428	14202
864.559	14119
864.691	14187
864.823	14092
864.954	14119
865.086	14199
865.217	14046
865.349	13989
865.48	14077
865.612	14138
865.743	14244
865.875	14054
866.006	14058
866.137	14035
866.269	14100
866.4	14035
866.531	13898
866.662	13963
866.793	14069
866.924	14020
867.055	14088
867.186	13936
867.317	14069
867.448	13970
867.579	14054
867.71	14031
867.841	13951
867.972	14043
868.103	14107
868.233	14088
868.364	14092
868.495	14187
868.625	14332
868.756	14370
868.886	14305
869.017	14286
869.147	14480
869.278	14476
869.408	14317
869.539	14358
869.669	14404
869.799	14374
869.929	14412
870.06	14415
870.19	14621
870.32	14571
870.45	14621
870.58	14781
870.71	14811
870.84	14826
870.97	14720
871.1	14670
871.23	14864
871.36	15009
871.489	14731
871.619	14838
871.749	14880
871.879	14914
872.008	15028
872.138	14868
872.267	14857
872.397	14834
872.526	14819
872.656	14705
872.785	14712
872.915	14963
873.044	15039
873.173	14982
873.303	15009
873.432	14990
873.561	14994
873.69	14971
873.819	15001
873.948	15085
874.077	14971
874.206	14918
874.335	15051
874.464	15154
874.593	15226
874.722	15188
874.851	15363
874.979	15340
875.108	15340
875.237	15268
875.365	15154
875.494	15363
875.623	15241
875.751	15313
875.88	15359
876.008	15401
876.136	15523
876.265	15690
876.393	15804
876.521	15751
876.65	15755
876.778	15660
876.906	15671
877.034	15675
877.162	15690
877.29	15625
877.418	15625
877.546	15770
877.674	15633
877.802	15694
877.93	15618
878.058	15682
878.185	15614
878.313	15633
878.441	15686
878.568	15534
878.696	15500
878.824	15622
878.951	15770
879.079	15835
879.206	16006
879.333	15770
879.461	15778
879.588	15785
879.715	15842
879.842	15998
879.97	15652
880.097	15488
880.224	15542
880.351	15477
880.478	15568
880.605	15511
880.732	15599
880.859	15857
880.986	15545
881.112	15519
881.239	15420
881.366	15317
881.493	15214
881.619	15188
881.746	15233
881.872	15192
881.999	15097
882.125	15165
882.252	15237
882.378	15272
882.505	15287
882.631	15142
882.757	15005
882.883	15077
883.01	14937
883.136	14914
883.262	14906
883.388	14857
883.514	14933
883.64	15085
883.766	14963
883.892	14902
884.018	14868
884.143	14990
884.269	15154
884.395	14883
884.52	14674
884.646	14693
884.772	14678
884.897	14579
885.023	14785
885.148	14819
885.274	14929
885.399	14815
885.524	14632
885.65	14754
885.775	14670
885.9	14663
886.025	14845
886.15	14724
886.275	14689
886.4	14587
886.525	14758
886.65	14663
886.775	14720
886.9	14765
887.025	14967
887.149	14587
887.274	14537
887.399	14594
887.523	14503
887.648	14454
887.773	14442
887.897	14617
888.021	14511
888.146	14495
888.27	14720
888.395	14667
888.519	14610
888.643	14629
888.767	14590
888.891	14419
889.015	14423
889.139	14461
889.263	14355
889.387	14537
889.511	14667
889.635	14499
889.759	14400
889.883	14389
890.006	14374
890.13	14465
890.254	14324
890.377	14393
890.501	14206
890.624	14191
890.748	14332
890.871	14214
890.995	14107
891.118	13947
891.241	14164
891.364	14084
891.488	14221
891.611	14046
891.734	14001
891.857	14164
891.98	14161
892.103	14164
892.226	14199
892.349	14073
892.471	13928
892.594	14073
892.717	14046
892.839	14031
892.962	14130
893.085	14183
893.207	14168
893.33	13978
893.452	13970
893.575	14180
893.697	14077
893.819	14214
893.941	14374
894.064	14294
894.186	14119
894.308	14119
894.43	14206
894.552	14366
894.674	14225
894.796	14081
894.918	14195
895.04	14100
895.161	14332
895.283	14199
895.405	14191
895.526	14164
895.648	14145
895.769	14214
895.891	14275
896.012	14339
896.134	14263
896.255	14278
896.376	14286
896.498	14385
896.619	14374
896.74	14218
896.861	14317
896.982	14610
897.103	14796
897.224	14617
897.345	14579
897.466	14396
897.587	14568
897.708	14663
897.828	14629
897.949	14442
898.07	14385
898.19	14522
898.311	14533
898.431	14545
898.552	14537
898.672	14731
898.792	14693
898.913	14682
899.033	14552
899.153	14503
899.273	14400
899.393	14530
899.513	14526
899.633	14492
899.753	14518
899.873	14370
899.993	14484
900.113	14457
900.232	14503
900.352	14518
900.472	14393
900.591	14324
900.711	14317
900.83	14389
900.95	14423
901.069	14434
901.189	14248
901.308	14077
901.427	14031
901.546	13955
901.665	13986
901.784	14031
901.904	13967
902.023	13932
902.141	13624
902.26	13578
902.379	13761
902.498	13674
902.617	13502
902.735	13613
902.854	13590
902.973	13575
903.091	13259
903.21	13251
903.328	13354
903.446	13213
903.565	13126
903.683	13187
903.801	13145
903.919	13168
904.038	13137
904.156	12970
904.274	13023
904.392	13023
904.51	12886
904.627	13004
904.745	13031
904.863	13076
904.981	12802
905.098	12669
905.216	12760
905.334	12703
905.451	12601
905.569	12711
905.686	12677
905.803	12802
905.921	12483
906.038	12597
906.155	12513
906.272	12414
906.389	12395
906.506	12194
906.623	12296
906.74	12319
906.857	12197
906.974	12201
907.091	12384
907.208	12361
907.324	12209
907.441	12163
907.557	12091
907.674	12011
907.79	11950
907.907	11912
908.023	11996
908.139	11988
908.256	12015
908.372	11923
908.488	11946
908.604	11798
908.72	11767
908.836	11771
908.952	11741
909.068	11855
909.184	11828
909.3	11798
909.415	11847
909.531	11798
909.647	11570
909.762	11619
909.878	11433
909.993	11615
910.108	11463
910.224	11497
910.339	11524
910.454	11467
910.57	11376
910.685	11307
910.8	11642
910.915	11448
911.03	11364
911.145	11231
911.259	11174
911.374	11239
911.489	11162
911.604	11201
911.718	11022
911.833	11083
911.947	10980
912.062	10816
912.176	11018
912.291	10946
912.405	10991
912.519	11185
912.633	11174
912.748	11033
912.862	11056
912.976	10854
913.09	10767
913.204	10797
913.318	10854
913.431	10949
913.545	10934
913.659	10877
913.772	10820
913.886	10710
914	10752
914.113	10908
914.226	10858
914.34	10835
914.453	10691
914.566	10824
914.68	10740
914.793	10725
914.906	10466
915.019	10512
915.132	10459
915.245	10493
915.358	10459
915.47	10558
915.583	10535
915.696	10459
915.809	10626
915.921	10618
916.034	10481
916.146	10497
916.259	10360
916.371	10558
916.483	10493
916.595	10451
916.708	10451
916.82	10409
916.932	10379
917.044	10363
917.156	10409
917.268	10337
917.38	10299
917.491	10268
917.603	10246
917.715	10367
917.826	10413
917.938	10299
918.049	10162
918.161	10249
918.272	10504
918.384	10382
918.495	10280
918.606	10246
918.717	10120
918.828	10158
918.939	10177
919.05	10101
919.161	10154
919.272	10048
919.383	10112
919.494	10284
919.604	10459
919.715	10242
919.826	10090
919.936	10173
920.047	10394
920.157	10215
920.267	10485
920.378	10322
920.488	10204
920.598	10405
920.708	10569
920.818	10371
920.928	10485
921.038	10527
921.148	10500
921.258	10268
921.368	10116
921.477	10101
921.587	10074
921.697	9945
921.806	10074
921.916	9972
922.025	9915
922.134	9740
922.244	9747
922.353	9732
922.462	9637
922.571	9542
922.68	9439
922.789	9424
922.898	9500
923.007	9397
923.116	9504
923.224	9515
923.333	9431
923.442	9310
923.55	9340
923.659	9386
923.767	9408
923.876	9363
923.984	9370
924.092	9291
924.201	9367
924.309	9382
924.417	9367
924.525	9325
924.633	9302
924.741	10097
924.849	9081
924.956	9268
925.064	9142
925.172	9116
925.279	9051
925.387	9142
925.494	9119
925.602	9222
925.709	9222
925.816	9028
925.924	9138
926.031	9165
926.138	9100
926.245	9203
926.352	9119
926.459	9173
926.566	9294
926.673	9055
926.779	8948
926.886	9051
926.993	8880
927.099	8788
927.206	8800
927.312	8785
927.419	8876
927.525	8777
927.631	8883
927.737	8754
927.843	8705
927.95	8617
928.056	8693
928.162	8743
928.267	8769
928.373	9389
928.479	8788
928.585	8583
928.69	8766
928.796	8804
928.901	8674
929.007	8518
929.112	8670
929.218	8606
929.323	8556
929.428	8590
929.533	8693
929.638	8465
929.743	8465
929.848	8579
929.953	8560
930.058	8473
930.163	8358
930.267	8347
930.372	8488
930.477	8282
930.581	8590
930.685	8358
930.79	8263
930.894	8244
930.998	8183
931.103	8419
931.207	8134
931.311	8016
931.415	7951
931.519	7807
931.623	7765
