Data from test_V78500241_179.txt Node
Date: Fri Mar 25 14:34:58 CST 2022
User: usil
Spectrometer: V785-0024
Trigger mode: 0
Integration Time (sec): 4.000000E-1
Scans to average: 1
Nonlinearity correction enabled: false
Boxcar width: 0
Storing dark spectrum: false
XAxis mode: Wavelengths
Number of Pixels in Spectrum: 1024
>>>>>Begin Spectral Data<<<<<
801.071	28649
801.214	28596
801.356	28432
801.499	28234
801.641	28230
801.783	27953
801.926	28124
802.068	27964
802.211	27934
802.353	27907
802.496	27774
802.638	27675
802.78	27831
802.923	27515
803.065	27454
803.208	27629
803.35	27682
803.492	27720
803.635	27816
803.777	27679
803.919	27816
804.061	27991
804.204	27819
804.346	27675
804.488	27500
804.63	27641
804.773	27515
804.915	27663
805.057	27660
805.199	27701
805.341	27694
805.483	27762
805.626	27739
805.768	27675
805.91	27854
806.052	27842
806.194	27690
806.336	27949
806.478	27800
806.62	27899
806.762	28006
806.904	28006
807.046	28169
807.188	28215
807.33	28382
807.472	28341
807.614	28348
807.756	28493
807.898	28447
808.04	28519
808.182	28607
808.324	28995
808.465	29159
808.607	29661
808.749	30076
808.891	30121
809.033	30338
809.174	30041
809.316	29611
809.458	29452
809.6	29166
809.741	29018
809.883	29006
810.025	28946
810.166	28854
810.308	28774
810.45	28577
810.591	28470
810.733	28333
810.875	28272
811.016	28120
811.158	28135
811.299	28177
811.441	28417
811.582	28211
811.724	28204
811.865	27975
812.007	28017
812.148	28124
812.29	28128
812.431	28329
812.573	28333
812.714	28398
812.855	28546
812.997	28622
813.138	28660
813.279	28721
813.421	28489
813.562	28462
813.703	28356
813.845	28196
813.986	27972
814.127	27903
814.268	27736
814.41	27660
814.551	27629
814.692	27629
814.833	27614
814.974	27435
815.115	27526
815.256	27488
815.397	27530
815.539	27427
815.68	27382
815.821	27321
815.962	27378
816.103	27302
816.244	27241
816.385	26986
816.526	27028
816.666	26925
816.807	26864
816.948	26800
817.089	26880
817.23	26762
817.371	26853
817.512	26754
817.653	26697
817.793	26689
817.934	26731
818.075	26648
818.216	26488
818.356	26514
818.497	26419
818.638	26374
818.778	26381
818.919	26404
819.06	26415
819.2	26545
819.341	26655
819.481	26632
819.622	26701
819.762	26940
819.903	26762
820.043	26705
820.184	26655
820.324	26693
820.465	26655
820.605	26568
820.746	26575
820.886	26446
821.026	26598
821.167	26606
821.307	26560
821.447	26530
821.588	26385
821.728	26328
821.868	26020
822.008	26111
822.149	26024
822.289	25856
822.429	25784
822.569	25658
822.709	25734
822.849	25567
822.99	25365
823.13	25464
823.27	25449
823.41	25148
823.55	25198
823.69	25225
823.83	25198
823.97	25202
824.11	24973
824.25	25072
824.389	25008
824.529	25103
824.669	25103
824.809	25076
824.949	25027
825.089	25057
825.228	25031
825.368	24844
825.508	24776
825.648	24722
825.787	24840
825.927	24913
826.067	24722
826.206	24688
826.346	24882
826.485	24905
826.625	24817
826.765	24821
826.904	24802
827.044	24532
827.183	24570
827.323	24464
827.462	24532
827.601	24460
827.741	24391
827.88	24429
828.02	24399
828.159	24395
828.298	24365
828.437	24471
828.577	24376
828.716	24460
828.855	24403
828.994	24136
829.134	24167
829.273	24133
829.412	24129
829.551	23992
829.69	24159
829.829	24220
829.968	24251
830.107	24201
830.246	24076
830.385	24098
830.524	24011
830.663	23939
830.802	23866
830.941	23722
831.08	23798
831.219	23676
831.357	23786
831.496	23980
831.635	23653
831.774	23505
831.913	23604
832.051	23486
832.19	23406
832.329	23448
832.467	23368
832.606	23463
832.744	23273
832.883	23364
833.022	23265
833.16	23391
833.299	23436
833.437	23315
833.576	23425
833.714	23356
833.852	23474
833.991	23395
834.129	23471
834.267	23505
834.406	23577
834.544	23497
834.682	23387
834.821	23387
834.959	23440
835.097	23425
835.235	23448
835.373	23383
835.511	23284
835.65	23330
835.788	23193
835.926	22961
836.064	22900
836.202	23006
836.34	23174
836.478	23239
836.615	23193
836.753	23090
836.891	23117
837.029	23117
837.167	23064
837.305	22938
837.443	22896
837.58	22965
837.718	23010
837.856	22949
837.993	22850
838.131	22946
838.269	22744
838.406	22733
838.544	22816
838.681	22596
838.819	22554
838.956	22447
839.094	22382
839.231	22451
839.369	22592
839.506	22740
839.643	22660
839.781	22314
839.918	22280
840.055	22348
840.193	22200
840.33	22325
840.467	22348
840.604	22257
840.742	22519
840.879	22128
841.016	22200
841.153	22116
841.29	22344
841.427	22188
841.564	22299
841.701	22219
841.838	22230
841.975	22131
842.112	22246
842.249	22032
842.385	21975
842.522	22090
842.659	21979
842.796	21941
842.933	22021
843.069	21987
843.206	21861
843.343	22029
843.479	21983
843.616	21934
843.752	21857
843.889	21762
844.025	21953
844.162	21568
844.298	21762
844.435	21701
844.571	21667
844.708	21720
844.844	21899
844.98	21994
845.117	21895
845.253	22013
845.389	22048
845.525	22246
845.661	22588
845.798	23265
845.934	23695
846.07	23874
846.206	23767
846.342	23512
846.478	22854
846.614	22021
846.75	21778
846.886	21553
847.022	21488
847.158	21393
847.294	21245
847.429	21397
847.565	21203
847.701	21424
847.837	20994
847.972	20811
848.108	20963
848.244	20914
848.379	20735
848.515	20777
848.65	20720
848.786	20648
848.921	20781
849.057	20910
849.192	20750
849.328	20708
849.463	20708
849.598	20606
849.734	20503
849.869	20465
850.004	20423
850.14	20404
850.275	20465
850.41	20358
850.545	20332
850.68	20374
850.815	20400
850.95	20541
851.085	20609
851.22	20530
851.355	20495
851.49	20320
851.625	20324
851.76	20214
851.895	20317
852.03	20187
852.165	20389
852.299	20278
852.434	20484
852.569	20412
852.703	20415
852.838	20465
852.973	20526
853.107	20549
853.242	20214
853.376	20126
853.511	20221
853.645	20180
853.78	20374
853.914	20275
854.048	20324
854.183	20180
854.317	20366
854.451	20446
854.585	20290
854.72	20244
854.854	20351
854.988	20191
855.122	20172
855.256	20119
855.39	20161
855.524	20267
855.658	20324
855.792	20199
855.926	20221
856.06	20259
856.194	20244
856.327	20237
856.461	20145
856.595	20218
856.729	20100
856.862	20351
856.996	20157
857.13	20180
857.263	20214
857.397	20282
857.53	20180
857.664	20214
857.797	20237
857.931	20286
858.064	20172
858.197	20187
858.331	20187
858.464	20088
858.597	20073
858.731	20161
858.864	20115
858.997	20145
859.13	20054
859.263	20126
859.396	20252
859.529	20115
859.662	20107
859.795	20103
859.928	20168
860.061	20271
860.194	20202
860.327	20088
860.46	20020
860.592	20202
860.725	20233
860.858	20271
860.99	20069
861.123	20046
861.256	20039
861.388	19963
861.521	20613
861.653	19978
861.786	19868
861.918	19830
862.05	19993
862.183	20157
862.315	20252
862.447	20389
862.58	20088
862.712	19932
862.844	19841
862.976	19906
863.108	19917
863.24	20164
863.372	19757
863.504	19852
863.636	19750
863.768	19887
863.9	19742
864.032	19765
864.164	19902
864.296	19704
864.428	19803
864.559	19807
864.691	19875
864.823	19826
864.954	19746
865.086	19765
865.217	19791
865.349	19613
865.48	19788
865.612	19772
865.743	19814
865.875	19708
866.006	19658
866.137	19666
866.269	19757
866.4	19685
866.531	19681
866.662	19723
866.793	19567
866.924	19788
867.055	19681
867.186	19620
867.317	19582
867.448	19601
867.579	19556
867.71	19601
867.841	19556
867.972	19613
868.103	19693
868.233	19624
868.364	19727
868.495	19814
868.625	19875
868.756	20008
868.886	19693
869.017	19868
869.147	19982
869.278	20005
869.408	19803
869.539	19982
869.669	19947
869.799	19902
869.929	20054
870.06	20024
870.19	20214
870.32	20187
870.45	20149
870.58	20324
870.71	20385
870.84	20324
870.97	20248
871.1	20229
871.23	20465
871.36	20514
871.489	20324
871.619	20381
871.749	20499
871.879	20670
872.008	20655
872.138	20514
872.267	20476
872.397	20355
872.526	20366
872.656	20294
872.785	20282
872.915	20423
873.044	20556
873.173	20473
873.303	20465
873.432	20583
873.561	20640
873.69	20571
873.819	20583
873.948	20606
874.077	20488
874.206	20355
874.335	20526
874.464	20655
874.593	20708
874.722	20689
874.851	20910
874.979	20758
875.108	20941
875.237	20739
875.365	20750
875.494	20754
875.623	20906
875.751	20800
875.88	20811
876.008	20963
876.136	21001
876.265	21161
876.393	21340
876.521	21348
876.65	21249
876.778	21264
876.906	21169
877.034	21249
877.162	21340
877.29	21199
877.418	21302
877.546	21195
877.674	21264
877.802	21184
877.93	21287
878.058	21291
878.185	21184
878.313	21336
878.441	21336
878.568	21218
878.696	21416
878.824	21538
878.951	21614
879.079	21857
879.206	22226
879.333	22268
879.461	22242
879.588	22481
879.715	22516
879.842	22432
879.97	22249
880.097	21671
880.224	21561
880.351	21549
880.478	21416
880.605	21332
880.732	21336
880.859	21530
880.986	21317
881.112	21344
881.239	21176
881.366	21211
881.493	21066
881.619	20891
881.746	20826
881.872	20960
881.999	20906
882.125	20838
882.252	20990
882.378	20956
882.505	21165
882.631	20899
882.757	20754
882.883	20754
883.01	20731
883.136	20632
883.262	20609
883.388	20488
883.514	20674
883.64	20590
883.766	20609
883.892	20518
884.018	20590
884.143	20762
884.269	20689
884.395	20393
884.52	20442
884.646	20298
884.772	20275
884.897	20271
885.023	20305
885.148	20511
885.274	20499
885.399	20503
885.524	20187
885.65	20290
885.775	20282
885.9	20244
886.025	20229
886.15	20267
886.275	20225
886.4	20107
886.525	20199
886.65	20191
886.775	20168
886.9	20275
887.025	20408
887.149	20126
887.274	19955
887.399	19940
887.523	19883
887.648	19845
887.773	19875
887.897	19849
888.021	19963
888.146	19833
888.27	19902
888.395	19970
888.519	19928
888.643	19928
888.767	19932
888.891	19712
889.015	19700
889.139	19635
889.263	19548
889.387	19746
889.511	19780
889.635	19658
889.759	19632
889.883	19518
890.006	19605
890.13	19616
890.254	19468
890.377	19460
890.501	19346
890.624	19285
890.748	19419
890.871	19282
890.995	19171
891.118	19164
891.241	19152
891.364	19259
891.488	19301
891.611	19190
891.734	19209
891.857	19255
891.98	19126
892.103	19392
892.226	19187
892.349	19202
892.471	19027
892.594	19133
892.717	19057
892.839	19126
892.962	19034
893.085	19213
893.207	19057
893.33	19034
893.452	19038
893.575	19141
893.697	19091
893.819	19198
893.941	19331
894.064	19179
894.186	19004
894.308	19034
894.43	19129
894.552	19160
894.674	19015
894.796	18993
894.918	19072
895.04	19012
895.161	19133
895.283	19015
895.405	18966
895.526	19061
895.648	18996
895.769	19232
895.891	19148
896.012	19171
896.134	19194
896.255	19133
896.376	19107
896.498	19122
896.619	19171
896.74	19080
896.861	19304
896.982	19392
897.103	19594
897.224	19483
897.345	19346
897.466	19255
897.587	19472
897.708	19453
897.828	19407
897.949	19209
898.07	19118
898.19	19232
898.311	19350
898.431	19301
898.552	19422
898.672	19316
898.792	19411
898.913	19411
899.033	19213
899.153	19148
899.273	19031
899.393	19084
899.513	19072
899.633	19053
899.753	19122
899.873	19031
899.993	19122
900.113	19053
900.232	18996
900.352	18913
900.472	18909
900.591	18753
900.711	18909
900.83	18837
900.95	18951
901.069	18943
901.189	18802
901.308	18665
901.427	18460
901.546	18574
901.665	18441
901.784	18551
901.904	18445
902.023	18190
902.141	18098
902.26	17927
902.379	18091
902.498	17889
902.617	17855
902.735	18011
902.854	17942
902.973	17836
903.091	17630
903.21	17657
903.328	17649
903.446	17600
903.565	17535
903.683	17364
903.801	17368
903.919	17414
904.038	17376
904.156	17288
904.274	17318
904.392	17189
904.51	17208
904.627	17220
904.745	17239
904.863	17239
904.981	16968
905.098	16911
905.216	16854
905.334	16809
905.451	16885
905.569	16740
905.686	16942
905.803	16793
905.921	16721
906.038	16843
906.155	16519
906.272	16466
906.389	16535
906.506	16466
906.623	16485
906.74	16402
906.857	16185
906.974	16234
907.091	16413
907.208	16459
907.324	16303
907.441	16337
907.557	16188
907.674	16059
907.79	15975
907.907	16013
908.023	16097
908.139	16078
908.256	16021
908.372	15922
908.488	15922
908.604	15812
908.72	15709
908.836	15778
908.952	15743
909.068	15778
909.184	15808
909.3	15656
909.415	15701
909.531	15717
909.647	15447
909.762	15443
909.878	15443
909.993	15549
910.108	15367
910.224	15424
910.339	15245
910.454	15370
910.57	15256
910.685	15176
910.8	15370
910.915	15355
911.03	15241
911.145	15077
911.259	15055
911.374	15100
911.489	14929
911.604	14887
911.718	14823
911.833	14762
911.947	14754
912.062	14575
912.176	14773
912.291	14754
912.405	14758
912.519	14944
912.633	14937
912.748	14792
912.862	14720
912.976	14575
913.09	14442
913.204	14488
913.318	14571
913.431	14686
913.545	14632
913.659	14735
913.772	14568
913.886	14473
914	14415
914.113	14473
914.226	14446
914.34	14461
914.453	14275
914.566	14469
914.68	14336
914.793	14244
914.906	14119
915.019	14088
915.132	14027
915.245	14069
915.358	14100
915.47	14126
915.583	14157
915.696	14134
915.809	14126
915.921	14153
916.034	13982
916.146	13982
916.259	14012
916.371	13997
916.483	13986
916.595	13875
916.708	13841
916.82	13913
916.932	13883
917.044	13849
917.156	13852
917.268	13693
917.38	13715
917.491	13753
917.603	13803
917.715	13799
917.826	13822
917.938	13681
918.049	13571
918.161	13719
918.272	13822
918.384	13852
918.495	13689
918.606	13476
918.717	13464
918.828	13521
918.939	13586
919.05	13468
919.161	13453
919.272	13236
919.383	13324
919.494	13422
919.604	13681
919.715	13480
919.826	13476
919.936	13301
920.047	13476
920.157	13464
920.267	13681
920.378	13529
920.488	13354
920.598	13616
920.708	13822
920.818	13525
920.928	13620
921.038	13655
921.148	13655
921.258	13457
921.368	13331
921.477	13183
921.587	13091
921.697	13088
921.806	13179
921.916	13057
922.025	12905
922.134	12802
922.244	12833
922.353	12848
922.462	12681
922.571	12681
922.68	12593
922.789	12498
922.898	12517
923.007	12471
923.116	12536
923.224	12513
923.333	12498
923.442	12357
923.55	12346
923.659	12426
923.767	12445
923.876	12311
923.984	12319
924.092	12239
924.201	12270
924.309	12209
924.417	12254
924.525	12201
924.633	12205
924.741	13095
924.849	11961
924.956	12182
925.064	11965
925.172	11874
925.279	11950
925.387	11973
925.494	11996
925.602	12144
925.709	12045
925.816	11904
925.924	11874
926.031	12068
926.138	11969
926.245	12060
926.352	11920
926.459	11874
926.566	11992
926.673	11874
926.779	11802
926.886	11718
926.993	11589
927.099	11608
927.206	11585
927.312	11524
927.419	11589
927.525	11566
927.631	11581
927.737	11410
927.843	11356
927.95	11307
928.056	11421
928.162	11497
928.267	11482
928.373	12038
928.479	11482
928.585	11360
928.69	11334
928.796	11364
928.901	11216
929.007	11155
929.112	11273
929.218	11258
929.323	11155
929.428	11136
929.533	11261
929.638	11029
929.743	11045
929.848	11189
929.953	11109
930.058	10957
930.163	10881
930.267	10873
930.372	11064
930.477	10847
930.581	11056
930.685	10866
930.79	10748
930.894	10786
930.998	10744
931.103	10862
931.207	10531
931.311	10478
931.415	10310
931.519	10147
931.623	10143
