Data from test_V78500241_1821.txt Node
Date: Fri Mar 25 14:46:23 CST 2022
User: usil
Spectrometer: V785-0024
Trigger mode: 0
Integration Time (sec): 4.000000E-1
Scans to average: 1
Nonlinearity correction enabled: false
Boxcar width: 0
Storing dark spectrum: false
XAxis mode: Wavelengths
Number of Pixels in Spectrum: 1024
>>>>>Begin Spectral Data<<<<<
801.071	22154
801.214	22036
801.356	21804
801.499	21686
801.641	21473
801.783	21500
801.926	21599
802.068	21408
802.211	21439
802.353	21363
802.496	21108
802.638	20982
802.78	21028
802.923	20971
803.065	20739
803.208	20933
803.35	20796
803.492	20883
803.635	20868
803.777	20769
803.919	20838
804.061	21176
804.204	20800
804.346	20762
804.488	20720
804.63	20686
804.773	20773
804.915	20762
805.057	20842
805.199	20743
805.341	20697
805.483	20880
805.626	20826
805.768	20670
805.91	20750
806.052	20773
806.194	20644
806.336	20826
806.478	20754
806.62	20743
806.762	20762
806.904	20906
807.046	21188
807.188	21108
807.33	21116
807.472	21211
807.614	21081
807.756	20967
807.898	20845
808.04	20807
808.182	20777
808.324	20910
808.465	20861
808.607	21077
808.749	21096
808.891	21252
809.033	21336
809.174	21195
809.316	21047
809.458	21173
809.6	21199
809.741	21222
809.883	21127
810.025	21374
810.166	21302
810.308	21294
810.45	21370
810.591	21237
810.733	21039
810.875	20971
811.016	20861
811.158	20845
811.299	20906
811.441	20937
811.582	21032
811.724	20986
811.865	20941
812.007	20891
812.148	20883
812.29	21013
812.431	21009
812.573	21222
812.714	21264
812.855	21382
812.997	21462
813.138	21660
813.279	21473
813.421	21397
813.562	21291
813.703	21116
813.845	21127
813.986	20887
814.127	20537
814.268	20495
814.41	20476
814.551	20412
814.692	20465
814.833	20461
814.974	20423
815.115	20431
815.256	20339
815.397	20294
815.539	20275
815.68	20309
815.821	20126
815.962	20172
816.103	20145
816.244	20096
816.385	19989
816.526	19970
816.666	19898
816.807	19662
816.948	19700
817.089	19742
817.23	19590
817.371	19571
817.512	19605
817.653	19548
817.793	19582
817.934	19552
818.075	19708
818.216	19601
818.356	19495
818.497	19510
818.638	19339
818.778	19274
818.919	19289
819.06	19247
819.2	19350
819.341	19472
819.481	19430
819.622	19575
819.762	19856
819.903	19849
820.043	19597
820.184	19628
820.324	19556
820.465	19639
820.605	19674
820.746	19632
820.886	19529
821.026	19616
821.167	19575
821.307	19643
821.447	19506
821.588	19377
821.728	19278
821.868	19171
822.008	18989
822.149	18981
822.289	18966
822.429	18791
822.569	18692
822.709	18707
822.849	18403
822.99	18490
823.13	18475
823.27	18372
823.41	18323
823.55	18270
823.69	18296
823.83	18277
823.97	18262
824.11	18136
824.25	18068
824.389	18106
824.529	18053
824.669	18102
824.809	18133
824.949	18152
825.089	18121
825.228	18060
825.368	17935
825.508	17832
825.648	17809
825.787	17885
825.927	17908
826.067	17866
826.206	17870
826.346	17821
826.485	17878
826.625	17805
826.765	17828
826.904	17771
827.044	17611
827.183	17490
827.323	17501
827.462	17592
827.601	17585
827.741	17623
827.88	17501
828.02	17406
828.159	17509
828.298	17649
828.437	17680
828.577	17463
828.716	17733
828.855	17356
828.994	17322
829.134	17258
829.273	17353
829.412	17250
829.551	17265
829.69	17227
829.829	17356
829.968	17417
830.107	17315
830.246	17341
830.385	17280
830.524	17208
830.663	17105
830.802	17045
830.941	16915
831.08	16835
831.219	16957
831.357	16946
831.496	17094
831.635	16862
831.774	16805
831.913	16778
832.051	16687
832.19	16630
832.329	16702
832.467	16592
832.606	16573
832.744	16660
832.883	16584
833.022	16573
833.16	16546
833.299	16641
833.437	16645
833.576	16675
833.714	16675
833.852	16637
833.991	16694
834.129	16736
834.267	16771
834.406	16607
834.544	16607
834.682	16668
834.821	16580
834.959	16900
835.097	16672
835.235	16645
835.373	16687
835.511	16611
835.65	16603
835.788	16550
835.926	16455
836.064	16379
836.202	16481
836.34	16622
836.478	16527
836.615	16546
836.753	16672
836.891	16664
837.029	16611
837.167	16504
837.305	16531
837.443	16561
837.58	16527
837.718	16481
837.856	16432
837.993	16462
838.131	16481
838.269	16341
838.406	16447
838.544	16287
838.681	16128
838.819	16105
838.956	16067
839.094	15926
839.231	16093
839.369	16128
839.506	16234
839.643	16226
839.781	15934
839.918	15930
840.055	16112
840.193	15907
840.33	15869
840.467	15991
840.604	15998
840.742	16238
840.879	15793
841.016	15861
841.153	15922
841.29	16036
841.427	16112
841.564	16013
841.701	16036
841.838	15956
841.975	15907
842.112	15861
842.249	15694
842.385	15762
842.522	15941
842.659	15831
842.796	15739
842.933	15785
843.069	15709
843.206	15736
843.343	15865
843.479	15785
843.616	15793
843.752	15622
843.889	15477
844.025	15679
844.162	15534
844.298	15679
844.435	15488
844.571	15473
844.708	15568
844.844	15755
844.98	15679
845.117	15641
845.253	15507
845.389	15439
845.525	15568
845.661	15504
845.798	15344
845.934	15351
846.07	15264
846.206	15340
846.342	15507
846.478	15386
846.614	15230
846.75	14998
846.886	15097
847.022	15165
847.158	15150
847.294	15093
847.429	15207
847.565	15093
847.701	15382
847.837	14876
847.972	14815
848.108	14960
848.244	14933
848.379	14731
848.515	14651
848.65	14769
848.786	14769
848.921	14697
849.057	14792
849.192	14800
849.328	14746
849.463	14716
849.598	14674
849.734	14621
849.869	14697
850.004	14469
850.14	14495
850.275	14522
850.41	14450
850.545	14415
850.68	14408
850.815	14526
850.95	14488
851.085	14659
851.22	14655
851.355	14514
851.49	14396
851.625	14560
851.76	14530
851.895	14385
852.03	14336
852.165	14438
852.299	14518
852.434	14594
852.569	14583
852.703	14450
852.838	14594
852.973	14674
853.107	14629
853.242	14461
853.376	14412
853.511	14271
853.645	14210
853.78	14480
853.914	14457
854.048	14412
854.183	14351
854.317	14419
854.451	14678
854.585	14381
854.72	14320
854.854	14495
854.988	14248
855.122	14317
855.256	14161
855.39	14263
855.524	14522
855.658	14419
855.792	14343
855.926	14324
856.06	14298
856.194	14381
856.327	14461
856.461	14233
856.595	14347
856.729	14374
856.862	14564
856.996	14434
857.13	14454
857.263	14537
857.397	14454
857.53	14423
857.664	14351
857.797	14499
857.931	14488
858.064	14454
858.197	14511
858.331	14351
858.464	14336
858.597	14191
858.731	14263
858.864	14259
858.997	14298
859.13	14317
859.263	14454
859.396	14476
859.529	14309
859.662	14324
859.795	14320
859.928	14362
860.061	14587
860.194	14522
860.327	14457
860.46	14313
860.592	14434
860.725	14514
860.858	14514
860.99	14191
861.123	14172
861.256	14298
861.388	14313
861.521	14910
861.653	14221
861.786	14123
861.918	14180
862.05	14218
862.183	14301
862.315	14286
862.447	14412
862.58	14358
862.712	14092
862.844	14069
862.976	14164
863.108	14298
863.24	14492
863.372	14031
863.504	14214
863.636	14084
863.768	14164
863.9	14111
864.032	14123
864.164	14077
864.296	14267
864.428	14313
864.559	14153
864.691	14206
864.823	14290
864.954	14229
865.086	14259
865.217	14149
865.349	14008
865.48	14145
865.612	14100
865.743	14202
865.875	14046
866.006	14100
866.137	14046
866.269	14199
866.4	14237
866.531	14050
866.662	14039
866.793	14077
866.924	14126
867.055	14199
867.186	14008
867.317	14107
867.448	14100
867.579	14050
867.71	14039
867.841	14096
867.972	14065
868.103	14123
868.233	14138
868.364	14237
868.495	14180
868.625	14248
868.756	14400
868.886	14221
869.017	14313
869.147	14552
869.278	14480
869.408	14377
869.539	14457
869.669	14412
869.799	14454
869.929	14503
870.06	14469
870.19	14686
870.32	14705
870.45	14727
870.58	14758
870.71	14823
870.84	14804
870.97	14762
871.1	14701
871.23	14952
871.36	14948
871.489	14823
871.619	15062
871.749	14925
871.879	14925
872.008	15055
872.138	14937
872.267	15028
872.397	14891
872.526	14845
872.656	14750
872.785	14815
872.915	14887
873.044	15043
873.173	14998
873.303	15062
873.432	15039
873.561	15104
873.69	15089
873.819	14963
873.948	15108
874.077	15039
874.206	14998
874.335	15039
874.464	15184
874.593	15260
874.722	15245
874.851	15412
874.979	15325
875.108	15325
875.237	15306
875.365	15252
875.494	15348
875.623	15389
875.751	15310
875.88	15420
876.008	15561
876.136	15511
876.265	15713
876.393	15835
876.521	15823
876.65	15812
876.778	15831
876.906	15736
877.034	15781
877.162	15793
877.29	15641
877.418	15743
877.546	15778
877.674	15838
877.802	15797
877.93	15701
878.058	15709
878.185	15591
878.313	15652
878.441	15762
878.568	15549
878.696	15713
878.824	15751
878.951	15793
879.079	15934
879.206	15991
879.333	15926
879.461	15827
879.588	15918
879.715	15911
879.842	16025
879.97	15835
880.097	15606
880.224	15568
880.351	15618
880.478	15606
880.605	15648
880.732	15610
880.859	15838
880.986	15644
881.112	15690
881.239	15568
881.366	15355
881.493	15287
881.619	15287
881.746	15230
881.872	15291
881.999	15230
882.125	15218
882.252	15313
882.378	15264
882.505	15272
882.631	15192
882.757	15077
882.883	15085
883.01	15043
883.136	15081
883.262	14929
883.388	14929
883.514	15116
883.64	15112
883.766	14990
883.892	14864
884.018	14868
884.143	15036
884.269	15051
884.395	14876
884.52	14743
884.646	14724
884.772	14712
884.897	14663
885.023	14807
885.148	14876
885.274	14910
885.399	14788
885.524	14724
885.65	14739
885.775	14861
885.9	14891
886.025	14914
886.15	14739
886.275	14743
886.4	14781
886.525	14800
886.65	14777
886.775	14590
886.9	14906
887.025	15039
887.149	14830
887.274	14621
887.399	14583
887.523	14594
887.648	14495
887.773	14583
887.897	14594
888.021	14640
888.146	14549
888.27	14746
888.395	14758
888.519	14667
888.643	14663
888.767	14720
888.891	14598
889.015	14446
889.139	14473
889.263	14370
889.387	14480
889.511	14758
889.635	14579
889.759	14533
889.883	14461
890.006	14503
890.13	14629
890.254	14503
890.377	14476
890.501	14256
890.624	14229
890.748	14309
890.871	14199
890.995	14092
891.118	14145
891.241	14187
891.364	14138
891.488	14263
891.611	14149
891.734	14168
891.857	14286
891.98	14126
892.103	14248
892.226	14301
892.349	14084
892.471	14031
892.594	14214
892.717	14176
892.839	14199
892.962	14183
893.085	14214
893.207	14126
893.33	14065
893.452	14096
893.575	14256
893.697	14164
893.819	14404
893.941	14362
894.064	14423
894.186	14062
894.308	14161
894.43	14267
894.552	14309
894.674	14298
894.796	14195
894.918	14206
895.04	14142
895.161	14313
895.283	14377
895.405	14126
895.526	14176
895.648	14351
895.769	14282
895.891	14336
896.012	14347
896.134	14278
896.255	14412
896.376	14294
896.498	14309
896.619	14419
896.74	14412
896.861	14381
896.982	14724
897.103	14845
897.224	14670
897.345	14488
897.466	14374
897.587	14629
897.708	14720
897.828	14701
897.949	14530
898.07	14492
898.19	14568
898.311	14735
898.431	14674
898.552	14613
898.672	14769
898.792	14792
898.913	14667
899.033	14518
899.153	14522
899.273	14484
899.393	14495
899.513	14667
899.633	14511
899.753	14613
899.873	14351
899.993	14499
900.113	14476
900.232	14541
900.352	14530
900.472	14438
900.591	14339
900.711	14377
900.83	14400
900.95	14533
901.069	14438
901.189	14385
901.308	14149
901.427	13986
901.546	14088
901.665	14149
901.784	14111
901.904	13963
902.023	13860
902.141	13696
902.26	13636
902.379	13685
902.498	13613
902.617	13567
902.735	13689
902.854	13704
902.973	13575
903.091	13419
903.21	13350
903.328	13320
903.446	13339
903.565	13179
903.683	13160
903.801	13114
903.919	13255
904.038	13107
904.156	13031
904.274	13145
904.392	13019
904.51	13015
904.627	12973
904.745	13069
904.863	13061
904.981	12829
905.098	12764
905.216	12681
905.334	12741
905.451	12635
905.569	12722
905.686	12703
905.803	12681
905.921	12540
906.038	12559
906.155	12540
906.272	12467
906.389	12475
906.506	12292
906.623	12262
906.74	12243
906.857	12098
906.974	12209
907.091	12361
907.208	12441
907.324	12251
907.441	12292
907.557	12030
907.674	12034
907.79	12007
907.907	12053
908.023	12144
908.139	12117
908.256	11977
908.372	12026
908.488	11847
908.604	11775
908.72	11809
908.836	11802
908.952	11805
909.068	11798
909.184	11969
909.3	11786
909.415	11824
909.531	11843
909.647	11596
909.762	11672
909.878	11570
909.993	11547
910.108	11532
910.224	11562
910.339	11562
910.454	11467
910.57	11471
910.685	11406
910.8	11623
910.915	11581
911.03	11524
911.145	11227
911.259	11307
911.374	11349
911.489	11273
911.604	11136
911.718	11033
911.833	11117
911.947	10976
912.062	10915
912.176	11033
912.291	10999
912.405	11102
912.519	11216
912.633	11318
912.748	11037
912.862	11067
912.976	10923
913.09	10850
913.204	10782
913.318	10911
913.431	10991
913.545	11006
913.659	11071
913.772	10885
913.886	10847
914	10733
914.113	10904
914.226	10938
914.34	10854
914.453	10778
914.566	10828
914.68	10733
914.793	10729
914.906	10615
915.019	10531
915.132	10466
915.245	10481
915.358	10538
915.47	10573
915.583	10527
915.696	10558
915.809	10733
915.921	10717
916.034	10516
916.146	10402
916.259	10504
916.371	10656
916.483	10512
916.595	10436
916.708	10428
916.82	10500
916.932	10417
917.044	10478
917.156	10512
917.268	10360
917.38	10382
917.491	10371
917.603	10379
917.715	10497
917.826	10485
917.938	10284
918.049	10295
918.161	10306
918.272	10455
918.384	10497
918.495	10402
918.606	10265
918.717	10181
918.828	10246
918.939	10246
919.05	10207
919.161	10215
919.272	10036
919.383	10059
919.494	10310
919.604	10459
919.715	10284
919.826	10177
919.936	10207
920.047	10261
920.157	10215
920.267	10440
920.378	10303
920.488	10299
920.598	10428
920.708	10611
920.818	10462
920.928	10417
921.038	10561
921.148	10649
921.258	10261
921.368	10181
921.477	10071
921.587	10162
921.697	10082
921.806	10162
921.916	9987
922.025	9854
922.134	9842
922.244	9793
922.353	9804
922.462	9660
922.571	9610
922.68	9515
922.789	9458
922.898	9504
923.007	9496
923.116	9572
923.224	9439
923.333	9488
923.442	9447
923.55	9367
923.659	9485
923.767	9420
923.876	9401
923.984	9481
924.092	9283
924.201	9420
924.309	9351
924.417	9283
924.525	9272
924.633	9317
924.741	10200
924.849	9192
924.956	9382
925.064	9245
925.172	9116
925.279	9203
925.387	9142
925.494	9104
925.602	9321
925.709	9291
925.816	9146
925.924	9135
926.031	9321
926.138	9138
926.245	9230
926.352	9085
926.459	9272
926.566	9222
926.673	9123
926.779	9062
926.886	9032
926.993	8895
927.099	8944
927.206	8861
927.312	8819
927.419	8899
927.525	8925
927.631	8960
927.737	8811
927.843	8804
927.95	8678
928.056	8788
928.162	8731
928.267	8819
928.373	9473
928.479	8880
928.585	8610
928.69	8781
928.796	8792
928.901	8800
929.007	8518
929.112	8682
929.218	8701
929.323	8575
929.428	8598
929.533	8758
929.638	8514
929.743	8583
929.848	8621
929.953	8583
930.058	8541
930.163	8351
930.267	8347
930.372	8473
930.477	8336
930.581	8621
930.685	8427
930.79	8324
930.894	8259
930.998	8309
931.103	8454
931.207	8123
931.311	8016
931.415	8031
931.519	7769
931.623	7837
