Data from test_V78500241_213.txt Node
Date: Fri Mar 25 14:35:12 CST 2022
User: usil
Spectrometer: V785-0024
Trigger mode: 0
Integration Time (sec): 4.000000E-1
Scans to average: 1
Nonlinearity correction enabled: false
Boxcar width: 0
Storing dark spectrum: false
XAxis mode: Wavelengths
Number of Pixels in Spectrum: 1024
>>>>>Begin Spectral Data<<<<<
801.071	28067
801.214	27800
801.356	27759
801.499	27705
801.641	27374
801.783	27306
801.926	27416
802.068	27252
802.211	27157
802.353	27017
802.496	27051
802.638	26960
802.78	26849
802.923	26823
803.065	26693
803.208	26880
803.35	26895
803.492	26845
803.635	26899
803.777	26880
803.919	26994
804.061	27340
804.204	26914
804.346	26868
804.488	26800
804.63	26887
804.773	26754
804.915	26826
805.057	26929
805.199	26819
805.341	26925
805.483	26910
805.626	26891
805.768	26830
805.91	26804
806.052	27066
806.194	26963
806.336	27039
806.478	26842
806.62	27020
806.762	26944
806.904	27169
807.046	27492
807.188	27214
807.33	27416
807.472	27294
807.614	27397
807.756	27412
807.898	27252
808.04	27055
808.182	27416
808.324	27408
808.465	27466
808.607	27713
808.749	27854
808.891	27793
809.033	28051
809.174	28112
809.316	27766
809.458	27911
809.6	27675
809.741	27739
809.883	27751
810.025	27705
810.166	27854
810.308	27774
810.45	27781
810.591	27549
810.733	27477
810.875	27397
811.016	27283
811.158	27093
811.299	27408
811.441	27252
811.582	27481
811.724	27294
811.865	27173
812.007	27355
812.148	27135
812.29	27332
812.431	27469
812.573	27572
812.714	27583
812.855	27682
812.997	27850
813.138	27930
813.279	27819
813.421	27732
813.562	27675
813.703	27534
813.845	27386
813.986	27211
814.127	26998
814.268	26861
814.41	26940
814.551	26746
814.692	26944
814.833	26845
814.974	26693
815.115	26777
815.256	26697
815.397	26708
815.539	26575
815.68	26438
815.821	26564
815.962	26556
816.103	26537
816.244	26317
816.385	26343
816.526	26271
816.666	26035
816.807	25860
816.948	26069
817.089	26142
817.23	26050
817.371	26054
817.512	25982
817.653	25894
817.793	25742
817.934	25936
818.075	25837
818.216	25890
818.356	25807
818.497	25822
818.638	25643
818.778	25559
818.919	25674
819.06	25715
819.2	25761
819.341	25795
819.481	25704
819.622	25932
819.762	26073
819.903	25997
820.043	25997
820.184	25913
820.324	26012
820.465	25963
820.605	25906
820.746	25837
820.886	25940
821.026	25704
821.167	25727
821.307	25947
821.447	25799
821.588	25723
821.728	25556
821.868	25346
822.008	25316
822.149	25190
822.289	25175
822.429	24935
822.569	24806
822.709	24932
822.849	24719
822.99	24658
823.13	24688
823.27	24593
823.41	24403
823.55	24346
823.69	24513
823.83	24509
823.97	24369
824.11	24350
824.25	24350
824.389	24319
824.529	24285
824.669	24327
824.809	24372
824.949	24353
825.089	24285
825.228	24330
825.368	24026
825.508	24091
825.648	24186
825.787	24068
825.927	24011
826.067	23939
826.206	24038
826.346	24152
826.485	24018
826.625	23946
826.765	24030
826.904	24045
827.044	23843
827.183	23817
827.323	23741
827.462	23764
827.601	23695
827.741	23771
827.88	23726
828.02	23573
828.159	23661
828.298	23752
828.437	23786
828.577	23509
828.716	23676
828.855	23471
828.994	23429
829.134	23410
829.273	23486
829.412	23368
829.551	23337
829.69	23330
829.829	23368
829.968	23608
830.107	23478
830.246	23474
830.385	23223
830.524	23273
830.663	23132
830.802	23060
830.941	22995
831.08	22953
831.219	23003
831.357	22980
831.496	23147
831.635	22919
831.774	22881
831.913	22828
832.051	22752
832.19	22721
832.329	22675
832.467	22660
832.606	22561
832.744	22584
832.883	22618
833.022	22500
833.16	22584
833.299	22645
833.437	22672
833.576	22660
833.714	22542
833.852	22626
833.991	22759
834.129	22634
834.267	22797
834.406	22729
834.544	22713
834.682	22561
834.821	22561
834.959	22774
835.097	22557
835.235	22615
835.373	22546
835.511	22615
835.65	22443
835.788	22489
835.926	22211
836.064	22322
836.202	22253
836.34	22447
836.478	22478
836.615	22314
836.753	22481
836.891	22474
837.029	22371
837.167	22295
837.305	22344
837.443	22276
837.58	22204
837.718	22333
837.856	22257
837.993	22261
838.131	22192
838.269	22139
838.406	22074
838.544	22002
838.681	21816
838.819	21861
838.956	21625
839.094	21778
839.231	21800
839.369	21850
839.506	21972
839.643	21907
839.781	21667
839.918	21568
840.055	21618
840.193	21667
840.33	21526
840.467	21549
840.604	21644
840.742	21850
840.879	21458
841.016	21538
841.153	21439
841.29	21690
841.427	21526
841.564	21622
841.701	21500
841.838	21488
841.975	21439
842.112	21389
842.249	21329
842.385	21393
842.522	21576
842.659	21252
842.796	21325
842.933	21222
843.069	21302
843.206	21241
843.343	21325
843.479	21340
843.616	21180
843.752	21020
843.889	21119
844.025	21127
844.162	20941
844.298	21192
844.435	21104
844.571	20967
844.708	20944
844.844	21142
844.98	21268
845.117	21104
845.253	21127
845.389	20956
845.525	21127
845.661	21252
845.798	21203
845.934	21538
846.07	21561
846.206	21386
846.342	21466
846.478	21226
846.614	20830
846.75	20629
846.886	20617
847.022	20727
847.158	20526
847.294	20454
847.429	20606
847.565	20473
847.701	20621
847.837	20225
847.972	20138
848.108	20294
848.244	20263
848.379	20039
848.515	20100
848.65	20001
848.786	20088
848.921	20005
849.057	20233
849.192	20073
849.328	20024
849.463	20020
849.598	19986
849.734	19875
849.869	19944
850.004	19784
850.14	19734
850.275	19776
850.41	19613
850.545	19677
850.68	19662
850.815	19750
850.95	19647
851.085	19898
851.22	19902
851.355	19658
851.49	19712
851.625	19757
851.76	19521
851.895	19628
852.03	19525
852.165	19704
852.299	19814
852.434	19780
852.569	19784
852.703	19662
852.838	19753
852.973	19852
853.107	19845
853.242	19719
853.376	19575
853.511	19483
853.645	19575
853.78	19677
853.914	19521
854.048	19499
854.183	19491
854.317	19590
854.451	19662
854.585	19632
854.72	19457
854.854	19544
854.988	19483
855.122	19605
855.256	19384
855.39	19483
855.524	19616
855.658	19575
855.792	19499
855.926	19567
856.06	19540
856.194	19677
856.327	19582
856.461	19354
856.595	19403
856.729	19537
856.862	19708
856.996	19567
857.13	19632
857.263	19575
857.397	19506
857.53	19529
857.664	19586
857.797	19575
857.931	19605
858.064	19655
858.197	19643
858.331	19495
858.464	19316
858.597	19377
858.731	19495
858.864	19369
858.997	19369
859.13	19472
859.263	19590
859.396	19506
859.529	19460
859.662	19441
859.795	19415
859.928	19537
860.061	19552
860.194	19586
860.327	19476
860.46	19434
860.592	19464
860.725	19628
860.858	19502
860.99	19388
861.123	19373
861.256	19521
861.388	19502
861.521	19989
861.653	19316
861.786	19293
861.918	19324
862.05	19487
862.183	19495
862.315	19480
862.447	19460
862.58	19495
862.712	19274
862.844	19126
862.976	19285
863.108	19221
863.24	19514
863.372	19244
863.504	19202
863.636	19126
863.768	19316
863.9	19198
864.032	19038
864.164	19198
864.296	19244
864.428	19255
864.559	19251
864.691	19255
864.823	19251
864.954	19042
865.086	19160
865.217	19065
865.349	19023
865.48	19129
865.612	19061
865.743	19244
865.875	19141
866.006	18951
866.137	19061
866.269	19122
866.4	19050
866.531	18951
866.662	18905
866.793	18916
866.924	19080
867.055	18951
867.186	18958
867.317	19152
867.448	18958
867.579	18996
867.71	18943
867.841	18996
867.972	19038
868.103	18970
868.233	19095
868.364	19126
868.495	19038
868.625	19244
868.756	19339
868.886	19156
869.017	19282
869.147	19301
869.278	19422
869.408	19346
869.539	19217
869.669	19453
869.799	19217
869.929	19304
870.06	19358
870.19	19590
870.32	19521
870.45	19556
870.58	19609
870.71	19894
870.84	19860
870.97	19811
871.1	19620
871.23	19791
871.36	19856
871.489	19772
871.619	19837
871.749	19761
871.879	19864
872.008	19944
872.138	19849
872.267	19917
872.397	19784
872.526	19578
872.656	19693
872.785	19742
872.915	19734
873.044	19875
873.173	19849
873.303	19993
873.432	20001
873.561	20039
873.69	20024
873.819	19807
873.948	20016
874.077	19852
874.206	19795
874.335	19860
874.464	19955
874.593	20073
874.722	20092
874.851	20172
874.979	20206
875.108	20286
875.237	20145
875.365	20111
875.494	20088
875.623	20267
875.751	20142
875.88	20225
876.008	20343
876.136	20225
876.265	20514
876.393	20731
876.521	20693
876.65	20537
876.778	20640
876.906	20492
877.034	20374
877.162	20583
877.29	20568
877.418	20530
877.546	20590
877.674	20457
877.802	20514
877.93	20629
878.058	20423
878.185	20442
878.313	20678
878.441	20545
878.568	20408
878.696	20545
878.824	20564
878.951	20632
879.079	20902
879.206	21089
879.333	20960
879.461	20849
879.588	20990
879.715	21005
879.842	21112
879.97	20876
880.097	20670
880.224	20480
880.351	20552
880.478	20530
880.605	20431
880.732	20396
880.859	20701
880.986	20385
881.112	20431
881.239	20278
881.366	20168
881.493	20183
881.619	20050
881.746	20016
881.872	20027
881.999	20027
882.125	20138
882.252	20084
882.378	19951
882.505	20069
882.631	19890
882.757	19811
882.883	19875
883.01	19807
883.136	19795
883.262	19685
883.388	19738
883.514	19757
883.64	19845
883.766	19769
883.892	19620
884.018	19643
884.143	19769
884.269	19841
884.395	19582
884.52	19411
884.646	19480
884.772	19384
884.897	19358
885.023	19499
885.148	19491
885.274	19655
885.399	19575
885.524	19502
885.65	19487
885.775	19407
885.9	19377
886.025	19487
886.15	19556
886.275	19369
886.4	19415
886.525	19396
886.65	19320
886.775	19350
886.9	19460
887.025	19605
887.149	19335
887.274	19247
887.399	19103
887.523	19133
887.648	19137
887.773	18993
887.897	19247
888.021	19156
888.146	19050
888.27	19266
888.395	19282
888.519	19160
888.643	19160
888.767	19160
888.891	19050
889.015	19061
889.139	19008
889.263	18951
889.387	18928
889.511	19152
889.635	18954
889.759	18989
889.883	18859
890.006	18958
890.13	19088
890.254	18787
890.377	18886
890.501	18741
890.624	18700
890.748	18962
890.871	18646
890.995	18639
891.118	18486
891.241	18578
891.364	18540
891.488	18692
891.611	18555
891.734	18460
891.857	18688
891.98	18445
892.103	18601
892.226	18620
892.349	18490
892.471	18429
892.594	18486
892.717	18540
892.839	18350
892.962	18536
893.085	18559
893.207	18559
893.33	18369
893.452	18319
893.575	18479
893.697	18407
893.819	18707
893.941	18707
894.064	18608
894.186	18410
894.308	18338
894.43	18395
894.552	18566
894.674	18669
894.796	18258
894.918	18452
895.04	18429
895.161	18612
895.283	18551
895.405	18353
895.526	18559
895.648	18460
895.769	18517
895.891	18559
896.012	18604
896.134	18506
896.255	18521
896.376	18445
896.498	18547
896.619	18559
896.74	18585
896.861	18627
896.982	18844
897.103	19061
897.224	18863
897.345	18760
897.466	18673
897.587	18719
897.708	18947
897.828	18837
897.949	18753
898.07	18639
898.19	18726
898.311	18833
898.431	18730
898.552	18669
898.672	18806
898.792	18913
898.913	18749
899.033	18555
899.153	18517
899.273	18418
899.393	18544
899.513	18585
899.633	18486
899.753	18589
899.873	18540
899.993	18582
900.113	18467
900.232	18483
900.352	18441
900.472	18407
900.591	18258
900.711	18403
900.83	18319
900.95	18441
901.069	18384
901.189	18258
901.308	18015
901.427	17927
901.546	17927
901.665	17992
901.784	17942
901.904	17764
902.023	17707
902.141	17383
902.26	17417
902.379	17520
902.498	17448
902.617	17478
902.735	17417
902.854	17353
902.973	17463
903.091	17064
903.21	17197
903.328	17170
903.446	17151
903.565	16957
903.683	17003
903.801	16767
903.919	16862
904.038	16858
904.156	16771
904.274	16835
904.392	16641
904.51	16603
904.627	16828
904.745	16797
904.863	16710
904.981	16459
905.098	16462
905.216	16341
905.334	16421
905.451	16432
905.569	16421
905.686	16398
905.803	16394
905.921	16131
906.038	16253
906.155	16276
906.272	16036
906.389	16017
906.506	15892
906.623	15899
906.74	15827
906.857	15838
906.974	15827
907.091	15998
907.208	15972
907.324	15903
907.441	15838
907.557	15610
907.674	15656
907.79	15652
907.907	15504
908.023	15622
908.139	15542
908.256	15545
908.372	15447
908.488	15416
908.604	15264
908.72	15241
908.836	15340
908.952	15237
909.068	15344
909.184	15351
909.3	15310
909.415	15226
909.531	15264
909.647	15089
909.762	15020
909.878	15005
909.993	14910
910.108	14853
910.224	14933
910.339	14975
910.454	14834
910.57	14804
910.685	14746
910.8	15074
910.915	14998
911.03	14788
911.145	14594
911.259	14629
911.374	14659
911.489	14598
911.604	14469
911.718	14434
911.833	14336
911.947	14267
912.062	14187
912.176	14286
912.291	14351
912.405	14385
912.519	14484
912.633	14518
912.748	14431
912.862	14393
912.976	14157
913.09	14035
913.204	14088
913.318	14168
913.431	14282
913.545	14305
913.659	14240
913.772	14092
913.886	14073
914	13989
914.113	13986
914.226	14123
914.34	14115
914.453	13932
914.566	14035
914.68	13887
914.793	13970
914.906	13696
915.019	13689
915.132	13563
915.245	13601
915.358	13727
915.47	13586
915.583	13681
915.696	13681
915.809	13769
915.921	13761
916.034	13613
916.146	13537
916.259	13499
916.371	13636
916.483	13537
916.595	13605
916.708	13510
916.82	13525
916.932	13453
917.044	13415
917.156	13400
917.268	13240
917.38	13358
917.491	13282
917.603	13415
917.715	13426
917.826	13441
917.938	13221
918.049	13217
918.161	13369
918.272	13468
918.384	13449
918.495	13388
918.606	13118
918.717	13027
918.828	13213
918.939	13190
919.05	12989
919.161	12981
919.272	12894
919.383	12962
919.494	13122
919.604	13335
919.715	13057
919.826	12970
919.936	13053
920.047	13080
920.157	13114
920.267	13312
920.378	13137
920.488	12996
920.598	13236
920.708	13407
920.818	13221
920.928	13335
921.038	13495
921.148	13388
921.258	13038
921.368	12916
921.477	12859
921.587	12810
921.697	12749
921.806	12882
921.916	12722
922.025	12642
922.134	12525
922.244	12479
922.353	12460
922.462	12338
922.571	12350
922.68	12273
922.789	12140
922.898	12292
923.007	12129
923.116	12216
923.224	12068
923.333	12125
923.442	11954
923.55	11920
923.659	12110
923.767	12026
923.876	11996
923.984	11969
924.092	11893
924.201	11965
924.309	11889
924.417	11946
924.525	11965
924.633	11859
924.741	12779
924.849	11695
924.956	11824
925.064	11634
925.172	11630
925.279	11661
925.387	11722
925.494	11623
925.602	11855
925.709	11718
925.816	11581
925.924	11634
926.031	11668
926.138	11573
926.245	11657
926.352	11558
926.459	11627
926.566	11722
926.673	11585
926.779	11474
926.886	11440
926.993	11292
927.099	11242
927.206	11223
927.312	11174
927.419	11315
927.525	11277
927.631	11235
927.737	11204
927.843	11132
927.95	11010
928.056	11090
928.162	11181
928.267	11105
928.373	11729
928.479	11166
928.585	10946
928.69	11071
928.796	11121
928.901	10980
929.007	10809
929.112	10919
929.218	10946
929.323	10820
929.428	10885
929.533	10987
929.638	10828
929.743	10847
929.848	10820
929.953	10892
930.058	10660
930.163	10546
930.267	10550
930.372	10664
930.477	10538
930.581	10820
930.685	10584
930.79	10409
930.894	10459
930.998	10451
931.103	10577
931.207	10150
931.311	10101
931.415	10128
931.519	9869
931.623	9892
