Data from test_V78500241_1751.txt Node
Date: Fri Mar 25 14:45:54 CST 2022
User: usil
Spectrometer: V785-0024
Trigger mode: 0
Integration Time (sec): 4.000000E-1
Scans to average: 1
Nonlinearity correction enabled: false
Boxcar width: 0
Storing dark spectrum: false
XAxis mode: Wavelengths
Number of Pixels in Spectrum: 1024
>>>>>Begin Spectral Data<<<<<
801.071	22131
801.214	22040
801.356	21762
801.499	21739
801.641	21679
801.783	21599
801.926	21515
802.068	21576
802.211	21466
802.353	21233
802.496	21222
802.638	21165
802.78	21211
802.923	20941
803.065	20933
803.208	20948
803.35	20826
803.492	20925
803.635	21127
803.777	20899
803.919	20998
804.061	21329
804.204	20933
804.346	20914
804.488	20693
804.63	20788
804.773	20781
804.915	20849
805.057	21058
805.199	20773
805.341	20906
805.483	20929
805.626	20842
805.768	20765
805.91	20731
806.052	20929
806.194	20834
806.336	21039
806.478	20887
806.62	20743
806.762	20887
806.904	21100
807.046	21207
807.188	21096
807.33	21169
807.472	21222
807.614	21024
807.756	21096
807.898	20952
808.04	20948
808.182	20921
808.324	21058
808.465	21051
808.607	21112
808.749	21321
808.891	21367
809.033	21370
809.174	21298
809.316	21180
809.458	21199
809.6	21138
809.741	21226
809.883	21260
810.025	21469
810.166	21435
810.308	21481
810.45	21386
810.591	21291
810.733	21135
810.875	21112
811.016	20880
811.158	20910
811.299	21062
811.441	21104
811.582	21112
811.724	21028
811.865	21005
812.007	21005
812.148	20937
812.29	20956
812.431	21157
812.573	21211
812.714	21382
812.855	21504
812.997	21644
813.138	21690
813.279	21618
813.421	21576
813.562	21572
813.703	21264
813.845	21039
813.986	20769
814.127	20720
814.268	20667
814.41	20579
814.551	20454
814.692	20689
814.833	20469
814.974	20526
815.115	20450
815.256	20358
815.397	20537
815.539	20442
815.68	20415
815.821	20233
815.962	20374
816.103	20256
816.244	20088
816.385	19944
816.526	19951
816.666	19799
816.807	19670
816.948	19849
817.089	19784
817.23	19738
817.371	19689
817.512	19727
817.653	19727
817.793	19666
817.934	19704
818.075	19674
818.216	19578
818.356	19666
818.497	19476
818.638	19358
818.778	19377
818.919	19411
819.06	19434
819.2	19483
819.341	19487
819.481	19571
819.622	19700
819.762	19860
819.903	19704
820.043	19677
820.184	19601
820.324	19635
820.465	19639
820.605	19635
820.746	19601
820.886	19597
821.026	19616
821.167	19609
821.307	19635
821.447	19712
821.588	19521
821.728	19350
821.868	19274
822.008	19084
822.149	19141
822.289	19069
822.429	18848
822.569	18795
822.709	18901
822.849	18608
822.99	18513
823.13	18696
823.27	18570
823.41	18361
823.55	18429
823.69	18346
823.83	18467
823.97	18277
824.11	18034
824.25	18106
824.389	18091
824.529	18228
824.669	18163
824.809	18289
824.949	18243
825.089	18258
825.228	18186
825.368	17878
825.508	18022
825.648	17889
825.787	17961
825.927	17935
826.067	17885
826.206	17832
826.346	17950
826.485	17882
826.625	17942
826.765	18060
826.904	17916
827.044	17794
827.183	17653
827.323	17600
827.462	17585
827.601	17604
827.741	17535
827.88	17615
828.02	17528
828.159	17562
828.298	17665
828.437	17665
828.577	17623
828.716	17760
828.855	17653
828.994	17326
829.134	17379
829.273	17391
829.412	17334
829.551	17303
829.69	17391
829.829	17410
829.968	17376
830.107	17478
830.246	17330
830.385	17299
830.524	17136
830.663	17254
830.802	17090
830.941	16908
831.08	17025
831.219	17079
831.357	17079
831.496	17140
831.635	16972
831.774	16847
831.913	16847
832.051	16816
832.19	16786
832.329	16854
832.467	16622
832.606	16649
832.744	16706
832.883	16641
833.022	16641
833.16	16710
833.299	16717
833.437	16740
833.576	16736
833.714	16763
833.852	16801
833.991	16694
834.129	16778
834.267	16812
834.406	16713
834.544	16668
834.682	16713
834.821	16611
834.959	16881
835.097	16748
835.235	16759
835.373	16721
835.511	16691
835.65	16626
835.788	16485
835.926	16508
836.064	16363
836.202	16409
836.34	16672
836.478	16683
836.615	16546
836.753	16653
836.891	16755
837.029	16675
837.167	16637
837.305	16554
837.443	16580
837.58	16493
837.718	16577
837.856	16481
837.993	16470
838.131	16485
838.269	16398
838.406	16474
838.544	16371
838.681	16265
838.819	16169
838.956	16139
839.094	16071
839.231	16040
839.369	16135
839.506	16386
839.643	16207
839.781	16036
839.918	16059
840.055	16109
840.193	16036
840.33	15983
840.467	16040
840.604	16010
840.742	16436
840.879	15880
841.016	15983
841.153	15975
841.29	16063
841.427	16040
841.564	16105
841.701	16051
841.838	16006
841.975	15972
842.112	15979
842.249	15755
842.385	15724
842.522	16090
842.659	15804
842.796	15911
842.933	15808
843.069	15755
843.206	15724
843.343	15911
843.479	15861
843.616	15732
843.752	15549
843.889	15618
844.025	15759
844.162	15614
844.298	15641
844.435	15667
844.571	15477
844.708	15614
844.844	15724
844.98	15717
845.117	15789
845.253	15648
845.389	15488
845.525	15572
845.661	15561
845.798	15294
845.934	15488
846.07	15363
846.206	15519
846.342	15538
846.478	15294
846.614	15245
846.75	15066
846.886	15131
847.022	15294
847.158	15150
847.294	15142
847.429	15116
847.565	15192
847.701	15382
847.837	14944
847.972	14830
848.108	15100
848.244	14887
848.379	14804
848.515	14758
848.65	14773
848.786	14788
848.921	14769
849.057	14883
849.192	14876
849.328	14727
849.463	14792
849.598	14674
849.734	14731
849.869	14682
850.004	14568
850.14	14731
850.275	14598
850.41	14503
850.545	14518
850.68	14583
850.815	14488
850.95	14480
851.085	14571
851.22	14750
851.355	14579
851.49	14431
851.625	14461
851.76	14431
851.895	14442
852.03	14446
852.165	14526
852.299	14545
852.434	14541
852.569	14648
852.703	14545
852.838	14613
852.973	14598
853.107	14758
853.242	14518
853.376	14427
853.511	14233
853.645	14328
853.78	14533
853.914	14480
854.048	14358
854.183	14427
854.317	14351
854.451	14484
854.585	14377
854.72	14305
854.854	14488
854.988	14294
855.122	14431
855.256	14355
855.39	14400
855.524	14396
855.658	14469
855.792	14415
855.926	14507
856.06	14488
856.194	14488
856.327	14545
856.461	14389
856.595	14381
856.729	14286
856.862	14533
856.996	14438
857.13	14507
857.263	14514
857.397	14560
857.53	14473
857.664	14446
857.797	14465
857.931	14503
858.064	14450
858.197	14560
858.331	14317
858.464	14317
858.597	14324
858.731	14336
858.864	14381
858.997	14362
859.13	14423
859.263	14339
859.396	14541
859.529	14377
859.662	14351
859.795	14328
859.928	14465
860.061	14655
860.194	14590
860.327	14336
860.46	14408
860.592	14617
860.725	14545
860.858	14522
860.99	14362
861.123	14339
861.256	14320
861.388	14381
861.521	15154
861.653	14351
861.786	14259
861.918	14130
862.05	14240
862.183	14381
862.315	14461
862.447	14389
862.58	14301
862.712	14145
862.844	14176
862.976	14237
863.108	14199
863.24	14571
863.372	14153
863.504	14172
863.636	14199
863.768	14355
863.9	14153
864.032	14100
864.164	14100
864.296	14195
864.428	14282
864.559	14199
864.691	14240
864.823	14275
864.954	14229
865.086	14187
865.217	14153
865.349	14153
865.48	14191
865.612	14111
865.743	14290
865.875	14183
866.006	14058
866.137	14157
866.269	14142
866.4	14103
866.531	14172
866.662	14073
866.793	14187
866.924	14161
867.055	14157
867.186	14187
867.317	14046
867.448	14088
867.579	14069
867.71	14103
867.841	14054
867.972	14111
868.103	14161
868.233	14218
868.364	14187
868.495	14248
868.625	14366
868.756	14541
868.886	14317
869.017	14358
869.147	14541
869.278	14511
869.408	14431
869.539	14389
869.669	14507
869.799	14492
869.929	14575
870.06	14552
870.19	14765
870.32	14682
870.45	14735
870.58	14868
870.71	14849
870.84	14864
870.97	14800
871.1	14792
871.23	14994
871.36	15009
871.489	14925
871.619	14975
871.749	14998
871.879	15039
872.008	15188
872.138	15032
872.267	14982
872.397	14918
872.526	14785
872.656	14887
872.785	14986
872.915	14971
873.044	15085
873.173	14975
873.303	15036
873.432	15116
873.561	15245
873.69	15055
873.819	14990
873.948	15207
874.077	15039
874.206	15017
874.335	15009
874.464	15211
874.593	15291
874.722	15310
874.851	15462
874.979	15378
875.108	15511
875.237	15359
875.365	15325
875.494	15359
875.623	15492
875.751	15416
875.88	15405
876.008	15538
876.136	15580
876.265	15717
876.393	15903
876.521	15915
876.65	15869
876.778	15713
876.906	15663
877.034	15842
877.162	15770
877.29	15648
877.418	15743
877.546	15675
877.674	15800
877.802	15705
877.93	15739
878.058	15739
878.185	15690
878.313	15747
878.441	15789
878.568	15641
878.696	15751
878.824	15774
878.951	15865
879.079	15937
879.206	16139
879.333	15994
879.461	15850
879.588	15888
879.715	16025
879.842	16071
879.97	15857
880.097	15663
880.224	15538
880.351	15705
880.478	15622
880.605	15637
880.732	15667
880.859	15880
880.986	15644
881.112	15808
881.239	15603
881.366	15458
881.493	15348
881.619	15321
881.746	15260
881.872	15279
881.999	15260
882.125	15291
882.252	15363
882.378	15291
882.505	15389
882.631	15306
882.757	15081
882.883	15188
883.01	15176
883.136	15116
883.262	14933
883.388	15009
883.514	15020
883.64	15081
883.766	14929
883.892	14960
884.018	14887
884.143	15119
884.269	15173
884.395	14857
884.52	14823
884.646	14819
884.772	14819
884.897	14640
885.023	14857
885.148	14891
885.274	14948
885.399	14944
885.524	14956
885.65	14823
885.775	14861
885.9	14769
886.025	14929
886.15	14918
886.275	14716
886.4	14674
886.525	14811
886.65	14613
886.775	14838
886.9	14994
887.025	14994
887.149	14804
887.274	14739
887.399	14613
887.523	14674
887.648	14541
887.773	14613
887.897	14708
888.021	14701
888.146	14689
888.27	14834
888.395	14773
888.519	14731
888.643	14777
888.767	14655
888.891	14587
889.015	14594
889.139	14533
889.263	14358
889.387	14632
889.511	14705
889.635	14640
889.759	14495
889.883	14484
890.006	14583
890.13	14564
890.254	14457
890.377	14507
890.501	14275
890.624	14244
890.748	14366
890.871	14187
890.995	14142
891.118	14191
891.241	14206
891.364	14195
891.488	14320
891.611	14229
891.734	14221
891.857	14256
891.98	14103
892.103	14240
892.226	14229
892.349	14039
892.471	14027
892.594	14111
892.717	14210
892.839	14115
892.962	14187
893.085	14210
893.207	14225
893.33	14050
893.452	14252
893.575	14252
893.697	14134
893.819	14431
893.941	14415
894.064	14396
894.186	14123
894.308	14149
894.43	14393
894.552	14294
894.674	14320
894.796	14214
894.918	14183
895.04	14259
895.161	14347
895.283	14343
895.405	14100
895.526	14271
895.648	14267
895.769	14298
895.891	14320
896.012	14400
896.134	14339
896.255	14301
896.376	14317
896.498	14358
896.619	14419
896.74	14389
896.861	14412
896.982	14743
897.103	14929
897.224	14663
897.345	14659
897.466	14587
897.587	14598
897.708	14792
897.828	14724
897.949	14587
898.07	14613
898.19	14499
898.311	14708
898.431	14587
898.552	14739
898.672	14785
898.792	14796
898.913	14834
899.033	14636
899.153	14568
899.273	14484
899.393	14564
899.513	14492
899.633	14621
899.753	14636
899.873	14549
899.993	14651
900.113	14575
900.232	14590
900.352	14617
900.472	14492
900.591	14396
900.711	14419
900.83	14419
900.95	14549
901.069	14575
901.189	14412
901.308	14073
901.427	14161
901.546	14119
901.665	14126
901.784	14134
901.904	14062
902.023	13928
902.141	13647
902.26	13620
902.379	13811
902.498	13681
902.617	13590
902.735	13628
902.854	13708
902.973	13613
903.091	13419
903.21	13377
903.328	13354
903.446	13343
903.565	13312
903.683	13362
903.801	13107
903.919	13297
904.038	13274
904.156	13000
904.274	13183
904.392	13110
904.51	12970
904.627	13095
904.745	13099
904.863	13042
904.981	12837
905.098	12681
905.216	12757
905.334	12787
905.451	12703
905.569	12715
905.686	12749
905.803	12749
905.921	12639
906.038	12635
906.155	12551
906.272	12403
906.389	12467
906.506	12361
906.623	12441
906.74	12330
906.857	12285
906.974	12258
907.091	12369
907.208	12452
907.324	12395
907.441	12258
907.557	12136
907.674	12121
907.79	12022
907.907	12079
908.023	12095
908.139	12114
908.256	12011
908.372	12022
908.488	12007
908.604	11901
908.72	11794
908.836	11889
908.952	11718
909.068	11832
909.184	11992
909.3	11836
909.415	11920
909.531	11878
909.647	11688
909.762	11608
909.878	11585
909.993	11581
910.108	11688
910.224	11573
910.339	11619
910.454	11524
910.57	11539
910.685	11478
910.8	11688
910.915	11623
911.03	11444
911.145	11299
911.259	11326
911.374	11303
911.489	11239
911.604	11159
911.718	11060
911.833	11094
911.947	11014
912.062	10900
912.176	11117
912.291	11075
912.405	11033
912.519	11265
912.633	11261
912.748	11124
912.862	11075
912.976	11003
913.09	10835
913.204	10816
913.318	10953
913.431	10976
913.545	11014
913.659	11102
913.772	10953
913.886	10793
914	10778
914.113	10911
914.226	10908
914.34	10911
914.453	10702
914.566	10839
914.68	10809
914.793	10809
914.906	10558
915.019	10519
915.132	10485
915.245	10599
915.358	10577
915.47	10504
915.583	10588
915.696	10649
915.809	10710
915.921	10687
916.034	10641
916.146	10516
916.259	10493
916.371	10573
916.483	10630
916.595	10546
916.708	10504
916.82	10538
916.932	10531
917.044	10500
917.156	10447
917.268	10348
917.38	10367
917.491	10325
917.603	10432
917.715	10508
917.826	10546
917.938	10417
918.049	10280
918.161	10451
918.272	10451
918.384	10538
918.495	10443
918.606	10280
918.717	10173
918.828	10207
918.939	10234
919.05	10234
919.161	10207
919.272	10051
919.383	10112
919.494	10363
919.604	10470
919.715	10280
919.826	10196
919.936	10230
920.047	10451
920.157	10230
920.267	10554
920.378	10318
920.488	10257
920.598	10542
920.708	10634
920.818	10405
920.928	10455
921.038	10596
921.148	10554
921.258	10341
921.368	10249
921.477	10211
921.587	10093
921.697	9975
921.806	10192
921.916	10078
922.025	9812
922.134	9797
922.244	9842
922.353	9884
922.462	9717
922.571	9652
922.68	9568
922.789	9530
922.898	9584
923.007	9462
923.116	9610
923.224	9496
923.333	9576
923.442	9367
923.55	9340
923.659	9462
923.767	9542
923.876	9435
923.984	9500
924.092	9306
924.201	9393
924.309	9393
924.417	9435
924.525	9332
924.633	9466
924.741	10261
924.849	9146
924.956	9249
925.064	9188
925.172	9161
925.279	9154
925.387	9245
925.494	9245
925.602	9317
925.709	9355
925.816	9184
925.924	9176
926.031	9260
926.138	9169
926.245	9237
926.352	9131
926.459	9188
926.566	9230
926.673	9180
926.779	9013
926.886	9070
926.993	8921
927.099	8895
927.206	8823
927.312	8887
927.419	8921
927.525	8921
927.631	8960
927.737	8819
927.843	8766
927.95	8644
928.056	8823
928.162	8838
928.267	8849
928.373	9405
928.479	8880
928.585	8689
928.69	8762
928.796	8815
928.901	8743
929.007	8476
929.112	8701
929.218	8670
929.323	8686
929.428	8621
929.533	8716
929.638	8511
929.743	8621
929.848	8606
929.953	8579
930.058	8511
930.163	8396
930.267	8336
930.372	8488
930.477	8347
930.581	8610
930.685	8446
930.79	8328
930.894	8336
930.998	8301
931.103	8480
931.207	8111
931.311	8081
931.415	7959
931.519	7921
931.623	7826
