Data from test_V78500241_177.txt Node
Date: Fri Mar 25 14:34:57 CST 2022
User: usil
Spectrometer: V785-0024
Trigger mode: 0
Integration Time (sec): 4.000000E-1
Scans to average: 1
Nonlinearity correction enabled: false
Boxcar width: 0
Storing dark spectrum: false
XAxis mode: Wavelengths
Number of Pixels in Spectrum: 1024
>>>>>Begin Spectral Data<<<<<
801.071	28565
801.214	28344
801.356	28192
801.499	28063
801.641	28044
801.783	27838
801.926	28002
802.068	27876
802.211	27914
802.353	27743
802.496	27660
802.638	27610
802.78	27599
802.923	27542
803.065	27370
803.208	27473
803.35	27515
803.492	27614
803.635	27728
803.777	27770
803.919	27641
804.061	27979
804.204	27762
804.346	27561
804.488	27462
804.63	27405
804.773	27606
804.915	27591
805.057	27679
805.199	27580
805.341	27542
805.483	27789
805.626	27606
805.768	27739
805.91	27774
806.052	27831
806.194	27686
806.336	27857
806.478	27762
806.62	27618
806.762	28017
806.904	28109
807.046	28314
807.188	28344
807.33	28242
807.472	28451
807.614	28348
807.756	28554
807.898	28478
808.04	28557
808.182	28717
808.324	29014
808.465	29265
808.607	29592
808.749	30030
808.891	30235
809.033	30319
809.174	30018
809.316	29893
809.458	29471
809.6	29090
809.741	28980
809.883	28892
810.025	28888
810.166	28809
810.308	28603
810.45	28660
810.591	28542
810.733	28280
810.875	28219
811.016	28200
811.158	27945
811.299	28090
811.441	28310
811.582	28215
811.724	28036
811.865	27991
812.007	28032
812.148	28006
812.29	28109
812.431	28268
812.573	28409
812.714	28489
812.855	28626
812.997	28630
813.138	28797
813.279	28679
813.421	28588
813.562	28516
813.703	28363
813.845	28242
813.986	27899
814.127	27705
814.268	27576
814.41	27736
814.551	27618
814.692	27679
814.833	27564
814.974	27606
815.115	27542
815.256	27557
815.397	27336
815.539	27386
815.68	27252
815.821	27302
815.962	27359
816.103	27211
816.244	27211
816.385	27104
816.526	27005
816.666	26830
816.807	26781
816.948	26769
817.089	26857
817.23	26773
817.371	26800
817.512	26594
817.653	26788
817.793	26648
817.934	26609
818.075	26602
818.216	26735
818.356	26583
818.497	26625
818.638	26408
818.778	26332
818.919	26507
819.06	26355
819.2	26503
819.341	26571
819.481	26613
819.622	26727
819.762	26880
819.903	26777
820.043	26701
820.184	26842
820.324	26655
820.465	26815
820.605	26712
820.746	26667
820.886	26465
821.026	26568
821.167	26617
821.307	26568
821.447	26488
821.588	26480
821.728	26233
821.868	26214
822.008	25989
822.149	25993
822.289	26031
822.429	25746
822.569	25620
822.709	25594
822.849	25525
822.99	25529
823.13	25400
823.27	25476
823.41	25217
823.55	25152
823.69	25384
823.83	25266
823.97	25278
824.11	24897
824.25	24977
824.389	25129
824.529	25023
824.669	24875
824.809	25031
824.949	25129
825.089	25084
825.228	25015
825.368	24825
825.508	24844
825.648	24951
825.787	24817
825.927	24787
826.067	24951
826.206	24852
826.346	24916
826.485	24848
826.625	24890
826.765	24954
826.904	24920
827.044	24608
827.183	24608
827.323	24460
827.462	24635
827.601	24566
827.741	24521
827.88	24528
828.02	24399
828.159	24460
828.298	24452
828.437	24612
828.577	24429
828.716	24681
828.855	24426
828.994	24205
829.134	24110
829.273	24270
829.412	24045
829.551	24114
829.69	24197
829.829	24224
829.968	24148
830.107	24330
830.246	24209
830.385	24155
830.524	24102
830.663	24034
830.802	23866
830.941	23707
831.08	23672
831.219	23851
831.357	23832
831.496	24026
831.635	23805
831.774	23691
831.913	23535
832.051	23505
832.19	23608
832.329	23512
832.467	23364
832.606	23414
832.744	23334
832.883	23429
833.022	23326
833.16	23398
833.299	23353
833.437	23444
833.576	23433
833.714	23433
833.852	23630
833.991	23467
834.129	23562
834.267	23581
834.406	23558
834.544	23444
834.682	23406
834.821	23440
834.959	23642
835.097	23429
835.235	23471
835.373	23459
835.511	23330
835.65	23356
835.788	23254
835.926	23105
836.064	22930
836.202	23090
836.34	23296
836.478	23368
836.615	23109
836.753	23223
836.891	23349
837.029	23254
837.167	23136
837.305	23105
837.443	23018
837.58	23052
837.718	23140
837.856	23083
837.993	23060
838.131	23022
838.269	22877
838.406	22949
838.544	22740
838.681	22752
838.819	22694
838.956	22554
839.094	22577
839.231	22360
839.369	22603
839.506	22786
839.643	22763
839.781	22360
839.918	22367
840.055	22409
840.193	22489
840.33	22421
840.467	22413
840.604	22459
840.742	22584
840.879	22211
841.016	22280
841.153	22181
841.29	22485
841.427	22356
841.564	22546
841.701	22337
841.838	22242
841.975	22303
842.112	22192
842.249	22192
842.385	22051
842.522	22276
842.659	22044
842.796	22162
842.933	22147
843.069	22044
843.206	22029
843.343	22207
843.479	22112
843.616	22143
843.752	21994
843.889	21873
844.025	22013
844.162	21930
844.298	21956
844.435	21953
844.571	21857
844.708	21838
844.844	22097
844.98	22128
845.117	22063
845.253	22173
845.389	22010
845.525	22432
845.661	22972
845.798	23406
845.934	23961
846.07	24079
846.206	24022
846.342	23703
846.478	22911
846.614	22306
846.75	21945
846.886	21682
847.022	21629
847.158	21492
847.294	21382
847.429	21416
847.565	21302
847.701	21614
847.837	21112
847.972	20979
848.108	21302
848.244	21127
848.379	21074
848.515	20830
848.65	20849
848.786	20834
848.921	20800
849.057	21024
849.192	20979
849.328	20979
849.463	20834
849.598	20815
849.734	20804
849.869	20655
850.004	20549
850.14	20651
850.275	20648
850.41	20537
850.545	20598
850.68	20621
850.815	20457
850.95	20568
851.085	20629
851.22	20727
851.355	20545
851.49	20480
851.625	20537
851.76	20541
851.895	20434
852.03	20514
852.165	20492
852.299	20629
852.434	20564
852.569	20511
852.703	20575
852.838	20663
852.973	20655
853.107	20743
853.242	20575
853.376	20355
853.511	20351
853.645	20393
853.78	20480
853.914	20434
854.048	20275
854.183	20336
854.317	20446
854.451	20412
854.585	20396
854.72	20305
854.854	20408
854.988	20240
855.122	20434
855.256	20339
855.39	20389
855.524	20355
855.658	20438
855.792	20343
855.926	20355
856.06	20434
856.194	20427
856.327	20400
856.461	20294
856.595	20336
856.729	20374
856.862	20450
856.996	20446
857.13	20317
857.263	20381
857.397	20499
857.53	20358
857.664	20400
857.797	20404
857.931	20438
858.064	20278
858.197	20442
858.331	20259
858.464	20229
858.597	20180
858.731	20256
858.864	20320
858.997	20168
859.13	20172
859.263	20301
859.396	20415
859.529	20286
859.662	20187
859.795	20187
859.928	20191
860.061	20351
860.194	20469
860.327	20240
860.46	20339
860.592	20305
860.725	20328
860.858	20400
860.99	20168
861.123	20157
861.256	20290
861.388	20176
861.521	20849
861.653	20073
861.786	20039
861.918	20161
862.05	20298
862.183	20229
862.315	20256
862.447	20427
862.58	20305
862.712	20088
862.844	20035
862.976	20180
863.108	20081
863.24	20248
863.372	19830
863.504	19970
863.636	20024
863.768	20016
863.9	19951
864.032	19837
864.164	19993
864.296	20024
864.428	20001
864.559	20020
864.691	19986
864.823	19978
864.954	19997
865.086	20043
865.217	19997
865.349	19731
865.48	19852
865.612	19871
865.743	19997
865.875	19925
866.006	19845
866.137	19841
866.269	19761
866.4	19826
866.531	19925
866.662	19647
866.793	19757
866.924	19788
867.055	19841
867.186	19887
867.317	19685
867.448	19776
867.579	19776
867.71	19772
867.841	19586
867.972	19860
868.103	19784
868.233	19693
868.364	19769
868.495	19883
868.625	19940
868.756	20161
868.886	20039
869.017	19947
869.147	20103
869.278	20233
869.408	20043
869.539	19989
869.669	20031
869.799	20050
869.929	20126
870.06	20043
870.19	20328
870.32	20248
870.45	20438
870.58	20381
870.71	20545
870.84	20670
870.97	20476
871.1	20427
871.23	20571
871.36	20590
871.489	20602
871.619	20511
871.749	20663
871.879	20655
872.008	20625
872.138	20632
872.267	20598
872.397	20579
872.526	20556
872.656	20522
872.785	20556
872.915	20609
873.044	20697
873.173	20701
873.303	20724
873.432	20712
873.561	20807
873.69	20689
873.819	20594
873.948	20746
874.077	20781
874.206	20571
874.335	20670
874.464	20834
874.593	20971
874.722	20864
874.851	20895
874.979	20967
875.108	20933
875.237	20941
875.365	20849
875.494	20887
875.623	21005
875.751	20937
875.88	20990
876.008	21146
876.136	21329
876.265	21325
876.393	21610
876.521	21610
876.65	21428
876.778	21450
876.906	21408
877.034	21306
877.162	21386
877.29	21218
877.418	21466
877.546	21519
877.674	21500
877.802	21424
877.93	21485
878.058	21488
878.185	21401
878.313	21450
878.441	21519
878.568	21443
878.696	21447
878.824	21637
878.951	21747
879.079	22032
879.206	22322
879.333	22303
879.461	22371
879.588	22717
879.715	22641
879.842	22683
879.97	22265
880.097	22082
880.224	21705
880.351	21743
880.478	21561
880.605	21466
880.732	21576
880.859	21762
880.986	21580
881.112	21526
881.239	21336
881.366	21211
881.493	21195
881.619	21081
881.746	21211
881.872	21123
881.999	21028
882.125	21009
882.252	21058
882.378	21131
882.505	21287
882.631	20994
882.757	20975
882.883	20910
883.01	20921
883.136	20648
883.262	20762
883.388	20701
883.514	20800
883.64	20895
883.766	20705
883.892	20575
884.018	20754
884.143	20804
884.269	20929
884.395	20781
884.52	20427
884.646	20469
884.772	20377
884.897	20290
885.023	20484
885.148	20640
885.274	20583
885.399	20473
885.524	20511
885.65	20423
885.775	20434
885.9	20431
886.025	20450
886.15	20636
886.275	20423
886.4	20271
886.525	20313
886.65	20237
886.775	20267
886.9	20336
887.025	20412
887.149	20324
887.274	20126
887.399	20084
887.523	20180
887.648	20008
887.773	20058
887.897	20180
888.021	20134
888.146	19955
888.27	20096
888.395	20176
888.519	19951
888.643	20001
888.767	19986
888.891	19860
889.015	19917
889.139	19959
889.263	19753
889.387	19830
889.511	19989
889.635	19852
889.759	19864
889.883	19723
890.006	19708
890.13	19898
890.254	19613
890.377	19567
890.501	19491
890.624	19460
890.748	19567
890.871	19441
890.995	19240
891.118	19244
891.241	19301
891.364	19346
891.488	19510
891.611	19335
891.734	19320
891.857	19445
891.98	19320
892.103	19426
892.226	19438
892.349	19190
892.471	19129
892.594	19282
892.717	19297
892.839	19213
892.962	19270
893.085	19270
893.207	19168
893.33	19122
893.452	18989
893.575	19244
893.697	19076
893.819	19232
893.941	19415
894.064	19377
894.186	19095
894.308	19145
894.43	19232
894.552	19274
894.674	19259
894.796	19126
894.918	19274
895.04	19046
895.161	19209
895.283	19198
895.405	19091
895.526	19171
895.648	19053
895.769	19171
895.891	19088
896.012	19080
896.134	19232
896.255	19244
896.376	19240
896.498	19160
896.619	19171
896.74	19255
896.861	19228
896.982	19567
897.103	19750
897.224	19407
897.345	19464
897.466	19373
897.587	19369
897.708	19502
897.828	19449
897.949	19225
898.07	19331
898.19	19343
898.311	19460
898.431	19289
898.552	19460
898.672	19567
898.792	19430
898.913	19495
899.033	19183
899.153	19217
899.273	19046
899.393	19061
899.513	19145
899.633	19069
899.753	19099
899.873	19084
899.993	19171
900.113	19080
900.232	19061
900.352	18993
900.472	19000
900.591	18954
900.711	18966
900.83	18905
900.95	18875
901.069	19084
901.189	18825
901.308	18521
901.427	18448
901.546	18540
901.665	18551
901.784	18525
901.904	18365
902.023	18292
902.141	18053
902.26	17980
902.379	18129
902.498	18049
902.617	17965
902.735	18019
902.854	17996
902.973	17996
903.091	17638
903.21	17710
903.328	17619
903.446	17551
903.565	17539
903.683	17497
903.801	17330
903.919	17455
904.038	17471
904.156	17387
904.274	17402
904.392	17307
904.51	17250
904.627	17227
904.745	17280
904.863	17345
904.981	17025
905.098	16930
905.216	16946
905.334	16938
905.451	17018
905.569	16908
905.686	16869
905.803	16877
905.921	16672
906.038	16744
906.155	16759
906.272	16649
906.389	16622
906.506	16558
906.623	16394
906.74	16344
906.857	16276
906.974	16371
907.091	16497
907.208	16550
907.324	16390
907.441	16462
907.557	16257
907.674	16226
907.79	16139
907.907	16173
908.023	16124
908.139	16166
908.256	16139
908.372	16002
908.488	16017
908.604	15876
908.72	15892
908.836	15857
908.952	15835
909.068	15949
909.184	16021
909.3	15816
909.415	15816
909.531	15800
909.647	15667
909.762	15568
909.878	15580
909.993	15622
910.108	15431
910.224	15519
910.339	15576
910.454	15454
910.57	15439
910.685	15283
910.8	15538
910.915	15454
911.03	15264
911.145	15173
911.259	15256
911.374	15131
911.489	15127
911.604	15043
911.718	14880
911.833	14899
911.947	14853
912.062	14693
912.176	14773
912.291	14845
912.405	14937
912.519	15055
912.633	15017
912.748	14910
912.862	14845
912.976	14705
913.09	14594
913.204	14621
913.318	14762
913.431	14777
913.545	14807
913.659	14864
913.772	14697
913.886	14541
914	14419
914.113	14556
914.226	14568
914.34	14625
914.453	14404
914.566	14571
914.68	14446
914.793	14374
914.906	14180
915.019	14161
915.132	14195
915.245	14191
915.358	14187
915.47	14187
915.583	14221
915.696	14221
915.809	14336
915.921	14377
916.034	14058
916.146	14126
916.259	14077
916.371	14168
916.483	14149
916.595	14039
916.708	13944
916.82	14145
916.932	13982
917.044	14039
917.156	14050
917.268	13887
917.38	13822
917.491	13837
917.603	13925
917.715	13906
917.826	13928
917.938	13913
918.049	13769
918.161	13871
918.272	13967
918.384	13902
918.495	13795
918.606	13681
918.717	13639
918.828	13708
918.939	13639
919.05	13506
919.161	13632
919.272	13434
919.383	13491
919.494	13670
919.604	13803
919.715	13624
919.826	13510
919.936	13578
920.047	13674
920.157	13590
920.267	13731
920.378	13537
920.488	13586
920.598	13784
920.708	13967
920.818	13723
920.928	13677
921.038	13959
921.148	13826
921.258	13556
921.368	13453
921.477	13324
921.587	13331
921.697	13198
921.806	13308
921.916	13225
922.025	13080
922.134	13042
922.244	13000
922.353	12977
922.462	12886
922.571	12863
922.68	12646
922.789	12623
922.898	12646
923.007	12536
923.116	12616
923.224	12631
923.333	12642
923.442	12448
923.55	12410
923.659	12547
923.767	12582
923.876	12445
923.984	12574
924.092	12338
924.201	12407
924.309	12350
924.417	12388
924.525	12251
924.633	12235
924.741	13263
924.849	12068
924.956	12300
925.064	12095
925.172	12117
925.279	12098
925.387	12125
925.494	12106
925.602	12266
925.709	12159
925.816	12003
925.924	12083
926.031	12129
926.138	12121
926.245	12095
926.352	12034
926.459	12175
926.566	12117
926.673	11965
926.779	11882
926.886	11874
926.993	11756
927.099	11779
927.206	11722
927.312	11684
927.419	11688
927.525	11691
927.631	11737
927.737	11551
927.843	11486
927.95	11395
928.056	11493
928.162	11589
928.267	11577
928.373	12224
928.479	11577
928.585	11292
928.69	11497
928.796	11452
928.901	11455
929.007	11292
929.112	11425
929.218	11315
929.323	11311
929.428	11216
929.533	11455
929.638	11185
929.743	11231
929.848	11258
929.953	11216
930.058	11132
930.163	10919
930.267	10957
930.372	11151
930.477	10938
930.581	11231
930.685	10999
930.79	10805
930.894	10877
930.998	10831
931.103	10923
931.207	10592
931.311	10580
931.415	10402
931.519	10253
931.623	10306
