Data from test_V78500241_3234.txt Node
Date: Fri Mar 25 14:56:14 CST 2022
User: usil
Spectrometer: V785-0024
Trigger mode: 0
Integration Time (sec): 4.000000E-1
Scans to average: 1
Nonlinearity correction enabled: false
Boxcar width: 0
Storing dark spectrum: false
XAxis mode: Wavelengths
Number of Pixels in Spectrum: 1024
>>>>>Begin Spectral Data<<<<<
801.071	21998
801.214	21926
801.356	21698
801.499	21682
801.641	21416
801.783	21359
801.926	21424
802.068	21298
802.211	21252
802.353	21192
802.496	20899
802.638	20868
802.78	20857
802.923	20720
803.065	20670
803.208	20720
803.35	20727
803.492	20819
803.635	21017
803.777	20762
803.919	20754
804.061	21192
804.204	20743
804.346	20640
804.488	20564
804.63	20720
804.773	20484
804.915	20674
805.057	20701
805.199	20568
805.341	20640
805.483	20621
805.626	20708
805.768	20648
805.91	20659
806.052	20575
806.194	20533
806.336	20743
806.478	20613
806.62	20606
806.762	20609
806.904	20823
807.046	21085
807.188	20800
807.33	20899
807.472	20804
807.614	20819
807.756	20800
807.898	20735
808.04	20693
808.182	20632
808.324	20682
808.465	20651
808.607	20788
808.749	21032
808.891	21028
809.033	21081
809.174	21085
809.316	20960
809.458	20918
809.6	20910
809.741	20986
809.883	21024
810.025	21157
810.166	21192
810.308	21211
810.45	21062
810.591	20948
810.733	20891
810.875	20807
811.016	20708
811.158	20716
811.299	20868
811.441	20883
811.582	20895
811.724	20724
811.865	20708
812.007	20788
812.148	20655
812.29	20743
812.431	20845
812.573	21081
812.714	21161
812.855	21245
812.997	21245
813.138	21363
813.279	21386
813.421	21230
813.562	21146
813.703	20948
813.845	20895
813.986	20606
814.127	20473
814.268	20343
814.41	20309
814.551	20176
814.692	20358
814.833	20286
814.974	20240
815.115	20263
815.256	20084
815.397	20069
815.539	20126
815.68	20062
815.821	19951
815.962	20035
816.103	19982
816.244	19757
816.385	19689
816.526	19719
816.666	19639
816.807	19339
816.948	19491
817.089	19548
817.23	19514
817.371	19358
817.512	19365
817.653	19396
817.793	19362
817.934	19365
818.075	19381
818.216	19373
818.356	19312
818.497	19266
818.638	19114
818.778	19160
818.919	19110
819.06	19114
819.2	19202
819.341	19301
819.481	19346
819.622	19464
819.762	19586
819.903	19559
820.043	19400
820.184	19362
820.324	19373
820.465	19358
820.605	19350
820.746	19415
820.886	19164
821.026	19297
821.167	19324
821.307	19354
821.447	19297
821.588	19175
821.728	19076
821.868	18943
822.008	18787
822.149	18829
822.289	18817
822.429	18585
822.569	18498
822.709	18486
822.849	18300
822.99	18167
823.13	18330
823.27	18209
823.41	18110
823.55	18053
823.69	18167
823.83	18129
823.97	17969
824.11	17904
824.25	17748
824.389	17973
824.529	17954
824.669	17817
824.809	17973
824.949	17946
825.089	17916
825.228	17855
825.368	17779
825.508	17585
825.648	17737
825.787	17726
825.927	17680
826.067	17562
826.206	17615
826.346	17676
826.485	17551
826.625	17668
826.765	17718
826.904	17687
827.044	17406
827.183	17421
827.323	17345
827.462	17387
827.601	17250
827.741	17265
827.88	17410
828.02	17208
828.159	17299
828.298	17425
828.437	17497
828.577	17178
828.716	17558
828.855	17280
828.994	17128
829.134	17064
829.273	17124
829.412	17029
829.551	16946
829.69	17075
829.829	17086
829.968	17189
830.107	17098
830.246	17185
830.385	17006
830.524	16908
830.663	16850
830.802	16839
830.941	16710
831.08	16767
831.219	16869
831.357	16763
831.496	16812
831.635	16725
831.774	16535
831.913	16531
832.051	16363
832.19	16485
832.329	16478
832.467	16344
832.606	16287
832.744	16390
832.883	16371
833.022	16333
833.16	16424
833.299	16447
833.437	16390
833.576	16447
833.714	16500
833.852	16447
833.991	16504
834.129	16478
834.267	16535
834.406	16470
834.544	16436
834.682	16470
834.821	16485
834.959	16554
835.097	16390
835.235	16550
835.373	16417
835.511	16447
835.65	16348
835.788	16295
835.926	16192
836.064	16291
836.202	16173
836.34	16371
836.478	16421
836.615	16344
836.753	16280
836.891	16390
837.029	16478
837.167	16325
837.305	16246
837.443	16268
837.58	16261
837.718	16291
837.856	16344
837.993	16234
838.131	16295
838.269	16169
838.406	16230
838.544	16120
838.681	15926
838.819	15888
838.956	15846
839.094	15793
839.231	15918
839.369	15857
839.506	16166
839.643	16040
839.781	15804
839.918	15751
840.055	15671
840.193	15679
840.33	15736
840.467	15701
840.604	15800
840.742	16124
840.879	15660
841.016	15622
841.153	15667
841.29	15846
841.427	15739
841.564	15831
841.701	15812
841.838	15709
841.975	15629
842.112	15682
842.249	15576
842.385	15542
842.522	15778
842.659	15572
842.796	15507
842.933	15633
843.069	15526
843.206	15485
843.343	15660
843.479	15545
843.616	15580
843.752	15359
843.889	15279
844.025	15507
844.162	15310
844.298	15469
844.435	15374
844.571	15306
844.708	15382
844.844	15515
844.98	15564
845.117	15408
845.253	15310
845.389	15211
845.525	15291
845.661	15348
845.798	15119
845.934	15161
846.07	15116
846.206	15218
846.342	15306
846.478	15131
846.614	15013
846.75	14895
846.886	14956
847.022	14868
847.158	14952
847.294	14967
847.429	14876
847.565	15009
847.701	15180
847.837	14708
847.972	14594
848.108	14762
848.244	14769
848.379	14636
848.515	14419
848.65	14442
848.786	14484
848.921	14533
849.057	14655
849.192	14659
849.328	14602
849.463	14590
849.598	14537
849.734	14438
849.869	14366
850.004	14362
850.14	14237
850.275	14214
850.41	14278
850.545	14195
850.68	14347
850.815	14305
850.95	14191
851.085	14518
851.22	14351
851.355	14351
851.49	14278
851.625	14225
851.76	14336
851.895	14218
852.03	14278
852.165	14233
852.299	14313
852.434	14393
852.569	14339
852.703	14225
852.838	14286
852.973	14385
853.107	14396
853.242	14263
853.376	14183
853.511	14119
853.645	14077
853.78	14244
853.914	14138
854.048	14027
854.183	14282
854.317	14176
854.451	14305
854.585	14229
854.72	14069
854.854	14221
854.988	14050
855.122	14183
855.256	13978
855.39	14134
855.524	14130
855.658	14233
855.792	14077
855.926	14210
856.06	14275
856.194	14275
856.327	14103
856.461	14123
856.595	14138
856.729	14161
856.862	14237
856.996	14187
857.13	14218
857.263	14286
857.397	14301
857.53	14149
857.664	14119
857.797	14233
857.931	14332
858.064	14244
858.197	14263
858.331	14202
858.464	14073
858.597	14084
858.731	14199
858.864	14100
858.997	14008
859.13	14153
859.263	14161
859.396	14221
859.529	14202
859.662	14119
859.795	14123
859.928	14214
860.061	14317
860.194	14385
860.327	14218
860.46	14138
860.592	14278
860.725	14195
860.858	14309
860.99	14168
861.123	14111
861.256	14145
861.388	14107
861.521	14838
861.653	14005
861.786	13993
861.918	14001
862.05	14077
862.183	14180
862.315	14180
862.447	14157
862.58	14050
862.712	13936
862.844	13841
862.976	14001
863.108	13921
863.24	14362
863.372	13906
863.504	13879
863.636	13902
863.768	14005
863.9	14024
864.032	13913
864.164	13887
864.296	13982
864.428	14103
864.559	14050
864.691	13955
864.823	14005
864.954	14039
865.086	13951
865.217	13989
865.349	13860
865.48	13982
865.612	13970
865.743	14187
865.875	13894
866.006	13997
866.137	13982
866.269	13909
866.4	13898
866.531	13913
866.662	13860
866.793	13947
866.924	13875
867.055	13932
867.186	14005
867.317	13959
867.448	13856
867.579	13780
867.71	13849
867.841	13807
867.972	14005
868.103	13913
868.233	14031
868.364	13959
868.495	13986
868.625	14126
868.756	14317
868.886	14180
869.017	14172
869.147	14244
869.278	14336
869.408	14157
869.539	14142
869.669	14298
869.799	14256
869.929	14301
870.06	14290
870.19	14503
870.32	14480
870.45	14423
870.58	14602
870.71	14636
870.84	14667
870.97	14594
871.1	14602
871.23	14731
871.36	14826
871.489	14625
871.619	14724
871.749	14880
871.879	14823
872.008	14849
872.138	14800
872.267	14762
872.397	14716
872.526	14575
872.656	14571
872.785	14686
872.915	14754
873.044	14864
873.173	14861
873.303	14925
873.432	14815
873.561	14895
873.69	14876
873.819	14868
873.948	14876
874.077	14880
874.206	14731
874.335	14804
874.464	14994
874.593	15123
874.722	15077
874.851	15131
874.979	15165
875.108	15310
875.237	15142
875.365	15051
875.494	15055
875.623	15123
875.751	15188
875.88	15131
876.008	15306
876.136	15332
876.265	15644
876.393	15705
876.521	15641
876.65	15732
876.778	15545
876.906	15542
877.034	15469
877.162	15610
877.29	15511
877.418	15542
877.546	15557
877.674	15538
877.802	15507
877.93	15534
878.058	15538
878.185	15443
878.313	15538
878.441	15580
878.568	15359
878.696	15492
878.824	15526
878.951	15690
879.079	15682
879.206	15895
879.333	15644
879.461	15682
879.588	15599
879.715	15827
879.842	15838
879.97	15717
880.097	15477
880.224	15367
880.351	15473
880.478	15393
880.605	15477
880.732	15329
880.859	15618
880.986	15450
881.112	15450
881.239	15256
881.366	15176
881.493	15112
881.619	15013
881.746	15131
881.872	15051
881.999	15161
882.125	15097
882.252	15154
882.378	15116
882.505	15146
882.631	14994
882.757	14842
882.883	14918
883.01	14891
883.136	14861
883.262	14773
883.388	14777
883.514	14891
883.64	14986
883.766	14842
883.892	14659
884.018	14823
884.143	14826
884.269	14956
884.395	14629
884.52	14655
884.646	14632
884.772	14533
884.897	14495
885.023	14571
885.148	14781
885.274	14819
885.399	14743
885.524	14670
885.65	14636
885.775	14552
885.9	14663
886.025	14693
886.15	14724
886.275	14568
886.4	14537
886.525	14526
886.65	14476
886.775	14495
886.9	14674
887.025	14796
887.149	14617
887.274	14530
887.399	14389
887.523	14408
887.648	14427
887.773	14454
887.897	14507
888.021	14507
888.146	14480
888.27	14571
888.395	14507
888.519	14545
888.643	14396
888.767	14465
888.891	14419
889.015	14259
889.139	14393
889.263	14328
889.387	14396
889.511	14499
889.635	14377
889.759	14309
889.883	14259
890.006	14347
890.13	14385
890.254	14214
890.377	14237
890.501	14142
890.624	14046
890.748	14195
890.871	14027
890.995	13909
891.118	13883
891.241	13936
891.364	14008
891.488	14123
891.611	13944
891.734	14058
891.857	14092
891.98	14001
892.103	14046
892.226	13936
892.349	14016
892.471	13887
892.594	13917
892.717	13959
892.839	13833
892.962	13959
893.085	14062
893.207	14073
893.33	13833
893.452	13849
893.575	14077
893.697	13951
893.819	14191
893.941	14191
894.064	14084
894.186	14096
894.308	14012
894.43	14134
894.552	14252
894.674	14149
894.796	13921
894.918	14069
895.04	14020
895.161	14221
895.283	14050
895.405	14096
895.526	14130
895.648	14168
895.769	14172
895.891	14202
896.012	14180
896.134	14259
896.255	14138
896.376	14168
896.498	14134
896.619	14229
896.74	14218
896.861	14210
896.982	14434
897.103	14640
897.224	14370
897.345	14362
897.466	14317
897.587	14511
897.708	14533
897.828	14461
897.949	14446
898.07	14339
898.19	14362
898.311	14587
898.431	14393
898.552	14484
898.672	14545
898.792	14667
898.913	14583
899.033	14366
899.153	14396
899.273	14290
899.393	14358
899.513	14370
899.633	14450
899.753	14408
899.873	14374
899.993	14389
900.113	14370
900.232	14434
900.352	14355
900.472	14385
900.591	14214
900.711	14263
900.83	14195
900.95	14358
901.069	14309
901.189	14187
901.308	13997
901.427	13909
901.546	13967
901.665	13955
901.784	13982
901.904	13936
902.023	13753
902.141	13575
902.26	13445
902.379	13620
902.498	13422
902.617	13400
902.735	13578
902.854	13430
902.973	13449
903.091	13160
903.21	13187
903.328	13255
903.446	13183
903.565	13015
903.683	13175
903.801	12985
903.919	13053
904.038	12989
904.156	12886
904.274	13031
904.392	12863
904.51	12802
904.627	12924
904.745	12913
904.863	12962
904.981	12692
905.098	12604
905.216	12555
905.334	12570
905.451	12650
905.569	12570
905.686	12540
905.803	12608
905.921	12323
906.038	12513
906.155	12399
906.272	12311
906.389	12258
906.506	12155
906.623	12201
906.74	12091
906.857	12060
906.974	12034
907.091	12277
907.208	12285
907.324	12178
907.441	12136
907.557	11878
907.674	11901
907.79	11851
907.907	11901
908.023	11931
908.139	11969
908.256	11840
908.372	11783
908.488	11802
908.604	11741
908.72	11634
908.836	11676
908.952	11642
909.068	11581
909.184	11722
909.3	11627
909.415	11832
909.531	11703
909.647	11410
909.762	11455
909.878	11356
909.993	11493
910.108	11410
910.224	11440
910.339	11444
910.454	11296
910.57	11303
910.685	11220
910.8	11459
910.915	11410
911.03	11360
911.145	11181
911.259	11220
911.374	11090
911.489	11090
911.604	10999
911.718	10915
911.833	10812
911.947	10771
912.062	10752
912.176	10831
912.291	10904
912.405	10877
912.519	11098
912.633	11094
912.748	10946
912.862	10938
912.976	10866
913.09	10630
913.204	10774
913.318	10812
913.431	10828
913.545	10892
913.659	10942
913.772	10805
913.886	10778
914	10687
914.113	10702
914.226	10759
914.34	10748
914.453	10561
914.566	10714
914.68	10618
914.793	10630
914.906	10519
915.019	10337
915.132	10322
915.245	10398
915.358	10402
915.47	10451
915.583	10478
915.696	10481
915.809	10538
915.921	10508
916.034	10432
916.146	10363
916.259	10318
916.371	10409
916.483	10466
916.595	10291
916.708	10322
916.82	10413
916.932	10337
917.044	10352
917.156	10363
917.268	10181
917.38	10310
917.491	10310
917.603	10341
917.715	10333
917.826	10329
917.938	10234
918.049	10147
918.161	10265
918.272	10352
918.384	10382
918.495	10238
918.606	10090
918.717	9922
918.828	10154
918.939	10204
919.05	10025
919.161	10105
919.272	9930
919.383	9960
919.494	10215
919.604	10322
919.715	10223
919.826	10074
919.936	10116
920.047	10188
920.157	10143
920.267	10287
920.378	10227
920.488	10162
920.598	10284
920.708	10493
920.818	10272
920.928	10337
921.038	10542
921.148	10466
921.258	10219
921.368	10124
921.477	10086
921.587	10044
921.697	9949
921.806	10040
921.916	9880
922.025	9762
922.134	9682
922.244	9652
922.353	9724
922.462	9568
922.571	9519
922.68	9439
922.789	9310
922.898	9370
923.007	9355
923.116	9370
923.224	9359
923.333	9408
923.442	9245
923.55	9272
923.659	9272
923.767	9367
923.876	9214
923.984	9332
924.092	9214
924.201	9283
924.309	9176
924.417	9245
924.525	9188
924.633	9230
924.741	10139
924.849	8960
924.956	9310
925.064	9036
925.172	8906
925.279	9051
925.387	9047
925.494	9116
925.602	9241
925.709	9176
925.816	8948
925.924	9062
926.031	9157
926.138	9089
926.245	9135
926.352	8948
926.459	9192
926.566	9176
926.673	9062
926.779	8914
926.886	8918
926.993	8804
927.099	8769
927.206	8720
927.312	8708
927.419	8830
927.525	8754
927.631	8838
927.737	8667
927.843	8648
927.95	8590
928.056	8632
928.162	8602
928.267	8746
928.373	9260
928.479	8815
928.585	8518
928.69	8629
928.796	8693
928.901	8564
929.007	8473
929.112	8518
929.218	8560
929.323	8480
929.428	8434
929.533	8590
929.638	8434
929.743	8480
929.848	8495
929.953	8442
930.058	8351
930.163	8271
930.267	8233
930.372	8393
930.477	8214
930.581	8473
930.685	8320
930.79	8183
930.894	8256
930.998	8199
931.103	8279
931.207	8016
931.311	7921
931.415	7852
931.519	7738
931.623	7677
