Data from test_V78500241_2238.txt Node
Date: Fri Mar 25 14:49:17 CST 2022
User: usil
Spectrometer: V785-0024
Trigger mode: 0
Integration Time (sec): 4.000000E-1
Scans to average: 1
Nonlinearity correction enabled: false
Boxcar width: 0
Storing dark spectrum: false
XAxis mode: Wavelengths
Number of Pixels in Spectrum: 1024
>>>>>Begin Spectral Data<<<<<
801.071	22181
801.214	22166
801.356	21827
801.499	21762
801.641	21469
801.783	21557
801.926	21580
802.068	21462
802.211	21408
802.353	21397
802.496	21150
802.638	21009
802.78	20982
802.923	20861
803.065	20712
803.208	20777
803.35	20857
803.492	20861
803.635	20925
803.777	20838
803.919	20979
804.061	21123
804.204	20952
804.346	20743
804.488	20659
804.63	20853
804.773	20724
804.915	20861
805.057	20918
805.199	20765
805.341	20910
805.483	20952
805.626	20819
805.768	20838
805.91	20777
806.052	20727
806.194	20674
806.336	20933
806.478	20804
806.62	20811
806.762	20815
806.904	20986
807.046	21173
807.188	21154
807.33	21203
807.472	21226
807.614	21085
807.756	20982
807.898	20857
808.04	20750
808.182	20872
808.324	20800
808.465	21024
808.607	21005
808.749	21199
808.891	21256
809.033	21363
809.174	21108
809.316	21135
809.458	21203
809.6	21161
809.741	21226
809.883	21154
810.025	21389
810.166	21298
810.308	21306
810.45	21306
810.591	21180
810.733	21165
810.875	21024
811.016	20906
811.158	20880
811.299	21043
811.441	21104
811.582	21112
811.724	21009
811.865	20800
812.007	20880
812.148	20956
812.29	20899
812.431	21062
812.573	21275
812.714	21443
812.855	21454
812.997	21496
813.138	21705
813.279	21599
813.421	21447
813.562	21393
813.703	21195
813.845	21142
813.986	20769
814.127	20644
814.268	20609
814.41	20625
814.551	20492
814.692	20461
814.833	20355
814.974	20446
815.115	20484
815.256	20389
815.397	20358
815.539	20400
815.68	20187
815.821	20221
815.962	20134
816.103	20252
816.244	20046
816.385	20016
816.526	19978
816.666	19822
816.807	19681
816.948	19632
817.089	19746
817.23	19647
817.371	19616
817.512	19647
817.653	19563
817.793	19586
817.934	19556
818.075	19681
818.216	19559
818.356	19537
818.497	19438
818.638	19388
818.778	19308
818.919	19297
819.06	19388
819.2	19529
819.341	19441
819.481	19407
819.622	19632
819.762	19788
819.903	19681
820.043	19723
820.184	19556
820.324	19594
820.465	19712
820.605	19620
820.746	19548
820.886	19384
821.026	19472
821.167	19510
821.307	19727
821.447	19426
821.588	19415
821.728	19255
821.868	19145
822.008	18981
822.149	18989
822.289	18935
822.429	18768
822.569	18696
822.709	18722
822.849	18494
822.99	18502
823.13	18528
823.27	18502
823.41	18429
823.55	18194
823.69	18418
823.83	18254
823.97	18258
824.11	18174
824.25	18087
824.389	17988
824.529	18144
824.669	17939
824.809	18209
824.949	18239
825.089	18049
825.228	18053
825.368	17840
825.508	17878
825.648	17897
825.787	17980
825.927	17904
826.067	17866
826.206	17836
826.346	17851
826.485	17942
826.625	17836
826.765	17935
826.904	17889
827.044	17573
827.183	17573
827.323	17558
827.462	17684
827.601	17463
827.741	17497
827.88	17589
828.02	17474
828.159	17490
828.298	17493
828.437	17581
828.577	17459
828.716	17665
828.855	17490
828.994	17284
829.134	17231
829.273	17349
829.412	17360
829.551	17079
829.69	17254
829.829	17326
829.968	17398
830.107	17372
830.246	17330
830.385	17341
830.524	17208
830.663	17086
830.802	16995
830.941	16972
831.08	16900
831.219	16987
831.357	16934
831.496	17121
831.635	16816
831.774	16679
831.913	16733
832.051	16721
832.19	16645
832.329	16733
832.467	16607
832.606	16550
832.744	16599
832.883	16618
833.022	16599
833.16	16603
833.299	16611
833.437	16569
833.576	16653
833.714	16687
833.852	16626
833.991	16634
834.129	16691
834.267	16656
834.406	16664
834.544	16622
834.682	16691
834.821	16637
834.959	16729
835.097	16599
835.235	16618
835.373	16706
835.511	16554
835.65	16531
835.788	16603
835.926	16310
836.064	16246
836.202	16352
836.34	16497
836.478	16584
836.615	16424
836.753	16542
836.891	16592
837.029	16554
837.167	16523
837.305	16413
837.443	16382
837.58	16379
837.718	16352
837.856	16265
837.993	16367
838.131	16337
838.269	16363
838.406	16299
838.544	16344
838.681	16112
838.819	16067
838.956	15918
839.094	15930
839.231	15975
839.369	16006
839.506	16360
839.643	16200
839.781	15918
839.918	15956
840.055	15960
840.193	15926
840.33	15808
840.467	15842
840.604	15934
840.742	16265
840.879	15819
841.016	15720
841.153	15865
841.29	16158
841.427	16086
841.564	15994
841.701	16002
841.838	15880
841.975	15823
842.112	15892
842.249	15770
842.385	15648
842.522	15865
842.659	15656
842.796	15595
842.933	15759
843.069	15724
843.206	15633
843.343	15717
843.479	15720
843.616	15671
843.752	15511
843.889	15507
844.025	15515
844.162	15488
844.298	15698
844.435	15428
844.571	15496
844.708	15561
844.844	15641
844.98	15675
845.117	15538
845.253	15477
845.389	15340
845.525	15496
845.661	15420
845.798	15237
845.934	15359
846.07	15275
846.206	15336
846.342	15450
846.478	15241
846.614	15138
846.75	15001
846.886	15081
847.022	15085
847.158	15116
847.294	15112
847.429	15116
847.565	15017
847.701	15317
847.837	14804
847.972	14781
848.108	14796
848.244	14872
848.379	14693
848.515	14594
848.65	14632
848.786	14678
848.921	14765
849.057	14762
849.192	14701
849.328	14686
849.463	14598
849.598	14583
849.734	14590
849.869	14446
850.004	14381
850.14	14434
850.275	14431
850.41	14355
850.545	14415
850.68	14396
850.815	14454
850.95	14385
851.085	14594
851.22	14541
851.355	14446
851.49	14332
851.625	14454
851.76	14328
851.895	14370
852.03	14309
852.165	14347
852.299	14393
852.434	14492
852.569	14415
852.703	14385
852.838	14537
852.973	14625
853.107	14530
853.242	14290
853.376	14301
853.511	14214
853.645	14259
853.78	14396
853.914	14351
854.048	14305
854.183	14218
854.317	14324
854.451	14366
854.585	14256
854.72	14221
854.854	14324
854.988	14225
855.122	14233
855.256	14183
855.39	14229
855.524	14400
855.658	14351
855.792	14290
855.926	14381
856.06	14324
856.194	14366
856.327	14267
856.461	14256
856.595	14214
856.729	14305
856.862	14381
856.996	14256
857.13	14336
857.263	14294
857.397	14351
857.53	14221
857.664	14282
857.797	14332
857.931	14400
858.064	14320
858.197	14415
858.331	14252
858.464	14309
858.597	14210
858.731	14240
858.864	14317
858.997	14324
859.13	14290
859.263	14351
859.396	14320
859.529	14263
859.662	14294
859.795	14214
859.928	14278
860.061	14408
860.194	14415
860.327	14351
860.46	14298
860.592	14347
860.725	14484
860.858	14423
860.99	14317
861.123	14214
861.256	14168
861.388	14267
861.521	14750
861.653	14180
861.786	14138
861.918	14145
862.05	14134
862.183	14210
862.315	14244
862.447	14320
862.58	14290
862.712	13986
862.844	14001
862.976	14065
863.108	14035
863.24	14454
863.372	13959
863.504	14035
863.636	14054
863.768	14183
863.9	14008
864.032	13963
864.164	14039
864.296	14138
864.428	14191
864.559	14115
864.691	14168
864.823	14065
864.954	14043
865.086	14050
865.217	14138
865.349	14020
865.48	14073
865.612	14016
865.743	14183
865.875	13982
866.006	14084
866.137	14069
866.269	14088
866.4	14039
866.531	13989
866.662	13993
866.793	14020
866.924	13970
867.055	13997
867.186	14024
867.317	13928
867.448	13947
867.579	13913
867.71	13982
867.841	13898
867.972	14050
868.103	13925
868.233	14031
868.364	14024
868.495	14153
868.625	14286
868.756	14438
868.886	14275
869.017	14278
869.147	14408
869.278	14446
869.408	14351
869.539	14286
869.669	14347
869.799	14309
869.929	14332
870.06	14301
870.19	14651
870.32	14556
870.45	14644
870.58	14716
870.71	14743
870.84	14785
870.97	14758
871.1	14598
871.23	14960
871.36	14952
871.489	14746
871.619	14876
871.749	14811
871.879	14914
872.008	15028
872.138	14895
872.267	14876
872.397	14735
872.526	14750
872.656	14659
872.785	14758
872.915	14921
873.044	14910
873.173	14956
873.303	15036
873.432	15077
873.561	15051
873.69	14944
873.819	14982
873.948	14960
874.077	14895
874.206	14876
874.335	14906
874.464	15142
874.593	15310
874.722	15291
874.851	15367
874.979	15218
875.108	15268
875.237	15310
875.365	15097
875.494	15188
875.623	15298
875.751	15256
875.88	15268
876.008	15393
876.136	15500
876.265	15728
876.393	15823
876.521	15850
876.65	15762
876.778	15637
876.906	15755
877.034	15705
877.162	15671
877.29	15625
877.418	15705
877.546	15644
877.674	15759
877.802	15675
877.93	15823
878.058	15766
878.185	15587
878.313	15701
878.441	15778
878.568	15549
878.696	15584
878.824	15701
878.951	15778
879.079	15865
879.206	15994
879.333	15926
879.461	15800
879.588	15873
879.715	15930
879.842	15926
879.97	15739
880.097	15526
880.224	15450
880.351	15606
880.478	15625
880.605	15606
880.732	15534
880.859	15838
880.986	15656
881.112	15622
881.239	15564
881.366	15351
881.493	15264
881.619	15207
881.746	15188
881.872	15226
881.999	15192
882.125	15233
882.252	15294
882.378	15245
882.505	15363
882.631	15184
882.757	15100
882.883	15081
883.01	15055
883.136	14941
883.262	14845
883.388	14918
883.514	15062
883.64	15013
883.766	14971
883.892	14857
884.018	14918
884.143	15009
884.269	15028
884.395	14800
884.52	14682
884.646	14800
884.772	14750
884.897	14518
885.023	14781
885.148	14807
885.274	14868
885.399	14781
885.524	14689
885.65	14762
885.775	14750
885.9	14731
886.025	14834
886.15	14948
886.275	14712
886.4	14632
886.525	14701
886.65	14613
886.775	14655
886.9	14773
887.025	14910
887.149	14727
887.274	14629
887.399	14533
887.523	14598
887.648	14587
887.773	14434
887.897	14670
888.021	14621
888.146	14507
888.27	14705
888.395	14712
888.519	14610
888.643	14648
888.767	14606
888.891	14545
889.015	14419
889.139	14438
889.263	14328
889.387	14434
889.511	14629
889.635	14610
889.759	14431
889.883	14393
890.006	14499
890.13	14492
890.254	14351
890.377	14434
890.501	14286
890.624	14187
890.748	14355
890.871	14183
890.995	14043
891.118	14077
891.241	14115
891.364	14123
891.488	14248
891.611	14164
891.734	14168
891.857	14229
891.98	14100
892.103	14237
892.226	14176
892.349	14157
892.471	14073
892.594	14187
892.717	14096
892.839	14081
892.962	14092
893.085	14172
893.207	14035
893.33	14077
893.452	14107
893.575	14168
893.697	14035
893.819	14271
893.941	14294
894.064	14305
894.186	14119
894.308	14054
894.43	14149
894.552	14267
894.674	14256
894.796	14035
894.918	14142
895.04	14199
895.161	14210
895.283	14320
895.405	14081
895.526	14252
895.648	14206
895.769	14317
895.891	14290
896.012	14305
896.134	14328
896.255	14286
896.376	14256
896.498	14343
896.619	14355
896.74	14317
896.861	14317
896.982	14705
897.103	14811
897.224	14602
897.345	14590
897.466	14533
897.587	14507
897.708	14708
897.828	14610
897.949	14507
898.07	14446
898.19	14587
898.311	14758
898.431	14598
898.552	14610
898.672	14769
898.792	14746
898.913	14678
899.033	14571
899.153	14465
899.273	14427
899.393	14476
899.513	14514
899.633	14484
899.753	14526
899.873	14499
899.993	14545
900.113	14507
900.232	14514
900.352	14503
900.472	14476
900.591	14396
900.711	14450
900.83	14233
900.95	14507
901.069	14427
901.189	14317
901.308	14050
901.427	14039
901.546	14092
901.665	14069
901.784	14096
901.904	13928
902.023	13913
902.141	13765
902.26	13731
902.379	13769
902.498	13601
902.617	13540
902.735	13670
902.854	13643
902.973	13571
903.091	13468
903.21	13324
903.328	13251
903.446	13308
903.565	13236
903.683	13244
903.801	13091
903.919	13232
904.038	13160
904.156	12943
904.274	13107
904.392	12977
904.51	12943
904.627	13008
904.745	12996
904.863	13126
904.981	12829
905.098	12741
905.216	12650
905.334	12753
905.451	12696
905.569	12692
905.686	12719
905.803	12715
905.921	12467
906.038	12658
906.155	12574
906.272	12498
906.389	12338
906.506	12372
906.623	12190
906.74	12262
906.857	12098
906.974	12140
907.091	12323
907.208	12388
907.324	12273
907.441	12171
907.557	12087
907.674	12076
907.79	11977
907.907	12034
908.023	12110
908.139	12102
908.256	11977
908.372	11969
908.488	11908
908.604	11790
908.72	11824
908.836	11737
908.952	11794
909.068	11798
909.184	11790
909.3	11809
909.415	11760
909.531	11779
909.647	11627
909.762	11680
909.878	11547
909.993	11551
910.108	11535
910.224	11493
910.339	11547
910.454	11414
910.57	11429
910.685	11417
910.8	11604
910.915	11649
911.03	11493
911.145	11280
911.259	11193
911.374	11216
911.489	11185
911.604	11140
911.718	11037
911.833	11041
911.947	10911
912.062	10812
912.176	10942
912.291	10968
912.405	11022
912.519	11162
912.633	11254
912.748	11060
912.862	11147
912.976	10934
913.09	10763
913.204	10839
913.318	10953
913.431	10923
913.545	10999
913.659	10999
913.772	10881
913.886	10820
914	10733
914.113	10866
914.226	10911
914.34	10927
914.453	10679
914.566	10755
914.68	10744
914.793	10672
914.906	10538
915.019	10474
915.132	10371
915.245	10569
915.358	10637
915.47	10531
915.583	10577
915.696	10542
915.809	10626
915.921	10668
916.034	10489
916.146	10466
916.259	10455
916.371	10569
916.483	10500
916.595	10421
916.708	10470
916.82	10451
916.932	10394
917.044	10440
917.156	10428
917.268	10352
917.38	10363
917.491	10405
917.603	10363
917.715	10485
917.826	10409
917.938	10322
918.049	10219
918.161	10314
918.272	10500
918.384	10481
918.495	10421
918.606	10238
918.717	10139
918.828	10322
918.939	10303
919.05	10162
919.161	10188
919.272	10029
919.383	10082
919.494	10185
919.604	10466
919.715	10249
919.826	10131
919.936	10192
920.047	10306
920.157	10318
920.267	10451
920.378	10261
920.488	10291
920.598	10481
920.708	10550
920.818	10443
920.928	10466
921.038	10611
921.148	10519
921.258	10276
921.368	10219
921.477	10147
921.587	10040
921.697	10059
921.806	10105
921.916	9915
922.025	9797
922.134	9808
922.244	9819
922.353	9838
922.462	9686
922.571	9641
922.68	9500
922.789	9507
922.898	9416
923.007	9496
923.116	9542
923.224	9507
923.333	9473
923.442	9378
923.55	9306
923.659	9393
923.767	9477
923.876	9283
923.984	9469
924.092	9397
924.201	9363
924.309	9325
924.417	9302
924.525	9287
924.633	9329
924.741	10223
924.849	9058
924.956	9294
925.064	9127
925.172	9028
925.279	9161
925.387	9108
925.494	9108
925.602	9233
925.709	9245
925.816	9047
925.924	9157
926.031	9161
926.138	9226
926.245	9199
926.352	9005
926.459	9127
926.566	9211
926.673	9123
926.779	8994
926.886	8937
926.993	8872
927.099	8861
927.206	8811
927.312	8819
927.419	8925
927.525	8868
927.631	8868
927.737	8727
927.843	8769
927.95	8663
928.056	8758
928.162	8716
928.267	8796
928.373	9367
928.479	8815
928.585	8583
928.69	8743
928.796	8807
928.901	8621
929.007	8530
929.112	8670
929.218	8663
929.323	8537
929.428	8583
929.533	8773
929.638	8446
929.743	8541
929.848	8651
929.953	8552
930.058	8495
930.163	8381
930.267	8389
930.372	8484
930.477	8309
930.581	8564
930.685	8328
930.79	8275
930.894	8339
930.998	8370
931.103	8461
931.207	8081
931.311	8012
931.415	7917
931.519	7814
931.623	7795
