Data from test_V78500241_3279.txt Node
Date: Fri Mar 25 14:56:32 CST 2022
User: usil
Spectrometer: V785-0024
Trigger mode: 0
Integration Time (sec): 4.000000E-1
Scans to average: 1
Nonlinearity correction enabled: false
Boxcar width: 0
Storing dark spectrum: false
XAxis mode: Wavelengths
Number of Pixels in Spectrum: 1024
>>>>>Begin Spectral Data<<<<<
801.071	21926
801.214	21800
801.356	21648
801.499	21603
801.641	21424
801.783	21283
801.926	21321
802.068	21222
802.211	21241
802.353	21291
802.496	21005
802.638	20823
802.78	20796
802.923	20743
803.065	20602
803.208	20689
803.35	20693
803.492	20769
803.635	20746
803.777	20716
803.919	20708
804.061	20971
804.204	20682
804.346	20560
804.488	20450
804.63	20590
804.773	20522
804.915	20438
805.057	20697
805.199	20533
805.341	20613
805.483	20705
805.626	20674
805.768	20400
805.91	20629
806.052	20594
806.194	20389
806.336	20697
806.478	20545
806.62	20579
806.762	20575
806.904	20762
807.046	20834
807.188	20838
807.33	20937
807.472	20918
807.614	20834
807.756	20735
807.898	20609
808.04	20701
808.182	20590
808.324	20663
808.465	20697
808.607	20815
808.749	20944
808.891	21085
809.033	21138
809.174	20956
809.316	20861
809.458	20906
809.6	20906
809.741	20937
809.883	20963
810.025	21131
810.166	21005
810.308	21127
810.45	20967
810.591	21032
810.733	20788
810.875	20777
811.016	20697
811.158	20556
811.299	20727
811.441	20754
811.582	20842
811.724	20716
811.865	20720
812.007	20617
812.148	20655
812.29	20720
812.431	20765
812.573	21005
812.714	21062
812.855	21112
812.997	21264
813.138	21477
813.279	21237
813.421	21214
813.562	21043
813.703	20986
813.845	20948
813.986	20659
814.127	20469
814.268	20221
814.41	20290
814.551	20263
814.692	20259
814.833	20225
814.974	20100
815.115	20153
815.256	20039
815.397	20062
815.539	20062
815.68	20035
815.821	19936
815.962	19963
816.103	19982
816.244	19677
816.385	19723
816.526	19601
816.666	19457
816.807	19365
816.948	19403
817.089	19514
817.23	19384
817.371	19320
817.512	19365
817.653	19297
817.793	19301
817.934	19396
818.075	19358
818.216	19373
818.356	19343
818.497	19194
818.638	19042
818.778	19152
818.919	18985
819.06	19194
819.2	19217
819.341	19270
819.481	19285
819.622	19384
819.762	19533
819.903	19578
820.043	19464
820.184	19407
820.324	19415
820.465	19415
820.605	19266
820.746	19297
820.886	19221
821.026	19289
821.167	19365
821.307	19285
821.447	19255
821.588	19122
821.728	18970
821.868	18875
822.008	18825
822.149	18844
822.289	18837
822.429	18391
822.569	18380
822.709	18486
822.849	18197
822.99	18296
823.13	18235
823.27	18205
823.41	18045
823.55	17946
823.69	18079
823.83	18133
823.97	17950
824.11	17904
824.25	17809
824.389	17840
824.529	17851
824.669	17851
824.809	18034
824.949	17840
825.089	17863
825.228	17805
825.368	17589
825.508	17627
825.648	17699
825.787	17528
825.927	17661
826.067	17516
826.206	17619
826.346	17627
826.485	17619
826.625	17596
826.765	17703
826.904	17566
827.044	17452
827.183	17330
827.323	17273
827.462	17277
827.601	17246
827.741	17242
827.88	17417
828.02	17193
828.159	17216
828.298	17280
828.437	17315
828.577	17360
828.716	17360
828.855	17200
828.994	17094
829.134	17048
829.273	17124
829.412	17006
829.551	16980
829.69	16972
829.829	17064
829.968	17083
830.107	17067
830.246	17083
830.385	16934
830.524	16980
830.663	16850
830.802	16877
830.941	16706
831.08	16679
831.219	16675
831.357	16706
831.496	16987
831.635	16649
831.774	16519
831.913	16626
832.051	16542
832.19	16508
832.329	16424
832.467	16417
832.606	16356
832.744	16242
832.883	16306
833.022	16299
833.16	16318
833.299	16402
833.437	16432
833.576	16322
833.714	16428
833.852	16459
833.991	16470
834.129	16413
834.267	16584
834.406	16417
834.544	16470
834.682	16390
834.821	16405
834.959	16500
835.097	16325
835.235	16508
835.373	16367
835.511	16390
835.65	16276
835.788	16295
835.926	16086
836.064	16173
836.202	16158
836.34	16284
836.478	16375
836.615	16280
836.753	16234
836.891	16451
837.029	16409
837.167	16314
837.305	16322
837.443	16318
837.58	16147
837.718	16253
837.856	16211
837.993	16173
838.131	16169
838.269	16150
838.406	16154
838.544	16074
838.681	15956
838.819	15842
838.956	15743
839.094	15755
839.231	15686
839.369	15945
839.506	16166
839.643	16071
839.781	15724
839.918	15705
840.055	15747
840.193	15717
840.33	15698
840.467	15835
840.604	15793
840.742	16010
840.879	15584
841.016	15663
841.153	15622
841.29	15880
841.427	15770
841.564	15812
841.701	15831
841.838	15800
841.975	15584
842.112	15675
842.249	15568
842.385	15515
842.522	15751
842.659	15603
842.796	15519
842.933	15466
843.069	15553
843.206	15462
843.343	15561
843.479	15682
843.616	15443
843.752	15367
843.889	15374
844.025	15466
844.162	15344
844.298	15428
844.435	15306
844.571	15348
844.708	15386
844.844	15538
844.98	15519
845.117	15382
845.253	15264
845.389	15233
845.525	15211
845.661	15249
845.798	15081
845.934	15241
846.07	15112
846.206	15188
846.342	15260
846.478	15104
846.614	14868
846.75	14941
846.886	14902
847.022	15009
847.158	14906
847.294	14967
847.429	14918
847.565	14853
847.701	15112
847.837	14689
847.972	14613
848.108	14743
848.244	14644
848.379	14492
848.515	14495
848.65	14400
848.786	14431
848.921	14492
849.057	14621
849.192	14518
849.328	14537
849.463	14530
849.598	14533
849.734	14434
849.869	14351
850.004	14248
850.14	14347
850.275	14278
850.41	14183
850.545	14294
850.68	14233
850.815	14259
850.95	14286
851.085	14415
851.22	14396
851.355	14290
851.49	14237
851.625	14172
851.76	14267
851.895	14187
852.03	14130
852.165	14138
852.299	14309
852.434	14343
852.569	14328
852.703	14347
852.838	14393
852.973	14530
853.107	14317
853.242	14195
853.376	14195
853.511	14035
853.645	14008
853.78	14252
853.914	14187
854.048	14142
854.183	14115
854.317	14111
854.451	14271
854.585	14031
854.72	14073
854.854	14282
854.988	14096
855.122	14069
855.256	13989
855.39	14168
855.524	14221
855.658	14134
855.792	14183
855.926	14199
856.06	14267
856.194	14202
856.327	14119
856.461	14046
856.595	14100
856.729	14134
856.862	14172
856.996	14119
857.13	14271
857.263	14320
857.397	14252
857.53	14111
857.664	14214
857.797	14240
857.931	14214
858.064	14168
858.197	14305
858.331	14126
858.464	14202
858.597	14016
858.731	14145
858.864	14134
858.997	14126
859.13	14058
859.263	14161
859.396	14187
859.529	14092
859.662	14096
859.795	14077
859.928	14153
860.061	14206
860.194	14290
860.327	14142
860.46	14134
860.592	14267
860.725	14278
860.858	14336
860.99	14180
861.123	14084
861.256	14043
861.388	14145
861.521	14921
861.653	14031
861.786	13917
861.918	14020
862.05	14058
862.183	14058
862.315	14149
862.447	14290
862.58	14218
862.712	13875
862.844	13906
862.976	14054
863.108	13997
863.24	14324
863.372	13860
863.504	13978
863.636	13917
863.768	14035
863.9	13909
864.032	13932
864.164	13871
864.296	13982
864.428	14027
864.559	13986
864.691	14062
864.823	13982
864.954	13940
865.086	13974
865.217	13963
865.349	13856
865.48	13959
865.612	13913
865.743	14043
865.875	13944
866.006	13951
866.137	13944
866.269	13947
866.4	13932
866.531	13913
866.662	13883
866.793	13822
866.924	13811
867.055	13852
867.186	13917
867.317	13921
867.448	13837
867.579	13967
867.71	13841
867.841	13864
867.972	13963
868.103	13951
868.233	13974
868.364	14005
868.495	13917
868.625	14180
868.756	14332
868.886	14100
869.017	14157
869.147	14210
869.278	14343
869.408	14244
869.539	14157
869.669	14225
869.799	14176
869.929	14313
870.06	14347
870.19	14518
870.32	14393
870.45	14404
870.58	14560
870.71	14640
870.84	14724
870.97	14518
871.1	14629
871.23	14621
871.36	14796
871.489	14705
871.619	14773
871.749	14697
871.879	14781
872.008	14792
872.138	14788
872.267	14724
872.397	14701
872.526	14606
872.656	14549
872.785	14556
872.915	14823
873.044	14826
873.173	14765
873.303	14838
873.432	14815
873.561	14887
873.69	14804
873.819	14891
873.948	14967
874.077	14762
874.206	14838
874.335	14838
874.464	14902
874.593	15028
874.722	15085
874.851	15146
874.979	15169
875.108	15233
875.237	15085
875.365	15100
875.494	15214
875.623	15245
875.751	15100
875.88	15150
876.008	15272
876.136	15291
876.265	15663
876.393	15618
876.521	15618
876.65	15576
876.778	15610
876.906	15477
877.034	15572
877.162	15568
877.29	15523
877.418	15572
877.546	15492
877.674	15526
877.802	15511
877.93	15477
878.058	15526
878.185	15523
878.313	15587
878.441	15469
878.568	15348
878.696	15405
878.824	15549
878.951	15610
879.079	15732
879.206	15823
879.333	15679
879.461	15603
879.588	15728
879.715	15671
879.842	15835
879.97	15538
880.097	15332
880.224	15344
880.351	15485
880.478	15450
880.605	15485
880.732	15389
880.859	15606
880.986	15462
881.112	15458
881.239	15313
881.366	15218
881.493	15062
881.619	14994
881.746	14979
881.872	15066
881.999	14979
882.125	14994
882.252	15188
882.378	15001
882.505	15176
882.631	15055
882.757	14819
882.883	14937
883.01	14823
883.136	14819
883.262	14697
883.388	14716
883.514	14887
883.64	14895
883.766	14849
883.892	14686
884.018	14720
884.143	14804
884.269	14971
884.395	14663
884.52	14526
884.646	14663
884.772	14522
884.897	14434
885.023	14636
885.148	14750
885.274	14762
885.399	14743
885.524	14556
885.65	14587
885.775	14648
885.9	14590
886.025	14796
886.15	14720
886.275	14537
886.4	14488
886.525	14598
886.65	14552
886.775	14377
886.9	14743
887.025	14815
887.149	14632
887.274	14503
887.399	14389
887.523	14412
887.648	14290
887.773	14396
887.897	14457
888.021	14427
888.146	14404
888.27	14495
888.395	14476
888.519	14374
888.643	14396
888.767	14442
888.891	14286
889.015	14233
889.139	14282
889.263	14199
889.387	14438
889.511	14507
889.635	14431
889.759	14267
889.883	14358
890.006	14351
890.13	14313
890.254	14248
890.377	14309
890.501	14035
890.624	14134
890.748	14126
890.871	14046
890.995	13837
891.118	13841
891.241	13932
891.364	14016
891.488	14084
891.611	13894
891.734	14119
891.857	14054
891.98	13951
892.103	14005
892.226	14073
892.349	13947
892.471	13833
892.594	13940
892.717	14027
892.839	13887
892.962	13967
893.085	13982
893.207	14020
893.33	13852
893.452	13837
893.575	13978
893.697	13967
893.819	14168
893.941	14123
894.064	14096
894.186	13955
894.308	14058
894.43	14142
894.552	14206
894.674	14172
894.796	13955
894.918	13947
895.04	14039
895.161	14168
895.283	14138
895.405	13947
895.526	14081
895.648	14035
895.769	14176
895.891	14088
896.012	14282
896.134	14214
896.255	14202
896.376	14119
896.498	14103
896.619	14233
896.74	14123
896.861	14195
896.982	14594
897.103	14663
897.224	14450
897.345	14385
897.466	14362
897.587	14381
897.708	14594
897.828	14381
897.949	14305
898.07	14256
898.19	14389
898.311	14484
898.431	14442
898.552	14526
898.672	14632
898.792	14564
898.913	14454
899.033	14434
899.153	14309
899.273	14347
899.393	14214
899.513	14442
899.633	14343
899.753	14419
899.873	14294
899.993	14358
900.113	14328
900.232	14438
900.352	14355
900.472	14278
900.591	14225
900.711	14256
900.83	14271
900.95	14248
901.069	14320
901.189	14168
901.308	13890
901.427	13818
901.546	13928
901.665	13997
901.784	13932
901.904	13715
902.023	13723
902.141	13525
902.26	13495
902.379	13597
902.498	13453
902.617	13495
902.735	13464
902.854	13384
902.973	13464
903.091	13194
903.21	13156
903.328	13293
903.446	13061
903.565	13072
903.683	13065
903.801	12920
903.919	12981
904.038	12939
904.156	12909
904.274	12970
904.392	12806
904.51	12913
904.627	12848
904.745	12779
904.863	12935
904.981	12616
905.098	12528
905.216	12467
905.334	12627
905.451	12467
905.569	12547
905.686	12662
905.803	12536
905.921	12414
906.038	12536
906.155	12410
906.272	12289
906.389	12410
906.506	12228
906.623	12182
906.74	12148
906.857	12026
906.974	12194
907.091	12254
907.208	12292
907.324	12232
907.441	12144
907.557	11969
907.674	11893
907.79	11840
907.907	11859
908.023	11992
908.139	11904
908.256	11855
908.372	11786
908.488	11836
908.604	11756
908.72	11722
908.836	11680
908.952	11634
909.068	11695
909.184	11824
909.3	11699
909.415	11745
909.531	11733
909.647	11493
909.762	11459
909.878	11395
909.993	11547
910.108	11471
910.224	11414
910.339	11482
910.454	11490
910.57	11376
910.685	11292
910.8	11452
910.915	11482
911.03	11353
911.145	11258
911.259	11140
911.374	11227
911.489	11037
911.604	11056
911.718	10923
911.833	10911
911.947	10862
912.062	10755
912.176	10889
912.291	10957
912.405	10904
912.519	11052
912.633	11132
912.748	10965
912.862	10987
912.976	10793
913.09	10691
913.204	10774
913.318	10816
913.431	10919
913.545	10885
913.659	10957
913.772	10869
913.886	10812
914	10637
914.113	10790
914.226	10809
914.34	10858
914.453	10592
914.566	10786
914.68	10710
914.793	10596
914.906	10508
915.019	10455
915.132	10382
915.245	10386
915.358	10424
915.47	10485
915.583	10436
915.696	10508
915.809	10561
915.921	10596
916.034	10402
916.146	10322
916.259	10348
916.371	10493
916.483	10398
916.595	10341
916.708	10325
916.82	10356
916.932	10306
917.044	10356
917.156	10405
917.268	10280
917.38	10272
917.491	10306
917.603	10341
917.715	10341
917.826	10341
917.938	10207
918.049	10128
918.161	10238
918.272	10504
918.384	10375
918.495	10242
918.606	10124
918.717	10048
918.828	10173
918.939	10124
919.05	10059
919.161	10131
919.272	9956
919.383	10048
919.494	10211
919.604	10367
919.715	10181
919.826	10048
919.936	10188
920.047	10344
920.157	10211
920.267	10382
920.378	10287
920.488	10120
920.598	10356
920.708	10489
920.818	10356
920.928	10390
921.038	10519
921.148	10459
921.258	10188
921.368	10116
921.477	10055
921.587	10051
921.697	9888
921.806	10032
921.916	9987
922.025	9793
922.134	9709
922.244	9690
922.353	9770
922.462	9538
922.571	9603
922.68	9492
922.789	9401
922.898	9416
923.007	9332
923.116	9428
923.224	9443
923.333	9435
923.442	9348
923.55	9275
923.659	9351
923.767	9329
923.876	9211
923.984	9370
924.092	9226
924.201	9310
924.309	9302
924.417	9332
924.525	9207
924.633	9264
924.741	10135
924.849	9085
924.956	9218
925.064	9036
925.172	8971
925.279	9036
925.387	9112
925.494	9097
925.602	9218
925.709	9157
925.816	9081
925.924	9058
926.031	9188
926.138	9131
926.245	9176
926.352	8982
926.459	9135
926.566	9249
926.673	9028
926.779	8982
926.886	8910
926.993	8872
927.099	8861
927.206	8758
927.312	8754
927.419	8895
927.525	8811
927.631	8864
927.737	8800
927.843	8659
927.95	8617
928.056	8659
928.162	8746
928.267	8773
928.373	9222
928.479	8864
928.585	8598
928.69	8697
928.796	8739
928.901	8587
929.007	8473
929.112	8583
929.218	8575
929.323	8541
929.428	8484
929.533	8598
929.638	8473
929.743	8511
929.848	8571
929.953	8518
930.058	8370
930.163	8275
930.267	8313
930.372	8480
930.477	8324
930.581	8476
930.685	8404
930.79	8195
930.894	8218
930.998	8275
931.103	8358
931.207	7997
931.311	8008
931.415	7959
931.519	7803
931.623	7715
