Data from test_V78500241_2671.txt Node
Date: Fri Mar 25 14:52:18 CST 2022
User: usil
Spectrometer: V785-0024
Trigger mode: 0
Integration Time (sec): 4.000000E-1
Scans to average: 1
Nonlinearity correction enabled: false
Boxcar width: 0
Storing dark spectrum: false
XAxis mode: Wavelengths
Number of Pixels in Spectrum: 1024
>>>>>Begin Spectral Data<<<<<
801.071	21926
801.214	21774
801.356	21606
801.499	21515
801.641	21340
801.783	21222
801.926	21431
802.068	21252
802.211	21256
802.353	21165
802.496	20876
802.638	20914
802.78	20830
802.923	20758
803.065	20541
803.208	20606
803.35	20655
803.492	20720
803.635	20902
803.777	20708
803.919	20617
804.061	20990
804.204	20739
804.346	20644
804.488	20678
804.63	20629
804.773	20541
804.915	20663
805.057	20750
805.199	20590
805.341	20552
805.483	20701
805.626	20564
805.768	20568
805.91	20617
806.052	20629
806.194	20556
806.336	20708
806.478	20682
806.62	20396
806.762	20693
806.904	20819
807.046	20944
807.188	20868
807.33	20906
807.472	20948
807.614	20979
807.756	20800
807.898	20632
808.04	20598
808.182	20609
808.324	20617
808.465	20632
808.607	20788
808.749	21001
808.891	20990
809.033	21150
809.174	20876
809.316	20933
809.458	20914
809.6	20857
809.741	20956
809.883	21093
810.025	21036
810.166	21146
810.308	21024
810.45	20956
810.591	20956
810.733	20842
810.875	20781
811.016	20613
811.158	20788
811.299	20716
811.441	20800
811.582	20868
811.724	20800
811.865	20765
812.007	20648
812.148	20731
812.29	20648
812.431	20826
812.573	21032
812.714	21169
812.855	21230
812.997	21348
813.138	21359
813.279	21241
813.421	21226
813.562	21146
813.703	20921
813.845	20929
813.986	20587
814.127	20450
814.268	20237
814.41	20370
814.551	20347
814.692	20157
814.833	20107
814.974	20111
815.115	20202
815.256	20111
815.397	20161
815.539	20119
815.68	20073
815.821	19860
815.962	20069
816.103	19852
816.244	19921
816.385	19757
816.526	19632
816.666	19575
816.807	19445
816.948	19460
817.089	19502
817.23	19445
817.371	19354
817.512	19308
817.653	19324
817.793	19403
817.934	19384
818.075	19384
818.216	19365
818.356	19343
818.497	19171
818.638	19076
818.778	19069
818.919	19061
819.06	19148
819.2	19209
819.341	19183
819.481	19168
819.622	19411
819.762	19567
819.903	19480
820.043	19369
820.184	19282
820.324	19434
820.465	19434
820.605	19266
820.746	19407
820.886	19236
821.026	19221
821.167	19350
821.307	19510
821.447	19320
821.588	19160
821.728	19175
821.868	18856
822.008	18764
822.149	18764
822.289	18722
822.429	18604
822.569	18536
822.709	18353
822.849	18277
822.99	18277
823.13	18258
823.27	18197
823.41	18041
823.55	18095
823.69	18068
823.83	18136
823.97	18095
824.11	17901
824.25	17798
824.389	17939
824.529	17939
824.669	17878
824.809	17836
824.949	17832
825.089	17897
825.228	17908
825.368	17646
825.508	17615
825.648	17661
825.787	17764
825.927	17676
826.067	17474
826.206	17566
826.346	17665
826.485	17680
826.625	17585
826.765	17786
826.904	17649
827.044	17471
827.183	17368
827.323	17269
827.462	17402
827.601	17227
827.741	17292
827.88	17455
828.02	17318
828.159	17235
828.298	17345
828.437	17349
828.577	17273
828.716	17398
828.855	17307
828.994	17086
829.134	17162
829.273	16995
829.412	16968
829.551	16946
829.69	17075
829.829	17102
829.968	17178
830.107	17159
830.246	17162
830.385	17006
830.524	17121
830.663	17045
830.802	16892
830.941	16774
831.08	16577
831.219	16809
831.357	16816
831.496	16934
831.635	16744
831.774	16668
831.913	16653
832.051	16478
832.19	16478
832.329	16550
832.467	16436
832.606	16325
832.744	16478
832.883	16451
833.022	16352
833.16	16382
833.299	16356
833.437	16440
833.576	16436
833.714	16470
833.852	16451
833.991	16474
834.129	16497
834.267	16588
834.406	16493
834.544	16493
834.682	16390
834.821	16440
834.959	16580
835.097	16459
835.235	16573
835.373	16440
835.511	16508
835.65	16421
835.788	16348
835.926	16219
836.064	16173
836.202	16215
836.34	16405
836.478	16417
836.615	16352
836.753	16398
836.891	16504
837.029	16455
837.167	16436
837.305	16253
837.443	16284
837.58	16177
837.718	16257
837.856	16226
837.993	16310
838.131	16207
838.269	16204
838.406	16055
838.544	16204
838.681	15892
838.819	15991
838.956	15793
839.094	15869
839.231	15979
839.369	15975
839.506	16299
839.643	16082
839.781	15804
839.918	15804
840.055	15759
840.193	15816
840.33	15869
840.467	15892
840.604	15842
840.742	16105
840.879	15679
841.016	15663
841.153	15846
841.29	15899
841.427	15895
841.564	15888
841.701	15808
841.838	15732
841.975	15694
842.112	15682
842.249	15637
842.385	15568
842.522	15663
842.659	15568
842.796	15519
842.933	15572
843.069	15572
843.206	15561
843.343	15656
843.479	15603
843.616	15614
843.752	15389
843.889	15416
844.025	15519
844.162	15283
844.298	15572
844.435	15401
844.571	15298
844.708	15374
844.844	15557
844.98	15488
845.117	15458
845.253	15294
845.389	15287
845.525	15279
845.661	15302
845.798	15161
845.934	15237
846.07	15161
846.206	15150
846.342	15252
846.478	15180
846.614	15028
846.75	14807
846.886	14998
847.022	15020
847.158	14982
847.294	14994
847.429	14857
847.565	14887
847.701	15154
847.837	14689
847.972	14644
848.108	14769
848.244	14765
848.379	14727
848.515	14541
848.65	14476
848.786	14629
848.921	14530
849.057	14777
849.192	14610
849.328	14552
849.463	14659
849.598	14522
849.734	14530
849.869	14495
850.004	14351
850.14	14400
850.275	14393
850.41	14298
850.545	14396
850.68	14263
850.815	14351
850.95	14358
851.085	14454
851.22	14355
851.355	14355
851.49	14195
851.625	14298
851.76	14259
851.895	14157
852.03	14176
852.165	14233
852.299	14298
852.434	14328
852.569	14347
852.703	14434
852.838	14374
852.973	14457
853.107	14446
853.242	14282
853.376	14218
853.511	14088
853.645	14134
853.78	14370
853.914	14240
854.048	14218
854.183	14138
854.317	14317
854.451	14278
854.585	14210
854.72	14111
854.854	14240
854.988	14161
855.122	14149
855.256	14145
855.39	14172
855.524	14233
855.658	14358
855.792	14183
855.926	14252
856.06	14275
856.194	14275
856.327	14240
856.461	14149
856.595	14107
856.729	14183
856.862	14343
856.996	14282
857.13	14259
857.263	14290
857.397	14423
857.53	14149
857.664	14176
857.797	14252
857.931	14347
858.064	14294
858.197	14324
858.331	14237
858.464	14199
858.597	14218
858.731	14195
858.864	14256
858.997	14123
859.13	14214
859.263	14240
859.396	14286
859.529	14218
859.662	14172
859.795	14225
859.928	14256
860.061	14336
860.194	14385
860.327	14248
860.46	14218
860.592	14351
860.725	14347
860.858	14282
860.99	14206
861.123	14149
861.256	14130
861.388	14100
861.521	14845
861.653	14043
861.786	14035
861.918	14031
862.05	14134
862.183	14206
862.315	14149
862.447	14206
862.58	14183
862.712	13940
862.844	13940
862.976	14043
863.108	14058
863.24	14389
863.372	13898
863.504	13951
863.636	14012
863.768	13997
863.9	13967
864.032	13868
864.164	14100
864.296	13970
864.428	14077
864.559	14054
864.691	14062
864.823	14058
864.954	14126
865.086	14077
865.217	14001
865.349	13932
865.48	13917
865.612	13913
865.743	14058
865.875	14046
866.006	13925
866.137	13917
866.269	13978
866.4	14024
866.531	13917
866.662	13982
866.793	13993
866.924	13913
867.055	13917
867.186	13974
867.317	13913
867.448	13845
867.579	13928
867.71	13887
867.841	13807
867.972	13989
868.103	13902
868.233	14001
868.364	14054
868.495	14103
868.625	14221
868.756	14301
868.886	14035
869.017	14176
869.147	14305
869.278	14339
869.408	14195
869.539	14233
869.669	14275
869.799	14225
869.929	14469
870.06	14381
870.19	14552
870.32	14556
870.45	14568
870.58	14617
870.71	14731
870.84	14712
870.97	14613
871.1	14689
871.23	14769
871.36	14804
871.489	14659
871.619	14769
871.749	14963
871.879	14842
872.008	14948
872.138	14823
872.267	14758
872.397	14724
872.526	14678
872.656	14644
872.785	14754
872.915	14819
873.044	14883
873.173	14815
873.303	14868
873.432	14838
873.561	14910
873.69	14861
873.819	14906
873.948	14952
874.077	14880
874.206	14891
874.335	14891
874.464	15001
874.593	15150
874.722	14994
874.851	15294
874.979	15264
875.108	15161
875.237	15176
875.365	15165
875.494	15222
875.623	15230
875.751	15157
875.88	15188
876.008	15287
876.136	15363
876.265	15591
876.393	15698
876.521	15736
876.65	15652
876.778	15629
876.906	15641
877.034	15591
877.162	15549
877.29	15633
877.418	15671
877.546	15584
877.674	15622
877.802	15545
877.93	15610
878.058	15526
878.185	15424
878.313	15595
878.441	15587
878.568	15439
878.696	15496
878.824	15606
878.951	15656
879.079	15739
879.206	15915
879.333	15823
879.461	15675
879.588	15656
879.715	15800
879.842	15895
879.97	15671
880.097	15431
880.224	15405
880.351	15428
880.478	15431
880.605	15348
880.732	15416
880.859	15629
880.986	15545
881.112	15428
881.239	15344
881.366	15245
881.493	15233
881.619	15154
881.746	15150
881.872	15123
881.999	15104
882.125	15089
882.252	15081
882.378	15154
882.505	15184
882.631	14982
882.757	14944
882.883	15058
883.01	14918
883.136	14914
883.262	14842
883.388	14819
883.514	14918
883.64	14914
883.766	14868
883.892	14735
884.018	14746
884.143	15051
884.269	15165
884.395	14750
884.52	14693
884.646	14636
884.772	14621
884.897	14473
885.023	14610
885.148	14788
885.274	14731
885.399	14708
885.524	14705
885.65	14693
885.775	14670
885.9	14587
886.025	14701
886.15	14682
886.275	14667
886.4	14484
886.525	14613
886.65	14636
886.775	14579
886.9	14720
887.025	14819
887.149	14590
887.274	14457
887.399	14400
887.523	14473
887.648	14434
887.773	14324
887.897	14476
888.021	14564
888.146	14446
888.27	14541
888.395	14625
888.519	14530
888.643	14537
888.767	14522
888.891	14442
889.015	14358
889.139	14317
889.263	14313
889.387	14408
889.511	14537
889.635	14400
889.759	14271
889.883	14218
890.006	14423
890.13	14343
890.254	14256
890.377	14263
890.501	14157
890.624	14077
890.748	14252
890.871	14062
890.995	13932
891.118	13947
891.241	13959
891.364	14020
891.488	14183
891.611	14043
891.734	14031
891.857	14092
891.98	13967
892.103	14123
892.226	14069
892.349	14065
892.471	13936
892.594	14081
892.717	14016
892.839	13936
892.962	14001
893.085	14145
893.207	14092
893.33	13944
893.452	13955
893.575	14065
893.697	14069
893.819	14088
893.941	14218
894.064	14168
894.186	13955
894.308	13970
894.43	14180
894.552	14172
894.674	14100
894.796	14149
894.918	14027
895.04	14065
895.161	14202
895.283	14119
895.405	14092
895.526	14214
895.648	14130
895.769	14248
895.891	14096
896.012	14328
896.134	14298
896.255	14294
896.376	14191
896.498	14142
896.619	14225
896.74	14214
896.861	14248
896.982	14499
897.103	14697
897.224	14457
897.345	14473
897.466	14385
897.587	14522
897.708	14564
897.828	14465
897.949	14442
898.07	14248
898.19	14347
898.311	14598
898.431	14431
898.552	14518
898.672	14674
898.792	14693
898.913	14552
899.033	14461
899.153	14332
899.273	14282
899.393	14298
899.513	14480
899.633	14374
899.753	14412
899.873	14393
899.993	14431
900.113	14427
900.232	14396
900.352	14370
900.472	14328
900.591	14240
900.711	14252
900.83	14229
900.95	14423
901.069	14305
901.189	14229
901.308	14039
901.427	13898
901.546	13936
901.665	13989
901.784	13909
901.904	13906
902.023	13727
902.141	13537
902.26	13487
902.379	13597
902.498	13518
902.617	13472
902.735	13571
902.854	13487
902.973	13377
903.091	13247
903.21	13301
903.328	13213
903.446	13126
903.565	13118
903.683	13133
903.801	13000
903.919	13050
904.038	13072
904.156	12875
904.274	13000
904.392	12935
904.51	12783
904.627	12833
904.745	12947
904.863	13027
904.981	12681
905.098	12612
905.216	12585
905.334	12684
905.451	12627
905.569	12604
905.686	12658
905.803	12627
905.921	12365
906.038	12426
906.155	12528
906.272	12311
906.389	12285
906.506	12235
906.623	12163
906.74	12163
906.857	12076
906.974	12140
907.091	12273
907.208	12292
907.324	12220
907.441	12117
907.557	11927
907.674	11920
907.79	11817
907.907	11946
908.023	12038
908.139	11920
908.256	11973
908.372	11851
908.488	11843
908.604	11729
908.72	11661
908.836	11805
908.952	11710
909.068	11684
909.184	11851
909.3	11680
909.415	11764
909.531	11775
909.647	11554
909.762	11547
909.878	11440
909.993	11501
910.108	11440
910.224	11417
910.339	11535
910.454	11315
910.57	11220
910.685	11235
910.8	11585
910.915	11528
911.03	11387
911.145	11197
911.259	11128
911.374	11193
911.489	11071
911.604	11045
911.718	10976
911.833	10991
911.947	10862
912.062	10820
912.176	10889
912.291	10904
912.405	10927
912.519	11037
912.633	11151
912.748	11014
912.862	10953
912.976	10866
913.09	10778
913.204	10763
913.318	10790
913.431	10866
913.545	10805
913.659	10984
913.772	10714
913.886	10717
914	10660
914.113	10774
914.226	10767
914.34	10809
914.453	10637
914.566	10778
914.68	10637
914.793	10626
914.906	10531
915.019	10360
915.132	10394
915.245	10390
915.358	10409
915.47	10436
915.583	10440
915.696	10474
915.809	10611
915.921	10603
916.034	10382
916.146	10375
916.259	10371
916.371	10519
916.483	10481
916.595	10329
916.708	10409
916.82	10325
916.932	10341
917.044	10329
917.156	10402
917.268	10344
917.38	10295
917.491	10223
917.603	10325
917.715	10436
917.826	10337
917.938	10325
918.049	10219
918.161	10246
918.272	10394
918.384	10367
918.495	10280
918.606	10139
918.717	10139
918.828	10154
918.939	10181
919.05	10090
919.161	10181
919.272	9960
919.383	10036
919.494	10162
919.604	10310
919.715	10162
919.826	10147
919.936	10120
920.047	10303
920.157	10204
920.267	10428
920.378	10257
920.488	10215
920.598	10394
920.708	10577
920.818	10443
920.928	10363
921.038	10493
921.148	10417
921.258	10158
921.368	10101
921.477	9994
921.587	10029
921.697	9937
921.806	10082
921.916	9895
922.025	9728
922.134	9717
922.244	9743
922.353	9774
922.462	9679
922.571	9557
922.68	9458
922.789	9378
922.898	9374
923.007	9401
923.116	9504
923.224	9458
923.333	9370
923.442	9287
923.55	9302
923.659	9283
923.767	9408
923.876	9310
923.984	9310
924.092	9256
924.201	9287
924.309	9313
924.417	9199
924.525	9192
924.633	9291
924.741	9991
924.849	9028
924.956	9195
925.064	9089
925.172	8956
925.279	9009
925.387	9051
925.494	9077
925.602	9173
925.709	9184
925.816	9062
925.924	9051
926.031	9188
926.138	9062
926.245	9097
926.352	8975
926.459	9184
926.566	9253
926.673	9066
926.779	8956
926.886	8944
926.993	8834
927.099	8766
927.206	8720
927.312	8773
927.419	8823
927.525	8766
927.631	8838
927.737	8766
927.843	8644
927.95	8602
928.056	8678
928.162	8724
928.267	8807
928.373	9420
928.479	8693
928.585	8602
928.69	8651
928.796	8750
928.901	8667
929.007	8503
929.112	8640
929.218	8632
929.323	8545
929.428	8476
929.533	8636
929.638	8404
929.743	8541
929.848	8571
929.953	8530
930.058	8419
930.163	8252
930.267	8214
930.372	8450
930.477	8279
930.581	8537
930.685	8366
930.79	8248
930.894	8191
930.998	8202
931.103	8366
931.207	8020
931.311	7947
931.415	7894
931.519	7753
931.623	7814
