Data from test_V78500241_415.txt Node
Date: Fri Mar 25 14:36:36 CST 2022
User: usil
Spectrometer: V785-0024
Trigger mode: 0
Integration Time (sec): 4.000000E-1
Scans to average: 1
Nonlinearity correction enabled: false
Boxcar width: 0
Storing dark spectrum: false
XAxis mode: Wavelengths
Number of Pixels in Spectrum: 1024
>>>>>Begin Spectral Data<<<<<
801.071	26629
801.214	26450
801.356	26294
801.499	26199
801.641	26050
801.783	26073
801.926	26145
802.068	26008
802.211	25928
802.353	25856
802.496	25917
802.638	25666
802.78	25605
802.923	25624
803.065	25624
803.208	25457
803.35	25479
803.492	25578
803.635	25849
803.777	25658
803.919	25757
804.061	25982
804.204	25609
804.346	25559
804.488	25483
804.63	25548
804.773	25460
804.915	25609
805.057	25559
805.199	25491
805.341	25586
805.483	25693
805.626	25635
805.768	25624
805.91	25525
806.052	25689
806.194	25472
806.336	25769
806.478	25609
806.62	25544
806.762	25708
806.904	25807
807.046	26103
807.188	25944
807.33	25887
807.472	25978
807.614	25845
807.756	25993
807.898	25765
808.04	25628
808.182	25693
808.324	25757
808.465	25803
808.607	25963
808.749	26252
808.891	26259
809.033	26324
809.174	26286
809.316	26039
809.458	26039
809.6	26088
809.741	26252
809.883	26237
810.025	26324
810.166	26358
810.308	26343
810.45	26271
810.591	26248
810.733	25959
810.875	25940
811.016	25906
811.158	25830
811.299	26081
811.441	26142
811.582	26077
811.724	25974
811.865	25811
812.007	26050
812.148	25940
812.29	25955
812.431	26111
812.573	26164
812.714	26317
812.855	26408
812.997	26511
813.138	26533
813.279	26511
813.421	26400
813.562	26317
813.703	26183
813.845	26100
813.986	25731
814.127	25776
814.268	25499
814.41	25597
814.551	25476
814.692	25586
814.833	25499
814.974	25343
815.115	25502
815.256	25225
815.397	25350
815.539	25381
815.68	25209
815.821	25251
815.962	25179
816.103	25255
816.244	25008
816.385	24947
816.526	25034
816.666	24753
816.807	24635
816.948	24726
817.089	24707
817.23	24616
817.371	24665
817.512	24623
817.653	24509
817.793	24517
817.934	24681
818.075	24688
818.216	24646
818.356	24563
818.497	24456
818.638	24357
818.778	24247
818.919	24338
819.06	24243
819.2	24540
819.341	24464
819.481	24525
819.622	24578
819.762	24848
819.903	24681
820.043	24631
820.184	24635
820.324	24627
820.465	24669
820.605	24639
820.746	24604
820.886	24433
821.026	24502
821.167	24608
821.307	24570
821.447	24589
821.588	24380
821.728	24171
821.868	24216
822.008	24034
822.149	24045
822.289	23821
822.429	23726
822.569	23604
822.709	23592
822.849	23391
822.99	23368
823.13	23353
823.27	23318
823.41	23239
823.55	23094
823.69	23200
823.83	23147
823.97	23132
824.11	22930
824.25	22889
824.389	22961
824.529	23018
824.669	22980
824.809	23151
824.949	23014
825.089	22915
825.228	23014
825.368	22793
825.508	22740
825.648	22744
825.787	22847
825.927	22839
826.067	22721
826.206	22634
826.346	22824
826.485	22740
826.625	22949
826.765	22824
826.904	22755
827.044	22508
827.183	22489
827.323	22367
827.462	22550
827.601	22493
827.741	22417
827.88	22421
828.02	22200
828.159	22386
828.298	22523
828.437	22557
828.577	22360
828.716	22474
828.855	22261
828.994	22162
829.134	22192
829.273	22135
829.412	22090
829.551	22086
829.69	22067
829.829	22169
829.968	22223
830.107	22192
830.246	22169
830.385	22036
830.524	22067
830.663	21907
830.802	21770
830.941	21766
831.08	21762
831.219	21751
831.357	21679
831.496	21880
831.635	21732
831.774	21580
831.913	21614
832.051	21507
832.19	21428
832.329	21542
832.467	21412
832.606	21268
832.744	21188
832.883	21252
833.022	21310
833.16	21386
833.299	21466
833.437	21405
833.576	21439
833.714	21298
833.852	21488
833.991	21367
834.129	21408
834.267	21496
834.406	21329
834.544	21431
834.682	21466
834.821	21294
834.959	21435
835.097	21275
835.235	21401
835.373	21283
835.511	21351
835.65	21325
835.788	21245
835.926	21070
836.064	20975
836.202	21100
836.34	21348
836.478	21199
836.615	21138
836.753	21195
836.891	21306
837.029	21355
837.167	21119
837.305	21104
837.443	21104
837.58	21047
837.718	21100
837.856	21119
837.993	20933
838.131	21131
838.269	20918
838.406	20960
838.544	20830
838.681	20796
838.819	20746
838.956	20632
839.094	20480
839.231	20533
839.369	20606
839.506	20807
839.643	20636
839.781	20587
839.918	20374
840.055	20412
840.193	20415
840.33	20294
840.467	20530
840.604	20351
840.742	20758
840.879	20278
841.016	20301
841.153	20332
841.29	20541
841.427	20545
841.564	20469
841.701	20469
841.838	20309
841.975	20282
842.112	20328
842.249	20256
842.385	20081
842.522	20259
842.659	20199
842.796	20168
842.933	20180
843.069	20153
843.206	20142
843.343	20153
843.479	20195
843.616	20237
843.752	19906
843.889	19974
844.025	20005
844.162	19830
844.298	20046
844.435	19799
844.571	19814
844.708	19909
844.844	20016
844.98	20027
845.117	20016
845.253	19902
845.389	19696
845.525	19772
845.661	19830
845.798	19651
845.934	19822
846.07	19597
846.206	19715
846.342	19871
846.478	19521
846.614	19491
846.75	19445
846.886	19274
847.022	19502
847.158	19285
847.294	19400
847.429	19438
847.565	19278
847.701	19620
847.837	19118
847.972	19103
848.108	19213
848.244	19236
848.379	19012
848.515	18973
848.65	19004
848.786	18973
848.921	18966
849.057	19065
849.192	18989
849.328	18962
849.463	19000
849.598	18920
849.734	18760
849.869	18825
850.004	18734
850.14	18722
850.275	18623
850.41	18616
850.545	18665
850.68	18570
850.815	18669
850.95	18673
851.085	18852
851.22	18734
851.355	18616
851.49	18631
851.625	18601
851.76	18574
851.895	18601
852.03	18593
852.165	18642
852.299	18700
852.434	18741
852.569	18738
852.703	18745
852.838	18700
852.973	18692
853.107	18722
853.242	18604
853.376	18502
853.511	18380
853.645	18570
853.78	18597
853.914	18513
854.048	18551
854.183	18532
854.317	18471
854.451	18688
854.585	18479
854.72	18498
854.854	18582
854.988	18422
855.122	18498
855.256	18388
855.39	18475
855.524	18471
855.658	18551
855.792	18448
855.926	18407
856.06	18601
856.194	18604
856.327	18551
856.461	18410
856.595	18391
856.729	18327
856.862	18502
856.996	18467
857.13	18475
857.263	18620
857.397	18433
857.53	18418
857.664	18448
857.797	18513
857.931	18551
858.064	18460
858.197	18608
858.331	18372
858.464	18486
858.597	18289
858.731	18388
858.864	18403
858.997	18399
859.13	18327
859.263	18502
859.396	18502
859.529	18441
859.662	18395
859.795	18391
859.928	18471
860.061	18506
860.194	18547
860.327	18471
860.46	18407
860.592	18517
860.725	18559
860.858	18483
860.99	18384
861.123	18304
861.256	18330
861.388	18342
861.521	19251
861.653	18330
861.786	18251
861.918	18323
862.05	18353
862.183	18395
862.315	18479
862.447	18528
862.58	18410
862.712	18224
862.844	18148
862.976	18243
863.108	18216
863.24	18422
863.372	17999
863.504	18072
863.636	18174
863.768	18182
863.9	18285
864.032	18114
864.164	18083
864.296	18087
864.428	18209
864.559	18159
864.691	18167
864.823	18079
864.954	18159
865.086	18038
865.217	18072
865.349	18003
865.48	18064
865.612	17961
865.743	18182
865.875	18015
866.006	18106
866.137	17969
866.269	18068
866.4	18064
866.531	17973
866.662	17988
866.793	18026
866.924	17980
867.055	18110
867.186	18045
867.317	18011
867.448	17961
867.579	17984
867.71	18026
867.841	18026
867.972	18011
868.103	18041
868.233	17984
868.364	18003
868.495	18007
868.625	18171
868.756	18300
868.886	18068
869.017	18144
869.147	18357
869.278	18361
869.408	18194
869.539	18254
869.669	18327
869.799	18323
869.929	18350
870.06	18277
870.19	18528
870.32	18475
870.45	18502
870.58	18566
870.71	18817
870.84	18661
870.97	18551
871.1	18642
871.23	18871
871.36	18806
871.489	18696
871.619	18779
871.749	18817
871.879	18730
872.008	18947
872.138	18837
872.267	18837
872.397	18749
872.526	18673
872.656	18650
872.785	18715
872.915	18886
873.044	18916
873.173	18840
873.303	18859
873.432	18951
873.561	18935
873.69	18852
873.819	18894
873.948	18909
874.077	18848
874.206	18821
874.335	18935
874.464	18989
874.593	19091
874.722	19015
874.851	19076
874.979	19175
875.108	19122
875.237	19118
875.365	19072
875.494	19057
875.623	19263
875.751	19133
875.88	19213
876.008	19213
876.136	19232
876.265	19582
876.393	19685
876.521	19483
876.65	19635
876.778	19552
876.906	19472
877.034	19483
877.162	19457
877.29	19377
877.418	19525
877.546	19537
877.674	19499
877.802	19567
877.93	19464
878.058	19415
878.185	19472
878.313	19441
878.441	19590
878.568	19312
878.696	19567
878.824	19544
878.951	19544
879.079	19674
879.206	19856
879.333	19689
879.461	19681
879.588	19765
879.715	19799
879.842	19864
879.97	19651
880.097	19396
880.224	19381
880.351	19339
880.478	19354
880.605	19320
880.732	19343
880.859	19559
880.986	19426
881.112	19487
881.239	19312
881.366	19263
881.493	19027
881.619	19019
881.746	19122
881.872	19038
881.999	18962
882.125	18993
882.252	19031
882.378	19008
882.505	19076
882.631	18897
882.757	18844
882.883	18894
883.01	18810
883.136	18753
883.262	18700
883.388	18612
883.514	18844
883.64	18954
883.766	18692
883.892	18547
884.018	18551
884.143	18776
884.269	18821
884.395	18467
884.52	18407
884.646	18559
884.772	18506
884.897	18460
885.023	18506
885.148	18578
885.274	18635
885.399	18551
885.524	18323
885.65	18467
885.775	18467
885.9	18509
886.025	18486
886.15	18570
886.275	18502
886.4	18311
886.525	18410
886.65	18330
886.775	18292
886.9	18483
887.025	18593
887.149	18296
887.274	18273
887.399	18266
887.523	18273
887.648	18057
887.773	18209
887.897	18209
888.021	18300
888.146	18117
888.27	18304
888.395	18277
888.519	18273
888.643	18232
888.767	18350
888.891	18182
889.015	18072
889.139	17984
889.263	17939
889.387	18068
889.511	18273
889.635	18213
889.759	17920
889.883	18087
890.006	17843
890.13	18197
890.254	17973
890.377	17878
890.501	17741
890.624	17687
890.748	17840
890.871	17786
890.995	17623
891.118	17600
891.241	17623
891.364	17703
891.488	17729
891.611	17566
891.734	17707
891.857	17649
891.98	17684
892.103	17646
892.226	17722
892.349	17710
892.471	17532
892.594	17573
892.717	17627
892.839	17604
892.962	17570
893.085	17764
893.207	17543
893.33	17509
893.452	17516
893.575	17543
893.697	17596
893.819	17794
893.941	17729
894.064	17615
894.186	17406
894.308	17497
894.43	17638
894.552	17828
894.674	17722
894.796	17551
894.918	17600
895.04	17482
895.161	17703
895.283	17657
895.405	17532
895.526	17600
895.648	17611
895.769	17600
895.891	17687
896.012	17676
896.134	17710
896.255	17661
896.376	17642
896.498	17657
896.619	17733
896.74	17684
896.861	17722
896.982	18019
897.103	18098
897.224	18060
897.345	17863
897.466	17802
897.587	17855
897.708	17912
897.828	17904
897.949	17870
898.07	17672
898.19	17764
898.311	17965
898.431	17760
898.552	17946
898.672	17939
898.792	17988
898.913	17863
899.033	17821
899.153	17775
899.273	17684
899.393	17653
899.513	17726
899.633	17695
899.753	17581
899.873	17562
899.993	17668
900.113	17581
900.232	17745
900.352	17524
900.472	17566
900.591	17501
900.711	17516
900.83	17463
900.95	17573
901.069	17524
901.189	17372
901.308	17258
901.427	17102
901.546	17258
901.665	17037
901.784	17178
901.904	17102
902.023	16938
902.141	16748
902.26	16706
902.379	16839
902.498	16672
902.617	16584
902.735	16778
902.854	16637
902.973	16577
903.091	16382
903.21	16306
903.328	16306
903.446	16299
903.565	16169
903.683	16246
903.801	16131
903.919	16177
904.038	16093
904.156	15983
904.274	16055
904.392	15915
904.51	15911
904.627	15960
904.745	15941
904.863	15998
904.981	15766
905.098	15603
905.216	15584
905.334	15663
905.451	15747
905.569	15652
905.686	15701
905.803	15671
905.921	15420
906.038	15466
906.155	15424
906.272	15359
906.389	15370
906.506	15241
906.623	15184
906.74	15142
906.857	15127
906.974	15055
907.091	15249
907.208	15245
907.324	15104
907.441	15058
907.557	14963
907.674	14834
907.79	14746
907.907	14849
908.023	14887
908.139	14880
908.256	14746
908.372	14724
908.488	14777
908.604	14564
908.72	14583
908.836	14556
908.952	14552
909.068	14587
909.184	14697
909.3	14549
909.415	14526
909.531	14583
909.647	14393
909.762	14393
909.878	14256
909.993	14313
910.108	14252
910.224	14240
910.339	14294
910.454	14100
910.57	14073
910.685	14046
910.8	14286
910.915	14225
911.03	14134
911.145	13993
911.259	13879
911.374	13967
911.489	13830
911.604	13772
911.718	13734
911.833	13696
911.947	13567
912.062	13521
912.176	13689
912.291	13723
912.405	13693
912.519	13864
912.633	13761
912.748	13738
912.862	13578
912.976	13548
913.09	13373
913.204	13480
913.318	13567
913.431	13639
913.545	13518
913.659	13689
913.772	13502
913.886	13362
914	13324
914.113	13426
914.226	13499
914.34	13354
914.453	13335
914.566	13449
914.68	13236
914.793	13217
914.906	13057
915.019	13031
915.132	12916
915.245	13072
915.358	13019
915.47	13057
915.583	13019
915.696	13103
915.809	13225
915.921	13213
916.034	12913
916.146	12901
916.259	12916
916.371	13015
916.483	13031
916.595	12973
916.708	12852
916.82	12878
916.932	12791
917.044	12840
917.156	12776
917.268	12738
917.38	12840
917.491	12677
917.603	12791
917.715	12806
917.826	12844
917.938	12730
918.049	12513
918.161	12730
918.272	12844
918.384	12837
918.495	12764
918.606	12620
918.717	12563
918.828	12646
918.939	12631
919.05	12536
919.161	12521
919.272	12361
919.383	12414
919.494	12646
919.604	12696
919.715	12536
919.826	12475
919.936	12475
920.047	12532
920.157	12525
920.267	12738
920.378	12536
920.488	12441
920.598	12684
920.708	12757
920.818	12684
920.928	12639
921.038	12757
921.148	12753
921.258	12559
921.368	12330
921.477	12289
921.587	12235
921.697	12266
921.806	12330
921.916	12190
922.025	12057
922.134	11916
922.244	11950
922.353	12060
922.462	11859
922.571	11809
922.68	11627
922.789	11695
922.898	11615
923.007	11611
923.116	11646
923.224	11554
923.333	11547
923.442	11478
923.55	11395
923.659	11551
923.767	11520
923.876	11402
923.984	11528
924.092	11372
924.201	11448
924.309	11467
924.417	11311
924.525	11334
924.633	11356
924.741	12350
924.849	11140
924.956	11360
925.064	11098
925.172	11113
925.279	11147
925.387	11181
925.494	11143
925.602	11277
925.709	11216
925.816	11121
925.924	11079
926.031	11265
926.138	11185
926.245	11204
926.352	10991
926.459	11113
926.566	11223
926.673	11014
926.779	10915
926.886	10869
926.993	10790
927.099	10793
927.206	10649
927.312	10740
927.419	10828
927.525	10759
927.631	10793
927.737	10679
927.843	10672
927.95	10653
928.056	10664
928.162	10584
928.267	10649
928.373	11292
928.479	10706
928.585	10455
928.69	10634
928.796	10592
928.901	10474
929.007	10360
929.112	10535
929.218	10519
929.323	10478
929.428	10287
929.533	10470
929.638	10325
929.743	10306
929.848	10390
929.953	10375
930.058	10249
930.163	10131
930.267	10128
930.372	10234
930.477	10078
930.581	10211
930.685	10162
930.79	10150
930.894	9987
930.998	9983
931.103	10105
931.207	9736
931.311	9633
931.415	9679
931.519	9538
931.623	9511
