Data from test_V78500241_1298.txt Node
Date: Fri Mar 25 14:42:45 CST 2022
User: usil
Spectrometer: V785-0024
Trigger mode: 0
Integration Time (sec): 4.000000E-1
Scans to average: 1
Nonlinearity correction enabled: false
Boxcar width: 0
Storing dark spectrum: false
XAxis mode: Wavelengths
Number of Pixels in Spectrum: 1024
>>>>>Begin Spectral Data<<<<<
801.071	22443
801.214	22322
801.356	22070
801.499	22040
801.641	21781
801.783	21705
801.926	21854
802.068	21622
802.211	21671
802.353	21485
802.496	21317
802.638	21359
802.78	21199
802.923	21256
803.065	21211
803.208	21070
803.35	21055
803.492	21150
803.635	21275
803.777	21093
803.919	21226
804.061	21538
804.204	21146
804.346	21093
804.488	20944
804.63	21157
804.773	20937
804.915	21077
805.057	21070
805.199	21039
805.341	21093
805.483	21157
805.626	21154
805.768	20975
805.91	21043
806.052	21036
806.194	20963
806.336	21310
806.478	21081
806.62	21039
806.762	21146
806.904	21260
807.046	21416
807.188	21329
807.33	21458
807.472	21469
807.614	21393
807.756	21408
807.898	21329
808.04	21233
808.182	21154
808.324	21325
808.465	21245
808.607	21473
808.749	21466
808.891	21641
809.033	21724
809.174	21732
809.316	21447
809.458	21466
809.6	21401
809.741	21648
809.883	21603
810.025	21629
810.166	21629
810.308	21686
810.45	21473
810.591	21408
810.733	21275
810.875	21241
811.016	21123
811.158	21169
811.299	21378
811.441	21332
811.582	21214
811.724	21233
811.865	21230
812.007	21222
812.148	21176
812.29	21214
812.431	21348
812.573	21488
812.714	21610
812.855	21698
812.997	21808
813.138	22013
813.279	21759
813.421	21618
813.562	21606
813.703	21313
813.845	21439
813.986	21116
814.127	20948
814.268	20834
814.41	20899
814.551	20842
814.692	20868
814.833	20583
814.974	20697
815.115	20743
815.256	20503
815.397	20609
815.539	20590
815.68	20549
815.821	20415
815.962	20545
816.103	20389
816.244	20358
816.385	20252
816.526	20263
816.666	19986
816.807	19947
816.948	19959
817.089	20012
817.23	20031
817.371	19871
817.512	19925
817.653	19852
817.793	19769
817.934	20027
818.075	19875
818.216	19909
818.356	19727
818.497	19712
818.638	19499
818.778	19586
818.919	19639
819.06	19685
819.2	19548
819.341	19761
819.481	19761
819.622	19967
819.762	20126
819.903	20035
820.043	19917
820.184	19890
820.324	19871
820.465	19906
820.605	19906
820.746	19746
820.886	19719
821.026	19936
821.167	19738
821.307	19894
821.447	19830
821.588	19685
821.728	19578
821.868	19468
822.008	19270
822.149	19285
822.289	19217
822.429	19050
822.569	18962
822.709	19008
822.849	18844
822.99	18749
823.13	18692
823.27	18658
823.41	18559
823.55	18570
823.69	18631
823.83	18585
823.97	18582
824.11	18407
824.25	18342
824.389	18342
824.529	18391
824.669	18395
824.809	18448
824.949	18376
825.089	18407
825.228	18483
825.368	18254
825.508	18232
825.648	18171
825.787	18167
825.927	18194
826.067	18060
826.206	18007
826.346	18201
826.485	18171
826.625	18220
826.765	18247
826.904	18057
827.044	17912
827.183	17901
827.323	17775
827.462	17973
827.601	17821
827.741	17870
827.88	17889
828.02	17653
828.159	17832
828.298	17942
828.437	17832
828.577	17802
828.716	17999
828.855	17779
828.994	17509
829.134	17657
829.273	17611
829.412	17585
829.551	17562
829.69	17562
829.829	17547
829.968	17570
830.107	17695
830.246	17543
830.385	17611
830.524	17520
830.663	17315
830.802	17334
830.941	17121
831.08	17231
831.219	17261
831.357	17330
831.496	17463
831.635	17147
831.774	17094
831.913	16923
832.051	17041
832.19	16987
832.329	17052
832.467	16938
832.606	16866
832.744	16812
832.883	16968
833.022	16896
833.16	17006
833.299	16923
833.437	16987
833.576	16968
833.714	16896
833.852	16911
833.991	17041
834.129	16987
834.267	17056
834.406	17029
834.544	17033
834.682	17075
834.821	17071
834.959	17235
835.097	17025
835.235	17010
835.373	16889
835.511	17048
835.65	16881
835.788	16854
835.926	16733
836.064	16622
836.202	16713
836.34	16862
836.478	17010
836.615	16752
836.753	16805
836.891	17022
837.029	16831
837.167	16786
837.305	16877
837.443	16691
837.58	16763
837.718	16850
837.856	16797
837.993	16828
838.131	16797
838.269	16637
838.406	16531
838.544	16596
838.681	16481
838.819	16386
838.956	16196
839.094	16246
839.231	16363
839.369	16451
839.506	16660
839.643	16504
839.781	16284
839.918	16306
840.055	16284
840.193	16363
840.33	16238
840.467	16272
840.604	16276
840.742	16504
840.879	16135
841.016	16150
841.153	16230
841.29	16428
841.427	16303
841.564	16352
841.701	16261
841.838	16211
841.975	16143
842.112	16196
842.249	16040
842.385	16006
842.522	16162
842.659	16067
842.796	16044
842.933	16158
843.069	15975
843.206	15922
843.343	16048
843.479	16150
843.616	16082
843.752	15915
843.889	15854
844.025	16021
844.162	15854
844.298	15975
844.435	15812
844.571	15838
844.708	15873
844.844	15964
844.98	16002
845.117	15972
845.253	15918
845.389	15785
845.525	15804
845.661	15915
845.798	15728
845.934	15846
846.07	15903
846.206	15873
846.342	15812
846.478	15701
846.614	15553
846.75	15412
846.886	15466
847.022	15443
847.158	15408
847.294	15332
847.429	15492
847.565	15351
847.701	15637
847.837	15119
847.972	15119
848.108	15283
848.244	15264
848.379	15093
848.515	14979
848.65	14990
848.786	15043
848.921	15043
849.057	15112
849.192	15039
849.328	15032
849.463	15066
849.598	14944
849.734	14823
849.869	14967
850.004	14720
850.14	14887
850.275	14895
850.41	14727
850.545	14629
850.68	14800
850.815	14720
850.95	14743
851.085	14998
851.22	14815
851.355	14819
851.49	14811
851.625	14701
851.76	14693
851.895	14697
852.03	14632
852.165	14830
852.299	14788
852.434	14910
852.569	14804
852.703	14941
852.838	14842
852.973	14876
853.107	14918
853.242	14731
853.376	14724
853.511	14545
853.645	14602
853.78	14750
853.914	14617
854.048	14564
854.183	14602
854.317	14667
854.451	14842
854.585	14655
854.72	14579
854.854	14686
854.988	14533
855.122	14503
855.256	14545
855.39	14522
855.524	14686
855.658	14724
855.792	14651
855.926	14655
856.06	14674
856.194	14701
856.327	14708
856.461	14617
856.595	14663
856.729	14648
856.862	14682
856.996	14655
857.13	14682
857.263	14796
857.397	14735
857.53	14648
857.664	14724
857.797	14769
857.931	14716
858.064	14712
858.197	14765
858.331	14636
858.464	14552
858.597	14495
858.731	14583
858.864	14655
858.997	14598
859.13	14655
859.263	14640
859.396	14811
859.529	14587
859.662	14632
859.795	14568
859.928	14613
860.061	14876
860.194	14857
860.327	14667
860.46	14598
860.592	14781
860.725	14857
860.858	14750
860.99	14663
861.123	14613
861.256	14579
861.388	14663
861.521	15355
861.653	14507
861.786	14469
861.918	14511
862.05	14594
862.183	14579
862.315	14571
862.447	14655
862.58	14644
862.712	14427
862.844	14328
862.976	14476
863.108	14431
863.24	14918
863.372	14214
863.504	14400
863.636	14434
863.768	14389
863.9	14374
864.032	14317
864.164	14275
864.296	14476
864.428	14632
864.559	14571
864.691	14587
864.823	14503
864.954	14442
865.086	14549
865.217	14431
865.349	14358
865.48	14377
865.612	14412
865.743	14625
865.875	14427
866.006	14370
866.137	14336
866.269	14393
866.4	14332
866.531	14358
866.662	14377
866.793	14320
866.924	14298
867.055	14374
867.186	14313
867.317	14305
867.448	14336
867.579	14396
867.71	14237
867.841	14275
867.972	14332
868.103	14408
868.233	14396
868.364	14404
868.495	14438
868.625	14518
868.756	14678
868.886	14552
869.017	14583
869.147	14785
869.278	14785
869.408	14686
869.539	14663
869.669	14689
869.799	14746
869.929	14804
870.06	14682
870.19	14979
870.32	14952
870.45	14918
870.58	14994
870.71	15146
870.84	15173
870.97	15104
871.1	15039
871.23	15211
871.36	15275
871.489	15165
871.619	15192
871.749	15188
871.879	15287
872.008	15386
872.138	15203
872.267	15279
872.397	15097
872.526	15108
872.656	15024
872.785	15081
872.915	15310
873.044	15294
873.173	15249
873.303	15332
873.432	15245
873.561	15367
873.69	15287
873.819	15359
873.948	15325
874.077	15260
874.206	15302
874.335	15325
874.464	15363
874.593	15633
874.722	15447
874.851	15732
874.979	15557
875.108	15618
875.237	15625
875.365	15458
875.494	15584
875.623	15694
875.751	15545
875.88	15686
876.008	15816
876.136	15880
876.265	16048
876.393	16128
876.521	16139
876.65	16055
876.778	16071
876.906	15979
877.034	15930
877.162	16040
877.29	15899
877.418	15979
877.546	16002
877.674	16017
877.802	16040
877.93	15987
878.058	15915
878.185	15934
878.313	16048
878.441	15975
878.568	15876
878.696	15968
878.824	16154
878.951	16097
879.079	16246
879.206	16363
879.333	16215
879.461	16166
879.588	16200
879.715	16306
879.842	16322
879.97	16150
880.097	15964
880.224	15960
880.351	15949
880.478	15949
880.605	15816
880.732	15926
880.859	16078
880.986	15842
881.112	15922
881.239	15816
881.366	15701
881.493	15625
881.619	15462
881.746	15553
881.872	15599
881.999	15485
882.125	15477
882.252	15576
882.378	15606
882.505	15713
882.631	15420
882.757	15252
882.883	15477
883.01	15294
883.136	15367
883.262	15214
883.388	15146
883.514	15447
883.64	15367
883.766	15340
883.892	15203
884.018	15150
884.143	15317
884.269	15386
884.395	15161
884.52	15058
884.646	15039
884.772	15020
884.897	14998
885.023	15089
885.148	15100
885.274	15146
885.399	15051
885.524	15051
885.65	14994
885.775	15081
885.9	14971
886.025	15157
886.15	15043
886.275	14948
886.4	15055
886.525	14944
886.65	14921
886.775	14902
886.9	15214
887.025	15264
887.149	15028
887.274	14864
887.399	14899
887.523	14838
887.648	14868
887.773	14823
887.897	14895
888.021	14948
888.146	14845
888.27	14914
888.395	14979
888.519	14876
888.643	14982
888.767	14937
888.891	14842
889.015	14617
889.139	14811
889.263	14670
889.387	14883
889.511	14887
889.635	14750
889.759	14777
889.883	14663
890.006	14765
890.13	14857
890.254	14651
890.377	14625
890.501	14446
890.624	14503
890.748	14568
890.871	14507
890.995	14389
891.118	14389
891.241	14408
891.364	14381
891.488	14568
891.611	14389
891.734	14450
891.857	14461
891.98	14419
892.103	14393
892.226	14393
892.349	14446
892.471	14301
892.594	14393
892.717	14374
892.839	14389
892.962	14427
893.085	14305
893.207	14336
893.33	14263
893.452	14408
893.575	14427
893.697	14495
893.819	14598
893.941	14625
894.064	14522
894.186	14370
894.308	14431
894.43	14522
894.552	14564
894.674	14541
894.796	14355
894.918	14469
895.04	14415
895.161	14461
895.283	14610
895.405	14480
895.526	14499
895.648	14457
895.769	14579
895.891	14621
896.012	14549
896.134	14564
896.255	14530
896.376	14602
896.498	14537
896.619	14613
896.74	14606
896.861	14659
896.982	14925
897.103	15051
897.224	14811
897.345	14792
897.466	14762
897.587	14853
897.708	14918
897.828	14823
897.949	14739
898.07	14686
898.19	14804
898.311	14986
898.431	14914
898.552	14880
898.672	14990
898.792	15013
898.913	14948
899.033	14868
899.153	14785
899.273	14712
899.393	14750
899.513	14758
899.633	14785
899.753	14743
899.873	14739
899.993	14769
900.113	14708
900.232	14724
900.352	14765
900.472	14689
900.591	14606
900.711	14682
900.83	14583
900.95	14743
901.069	14716
901.189	14541
901.308	14305
901.427	14263
901.546	14221
901.665	14187
901.784	14336
901.904	14153
902.023	14088
902.141	13883
902.26	13807
902.379	13986
902.498	13811
902.617	13826
902.735	13795
902.854	13970
902.973	13807
903.091	13556
903.21	13472
903.328	13628
903.446	13434
903.565	13403
903.683	13419
903.801	13335
903.919	13422
904.038	13384
904.156	13301
904.274	13179
904.392	13232
904.51	13247
904.627	13228
904.745	13259
904.863	13244
904.981	13072
905.098	12897
905.216	12916
905.334	12947
905.451	12840
905.569	12913
905.686	12966
905.803	12863
905.921	12749
906.038	12909
906.155	12711
906.272	12627
906.389	12597
906.506	12490
906.623	12452
906.74	12517
906.857	12418
906.974	12460
907.091	12536
907.208	12639
907.324	12525
907.441	12418
907.557	12197
907.674	12338
907.79	12213
907.907	12159
908.023	12262
908.139	12270
908.256	12224
908.372	12243
908.488	12087
908.604	12038
908.72	12022
908.836	12053
908.952	12015
909.068	11980
909.184	12144
909.3	12076
909.415	12003
909.531	12034
909.647	11866
909.762	11756
909.878	11805
909.993	11802
910.108	11779
910.224	11722
910.339	11691
910.454	11657
910.57	11634
910.685	11573
910.8	11870
910.915	11729
911.03	11623
911.145	11509
911.259	11421
911.374	11478
911.489	11463
911.604	11414
911.718	11258
911.833	11185
911.947	11117
912.062	11151
912.176	11258
912.291	11269
912.405	11178
912.519	11406
912.633	11433
912.748	11299
912.862	11201
912.976	11098
913.09	11029
913.204	11048
913.318	11113
913.431	11242
913.545	11136
913.659	11220
913.772	11143
913.886	11006
914	11006
914.113	11052
914.226	11132
914.34	11006
914.453	10904
914.566	11090
914.68	10828
914.793	10946
914.906	10767
915.019	10649
915.132	10603
915.245	10634
915.358	10664
915.47	10698
915.583	10759
915.696	10793
915.809	10828
915.921	10889
916.034	10725
916.146	10641
916.259	10607
916.371	10691
916.483	10675
916.595	10580
916.708	10725
916.82	10675
916.932	10531
917.044	10592
917.156	10603
917.268	10569
917.38	10573
917.491	10451
917.603	10569
917.715	10603
917.826	10656
917.938	10447
918.049	10371
918.161	10451
918.272	10759
918.384	10668
918.495	10641
918.606	10375
918.717	10337
918.828	10432
918.939	10428
919.05	10341
919.161	10398
919.272	10215
919.383	10314
919.494	10474
919.604	10656
919.715	10447
919.826	10367
919.936	10417
920.047	10538
920.157	10432
920.267	10611
920.378	10455
920.488	10497
920.598	10565
920.708	10782
920.818	10698
920.928	10599
921.038	10793
921.148	10744
921.258	10459
921.368	10379
921.477	10238
921.587	10329
921.697	10177
921.806	10337
921.916	10097
922.025	9964
922.134	10040
922.244	9854
922.353	9972
922.462	9956
922.571	9816
922.68	9656
922.789	9595
922.898	9686
923.007	9587
923.116	9667
923.224	9675
923.333	9709
923.442	9534
923.55	9485
923.659	9606
923.767	9656
923.876	9504
923.984	9568
924.092	9561
924.201	9542
924.309	9557
924.417	9553
924.525	9435
924.633	9450
924.741	10268
924.849	9260
924.956	9458
925.064	9264
925.172	9260
925.279	9302
925.387	9249
925.494	9298
925.602	9359
925.709	9431
925.816	9203
925.924	9344
926.031	9336
926.138	9329
926.245	9344
926.352	9222
926.459	9325
926.566	9367
926.673	9222
926.779	9081
926.886	9104
926.993	9047
927.099	8990
927.206	8963
927.312	8956
927.419	9051
927.525	9051
927.631	9051
927.737	8842
927.843	8849
927.95	8796
928.056	8864
928.162	8982
928.267	9009
928.373	9584
928.479	8941
928.585	8838
928.69	8899
928.796	8918
928.901	8792
929.007	8689
929.112	8861
929.218	8739
929.323	8712
929.428	8705
929.533	8876
929.638	8655
929.743	8693
929.848	8689
929.953	8731
930.058	8590
930.163	8476
930.267	8511
930.372	8632
930.477	8549
930.581	8716
930.685	8602
930.79	8396
930.894	8476
930.998	8385
931.103	8564
931.207	8214
931.311	8130
931.415	8100
931.519	7879
931.623	7944
