Data from test_V78500241_1358.txt Node
Date: Fri Mar 25 14:43:10 CST 2022
User: usil
Spectrometer: V785-0024
Trigger mode: 0
Integration Time (sec): 4.000000E-1
Scans to average: 1
Nonlinearity correction enabled: false
Boxcar width: 0
Storing dark spectrum: false
XAxis mode: Wavelengths
Number of Pixels in Spectrum: 1024
>>>>>Begin Spectral Data<<<<<
801.071	22527
801.214	22253
801.356	22025
801.499	22013
801.641	21812
801.783	21797
801.926	21816
802.068	21671
802.211	21595
802.353	21542
802.496	21310
802.638	21412
802.78	21230
802.923	21108
803.065	21085
803.208	21199
803.35	21142
803.492	21245
803.635	21264
803.777	21100
803.919	21070
804.061	21412
804.204	21199
804.346	21013
804.488	20956
804.63	21135
804.773	21070
804.915	20971
805.057	21195
805.199	21077
805.341	21074
805.483	21154
805.626	20960
805.768	21005
805.91	21085
806.052	21081
806.194	21005
806.336	21154
806.478	21017
806.62	21032
806.762	21203
806.904	21214
807.046	21447
807.188	21393
807.33	21264
807.472	21435
807.614	21469
807.756	21325
807.898	21325
808.04	21230
808.182	21085
808.324	21310
808.465	21408
808.607	21591
808.749	21622
808.891	21789
809.033	21728
809.174	21713
809.316	21671
809.458	21591
809.6	21458
809.741	21557
809.883	21610
810.025	21770
810.166	21667
810.308	21591
810.45	21492
810.591	21519
810.733	21313
810.875	21233
811.016	21176
811.158	21195
811.299	21351
811.441	21351
811.582	21416
811.724	21173
811.865	21157
812.007	21249
812.148	21230
812.29	21169
812.431	21382
812.573	21675
812.714	21526
812.855	21698
812.997	21800
813.138	21953
813.279	21861
813.421	21781
813.562	21606
813.703	21583
813.845	21359
813.986	21230
814.127	20800
814.268	20830
814.41	20823
814.551	20861
814.692	20861
814.833	20785
814.974	20697
815.115	20644
815.256	20507
815.397	20651
815.539	20648
815.68	20552
815.821	20442
815.962	20590
816.103	20640
816.244	20381
816.385	20313
816.526	20317
816.666	20031
816.807	19986
816.948	20031
817.089	20046
817.23	19963
817.371	19967
817.512	19890
817.653	19940
817.793	19871
817.934	19902
818.075	19936
818.216	19989
818.356	19928
818.497	19738
818.638	19510
818.778	19609
818.919	19689
819.06	19571
819.2	19712
819.341	19807
819.481	19696
819.622	19986
819.762	20027
819.903	19974
820.043	19967
820.184	19772
820.324	19845
820.465	19955
820.605	19963
820.746	19879
820.886	19772
821.026	19860
821.167	19894
821.307	19894
821.447	19799
821.588	19647
821.728	19567
821.868	19430
822.008	19304
822.149	19293
822.289	19209
822.429	19046
822.569	19046
822.709	18909
822.849	18783
822.99	18722
823.13	18700
823.27	18772
823.41	18563
823.55	18536
823.69	18639
823.83	18646
823.97	18506
824.11	18308
824.25	18414
824.389	18403
824.529	18490
824.669	18414
824.809	18464
824.949	18498
825.089	18479
825.228	18486
825.368	18262
825.508	18152
825.648	18140
825.787	18213
825.927	18308
826.067	18197
826.206	18148
826.346	18186
826.485	18194
826.625	18144
826.765	18228
826.904	18228
827.044	17870
827.183	17859
827.323	17832
827.462	17851
827.601	17828
827.741	17802
827.88	17813
828.02	17729
828.159	17836
828.298	17840
828.437	17999
828.577	17722
828.716	17927
828.855	17863
828.994	17665
829.134	17623
829.273	17611
829.412	17623
829.551	17623
829.69	17562
829.829	17608
829.968	17748
830.107	17729
830.246	17615
830.385	17516
830.524	17543
830.663	17376
830.802	17383
830.941	17265
831.08	17216
831.219	17353
831.357	17189
831.496	17433
831.635	17216
831.774	17075
831.913	17067
832.051	16946
832.19	17006
832.329	17124
832.467	16980
832.606	16862
832.744	16858
832.883	17006
833.022	16847
833.16	16923
833.299	16961
833.437	16908
833.576	16987
833.714	17014
833.852	17083
833.991	17022
834.129	17045
834.267	17056
834.406	16976
834.544	17052
834.682	16927
834.821	16999
834.959	17197
835.097	16999
835.235	17086
835.373	17083
835.511	17086
835.65	16782
835.788	16782
835.926	16866
836.064	16634
836.202	16622
836.34	16869
836.478	16919
836.615	16908
836.753	16946
836.891	16980
837.029	16820
837.167	16900
837.305	16847
837.443	16755
837.58	16706
837.718	16835
837.856	16816
837.993	16733
838.131	16736
838.269	16672
838.406	16653
838.544	16558
838.681	16531
838.819	16322
838.956	16322
839.094	16280
839.231	16234
839.369	16382
839.506	16672
839.643	16459
839.781	16375
839.918	16181
840.055	16284
840.193	16242
840.33	16242
840.467	16287
840.604	16295
840.742	16508
840.879	16124
841.016	16188
841.153	16162
841.29	16341
841.427	16303
841.564	16261
841.701	16363
841.838	16207
841.975	16139
842.112	16188
842.249	15994
842.385	15972
842.522	16166
842.659	16002
842.796	16055
842.933	16086
843.069	16097
843.206	16059
843.343	16177
843.479	16036
843.616	16021
843.752	15850
843.889	15865
844.025	16067
844.162	15785
844.298	15987
844.435	15892
844.571	15736
844.708	15899
844.844	16071
844.98	16013
845.117	15987
845.253	15797
845.389	15690
845.525	15812
845.661	15831
845.798	15846
845.934	16002
846.07	15918
846.206	15953
846.342	15941
846.478	15854
846.614	15511
846.75	15424
846.886	15462
847.022	15439
847.158	15382
847.294	15374
847.429	15450
847.565	15389
847.701	15580
847.837	15188
847.972	15043
848.108	15252
848.244	15283
848.379	14960
848.515	14982
848.65	14880
848.786	15039
848.921	14941
849.057	15135
849.192	15150
849.328	15097
849.463	15009
849.598	14838
849.734	14921
849.869	14891
850.004	14754
850.14	14804
850.275	14769
850.41	14674
850.545	14773
850.68	14754
850.815	14872
850.95	14739
851.085	14986
851.22	14735
851.355	14746
851.49	14788
851.625	14731
851.76	14762
851.895	14617
852.03	14644
852.165	14788
852.299	14750
852.434	14754
852.569	14861
852.703	14731
852.838	14880
852.973	14937
853.107	14956
853.242	14746
853.376	14686
853.511	14541
853.645	14571
853.78	14750
853.914	14640
854.048	14568
854.183	14617
854.317	14743
854.451	14781
854.585	14621
854.72	14598
854.854	14655
854.988	14568
855.122	14632
855.256	14469
855.39	14568
855.524	14686
855.658	14606
855.792	14602
855.926	14701
856.06	14674
856.194	14697
856.327	14610
856.461	14621
856.595	14655
856.729	14610
856.862	14667
856.996	14598
857.13	14682
857.263	14743
857.397	14663
857.53	14701
857.664	14590
857.797	14781
857.931	14796
858.064	14629
858.197	14826
858.331	14503
858.464	14667
858.597	14492
858.731	14617
858.864	14606
858.997	14640
859.13	14606
859.263	14606
859.396	14720
859.529	14537
859.662	14590
859.795	14644
859.928	14644
860.061	14830
860.194	14796
860.327	14629
860.46	14503
860.592	14804
860.725	14781
860.858	14769
860.99	14773
861.123	14537
861.256	14575
861.388	14724
861.521	15439
861.653	14434
861.786	14434
861.918	14488
862.05	14518
862.183	14545
862.315	14640
862.447	14560
862.58	14613
862.712	14396
862.844	14355
862.976	14495
863.108	14465
863.24	14777
863.372	14301
863.504	14355
863.636	14396
863.768	14404
863.9	14347
864.032	14358
864.164	14339
864.296	14492
864.428	14590
864.559	14431
864.691	14457
864.823	14385
864.954	14484
865.086	14408
865.217	14271
865.349	14370
865.48	14278
865.612	14431
865.743	14507
865.875	14393
866.006	14332
866.137	14381
866.269	14473
866.4	14389
866.531	14351
866.662	14336
866.793	14347
866.924	14351
867.055	14370
867.186	14412
867.317	14389
867.448	14244
867.579	14336
867.71	14278
867.841	14370
867.972	14450
868.103	14438
868.233	14343
868.364	14404
868.495	14442
868.625	14549
868.756	14708
868.886	14526
869.017	14560
869.147	14735
869.278	14689
869.408	14598
869.539	14602
869.669	14670
869.799	14693
869.929	14674
870.06	14686
870.19	14823
870.32	14975
870.45	14975
870.58	15001
870.71	15074
870.84	15051
870.97	15081
871.1	15066
871.23	15233
871.36	15199
871.489	15032
871.619	15161
871.749	15180
871.879	15192
872.008	15359
872.138	15241
872.267	15291
872.397	15112
872.526	15104
872.656	15123
872.785	15195
872.915	15321
873.044	15287
873.173	15283
873.303	15226
873.432	15348
873.561	15370
873.69	15317
873.819	15329
873.948	15332
874.077	15252
874.206	15214
874.335	15310
874.464	15374
874.593	15671
874.722	15599
874.851	15698
874.979	15648
875.108	15644
875.237	15603
875.365	15526
875.494	15557
875.623	15682
875.751	15576
875.88	15625
876.008	15686
876.136	15873
876.265	16097
876.393	16246
876.521	16067
876.65	16071
876.778	15934
876.906	16074
877.034	15953
877.162	15937
877.29	15892
877.418	15991
877.546	15987
877.674	16048
877.802	15968
877.93	15991
878.058	16036
878.185	15899
878.313	16067
878.441	16013
878.568	15949
878.696	15956
878.824	16128
878.951	16196
879.079	16303
879.206	16485
879.333	16413
879.461	16333
879.588	16223
879.715	16257
879.842	16405
879.97	16265
880.097	15991
880.224	15918
880.351	15941
880.478	15895
880.605	16017
880.732	15930
880.859	16124
880.986	15960
881.112	16017
881.239	15797
881.366	15732
881.493	15652
881.619	15450
881.746	15568
881.872	15553
881.999	15557
882.125	15454
882.252	15679
882.378	15576
882.505	15682
882.631	15462
882.757	15382
882.883	15469
883.01	15469
883.136	15378
883.262	15226
883.388	15218
883.514	15488
883.64	15408
883.766	15332
883.892	15161
884.018	15245
884.143	15374
884.269	15382
884.395	15108
884.52	15081
884.646	15047
884.772	15032
884.897	14910
885.023	15085
885.148	15252
885.274	15283
885.399	15173
885.524	15085
885.65	15131
885.775	15097
885.9	14979
886.025	15226
886.15	15062
886.275	15089
886.4	15001
886.525	14975
886.65	14982
886.775	15039
886.9	15222
887.025	15325
887.149	15039
887.274	14967
887.399	14910
887.523	14853
887.648	14853
887.773	14823
887.897	14883
888.021	14937
888.146	14845
888.27	15005
888.395	15028
888.519	15013
888.643	14944
888.767	14990
888.891	14823
889.015	14769
889.139	14785
889.263	14716
889.387	14880
889.511	14876
889.635	14906
889.759	14834
889.883	14743
890.006	14792
890.13	14918
890.254	14686
890.377	14674
890.501	14594
890.624	14537
890.748	14640
890.871	14469
890.995	14431
891.118	14362
891.241	14404
891.364	14473
891.488	14507
891.611	14442
891.734	14476
891.857	14492
891.98	14431
892.103	14518
892.226	14438
892.349	14484
892.471	14324
892.594	14339
892.717	14374
892.839	14434
892.962	14415
893.085	14469
893.207	14374
893.33	14305
893.452	14381
893.575	14518
893.697	14355
893.819	14541
893.941	14575
894.064	14571
894.186	14423
894.308	14377
894.43	14484
894.552	14552
894.674	14533
894.796	14370
894.918	14351
895.04	14442
895.161	14560
895.283	14446
895.405	14446
895.526	14560
895.648	14480
895.769	14564
895.891	14575
896.012	14606
896.134	14716
896.255	14594
896.376	14507
896.498	14594
896.619	14598
896.74	14533
896.861	14731
896.982	14910
897.103	15020
897.224	14918
897.345	14883
897.466	14765
897.587	14910
897.708	15017
897.828	14902
897.949	14823
898.07	14716
898.19	14819
898.311	14914
898.431	14853
898.552	14986
898.672	14979
898.792	14933
898.913	14918
899.033	14864
899.153	14765
899.273	14758
899.393	14796
899.513	14807
899.633	14712
899.753	14883
899.873	14800
899.993	14838
900.113	14720
900.232	14815
900.352	14727
900.472	14724
900.591	14644
900.711	14708
900.83	14625
900.95	14819
901.069	14796
901.189	14541
901.308	14412
901.427	14358
901.546	14358
901.665	14259
901.784	14339
901.904	14263
902.023	14145
902.141	13917
902.26	13982
902.379	13925
902.498	13852
902.617	13818
902.735	13925
902.854	13883
902.973	13814
903.091	13655
903.21	13628
903.328	13620
903.446	13563
903.565	13411
903.683	13434
903.801	13251
903.919	13464
904.038	13373
904.156	13263
904.274	13263
904.392	13297
904.51	13209
904.627	13240
904.745	13293
904.863	13270
904.981	13069
905.098	12932
905.216	12954
905.334	13000
905.451	12954
905.569	12973
905.686	12985
905.803	12958
905.921	12722
906.038	12863
906.155	12787
906.272	12623
906.389	12719
906.506	12475
906.623	12563
906.74	12528
906.857	12475
906.974	12407
907.091	12574
907.208	12642
907.324	12589
907.441	12437
907.557	12270
907.674	12266
907.79	12258
907.907	12258
908.023	12308
908.139	12311
908.256	12254
908.372	12194
908.488	12155
908.604	12117
908.72	12038
908.836	11996
908.952	12007
909.068	12053
909.184	12155
909.3	12007
909.415	12114
909.531	12072
909.647	11741
909.762	11843
909.878	11748
909.993	11767
910.108	11771
910.224	11710
910.339	11805
910.454	11726
910.57	11634
910.685	11653
910.8	11840
910.915	11805
911.03	11665
911.145	11471
911.259	11497
911.374	11429
911.489	11421
911.604	11345
911.718	11231
911.833	11277
911.947	11227
912.062	11022
912.176	11151
912.291	11250
912.405	11193
912.519	11395
912.633	11398
912.748	11292
912.862	11220
912.976	11128
913.09	11003
913.204	11041
913.318	11102
913.431	11220
913.545	11166
913.659	11162
913.772	11174
913.886	11006
914	10919
914.113	11083
914.226	11128
914.34	11033
914.453	10919
914.566	11029
914.68	10919
914.793	10984
914.906	10828
915.019	10752
915.132	10698
915.245	10721
915.358	10698
915.47	10729
915.583	10816
915.696	10816
915.809	10904
915.921	10889
916.034	10729
916.146	10668
916.259	10630
916.371	10816
916.483	10717
916.595	10637
916.708	10596
916.82	10710
916.932	10656
917.044	10694
917.156	10687
917.268	10466
917.38	10584
917.491	10592
917.603	10603
917.715	10599
917.826	10603
917.938	10493
918.049	10440
918.161	10596
918.272	10637
918.384	10733
918.495	10637
918.606	10508
918.717	10314
918.828	10485
918.939	10474
919.05	10352
919.161	10432
919.272	10211
919.383	10234
919.494	10470
919.604	10672
919.715	10459
919.826	10421
919.936	10405
920.047	10481
920.157	10379
920.267	10607
920.378	10519
920.488	10474
920.598	10721
920.708	10828
920.818	10607
920.928	10653
921.038	10805
921.148	10748
921.258	10432
921.368	10352
921.477	10299
921.587	10306
921.697	10268
921.806	10303
921.916	10147
922.025	9994
922.134	9975
922.244	9941
922.353	10055
922.462	9918
922.571	9865
922.68	9759
922.789	9717
922.898	9679
923.007	9656
923.116	9663
923.224	9679
923.333	9705
923.442	9625
923.55	9530
923.659	9557
923.767	9538
923.876	9542
923.984	9629
924.092	9488
924.201	9591
924.309	9504
924.417	9530
924.525	9412
924.633	9504
924.741	10432
924.849	9329
924.956	9473
925.064	9340
925.172	9260
925.279	9253
925.387	9313
925.494	9313
925.602	9428
925.709	9408
925.816	9287
925.924	9344
926.031	9443
926.138	9302
926.245	9386
926.352	9302
926.459	9428
926.566	9439
926.673	9241
926.779	9154
926.886	9119
926.993	9089
927.099	8998
927.206	8952
927.312	8982
927.419	9070
927.525	9070
927.631	9123
927.737	8967
927.843	8941
927.95	8796
928.056	8941
928.162	8933
928.267	8941
928.373	9610
928.479	9074
928.585	8788
928.69	8906
928.796	8982
928.901	8842
929.007	8629
929.112	8788
929.218	8777
929.323	8758
929.428	8720
929.533	8918
929.638	8731
929.743	8716
929.848	8743
929.953	8739
930.058	8640
930.163	8465
930.267	8511
930.372	8674
930.477	8511
930.581	8758
930.685	8632
930.79	8385
930.894	8473
930.998	8454
931.103	8556
931.207	8240
931.311	8202
931.415	8111
931.519	7947
931.623	7951
