Data from test_V78500241_3537.txt Node
Date: Fri Mar 25 14:58:20 CST 2022
User: usil
Spectrometer: V785-0024
Trigger mode: 0
Integration Time (sec): 4.000000E-1
Scans to average: 1
Nonlinearity correction enabled: false
Boxcar width: 0
Storing dark spectrum: false
XAxis mode: Wavelengths
Number of Pixels in Spectrum: 1024
>>>>>Begin Spectral Data<<<<<
801.071	21869
801.214	21755
801.356	21462
801.499	21378
801.641	21336
801.783	21237
801.926	21386
802.068	21226
802.211	21169
802.353	21207
802.496	20762
802.638	20667
802.78	20560
802.923	20636
803.065	20465
803.208	20606
803.35	20598
803.492	20842
803.635	20754
803.777	20648
803.919	20712
804.061	20921
804.204	20648
804.346	20663
804.488	20438
804.63	20678
804.773	20526
804.915	20530
805.057	20568
805.199	20434
805.341	20480
805.483	20663
805.626	20583
805.768	20450
805.91	20568
806.052	20632
806.194	20469
806.336	20659
806.478	20309
806.62	20480
806.762	20526
806.904	20682
807.046	20952
807.188	20868
807.33	20971
807.472	20838
807.614	20727
807.756	20720
807.898	20708
808.04	20545
808.182	20598
808.324	20571
808.465	20587
808.607	20720
808.749	20872
808.891	20872
809.033	21089
809.174	20982
809.316	20826
809.458	20769
809.6	20788
809.741	20960
809.883	20960
810.025	20929
810.166	21005
810.308	20982
810.45	20880
810.591	20815
810.733	20705
810.875	20686
811.016	20549
811.158	20423
811.299	20640
811.441	20750
811.582	20697
811.724	20609
811.865	20476
812.007	20640
812.148	20461
812.29	20594
812.431	20762
812.573	20883
812.714	20941
812.855	21169
812.997	21123
813.138	21355
813.279	21150
813.421	21173
813.562	21009
813.703	20678
813.845	20815
813.986	20419
814.127	20393
814.268	20210
814.41	20164
814.551	20115
814.692	20358
814.833	20122
814.974	20111
815.115	20149
815.256	20054
815.397	19932
815.539	20058
815.68	19925
815.821	19841
815.962	19894
816.103	19856
816.244	19776
816.385	19647
816.526	19552
816.666	19453
816.807	19247
816.948	19381
817.089	19434
817.23	19350
817.371	19297
817.512	19232
817.653	19198
817.793	19213
817.934	19240
818.075	19285
818.216	19285
818.356	19148
818.497	19190
818.638	18973
818.778	18947
818.919	19042
819.06	19050
819.2	19088
819.341	19129
819.481	19190
819.622	19415
819.762	19468
819.903	19407
820.043	19381
820.184	19377
820.324	19304
820.465	19388
820.605	19289
820.746	19266
820.886	19160
821.026	19187
821.167	19228
821.307	19297
821.447	19145
821.588	19114
821.728	19000
821.868	18833
822.008	18722
822.149	18745
822.289	18635
822.429	18426
822.569	18437
822.709	18388
822.849	18197
822.99	18159
823.13	18133
823.27	18144
823.41	17961
823.55	17893
823.69	18003
823.83	18015
823.97	17946
824.11	17718
824.25	17695
824.389	17767
824.529	17851
824.669	17691
824.809	17813
824.949	17817
825.089	17752
825.228	17805
825.368	17570
825.508	17562
825.648	17608
825.787	17459
825.927	17699
826.067	17493
826.206	17459
826.346	17528
826.485	17406
826.625	17471
826.765	17585
826.904	17585
827.044	17326
827.183	17356
827.323	17254
827.462	17208
827.601	17162
827.741	17227
827.88	17280
828.02	17136
828.159	17140
828.298	17318
828.437	17189
828.577	17280
828.716	17349
828.855	17181
828.994	16953
829.134	17052
829.273	17071
829.412	16968
829.551	16961
829.69	16999
829.829	16995
829.968	17246
830.107	16946
830.246	17041
830.385	16980
830.524	16919
830.663	16805
830.802	16683
830.941	16713
831.08	16634
831.219	16759
831.357	16729
831.496	16835
831.635	16554
831.774	16577
831.913	16489
832.051	16367
832.19	16478
832.329	16470
832.467	16284
832.606	16265
832.744	16352
832.883	16291
833.022	16215
833.16	16375
833.299	16394
833.437	16299
833.576	16386
833.714	16421
833.852	16413
833.991	16421
834.129	16451
834.267	16421
834.406	16459
834.544	16443
834.682	16348
834.821	16360
834.959	16573
835.097	16360
835.235	16466
835.373	16352
835.511	16386
835.65	16284
835.788	16287
835.926	16166
836.064	16097
836.202	16090
836.34	16329
836.478	16394
836.615	16150
836.753	16341
836.891	16390
837.029	16299
837.167	16280
837.305	16303
837.443	16265
837.58	16143
837.718	16143
837.856	16238
837.993	16105
838.131	16131
838.269	16082
838.406	15998
838.544	16109
838.681	15934
838.819	15899
838.956	15732
839.094	15667
839.231	15698
839.369	15717
839.506	16234
839.643	15926
839.781	15755
839.918	15618
840.055	15755
840.193	15690
840.33	15610
840.467	15671
840.604	15747
840.742	16086
840.879	15553
841.016	15694
841.153	15534
841.29	15747
841.427	15755
841.564	15789
841.701	15671
841.838	15713
841.975	15663
842.112	15584
842.249	15542
842.385	15443
842.522	15705
842.659	15603
842.796	15401
842.933	15553
843.069	15545
843.206	15542
843.343	15561
843.479	15454
843.616	15511
843.752	15272
843.889	15317
844.025	15397
844.162	15237
844.298	15378
844.435	15313
844.571	15298
844.708	15405
844.844	15439
844.98	15443
845.117	15382
845.253	15233
845.389	15176
845.525	15218
845.661	15260
845.798	15032
845.934	15146
846.07	15169
846.206	15184
846.342	15256
846.478	15108
846.614	14887
846.75	14842
846.886	14864
847.022	14941
847.158	14838
847.294	14826
847.429	14883
847.565	14838
847.701	15036
847.837	14598
847.972	14575
848.108	14712
848.244	14708
848.379	14526
848.515	14427
848.65	14396
848.786	14469
848.921	14431
849.057	14659
849.192	14625
849.328	14552
849.463	14507
849.598	14408
849.734	14362
849.869	14317
850.004	14225
850.14	14240
850.275	14240
850.41	14180
850.545	14195
850.68	14305
850.815	14259
850.95	14259
851.085	14374
851.22	14385
851.355	14233
851.49	14126
851.625	14145
851.76	14187
851.895	14046
852.03	14081
852.165	14248
852.299	14286
852.434	14199
852.569	14202
852.703	14221
852.838	14313
852.973	14351
853.107	14385
853.242	14176
853.376	14153
853.511	14024
853.645	14054
853.78	14191
853.914	14161
854.048	14096
854.183	14016
854.317	14077
854.451	14237
854.585	14081
854.72	14035
854.854	14176
854.988	14077
855.122	14077
855.256	14005
855.39	14069
855.524	14221
855.658	14187
855.792	14005
855.926	14100
856.06	14252
856.194	14210
856.327	14103
856.461	14012
856.595	14103
856.729	14065
856.862	14195
856.996	14161
857.13	14195
857.263	14225
857.397	14180
857.53	14073
857.664	14195
857.797	14168
857.931	14256
858.064	14145
858.197	14278
858.331	14077
858.464	14115
858.597	13978
858.731	14088
858.864	14084
858.997	14073
859.13	14107
859.263	14298
859.396	14210
859.529	14161
859.662	14046
859.795	14031
859.928	14130
860.061	14218
860.194	14351
860.327	14168
860.46	14088
860.592	14172
860.725	14271
860.858	14256
860.99	14088
861.123	14027
861.256	14005
861.388	14096
861.521	14842
861.653	13925
861.786	13928
861.918	14027
862.05	13913
862.183	14088
862.315	14081
862.447	14214
862.58	14062
862.712	13883
862.844	13864
862.976	13917
863.108	13997
863.24	14221
863.372	13818
863.504	13917
863.636	13830
863.768	14008
863.9	13936
864.032	13879
864.164	13830
864.296	13993
864.428	13940
864.559	13974
864.691	13993
864.823	13970
864.954	13883
865.086	13951
865.217	13925
865.349	13837
865.48	13868
865.612	13986
865.743	13989
865.875	13856
866.006	13936
866.137	13955
866.269	13856
866.4	13925
866.531	13887
866.662	13818
866.793	13795
866.924	13894
867.055	13890
867.186	13830
867.317	13807
867.448	13772
867.579	13803
867.71	13731
867.841	13830
867.972	13818
868.103	13909
868.233	13860
868.364	13852
868.495	14065
868.625	14157
868.756	14130
868.886	14039
869.017	14073
869.147	14168
869.278	14248
869.408	14111
869.539	14149
869.669	14225
869.799	14252
869.929	14301
870.06	14187
870.19	14476
870.32	14438
870.45	14473
870.58	14526
870.71	14705
870.84	14598
870.97	14526
871.1	14518
871.23	14762
871.36	14842
871.489	14579
871.619	14735
871.749	14701
871.879	14773
872.008	14765
872.138	14724
872.267	14739
872.397	14674
872.526	14617
872.656	14522
872.785	14526
872.915	14769
873.044	14823
873.173	14777
873.303	14807
873.432	14819
873.561	14826
873.69	14765
873.819	14800
873.948	14785
874.077	14815
874.206	14743
874.335	14746
874.464	14956
874.593	15020
874.722	15066
874.851	15146
874.979	15108
875.108	15108
875.237	15051
875.365	15001
875.494	15047
875.623	15180
875.751	15108
875.88	15051
876.008	15287
876.136	15287
876.265	15595
876.393	15564
876.521	15595
876.65	15564
876.778	15526
876.906	15450
877.034	15492
877.162	15572
877.29	15515
877.418	15568
877.546	15538
877.674	15435
877.802	15545
877.93	15591
878.058	15534
878.185	15447
878.313	15454
878.441	15622
878.568	15340
878.696	15549
878.824	15561
878.951	15641
879.079	15591
879.206	15747
879.333	15603
879.461	15587
879.588	15622
879.715	15755
879.842	15911
879.97	15671
880.097	15359
880.224	15363
880.351	15359
880.478	15279
880.605	15329
880.732	15310
880.859	15720
880.986	15348
881.112	15382
881.239	15287
881.366	15150
881.493	15097
881.619	15032
881.746	14975
881.872	15039
881.999	15028
882.125	15032
882.252	15017
882.378	15157
882.505	15150
882.631	14891
882.757	14857
882.883	14925
883.01	14815
883.136	14857
883.262	14705
883.388	14606
883.514	14910
883.64	14967
883.766	14754
883.892	14670
884.018	14590
884.143	14785
884.269	14857
884.395	14568
884.52	14511
884.646	14617
884.772	14579
884.897	14530
885.023	14568
885.148	14644
885.274	14712
885.399	14659
885.524	14552
885.65	14541
885.775	14636
885.9	14480
886.025	14670
886.15	14606
886.275	14438
886.4	14389
886.525	14488
886.65	14522
886.775	14495
886.9	14644
887.025	14686
887.149	14617
887.274	14438
887.399	14381
887.523	14320
887.648	14305
887.773	14351
887.897	14396
888.021	14476
888.146	14328
888.27	14492
888.395	14606
888.519	14503
888.643	14431
888.767	14351
888.891	14320
889.015	14275
889.139	14244
889.263	14294
889.387	14362
889.511	14370
889.635	14385
889.759	14278
889.883	14180
890.006	14290
890.13	14377
890.254	14187
890.377	14145
890.501	14046
890.624	14024
890.748	14149
890.871	14005
890.995	13917
891.118	13860
891.241	14001
891.364	14046
891.488	14130
891.611	13936
891.734	13951
891.857	14046
891.98	13978
892.103	14054
892.226	13993
892.349	13944
892.471	13875
892.594	13921
892.717	13967
892.839	13989
892.962	13932
893.085	14039
893.207	13951
893.33	13826
893.452	13932
893.575	13997
893.697	13978
893.819	14142
893.941	14084
894.064	14123
894.186	13894
894.308	13970
894.43	14107
894.552	14058
894.674	14123
894.796	14008
894.918	13982
895.04	14039
895.161	14115
895.283	14103
895.405	13970
895.526	14043
895.648	14081
895.769	14161
895.891	14073
896.012	14214
896.134	14199
896.255	14046
896.376	14058
896.498	14111
896.619	14145
896.74	14206
896.861	14138
896.982	14537
897.103	14590
897.224	14473
897.345	14355
897.466	14298
897.587	14507
897.708	14526
897.828	14431
897.949	14336
898.07	14339
898.19	14374
898.311	14473
898.431	14412
898.552	14537
898.672	14549
898.792	14533
898.913	14530
899.033	14461
899.153	14377
899.273	14248
899.393	14377
899.513	14431
899.633	14358
899.753	14343
899.873	14309
899.993	14351
900.113	14358
900.232	14305
900.352	14229
900.472	14225
900.591	14229
900.711	14305
900.83	14187
900.95	14206
901.069	14320
901.189	14096
901.308	13898
901.427	13822
901.546	13814
901.665	13894
901.784	13913
901.904	13784
902.023	13632
902.141	13521
902.26	13392
902.379	13616
902.498	13529
902.617	13354
902.735	13499
902.854	13396
902.973	13301
903.091	13168
903.21	13194
903.328	13198
903.446	13008
903.565	13065
903.683	13046
903.801	12951
903.919	13023
904.038	13084
904.156	12901
904.274	12848
904.392	12863
904.51	12897
904.627	12787
904.745	12939
904.863	12901
904.981	12639
905.098	12521
905.216	12650
905.334	12536
905.451	12494
905.569	12509
905.686	12582
905.803	12456
905.921	12433
906.038	12399
906.155	12376
906.272	12311
906.389	12262
906.506	12152
906.623	12114
906.74	12121
906.857	12030
906.974	12087
907.091	12159
907.208	12289
907.324	12171
907.441	12129
907.557	11878
907.674	11855
907.79	11805
907.907	11813
908.023	11904
908.139	11817
908.256	11908
908.372	11805
908.488	11786
908.604	11657
908.72	11653
908.836	11668
908.952	11634
909.068	11680
909.184	11756
909.3	11608
909.415	11699
909.531	11707
909.647	11493
909.762	11364
909.878	11292
909.993	11467
910.108	11364
910.224	11433
910.339	11440
910.454	11296
910.57	11216
910.685	11193
910.8	11509
910.915	11455
911.03	11299
911.145	11162
911.259	11064
911.374	11071
911.489	11025
911.604	10984
911.718	10881
911.833	10942
911.947	10843
912.062	10641
912.176	10812
912.291	10866
912.405	10919
912.519	11083
912.633	11048
912.748	10873
912.862	10847
912.976	10854
913.09	10687
913.204	10702
913.318	10687
913.431	10831
913.545	10854
913.659	10919
913.772	10687
913.886	10618
914	10630
914.113	10755
914.226	10801
914.34	10721
914.453	10607
914.566	10645
914.68	10580
914.793	10512
914.906	10424
915.019	10287
915.132	10344
915.245	10371
915.358	10356
915.47	10413
915.583	10436
915.696	10470
915.809	10485
915.921	10493
916.034	10371
916.146	10318
916.259	10325
916.371	10462
916.483	10371
916.595	10329
916.708	10249
916.82	10291
916.932	10318
917.044	10280
917.156	10318
917.268	10150
917.38	10188
917.491	10272
917.603	10177
917.715	10352
917.826	10314
917.938	10154
918.049	10109
918.161	10257
918.272	10398
918.384	10318
918.495	10253
918.606	10093
918.717	10040
918.828	10067
918.939	10067
919.05	10059
919.161	10048
919.272	9926
919.383	9983
919.494	10158
919.604	10371
919.715	10109
919.826	10040
919.936	10120
920.047	10154
920.157	10162
920.267	10265
920.378	10242
920.488	10143
920.598	10325
920.708	10474
920.818	10310
920.928	10325
921.038	10485
921.148	10371
921.258	10181
921.368	10135
921.477	9972
921.587	10013
921.697	9915
921.806	9998
921.916	9934
922.025	9736
922.134	9641
922.244	9720
922.353	9766
922.462	9523
922.571	9439
922.68	9374
922.789	9424
922.898	9313
923.007	9321
923.116	9462
923.224	9359
923.333	9355
923.442	9226
923.55	9253
923.659	9237
923.767	9302
923.876	9253
923.984	9351
924.092	9161
924.201	9249
924.309	9207
924.417	9313
924.525	9203
924.633	9230
924.741	9934
924.849	8948
924.956	9169
925.064	9116
925.172	8944
925.279	8990
925.387	9051
925.494	9081
925.602	9119
925.709	9108
925.816	8971
925.924	8994
926.031	9028
926.138	9024
926.245	9127
926.352	8998
926.459	9112
926.566	9119
926.673	9055
926.779	8849
926.886	8857
926.993	8785
927.099	8724
927.206	8689
927.312	8735
927.419	8819
927.525	8857
927.631	8838
927.737	8632
927.843	8613
927.95	8533
928.056	8640
928.162	8735
928.267	8769
928.373	9325
928.479	8716
928.585	8579
928.69	8644
928.796	8648
928.901	8518
929.007	8442
929.112	8530
929.218	8476
929.323	8461
929.428	8480
929.533	8598
929.638	8389
929.743	8396
929.848	8495
929.953	8469
930.058	8419
930.163	8271
930.267	8259
930.372	8385
930.477	8168
930.581	8473
930.685	8237
930.79	8187
930.894	8187
930.998	8214
931.103	8305
931.207	7989
931.311	7936
931.415	7890
931.519	7685
931.623	7655
