Data from test_V78500241_580.txt Node
Date: Fri Mar 25 14:37:45 CST 2022
User: usil
Spectrometer: V785-0024
Trigger mode: 0
Integration Time (sec): 4.000000E-1
Scans to average: 1
Nonlinearity correction enabled: false
Boxcar width: 0
Storing dark spectrum: false
XAxis mode: Wavelengths
Number of Pixels in Spectrum: 1024
>>>>>Begin Spectral Data<<<<<
801.071	27937
801.214	27667
801.356	27481
801.499	27435
801.641	27408
801.783	27268
801.926	27359
802.068	27226
802.211	27180
802.353	26952
802.496	26701
802.638	26872
802.78	26830
802.923	26648
803.065	26678
803.208	26655
803.35	26678
803.492	26788
803.635	26906
803.777	26834
803.919	26830
804.061	27317
804.204	26845
804.346	26807
804.488	26750
804.63	27009
804.773	26785
804.915	26990
805.057	27032
805.199	27116
805.341	27237
805.483	27230
805.626	27214
805.768	27245
805.91	27260
806.052	27408
806.194	27427
806.336	27656
806.478	27477
806.62	27823
806.762	28017
806.904	28242
807.046	28706
807.188	28915
807.33	28965
807.472	29455
807.614	29882
807.756	30270
807.898	30867
808.04	31940
808.182	33036
808.324	34740
808.465	36296
808.607	38545
808.749	40215
808.891	41265
809.033	41383
809.174	40185
809.316	38343
809.458	36315
809.6	34341
809.741	32804
809.883	31594
810.025	30867
810.166	30125
810.308	29600
810.45	29140
810.591	28816
810.733	28546
810.875	28234
811.016	28093
811.158	27770
811.299	28090
811.441	27922
811.582	28013
811.724	27656
811.865	27492
812.007	27443
812.148	27336
812.29	27523
812.431	27580
812.573	27637
812.714	27717
812.855	27846
812.997	27861
813.138	27873
813.279	27823
813.421	27800
813.562	27561
813.703	27344
813.845	27447
813.986	26899
814.127	26739
814.268	26621
814.41	26659
814.551	26442
814.692	26617
814.833	26419
814.974	26461
815.115	26446
815.256	26240
815.397	26355
815.539	26294
815.68	26145
815.821	26115
815.962	26248
816.103	26161
816.244	25989
816.385	25902
816.526	25662
816.666	25689
816.807	25434
816.948	25651
817.089	25597
817.23	25430
817.371	25476
817.512	25449
817.653	25487
817.793	25464
817.934	25453
818.075	25533
818.216	25373
818.356	25354
818.497	25232
818.638	25209
818.778	25114
818.919	25217
819.06	25217
819.2	25335
819.341	25304
819.481	25304
819.622	25552
819.762	25540
819.903	25533
820.043	25548
820.184	25468
820.324	25445
820.465	25392
820.605	25335
820.746	25426
820.886	25133
821.026	25183
821.167	25339
821.307	25282
821.447	25232
821.588	25046
821.728	24924
821.868	24840
822.008	24715
822.149	24604
822.289	24593
822.429	24380
822.569	24395
822.709	24388
822.849	24045
822.99	24125
823.13	24026
823.27	24057
823.41	23859
823.55	23817
823.69	24007
823.83	23821
823.97	23885
824.11	23745
824.25	23562
824.389	23543
824.529	23638
824.669	23646
824.809	23646
824.949	23653
825.089	23634
825.228	23661
825.368	23448
825.508	23280
825.648	23585
825.787	23455
825.927	23562
826.067	23417
826.206	23421
826.346	23387
826.485	23474
826.625	23410
826.765	23486
826.904	23330
827.044	23105
827.183	23079
827.323	23086
827.462	23124
827.601	23022
827.741	23147
827.88	23079
828.02	23022
828.159	23014
828.298	23102
828.437	23052
828.577	22946
828.716	23113
828.855	22987
828.994	22835
829.134	22816
829.273	22809
829.412	22721
829.551	22679
829.69	22793
829.829	22786
829.968	22805
830.107	22660
830.246	22733
830.385	22786
830.524	22698
830.663	22443
830.802	22424
830.941	22398
831.08	22223
831.219	22386
831.357	22447
831.496	22577
831.635	22303
831.774	22341
831.913	22230
832.051	22135
832.19	22124
832.329	22188
832.467	22150
832.606	22074
832.744	21983
832.883	22032
833.022	22135
833.16	22223
833.299	22367
833.437	22379
833.576	22500
833.714	22634
833.852	22523
833.991	22721
834.129	22843
834.267	22923
834.406	22755
834.544	22767
834.682	22599
834.821	22546
834.959	22588
835.097	22276
835.235	22360
835.373	22253
835.511	22192
835.65	21998
835.788	22017
835.926	21827
836.064	21625
836.202	21663
836.34	21865
836.478	21876
836.615	21880
836.753	21838
836.891	21956
837.029	21762
837.167	21766
837.305	21698
837.443	21671
837.58	21614
837.718	21720
837.856	21701
837.993	21618
838.131	21595
838.269	21545
838.406	21492
838.544	21408
838.681	21287
838.819	21180
838.956	21108
839.094	21074
839.231	21085
839.369	21329
839.506	21466
839.643	21336
839.781	20902
839.918	20975
840.055	20910
840.193	21112
840.33	20929
840.467	20982
840.604	20967
840.742	21173
840.879	20914
841.016	20876
841.153	20804
841.29	21142
841.427	20948
841.564	20960
841.701	20979
841.838	20838
841.975	20990
842.112	20842
842.249	20773
842.385	20773
842.522	20857
842.659	20834
842.796	20857
842.933	20731
843.069	20777
843.206	20777
843.343	20880
843.479	20804
843.616	20735
843.752	20724
843.889	20724
844.025	20929
844.162	20686
844.298	20944
844.435	20880
844.571	21051
844.708	21188
844.844	21431
844.98	21808
845.117	22139
845.253	22527
845.389	23600
845.525	25518
845.661	28892
845.798	32937
845.934	36228
846.07	37548
846.206	36696
846.342	34166
846.478	30026
846.614	26431
846.75	23980
846.886	22706
847.022	21903
847.158	21249
847.294	20929
847.429	20743
847.565	20476
847.701	20651
847.837	20103
847.972	20008
848.108	20058
848.244	19928
848.379	19788
848.515	19742
848.65	19700
848.786	19609
848.921	19643
849.057	19681
849.192	19693
849.328	19651
849.463	19533
849.598	19563
849.734	19533
849.869	19438
850.004	19331
850.14	19354
850.275	19308
850.41	19228
850.545	19278
850.68	19301
850.815	19194
850.95	19289
851.085	19468
851.22	19464
851.355	19293
851.49	19137
851.625	19263
851.76	19304
851.895	19221
852.03	19213
852.165	19206
852.299	19202
852.434	19369
852.569	19289
852.703	19419
852.838	19255
852.973	19540
853.107	19407
853.242	19259
853.376	19285
853.511	19148
853.645	19282
853.78	19312
853.914	19381
854.048	19308
854.183	19400
854.317	19350
854.451	19537
854.585	19343
854.72	19343
854.854	19392
854.988	19270
855.122	19217
855.256	19004
855.39	19183
855.524	19247
855.658	19240
855.792	19194
855.926	19259
856.06	19198
856.194	19266
856.327	19012
856.461	19095
856.595	19012
856.729	19050
856.862	19187
856.996	19145
857.13	18996
857.263	19133
857.397	19152
857.53	19076
857.664	19004
857.797	19091
857.931	19148
858.064	18989
858.197	19141
858.331	19053
858.464	18924
858.597	18962
858.731	18985
858.864	18951
858.997	19000
859.13	18958
859.263	19000
859.396	19103
859.529	18981
859.662	18905
859.795	18966
859.928	19015
860.061	19156
860.194	19088
860.327	19076
860.46	18947
860.592	19076
860.725	19069
860.858	19015
860.99	19000
861.123	18916
861.256	18894
861.388	18943
861.521	19556
861.653	18833
861.786	18924
861.918	18817
862.05	18840
862.183	19015
862.315	18993
862.447	18932
862.58	18890
862.712	18642
862.844	18700
862.976	18764
863.108	18760
863.24	19145
863.372	18532
863.504	18650
863.636	18604
863.768	18578
863.9	18654
864.032	18486
864.164	18692
864.296	18585
864.428	18696
864.559	18673
864.691	18707
864.823	18669
864.954	18703
865.086	18608
865.217	18570
865.349	18547
865.48	18646
865.612	18623
865.743	18722
865.875	18753
866.006	18574
866.137	18738
866.269	18612
866.4	18525
866.531	18460
866.662	18479
866.793	18479
866.924	18384
867.055	18452
867.186	18578
867.317	18566
867.448	18467
867.579	18578
867.71	18418
867.841	18498
867.972	18525
868.103	18593
868.233	18547
868.364	18464
868.495	18616
868.625	18791
868.756	18905
868.886	18741
869.017	18696
869.147	18916
869.278	18920
869.408	18730
869.539	18779
869.669	18901
869.799	18871
869.929	18875
870.06	18844
870.19	19095
870.32	19038
870.45	19145
870.58	19148
870.71	19327
870.84	19255
870.97	19308
871.1	19297
871.23	19381
871.36	19350
871.489	19282
871.619	19438
871.749	19472
871.879	19381
872.008	19544
872.138	19487
872.267	19518
872.397	19403
872.526	19289
872.656	19331
872.785	19441
872.915	19495
873.044	19529
873.173	19518
873.303	19518
873.432	19533
873.561	19662
873.69	19769
873.819	19613
873.948	19734
874.077	19670
874.206	19670
874.335	19738
874.464	19811
874.593	19993
874.722	19879
874.851	20062
874.979	20122
875.108	20081
875.237	20073
875.365	19986
875.494	20081
875.623	20145
875.751	20221
875.88	20355
876.008	20358
876.136	20400
876.265	20712
876.393	20758
876.521	20857
876.65	20743
876.778	20857
876.906	20731
877.034	20895
877.162	20842
877.29	20826
877.418	20883
877.546	21017
877.674	21173
877.802	21077
877.93	21195
878.058	21218
878.185	21367
878.313	21618
878.441	21766
878.568	21911
878.696	22314
878.824	22824
878.951	23554
879.079	24540
879.206	25871
879.333	27058
879.461	27991
879.588	28713
879.715	28740
879.842	28291
879.97	27100
880.097	25681
880.224	24707
880.351	23874
880.478	23452
880.605	23094
880.732	22915
880.859	22889
880.986	22470
881.112	22561
881.239	22398
881.366	22207
881.493	22169
881.619	21998
881.746	22086
881.872	22215
881.999	22051
882.125	22139
882.252	22291
882.378	22295
882.505	22356
882.631	22139
882.757	21983
882.883	22036
883.01	21972
883.136	22010
883.262	21930
883.388	21892
883.514	21918
883.64	22036
883.766	21945
883.892	21755
884.018	21842
884.143	21922
884.269	21953
884.395	21835
884.52	21671
884.646	21667
884.772	21599
884.897	21587
885.023	21625
885.148	21785
885.274	21717
885.399	21648
885.524	21481
885.65	21412
885.775	21439
885.9	21268
886.025	21268
886.15	21112
886.275	20933
886.4	20830
886.525	20861
886.65	20731
886.775	20659
886.9	20853
887.025	20796
887.149	20644
887.274	20294
887.399	20263
887.523	20149
887.648	19970
887.773	19989
887.897	20100
888.021	20081
888.146	19898
888.27	20024
888.395	20119
888.519	19986
888.643	19932
888.767	19902
888.891	19780
889.015	19635
889.139	19586
889.263	19563
889.387	19582
889.511	19731
889.635	19525
889.759	19441
889.883	19377
890.006	19434
890.13	19445
890.254	19343
890.377	19221
890.501	19095
890.624	19000
890.748	19084
890.871	19000
890.995	18882
891.118	18791
891.241	18844
891.364	18848
891.488	18943
891.611	18897
891.734	18806
891.857	18745
891.98	18802
892.103	18776
892.226	18741
892.349	18783
892.471	18559
892.594	18715
892.717	18677
892.839	18582
892.962	18635
893.085	18525
893.207	18559
893.33	18399
893.452	18361
893.575	18642
893.697	18525
893.819	18745
893.941	18669
894.064	18563
894.186	18376
894.308	18220
894.43	18486
894.552	18566
894.674	18525
894.796	18327
894.918	18372
895.04	18334
895.161	18426
895.283	18334
895.405	18323
895.526	18285
895.648	18399
895.769	18296
895.891	18319
896.012	18448
896.134	18399
896.255	18350
896.376	18281
896.498	18369
896.619	18403
896.74	18395
896.861	18403
896.982	18604
897.103	18776
897.224	18593
897.345	18661
897.466	18536
897.587	18532
897.708	18563
897.828	18631
897.949	18502
898.07	18273
898.19	18448
898.311	18525
898.431	18441
898.552	18517
898.672	18563
898.792	18498
898.913	18582
899.033	18414
899.153	18388
899.273	18239
899.393	18376
899.513	18201
899.633	18395
899.753	18235
899.873	18232
899.993	18300
900.113	18216
900.232	18300
900.352	18205
900.472	18144
900.591	18136
900.711	18076
900.83	18049
900.95	18079
901.069	18190
901.189	18053
901.308	17805
901.427	17745
901.546	17665
901.665	17775
901.784	17775
901.904	17562
902.023	17474
902.141	17204
902.26	17166
902.379	17197
902.498	17200
902.617	17102
902.735	17189
902.854	17018
902.973	17079
903.091	16790
903.21	16885
903.328	16820
903.446	16664
903.565	16664
903.683	16592
903.801	16455
903.919	16637
904.038	16550
904.156	16413
904.274	16322
904.392	16379
904.51	16261
904.627	16402
904.745	16363
904.863	16417
904.981	16082
905.098	15968
905.216	16097
905.334	16021
905.451	16074
905.569	15892
905.686	15964
905.803	16010
905.921	15831
906.038	15937
906.155	15797
906.272	15717
906.389	15690
906.506	15576
906.623	15515
906.74	15534
906.857	15443
906.974	15386
907.091	15534
907.208	15667
907.324	15549
907.441	15439
907.557	15218
907.674	15241
907.79	15207
907.907	15165
908.023	15291
908.139	15119
908.256	15104
908.372	15104
908.488	15161
908.604	14979
908.72	14902
908.836	14849
908.952	14849
909.068	14921
909.184	15028
909.3	14857
909.415	14952
909.531	14804
909.647	14727
909.762	14579
909.878	14556
909.993	14636
910.108	14499
910.224	14610
910.339	14682
910.454	14499
910.57	14473
910.685	14412
910.8	14731
910.915	14663
911.03	14423
911.145	14244
911.259	14240
911.374	14225
911.489	14161
911.604	14142
911.718	14001
911.833	14027
911.947	13997
912.062	13849
912.176	14107
912.291	14027
912.405	13947
912.519	14214
912.633	14084
912.748	13974
912.862	13951
912.976	13746
913.09	13841
913.204	13693
913.318	13887
913.431	13982
913.545	13947
913.659	13875
913.772	13856
913.886	13761
914	13639
914.113	13879
914.226	13830
914.34	13643
914.453	13548
914.566	13715
914.68	13567
914.793	13616
914.906	13422
915.019	13377
915.132	13247
915.245	13373
915.358	13327
915.47	13400
915.583	13301
915.696	13396
915.809	13491
915.921	13525
916.034	13411
916.146	13244
916.259	13225
916.371	13384
916.483	13240
916.595	13278
916.708	13282
916.82	13213
916.932	13327
917.044	13183
917.156	13297
917.268	13164
917.38	13099
917.491	13091
917.603	13183
917.715	13156
917.826	13171
917.938	12977
918.049	12981
918.161	13088
918.272	13114
918.384	13160
918.495	12981
918.606	12856
918.717	12802
918.828	12852
918.939	12852
919.05	12787
919.161	12798
919.272	12726
919.383	12726
919.494	12856
919.604	13038
919.715	12772
919.826	12726
919.936	12734
920.047	12894
920.157	12802
920.267	13034
920.378	12882
920.488	12741
920.598	12981
920.708	13080
920.818	13008
920.928	12989
921.038	13050
921.148	12977
921.258	12722
921.368	12730
921.477	12654
921.587	12646
921.697	12528
921.806	12635
921.916	12422
922.025	12266
922.134	12194
922.244	12171
922.353	12247
922.462	12060
922.571	12076
922.68	11942
922.789	11874
922.898	11935
923.007	11847
923.116	11927
923.224	11855
923.333	11847
923.442	11775
923.55	11809
923.659	11779
923.767	11783
923.876	11672
923.984	11737
924.092	11649
924.201	11695
924.309	11604
924.417	11676
924.525	11585
924.633	11676
924.741	12380
924.849	11337
924.956	11486
925.064	11391
925.172	11364
925.279	11337
925.387	11425
925.494	11345
925.602	11566
925.709	11490
925.816	11296
925.924	11322
926.031	11398
926.138	11311
926.245	11398
926.352	11318
926.459	11421
926.566	11440
926.673	11322
926.779	11284
926.886	11193
926.993	11014
927.099	10976
927.206	11018
927.312	11052
927.419	11079
927.525	11025
927.631	11064
927.737	11006
927.843	10862
927.95	10717
928.056	10923
928.162	10839
928.267	10908
928.373	11391
928.479	10877
928.585	10717
928.69	10824
928.796	10873
928.901	10752
929.007	10607
929.112	10683
929.218	10656
929.323	10618
929.428	10634
929.533	10729
929.638	10561
929.743	10615
929.848	10596
929.953	10535
930.058	10504
930.163	10417
930.267	10371
930.372	10478
930.477	10284
930.581	10519
930.685	10447
930.79	10242
930.894	10295
930.998	10143
931.103	10341
931.207	10002
931.311	9956
931.415	9724
931.519	9686
931.623	9641
