Data from test_V78500241_1508.txt Node
Date: Fri Mar 25 14:44:12 CST 2022
User: usil
Spectrometer: V785-0024
Trigger mode: 0
Integration Time (sec): 4.000000E-1
Scans to average: 1
Nonlinearity correction enabled: false
Boxcar width: 0
Storing dark spectrum: false
XAxis mode: Wavelengths
Number of Pixels in Spectrum: 1024
>>>>>Begin Spectral Data<<<<<
801.071	22531
801.214	22230
801.356	22070
801.499	21888
801.641	21816
801.783	21789
801.926	21720
802.068	21709
802.211	21591
802.353	21538
802.496	21370
802.638	21283
802.78	21268
802.923	21142
803.065	21135
803.208	21123
803.35	21199
803.492	21332
803.635	21214
803.777	21058
803.919	21058
804.061	21348
804.204	21173
804.346	20956
804.488	21089
804.63	21138
804.773	20944
804.915	21138
805.057	21127
805.199	21001
805.341	21173
805.483	21085
805.626	21131
805.768	20975
805.91	21081
806.052	21142
806.194	20944
806.336	21317
806.478	21036
806.62	21062
806.762	21173
806.904	21154
807.046	21530
807.188	21370
807.33	21332
807.472	21492
807.614	21287
807.756	21340
807.898	21241
808.04	21192
808.182	21119
808.324	21294
808.465	21416
808.607	21488
808.749	21629
808.891	21694
809.033	21804
809.174	21614
809.316	21599
809.458	21561
809.6	21431
809.741	21408
809.883	21511
810.025	21633
810.166	21629
810.308	21698
810.45	21591
810.591	21515
810.733	21454
810.875	21329
811.016	21169
811.158	21104
811.299	21283
811.441	21329
811.582	21405
811.724	21165
811.865	21245
812.007	21184
812.148	21325
812.29	21287
812.431	21367
812.573	21473
812.714	21568
812.855	21625
812.997	21797
813.138	22010
813.279	21854
813.421	21709
813.562	21694
813.703	21450
813.845	21344
813.986	21062
814.127	20937
814.268	20781
814.41	20967
814.551	20807
814.692	20670
814.833	20670
814.974	20716
815.115	20754
815.256	20594
815.397	20598
815.539	20682
815.68	20594
815.821	20488
815.962	20484
816.103	20343
816.244	20400
816.385	20339
816.526	20328
816.666	20043
816.807	19898
816.948	19986
817.089	20054
817.23	19993
817.371	19921
817.512	19898
817.653	19982
817.793	19890
817.934	19936
818.075	19974
818.216	19928
818.356	19864
818.497	19799
818.638	19590
818.778	19518
818.919	19544
819.06	19586
819.2	19628
819.341	19803
819.481	19833
819.622	20012
819.762	20088
819.903	19959
820.043	19944
820.184	19898
820.324	19772
820.465	19887
820.605	19955
820.746	19845
820.886	19674
821.026	19898
821.167	19852
821.307	19769
821.447	19784
821.588	19605
821.728	19586
821.868	19499
822.008	19221
822.149	19324
822.289	19354
822.429	19118
822.569	19012
822.709	18909
822.849	18684
822.99	18707
823.13	18859
823.27	18787
823.41	18650
823.55	18544
823.69	18627
823.83	18559
823.97	18471
824.11	18407
824.25	18300
824.389	18407
824.529	18403
824.669	18342
824.809	18452
824.949	18471
825.089	18467
825.228	18372
825.368	18068
825.508	18182
825.648	18163
825.787	18125
825.927	18140
826.067	18174
826.206	18125
826.346	18045
826.485	18133
826.625	18102
826.765	18304
826.904	18083
827.044	17904
827.183	17878
827.323	17836
827.462	17935
827.601	17805
827.741	17847
827.88	17855
828.02	17756
828.159	17786
828.298	17889
828.437	17794
828.577	17767
828.716	17942
828.855	17703
828.994	17615
829.134	17585
829.273	17646
829.412	17524
829.551	17486
829.69	17452
829.829	17589
829.968	17619
830.107	17615
830.246	17505
830.385	17493
830.524	17452
830.663	17315
830.802	17417
830.941	17170
831.08	17086
831.219	17170
831.357	17197
831.496	17372
831.635	17227
831.774	17121
831.913	17113
832.051	17022
832.19	16873
832.329	16942
832.467	16915
832.606	16930
832.744	16835
832.883	16892
833.022	16824
833.16	16858
833.299	16995
833.437	16873
833.576	16869
833.714	16911
833.852	16972
833.991	17029
834.129	16908
834.267	17029
834.406	16923
834.544	17045
834.682	16904
834.821	16946
834.959	17151
835.097	16866
835.235	17006
835.373	16938
835.511	16965
835.65	16790
835.788	16771
835.926	16733
836.064	16618
836.202	16656
836.34	16858
836.478	16976
836.615	16854
836.753	16843
836.891	16919
837.029	16877
837.167	16805
837.305	16713
837.443	16778
837.58	16637
837.718	16729
837.856	16615
837.993	16755
838.131	16702
838.269	16550
838.406	16611
838.544	16466
838.681	16375
838.819	16303
838.956	16272
839.094	16261
839.231	16150
839.369	16287
839.506	16538
839.643	16474
839.781	16249
839.918	16128
840.055	16314
840.193	16310
840.33	16139
840.467	16219
840.604	16192
840.742	16500
840.879	16086
841.016	16063
841.153	16109
841.29	16234
841.427	16348
841.564	16291
841.701	16261
841.838	16192
841.975	16067
842.112	16101
842.249	16021
842.385	16006
842.522	16101
842.659	16032
842.796	15983
842.933	15987
843.069	16002
843.206	15979
843.343	16048
843.479	16044
843.616	15956
843.752	15778
843.889	15732
844.025	15964
844.162	15709
844.298	15907
844.435	15819
844.571	15800
844.708	15827
844.844	15964
844.98	15888
845.117	15762
845.253	15808
845.389	15686
845.525	15705
845.661	15778
845.798	15648
845.934	15781
846.07	15728
846.206	15930
846.342	15831
846.478	15732
846.614	15534
846.75	15462
846.886	15424
847.022	15424
847.158	15313
847.294	15279
847.429	15447
847.565	15336
847.701	15530
847.837	15036
847.972	15062
848.108	15100
848.244	15055
848.379	14929
848.515	14990
848.65	14880
848.786	15001
848.921	14979
849.057	15024
849.192	14906
849.328	14845
849.463	14948
849.598	14895
849.734	14883
849.869	14746
850.004	14830
850.14	14891
850.275	14796
850.41	14674
850.545	14617
850.68	14659
850.815	14705
850.95	14674
851.085	14906
851.22	14746
851.355	14686
851.49	14610
851.625	14655
851.76	14659
851.895	14621
852.03	14579
852.165	14678
852.299	14640
852.434	14754
852.569	14625
852.703	14731
852.838	14746
852.973	14857
853.107	14777
853.242	14682
853.376	14514
853.511	14446
853.645	14632
853.78	14667
853.914	14541
854.048	14571
854.183	14640
854.317	14651
854.451	14788
854.585	14552
854.72	14457
854.854	14545
854.988	14488
855.122	14602
855.256	14450
855.39	14575
855.524	14613
855.658	14651
855.792	14560
855.926	14636
856.06	14594
856.194	14621
856.327	14503
856.461	14377
856.595	14560
856.729	14583
856.862	14724
856.996	14541
857.13	14602
857.263	14720
857.397	14746
857.53	14587
857.664	14731
857.797	14758
857.931	14606
858.064	14579
858.197	14697
858.331	14610
858.464	14545
858.597	14480
858.731	14579
858.864	14537
858.997	14617
859.13	14613
859.263	14552
859.396	14670
859.529	14571
859.662	14556
859.795	14495
859.928	14587
860.061	14678
860.194	14663
860.327	14655
860.46	14648
860.592	14682
860.725	14686
860.858	14720
860.99	14503
861.123	14503
861.256	14594
861.388	14598
861.521	15161
861.653	14400
861.786	14358
861.918	14415
862.05	14465
862.183	14568
862.315	14636
862.447	14644
862.58	14495
862.712	14324
862.844	14309
862.976	14366
863.108	14415
863.24	14701
863.372	14225
863.504	14374
863.636	14336
863.768	14324
863.9	14259
864.032	14290
864.164	14305
864.296	14400
864.428	14423
864.559	14450
864.691	14533
864.823	14355
864.954	14434
865.086	14377
865.217	14298
865.349	14199
865.48	14244
865.612	14377
865.743	14480
865.875	14351
866.006	14370
866.137	14309
866.269	14396
866.4	14362
866.531	14248
866.662	14187
866.793	14191
866.924	14317
867.055	14282
867.186	14332
867.317	14343
867.448	14237
867.579	14309
867.71	14233
867.841	14199
867.972	14343
868.103	14313
868.233	14374
868.364	14389
868.495	14343
868.625	14488
868.756	14651
868.886	14514
869.017	14629
869.147	14590
869.278	14670
869.408	14598
869.539	14575
869.669	14640
869.799	14564
869.929	14758
870.06	14590
870.19	14826
870.32	14861
870.45	14899
870.58	15028
870.71	15028
870.84	15127
870.97	14918
871.1	14902
871.23	15165
871.36	15077
871.489	15135
871.619	15154
871.749	15154
871.879	15275
872.008	15272
872.138	15024
872.267	15108
872.397	14941
872.526	15005
872.656	14906
872.785	15028
872.915	15108
873.044	15294
873.173	15249
873.303	15359
873.432	15150
873.561	15302
873.69	15203
873.819	15260
873.948	15287
874.077	15150
874.206	15104
874.335	15214
874.464	15389
874.593	15564
874.722	15477
874.851	15515
874.979	15606
875.108	15637
875.237	15553
875.365	15424
875.494	15439
875.623	15595
875.751	15515
875.88	15549
876.008	15568
876.136	15747
876.265	15911
876.393	16048
876.521	16021
876.65	15979
876.778	15968
876.906	15895
877.034	15816
877.162	15895
877.29	15797
877.418	15911
877.546	15972
877.674	15835
877.802	15869
877.93	15994
878.058	15903
878.185	15747
878.313	15895
878.441	16006
878.568	15789
878.696	15975
878.824	15865
878.951	16051
879.079	16105
879.206	16242
879.333	16272
879.461	16078
879.588	16196
879.715	16249
879.842	16318
879.97	16154
880.097	15865
880.224	15797
880.351	15857
880.478	15873
880.605	15800
880.732	15781
880.859	16040
880.986	15842
881.112	15797
881.239	15736
881.366	15477
881.493	15530
881.619	15393
881.746	15515
881.872	15428
881.999	15279
882.125	15412
882.252	15538
882.378	15481
882.505	15568
882.631	15321
882.757	15321
882.883	15355
883.01	15321
883.136	15306
883.262	15089
883.388	15116
883.514	15287
883.64	15367
883.766	15192
883.892	15051
884.018	15085
884.143	15287
884.269	15287
884.395	14998
884.52	15036
884.646	14963
884.772	14956
884.897	14838
885.023	15028
885.148	15154
885.274	15005
885.399	15055
885.524	14990
885.65	14902
885.775	15005
885.9	14971
886.025	15123
886.15	15077
886.275	14998
886.4	14800
886.525	14982
886.65	14914
886.775	14902
886.9	15043
887.025	15211
887.149	14880
887.274	14826
887.399	14674
887.523	14705
887.648	14712
887.773	14716
887.897	14811
888.021	14838
888.146	14807
888.27	14933
888.395	14872
888.519	14868
888.643	14891
888.767	14838
888.891	14686
889.015	14613
889.139	14644
889.263	14663
889.387	14800
889.511	14834
889.635	14785
889.759	14644
889.883	14556
890.006	14644
890.13	14693
890.254	14579
890.377	14636
890.501	14480
890.624	14412
890.748	14484
890.871	14396
890.995	14271
891.118	14259
891.241	14412
891.364	14221
891.488	14419
891.611	14317
891.734	14446
891.857	14434
891.98	14374
892.103	14503
892.226	14469
892.349	14313
892.471	14187
892.594	14317
892.717	14427
892.839	14282
892.962	14317
893.085	14381
893.207	14381
893.33	14313
893.452	14225
893.575	14427
893.697	14332
893.819	14412
893.941	14514
894.064	14450
894.186	14385
894.308	14347
894.43	14533
894.552	14571
894.674	14450
894.796	14351
894.918	14343
895.04	14454
895.161	14492
895.283	14484
895.405	14396
895.526	14358
895.648	14396
895.769	14442
895.891	14427
896.012	14571
896.134	14518
896.255	14404
896.376	14476
896.498	14461
896.619	14568
896.74	14514
896.861	14610
896.982	14895
897.103	14944
897.224	14762
897.345	14796
897.466	14644
897.587	14716
897.708	14925
897.828	14769
897.949	14682
898.07	14648
898.19	14743
898.311	14902
898.431	14845
898.552	14807
898.672	14857
898.792	15005
898.913	14826
899.033	14777
899.153	14621
899.273	14655
899.393	14644
899.513	14686
899.633	14697
899.753	14788
899.873	14648
899.993	14800
900.113	14640
900.232	14724
900.352	14682
900.472	14678
900.591	14492
900.711	14537
900.83	14533
900.95	14636
901.069	14651
901.189	14434
901.308	14202
901.427	14229
901.546	14256
901.665	14320
901.784	14248
901.904	14134
902.023	13993
902.141	13837
902.26	13837
902.379	13871
902.498	13837
902.617	13715
902.735	13841
902.854	13784
902.973	13723
903.091	13544
903.21	13521
903.328	13590
903.446	13453
903.565	13396
903.683	13362
903.801	13266
903.919	13384
904.038	13247
904.156	13183
904.274	13247
904.392	13129
904.51	13194
904.627	13179
904.745	13240
904.863	13297
904.981	12962
905.098	12798
905.216	12844
905.334	12920
905.451	12856
905.569	12848
905.686	12882
905.803	12844
905.921	12639
906.038	12829
906.155	12734
906.272	12582
906.389	12601
906.506	12471
906.623	12486
906.74	12448
906.857	12357
906.974	12422
907.091	12490
907.208	12566
907.324	12418
907.441	12338
907.557	12220
907.674	12209
907.79	12144
907.907	12079
908.023	12235
908.139	12254
908.256	12182
908.372	12106
908.488	12095
908.604	11992
908.72	11958
908.836	11961
908.952	11889
909.068	11965
909.184	12072
909.3	11870
909.415	12091
909.531	12049
909.647	11756
909.762	11771
909.878	11657
909.993	11832
910.108	11680
910.224	11680
910.339	11752
910.454	11619
910.57	11577
910.685	11524
910.8	11764
910.915	11627
911.03	11608
911.145	11463
911.259	11474
911.374	11410
911.489	11433
911.604	11345
911.718	11204
911.833	11269
911.947	11048
912.062	11033
912.176	11132
912.291	11208
912.405	11098
912.519	11322
912.633	11410
912.748	11227
912.862	11197
912.976	11029
913.09	10995
913.204	10972
913.318	11048
913.431	11102
913.545	11048
913.659	11162
913.772	11113
913.886	10934
914	10858
914.113	10968
914.226	11045
914.34	11037
914.453	10790
914.566	10968
914.68	10911
914.793	10797
914.906	10721
915.019	10603
915.132	10573
915.245	10706
915.358	10679
915.47	10664
915.583	10733
915.696	10702
915.809	10812
915.921	10729
916.034	10565
916.146	10561
916.259	10694
916.371	10668
916.483	10733
916.595	10630
916.708	10637
916.82	10542
916.932	10531
917.044	10577
917.156	10519
917.268	10527
917.38	10512
917.491	10462
917.603	10485
917.715	10538
917.826	10626
917.938	10379
918.049	10348
918.161	10497
918.272	10634
918.384	10542
918.495	10500
918.606	10371
918.717	10318
918.828	10398
918.939	10375
919.05	10284
919.161	10337
919.272	10211
919.383	10223
919.494	10413
919.604	10584
919.715	10466
919.826	10268
919.936	10409
920.047	10455
920.157	10443
920.267	10584
920.378	10489
920.488	10360
920.598	10622
920.708	10763
920.818	10588
920.928	10596
921.038	10759
921.148	10702
921.258	10474
921.368	10299
921.477	10234
921.587	10223
921.697	10105
921.806	10253
921.916	10158
922.025	9972
922.134	9934
922.244	9994
922.353	10040
922.462	9857
922.571	9778
922.68	9660
922.789	9580
922.898	9618
923.007	9713
923.116	9720
923.224	9625
923.333	9610
923.442	9580
923.55	9485
923.659	9542
923.767	9595
923.876	9469
923.984	9580
924.092	9488
924.201	9500
924.309	9507
924.417	9549
924.525	9526
924.633	9538
924.741	10409
924.849	9283
924.956	9477
925.064	9283
925.172	9222
925.279	9306
925.387	9321
925.494	9340
925.602	9519
925.709	9416
925.816	9317
925.924	9321
926.031	9378
926.138	9405
926.245	9351
926.352	9161
926.459	9329
926.566	9367
926.673	9332
926.779	9203
926.886	9195
926.993	9043
927.099	9017
927.206	9032
927.312	8944
927.419	9112
927.525	9055
927.631	9066
927.737	8891
927.843	8845
927.95	8769
928.056	8941
928.162	8880
928.267	8986
928.373	9507
928.479	9009
928.585	8777
928.69	8910
928.796	8880
928.901	8887
929.007	8682
929.112	8880
929.218	8849
929.323	8750
929.428	8712
929.533	8891
929.638	8667
929.743	8708
929.848	8819
929.953	8697
930.058	8613
930.163	8552
930.267	8499
930.372	8705
930.477	8461
930.581	8693
930.685	8518
930.79	8454
930.894	8511
930.998	8438
931.103	8590
931.207	8240
931.311	8229
931.415	8115
931.519	8016
931.623	7917
