Data from test_V78500241_199.txt Node
Date: Fri Mar 25 14:35:06 CST 2022
User: usil
Spectrometer: V785-0024
Trigger mode: 0
Integration Time (sec): 4.000000E-1
Scans to average: 1
Nonlinearity correction enabled: false
Boxcar width: 0
Storing dark spectrum: false
XAxis mode: Wavelengths
Number of Pixels in Spectrum: 1024
>>>>>Begin Spectral Data<<<<<
801.071	28234
801.214	28215
801.356	27793
801.499	27800
801.641	27534
801.783	27580
801.926	27458
802.068	27641
802.211	27450
802.353	27264
802.496	27260
802.638	27138
802.78	27142
802.923	27104
803.065	26975
803.208	27047
803.35	27184
803.492	27123
803.635	27264
803.777	27043
803.919	27260
804.061	27412
804.204	27176
804.346	27077
804.488	26967
804.63	26979
804.773	26963
804.915	27081
805.057	27176
805.199	27051
805.341	26979
805.483	27138
805.626	27047
805.768	27066
805.91	27131
806.052	27169
806.194	27089
806.336	27287
806.478	27180
806.62	27283
806.762	27252
806.904	27427
807.046	27743
807.188	27644
807.33	27648
807.472	27827
807.614	27603
807.756	27488
807.898	27606
808.04	27599
808.182	27705
808.324	27846
808.465	27816
808.607	28051
808.749	28417
808.891	28687
809.033	28626
809.174	28497
809.316	28238
809.458	28295
809.6	28192
809.741	28036
809.883	27873
810.025	28063
810.166	28112
810.308	27911
810.45	28029
810.591	27857
810.733	27736
810.875	27618
811.016	27473
811.158	27378
811.299	27530
811.441	27542
811.582	27633
811.724	27526
811.865	27488
812.007	27454
812.148	27545
812.29	27618
812.431	27679
812.573	27838
812.714	27842
812.855	28055
812.997	28162
813.138	28067
813.279	28265
813.421	27918
813.562	27808
813.703	27698
813.845	27641
813.986	27435
814.127	27173
814.268	27062
814.41	27024
814.551	26990
814.692	27329
814.833	27020
814.974	27009
815.115	27013
815.256	26986
815.397	26853
815.539	26811
815.68	26785
815.821	26670
815.962	26708
816.103	26648
816.244	26655
816.385	26442
816.526	26545
816.666	26381
816.807	26202
816.948	26244
817.089	26374
817.23	26092
817.371	26278
817.512	26119
817.653	26100
817.793	26065
817.934	26164
818.075	26206
818.216	26153
818.356	25909
818.497	25970
818.638	25830
818.778	25898
818.919	25947
819.06	25868
819.2	25917
819.341	26122
819.481	26001
819.622	26134
819.762	26290
819.903	26271
820.043	26153
820.184	26119
820.324	26138
820.465	26103
820.605	26008
820.746	26073
820.886	25989
821.026	25997
821.167	25974
821.307	26180
821.447	26027
821.588	25913
821.728	25681
821.868	25708
822.008	25479
822.149	25335
822.289	25297
822.429	25133
822.569	25103
822.709	25061
822.849	25000
822.99	24852
823.13	24916
823.27	24829
823.41	24722
823.55	24627
823.69	24821
823.83	24665
823.97	24684
824.11	24433
824.25	24452
824.389	24593
824.529	24631
824.669	24437
824.809	24578
824.949	24544
825.089	24559
825.228	24391
825.368	24350
825.508	24300
825.648	24350
825.787	24342
825.927	24350
826.067	24258
826.206	24060
826.346	24304
826.485	24372
826.625	24167
826.765	24350
826.904	24311
827.044	24053
827.183	24030
827.323	23885
827.462	23851
827.601	24041
827.741	23843
827.88	23965
828.02	23817
828.159	23939
828.298	23893
828.437	23756
828.577	23847
828.716	23904
828.855	23923
828.994	23737
829.134	23623
829.273	23668
829.412	23531
829.551	23551
829.69	23474
829.829	23570
829.968	23638
830.107	23646
830.246	23585
830.385	23497
830.524	23490
830.663	23376
830.802	23360
830.941	23189
831.08	23056
831.219	23200
831.357	23162
831.496	23318
831.635	23181
831.774	23033
831.913	23121
832.051	22869
832.19	22911
832.329	22850
832.467	22759
832.606	22877
832.744	22767
832.883	22733
833.022	22782
833.16	22790
833.299	23014
833.437	22854
833.576	22858
833.714	22801
833.852	22904
833.991	22858
834.129	22908
834.267	22877
834.406	22850
834.544	22930
834.682	22790
834.821	22759
834.959	23018
835.097	22717
835.235	22790
835.373	22790
835.511	22797
835.65	22588
835.788	22725
835.926	22428
836.064	22409
836.202	22531
836.34	22550
836.478	22618
836.615	22603
836.753	22565
836.891	22626
837.029	22615
837.167	22542
837.305	22451
837.443	22447
837.58	22516
837.718	22546
837.856	22504
837.993	22360
838.131	22329
838.269	22348
838.406	22367
838.544	22219
838.681	22116
838.819	21972
838.956	21869
839.094	21888
839.231	21922
839.369	22082
839.506	22158
839.643	22101
839.781	21846
839.918	21816
840.055	21774
840.193	21785
840.33	21743
840.467	21823
840.604	21701
840.742	22067
840.879	21660
841.016	21732
841.153	21614
841.29	21705
841.427	21656
841.564	21736
841.701	21785
841.838	21656
841.975	21644
842.112	21641
842.249	21507
842.385	21485
842.522	21701
842.659	21507
842.796	21447
842.933	21599
843.069	21370
843.206	21545
843.343	21458
843.479	21408
843.616	21542
843.752	21260
843.889	21192
844.025	21313
844.162	21195
844.298	21310
844.435	21313
844.571	21142
844.708	21268
844.844	21363
844.98	21382
845.117	21401
845.253	21313
845.389	21252
845.525	21348
845.661	21679
845.798	21774
845.934	21941
846.07	22010
846.206	22067
846.342	21937
846.478	21629
846.614	21218
846.75	20834
846.886	20830
847.022	20800
847.158	20807
847.294	20659
847.429	20788
847.565	20670
847.701	20948
847.837	20286
847.972	20263
848.108	20336
848.244	20454
848.379	20301
848.515	20271
848.65	20115
848.786	20088
848.921	20248
849.057	20290
849.192	20355
849.328	20218
849.463	20161
849.598	20164
849.734	20065
849.869	20069
850.004	19936
850.14	19925
850.275	19913
850.41	19871
850.545	19871
850.68	19951
850.815	20043
850.95	19932
851.085	20183
851.22	19917
851.355	19970
851.49	19791
851.625	19852
851.76	19738
851.895	19788
852.03	19765
852.165	19883
852.299	19951
852.434	19978
852.569	19951
852.703	19970
852.838	19986
852.973	20050
853.107	19917
853.242	19879
853.376	19738
853.511	19567
853.645	19875
853.78	19837
853.914	19727
854.048	19719
854.183	19632
854.317	19818
854.451	19967
854.585	19791
854.72	19731
854.854	19791
854.988	19613
855.122	19791
855.256	19578
855.39	19666
855.524	19689
855.658	19822
855.792	19746
855.926	19765
856.06	19738
856.194	19765
856.327	19799
856.461	19632
856.595	19677
856.729	19662
856.862	19708
856.996	19769
857.13	19632
857.263	19830
857.397	19757
857.53	19681
857.664	19807
857.797	19769
857.931	19826
858.064	19647
858.197	19769
858.331	19590
858.464	19624
858.597	19575
858.731	19708
858.864	19609
858.997	19662
859.13	19738
859.263	19605
859.396	19727
859.529	19689
859.662	19578
859.795	19578
859.928	19674
860.061	19753
860.194	19845
860.327	19674
860.46	19499
860.592	19731
860.725	19795
860.858	19769
860.99	19559
861.123	19624
861.256	19495
861.388	19476
861.521	20195
861.653	19601
861.786	19441
861.918	19483
862.05	19635
862.183	19624
862.315	19628
862.447	19651
862.58	19529
862.712	19392
862.844	19430
862.976	19411
863.108	19445
863.24	19677
863.372	19324
863.504	19358
863.636	19312
863.768	19407
863.9	19304
864.032	19228
864.164	19240
864.296	19419
864.428	19434
864.559	19308
864.691	19350
864.823	19308
864.954	19301
865.086	19335
865.217	19244
865.349	19148
865.48	19221
865.612	19221
865.743	19308
865.875	19369
866.006	19225
866.137	19259
866.269	19285
866.4	19228
866.531	19152
866.662	19187
866.793	19213
866.924	19171
867.055	19244
867.186	19194
867.317	19095
867.448	19126
867.579	19168
867.71	19175
867.841	19099
867.972	19236
868.103	19213
868.233	19160
868.364	19110
868.495	19270
868.625	19339
868.756	19480
868.886	19301
869.017	19556
869.147	19502
869.278	19529
869.408	19434
869.539	19480
869.669	19457
869.799	19373
869.929	19483
870.06	19502
870.19	19639
870.32	19670
870.45	19712
870.58	19841
870.71	19978
870.84	19852
870.97	19864
871.1	19868
871.23	19947
871.36	20092
871.489	19864
871.619	19951
871.749	19864
871.879	20027
872.008	20096
872.138	20035
872.267	19993
872.397	19856
872.526	19833
872.656	19826
872.785	19693
872.915	19940
873.044	20096
873.173	20138
873.303	20058
873.432	20100
873.561	20062
873.69	20115
873.819	19993
873.948	20065
874.077	20088
874.206	19967
874.335	20001
874.464	20202
874.593	20317
874.722	20225
874.851	20385
874.979	20366
875.108	20404
875.237	20187
875.365	20195
875.494	20229
875.623	20522
875.751	20199
875.88	20476
876.008	20594
876.136	20579
876.265	20735
876.393	20842
876.521	20735
876.65	20777
876.778	20769
876.906	20765
877.034	20697
877.162	20750
877.29	20735
877.418	20678
877.546	20712
877.674	20629
877.802	20632
877.93	20735
878.058	20648
878.185	20617
878.313	20659
878.441	20708
878.568	20594
878.696	20754
878.824	20819
878.951	20963
879.079	21173
879.206	21359
879.333	21218
879.461	21173
879.588	21275
879.715	21401
879.842	21500
879.97	21233
880.097	20788
880.224	20826
880.351	20762
880.478	20746
880.605	20735
880.732	20762
880.859	20960
880.986	20716
881.112	20613
881.239	20598
881.366	20492
881.493	20423
881.619	20336
881.746	20267
881.872	20358
881.999	20210
882.125	20122
882.252	20347
882.378	20294
882.505	20419
882.631	20168
882.757	20210
882.883	20138
883.01	20016
883.136	19913
883.262	19826
883.388	19822
883.514	20027
883.64	19986
883.766	19986
883.892	19818
884.018	19757
884.143	19982
884.269	20092
884.395	19864
884.52	19784
884.646	19677
884.772	19582
884.897	19559
885.023	19628
885.148	19651
885.274	19776
885.399	19772
885.524	19677
885.65	19818
885.775	19715
885.9	19704
886.025	19643
886.15	19693
886.275	19639
886.4	19476
886.525	19548
886.65	19514
886.775	19381
886.9	19750
887.025	19658
887.149	19525
887.274	19350
887.399	19365
887.523	19316
887.648	19278
887.773	19217
887.897	19426
888.021	19358
888.146	19263
888.27	19426
888.395	19457
888.519	19388
888.643	19354
888.767	19346
888.891	19152
889.015	19015
889.139	19194
889.263	19156
889.387	19175
889.511	19297
889.635	19308
889.759	19080
889.883	19095
890.006	19019
890.13	19148
890.254	18966
890.377	19012
890.501	18901
890.624	18821
890.748	18932
890.871	18814
890.995	18673
891.118	18696
891.241	18719
891.364	18795
891.488	18894
891.611	18684
891.734	18715
891.857	18684
891.98	18787
892.103	18715
892.226	18753
892.349	18589
892.471	18467
892.594	18547
892.717	18635
892.839	18661
892.962	18639
893.085	18719
893.207	18593
893.33	18559
893.452	18612
893.575	18642
893.697	18498
893.819	18814
893.941	18947
894.064	18757
894.186	18608
894.308	18547
894.43	18665
894.552	18631
894.674	18779
894.796	18460
894.918	18684
895.04	18642
895.161	18719
895.283	18700
895.405	18608
895.526	18578
895.648	18642
895.769	18730
895.891	18692
896.012	18810
896.134	18745
896.255	18673
896.376	18646
896.498	18612
896.619	18859
896.74	18620
896.861	18776
896.982	19053
897.103	19152
897.224	18928
897.345	18973
897.466	18867
897.587	18905
897.708	18989
897.828	18932
897.949	19004
898.07	18791
898.19	18939
898.311	18920
898.431	18951
898.552	18871
898.672	18951
898.792	18989
898.913	18947
899.033	18669
899.153	18726
899.273	18703
899.393	18722
899.513	18692
899.633	18570
899.753	18684
899.873	18635
899.993	18722
900.113	18616
900.232	18722
900.352	18627
900.472	18445
900.591	18559
900.711	18456
900.83	18467
900.95	18597
901.069	18635
901.189	18361
901.308	18311
901.427	18038
901.546	18030
901.665	18091
901.784	18159
901.904	18026
902.023	17889
902.141	17752
902.26	17585
902.379	17760
902.498	17600
902.617	17554
902.735	17570
902.854	17551
902.973	17486
903.091	17265
903.21	17220
903.328	17239
903.446	17296
903.565	17079
903.683	17185
903.801	16972
903.919	17045
904.038	16991
904.156	16854
904.274	16953
904.392	16748
904.51	16869
904.627	16786
904.745	16835
904.863	16946
904.981	16687
905.098	16565
905.216	16519
905.334	16485
905.451	16447
905.569	16538
905.686	16428
905.803	16344
905.921	16261
906.038	16375
906.155	16382
906.272	16173
906.389	16154
906.506	16044
906.623	16124
906.74	16029
906.857	15880
906.974	15892
907.091	16082
907.208	16120
907.324	16139
907.441	15994
907.557	15720
907.674	15766
907.79	15629
907.907	15667
908.023	15736
908.139	15713
908.256	15644
908.372	15530
908.488	15530
908.604	15454
908.72	15401
908.836	15439
908.952	15302
909.068	15370
909.184	15485
909.3	15302
909.415	15458
909.531	15298
909.647	15180
909.762	15112
909.878	15055
909.993	15058
910.108	15116
910.224	14986
910.339	15077
910.454	14925
910.57	14868
910.685	14861
910.8	15112
910.915	15036
911.03	14872
911.145	14838
911.259	14727
911.374	14712
911.489	14621
911.604	14663
911.718	14450
911.833	14450
911.947	14320
912.062	14355
912.176	14381
912.291	14419
912.405	14492
912.519	14568
912.633	14655
912.748	14427
912.862	14400
912.976	14267
913.09	14084
913.204	14271
913.318	14180
913.431	14355
913.545	14320
913.659	14389
913.772	14168
913.886	14180
914	14100
914.113	14191
914.226	14180
914.34	14149
914.453	13989
914.566	14145
914.68	14012
914.793	13959
914.906	13791
915.019	13685
915.132	13708
915.245	13788
915.358	13712
915.47	13765
915.583	13746
915.696	13750
915.809	13795
915.921	13864
916.034	13594
916.146	13594
916.259	13609
916.371	13719
916.483	13670
916.595	13613
916.708	13575
916.82	13624
916.932	13613
917.044	13594
917.156	13594
917.268	13335
917.38	13453
917.491	13434
917.603	13430
917.715	13556
917.826	13609
917.938	13392
918.049	13316
918.161	13426
918.272	13571
918.384	13502
918.495	13350
918.606	13247
918.717	13228
918.828	13247
918.939	13228
919.05	13164
919.161	13194
919.272	12977
919.383	13012
919.494	13183
919.604	13358
919.715	13251
919.826	13114
919.936	13168
920.047	13251
920.157	13164
920.267	13365
920.378	13103
920.488	13190
920.598	13411
920.708	13392
920.818	13274
920.928	13354
921.038	13324
921.148	13445
921.258	13213
921.368	13076
921.477	12916
921.587	12928
921.697	12848
921.806	12935
921.916	12749
922.025	12578
922.134	12639
922.244	12555
922.353	12604
922.462	12513
922.571	12452
922.68	12258
922.789	12205
922.898	12197
923.007	12167
923.116	12277
923.224	12277
923.333	12201
923.442	12041
923.55	11980
923.659	12114
923.767	12117
923.876	12053
923.984	12079
924.092	11958
924.201	12060
924.309	11977
924.417	12019
924.525	11897
924.633	11954
924.741	12863
924.849	11756
924.956	11977
925.064	11733
925.172	11752
925.279	11653
925.387	11817
925.494	11790
925.602	11836
925.709	11779
925.816	11764
925.924	11668
926.031	11688
926.138	11733
926.245	11737
926.352	11661
926.459	11680
926.566	11714
926.673	11627
926.779	11543
926.886	11551
926.993	11353
927.099	11402
927.206	11296
927.312	11349
927.419	11406
927.525	11296
927.631	11296
927.737	11292
927.843	11181
927.95	11029
928.056	11136
928.162	11174
928.267	11258
928.373	11817
928.479	11250
928.585	11109
928.69	11117
928.796	11239
928.901	11086
929.007	10923
929.112	11064
929.218	11037
929.323	11006
929.428	10953
929.533	10984
929.638	10877
929.743	10847
929.848	10904
929.953	10873
930.058	10801
930.163	10565
930.267	10691
930.372	10786
930.477	10653
930.581	10824
930.685	10679
930.79	10569
930.894	10531
930.998	10466
931.103	10698
931.207	10249
931.311	10188
931.415	10177
931.519	10013
931.623	9941
